Wavelength	spectrum00004.asd
350	 7.25847504828985E-02 
351	 7.54553454000359E-02 
352	 7.34616172007053E-02 
353	 6.67619366029656E-02 
354	 6.91342997645436E-02 
355	 6.77856623013468E-02 
356	 6.49422740245585E-02 
357	 6.38282867824363E-02 
358	 6.01647968840428E-02 
359	 6.11295793413012E-02 
360	 6.32732256142091E-02 
361	 5.92974665326732E-02 
362	 5.65498965730029E-02 
363	 0.055636550837437 
364	 5.54088738319364E-02 
365	 5.33946269165906E-02 
366	 5.26251704745633E-02 
367	 5.37643641992535E-02 
368	 0.055877794588039 
369	 5.53281115231846E-02 
370	 5.24588989881162E-02 
371	 5.03681902142549E-02 
372	 5.27091360390329E-02 
373	 5.33501446674051E-02 
374	 5.16573641187686E-02 
375	 4.94616935424494E-02 
376	 5.10821028508303E-02 
377	 5.16348280171164E-02 
378	 5.15447510498702E-02 
379	 5.18317868895098E-02 
380	 0.050268199755247 
381	 5.01375207372979E-02 
382	 0.050338941037507 
383	 4.77646199567089E-02 
384	 4.77721655595771E-02 
385	 4.79457650017716E-02 
386	 4.70302420586708E-02 
387	 4.68718361851628E-02 
388	 4.76432658143284E-02 
389	 4.86247837530171E-02 
390	 4.87130893066309E-02 
391	 4.62212396140329E-02 
392	 4.55333853441173E-02 
393	 0.046423990832096 
394	 4.57853545456877E-02 
395	 4.56169943587546E-02 
396	 4.56824099924695E-02 
397	 4.54994508363956E-02 
398	 4.45775642889977E-02 
399	 4.42553619170288E-02 
400	 4.42624135096653E-02 
401	 4.40042137264154E-02 
402	 0.043754347580842 
403	 4.34604618780359E-02 
404	 4.29452213518142E-02 
405	 4.20674191512797E-02 
406	 0.042461880577097 
407	 4.28467357476111E-02 
408	 4.24107354580449E-02 
409	 4.20485272365685E-02 
410	 4.14546897767055E-02 
411	 4.10040119974805E-02 
412	 4.11033857099535E-02 
413	 4.13475623223463E-02 
414	 4.13655023384214E-02 
415	 4.11258207241729E-02 
416	 4.08826161584933E-02 
417	 4.04079801347339E-02 
418	 4.00185043892414E-02 
419	 3.99549292584718E-02 
420	 4.02230514296923E-02 
421	 3.95176862091586E-02 
422	 3.87739362470886E-02 
423	 3.93928518504977E-02 
424	 3.93064371058556E-02 
425	 3.93805136101936E-02 
426	 3.95703209258529E-02 
427	 3.85747070473582E-02 
428	 3.85764469784762E-02 
429	 3.88533579518088E-02 
430	 3.85428682553766E-02 
431	 3.84378639160866E-02 
432	 3.80346304263516E-02 
433	 0.037684262727006 
434	 3.80362247097844E-02 
435	 3.78366887148406E-02 
436	 3.77181443807517E-02 
437	 3.79701746755162E-02 
438	 3.80464925684762E-02 
439	 3.78022775716696E-02 
440	 3.75707535557266E-02 
441	 0.037648354647149 
442	 3.75172261386054E-02 
443	 0.037324424804142 
444	 3.72252123426755E-02 
445	 0.037327711035737 
446	 3.71521215261364E-02 
447	 3.70832155903622E-02 
448	 3.73102925031289E-02 
449	 0.037303128800572 
450	 0.037149505290684 
451	 3.70490585814488E-02 
452	 3.71836353476474E-02 
453	 3.72776323300218E-02 
454	 3.71439390243309E-02 
455	 3.69182663293003E-02 
456	 0.03706561404167 
457	 3.72195221377576E-02 
458	 3.71787586405351E-02 
459	 3.69112909675365E-02 
460	 3.67185081785141E-02 
461	 0.036761986955941 
462	 3.69060589095477E-02 
463	 3.68847088399463E-02 
464	 3.69941583646509E-02 
465	 3.69391888864488E-02 
466	 3.66993763082128E-02 
467	 3.67774026358967E-02 
468	 3.67207193119554E-02 
469	 3.65702773863844E-02 
470	 3.64971759109313E-02 
471	 3.65817429397925E-02 
472	 3.66497047962761E-02 
473	 3.66276008687674E-02 
474	 3.65464312254467E-02 
475	 3.66080328257231E-02 
476	 3.66794613564222E-02 
477	 3.66664042852278E-02 
478	 3.66908411639831E-02 
479	 0.036664521520862 
480	 3.66049217218696E-02 
481	 3.65712628069324E-02 
482	 3.66054184756905E-02 
483	 3.66221409207875E-02 
484	 3.66299618777265E-02 
485	 3.67501645832379E-02 
486	 3.65602775751675E-02 
487	 0.036407620256286 
488	 0.036603248875758 
489	 3.68261393809892E-02 
490	 3.67148537910255E-02 
491	 3.64914851162776E-02 
492	 0.036643551783986 
493	 0.036482852570352 
494	 3.66085145043472E-02 
495	 3.71009260044018E-02 
496	 3.69278440799529E-02 
497	 3.68078446887762E-02 
498	 3.67519698776151E-02 
499	 3.66385885225559E-02 
500	 3.67577074805684E-02 
501	 3.68478860013596E-02 
502	 3.68524259770614E-02 
503	 3.69096984870107E-02 
504	 3.69363109997874E-02 
505	 3.69330046357186E-02 
506	 3.69498635924486E-02 
507	 3.71427477807388E-02 
508	 3.72171314824754E-02 
509	 3.72256292051029E-02 
510	 3.73403235887869E-02 
511	 3.73812538674906E-02 
512	 3.72896604457146E-02 
513	 0.037162098839476 
514	 3.72747505700146E-02 
515	 3.73998058660577E-02 
516	 3.74799780060121E-02 
517	 3.74992024661533E-02 
518	 3.74009306043789E-02 
519	 3.74129271450942E-02 
520	 0.037532885715953 
521	 3.76002778267351E-02 
522	 3.76677954994789E-02 
523	 3.77039581518202E-02 
524	 3.77082203877062E-02 
525	 3.77622115015504E-02 
526	 3.77983554699985E-02 
527	 3.77999536465964E-02 
528	 3.78003334246161E-02 
529	 3.80149488632352E-02 
530	 3.81135702711794E-02 
531	 0.038084041972034 
532	 3.82743093733512E-02 
533	 3.84183923780299E-02 
534	 3.84790572517106E-02 
535	 3.85140471784533E-02 
536	 3.87215457868132E-02 
537	 3.88315554555921E-02 
538	 3.88484857111383E-02 
539	 3.89317627321981E-02 
540	 3.91094918397418E-02 
541	 3.92482945289142E-02 
542	 0.039313813506983 
543	 3.94600639548308E-02 
544	 3.96144794429011E-02 
545	 3.97720860666673E-02 
546	 3.99416125752706E-02 
547	 4.01050391338156E-02 
548	 4.03103755375312E-02 
549	 4.05423632414131E-02 
550	 4.07357420798466E-02 
551	 0.041044348568162 
552	 4.13515626987135E-02 
553	 4.15652776052455E-02 
554	 4.17684940382479E-02 
555	 4.20144636589992E-02 
556	 4.23375386662458E-02 
557	 4.27391101247786E-02 
558	 0.043092176326042 
559	 4.34583980474892E-02 
560	 4.39050857183111E-02 
561	 4.44829178108871E-02 
562	 4.50154087444744E-02 
563	 4.55467716021355E-02 
564	 4.61358452754171E-02 
565	 4.66323222071513E-02 
566	 4.72025672490385E-02 
567	 4.78839820490875E-02 
568	 4.86193588323311E-02 
569	 4.94900880122434E-02 
570	 5.05715532621334E-02 
571	 5.18597703524103E-02 
572	 5.31940578408518E-02 
573	 5.46902650552191E-02 
574	 5.63027167948822E-02 
575	 5.79140665028973E-02 
576	 5.93463258143881E-02 
577	 6.06545054730776E-02 
578	 6.19804458025877E-02 
579	 6.35342216224168E-02 
580	 6.53031918279616E-02 
581	 6.73481173642403E-02 
582	 6.97161360630102E-02 
583	 7.23737302035211E-02 
584	 7.52472329610833E-02 
585	 7.83198844820933E-02 
586	 8.16355589358001E-02 
587	 8.52273122270806E-02 
588	 8.90765547273047E-02 
589	 9.31877376277555E-02 
590	 0.097557973640827 
591	 0.10249177190642 
592	 0.107804089248459 
593	 0.113186570691114 
594	 0.118620943093386 
595	 0.124086448293824 
596	 0.129526232969624 
597	 0.134840352412519 
598	 0.140294432634031 
599	 0.146242857524549 
600	 0.152882989561366 
601	 0.159957165594549 
602	 0.167295085599591 
603	 0.174903883696586 
604	 0.182832714313057 
605	 0.190774836296082 
606	 0.198557076625462 
607	 0.206150703273272 
608	 0.213675203808968 
609	 0.220947777676851 
610	 0.228019462542951 
611	 0.234991886460288 
612	 0.241826155075267 
613	 0.248397571008784 
614	 0.254671552046919 
615	 0.260706786895897 
616	 0.266443608058526 
617	 0.27188564017399 
618	 0.277040912077753 
619	 0.281938883583097 
620	 0.286597202870345 
621	 0.290981376389186 
622	 0.295045413117422 
623	 0.298776209099422 
624	 0.302418229763937 
625	 0.305914253545211 
626	 0.308932053556052 
627	 0.311930829527434 
628	 0.314692765237104 
629	 0.31710348594095 
630	 0.319649711135779 
631	 0.322004683624652 
632	 0.324143952025138 
633	 0.326169393563999 
634	 0.328092100455442 
635	 0.329921667774102 
636	 0.331626433295805 
637	 0.33312255689593 
638	 0.334550288214533 
639	 0.335953252198471 
640	 0.337317354387714 
641	 0.338523523982294 
642	 0.339745330870577 
643	 0.340989835824998 
644	 0.342160414827305 
645	 0.343238273246266 
646	 0.344174369967569 
647	 0.345049458988442 
648	 0.346168980485787 
649	 0.347034038702392 
650	 0.347802291733246 
651	 0.348719032853681 
652	 0.34947424837085 
653	 0.35020914733114 
654	 0.351008841241501 
655	 0.351877203135672 
656	 0.352480799638459 
657	 0.353074593537079 
658	 0.353813059981092 
659	 0.354427258194987 
660	 0.355099010930852 
661	 0.35577576186435 
662	 0.356353199151076 
663	 0.356935799462831 
664	 0.357499105296426 
665	 0.358038665585606 
666	 0.35857585070513 
667	 0.359082583206952 
668	 0.359566380247608 
669	 0.360073362781708 
670	 0.360770944854844 
671	 0.36118271317293 
672	 0.361518804638406 
673	 0.362196544933766 
674	 0.362681594850917 
675	 0.363028885847552 
676	 0.363377574185624 
677	 0.363898561699085 
678	 0.364443610401147 
679	 0.364902164544347 
680	 0.365235325383765 
681	 0.365571001187795 
682	 0.365988250982498 
683	 0.366421240138051 
684	 0.366753800210147 
685	 0.367189328477061 
686	 0.367617830406518 
687	 0.367980322345736 
688	 0.368337608778249 
689	 0.368636417742239 
690	 0.368915519213765 
691	 0.369228310874719 
692	 0.369588031140551 
693	 0.369997334729178 
694	 0.370391815719554 
695	 0.370686277202794 
696	 0.371031042007885 
697	 0.3713024491377 
698	 0.371523850950012 
699	 0.372004187150896 
700	 0.372318106060813 
701	 0.372531741525567 
702	 0.372802766150186 
703	 0.373032910865683 
704	 0.373452578210058 
705	 0.37386933851972 
706	 0.373882994386664 
707	 0.374177473137748 
708	 0.374570807758151 
709	 0.374899145620957 
710	 0.375232386019243 
711	 0.375465195204254 
712	 0.375649341417397 
713	 0.375872067028876 
714	 0.376149441919172 
715	 0.376450652372857 
716	 0.376748921059519 
717	 0.377017827208335 
718	 0.377171659113407 
719	 0.377419857697613 
720	 0.377787522543936 
721	 0.377921109265758 
722	 0.378118635191377 
723	 0.37830053176346 
724	 0.378380601920252 
725	 0.378707439690651 
726	 0.379000612535202 
727	 0.379229167529148 
728	 0.379519748839545 
729	 0.379538795023303 
730	 0.379694236724602 
731	 0.380082102049318 
732	 0.380129047569849 
733	 0.380414216022703 
734	 0.380685252355052 
735	 0.380659531223361 
736	 0.380858263462224 
737	 0.381177161925384 
738	 0.381514076806206 
739	 0.381763503653251 
740	 0.381738643739362 
741	 0.381806915983281 
742	 0.382113896319445 
743	 0.382376718145969 
744	 0.38266466372761 
745	 0.382881428574401 
746	 0.382979410308366 
747	 0.383176289006597 
748	 0.383547454150638 
749	 0.383886224068286 
750	 0.383894023180841 
751	 0.383933290169289 
752	 0.383990913302761 
753	 0.384130901205012 
754	 0.384554894738121 
755	 0.384833792146114 
756	 0.384833764668093 
757	 0.384703475653118 
758	 0.385166731226855 
759	 0.385528309466813 
760	 0.38565719203138 
761	 0.385718334691116 
762	 0.385863319675952 
763	 0.386063170423367 
764	 0.386226238180184 
765	 0.386229763947263 
766	 0.386256049564007 
767	 0.386474822078072 
768	 0.386839464530715 
769	 0.386812133285122 
770	 0.386868498796583 
771	 0.387058392047355 
772	 0.387303251404601 
773	 0.387758793756315 
774	 0.387827176827362 
775	 0.387660016028812 
776	 0.387972254225078 
777	 0.388263081209671 
778	 0.388479111678506 
779	 0.388595551431146 
780	 0.388518107939483 
781	 0.388712680285122 
782	 0.388998073317566 
783	 0.389102742401901 
784	 0.389155255437564 
785	 0.389225009152139 
786	 0.38934970818262 
787	 0.389547412591616 
788	 0.389882853614392 
789	 0.390231001119813 
790	 0.390388501623014 
791	 0.390128086010439 
792	 0.390378907505249 
793	 0.39073943898928 
794	 0.390812173539339 
795	 0.390939052495326 
796	 0.390849413060558 
797	 0.390893323156273 
798	 0.391383259154125 
799	 0.391333109745234 
800	 0.391276665637161 
801	 0.391453042079001 
802	 0.391776616245888 
803	 0.391869439496893 
804	 0.391871731328913 
805	 0.391963402001871 
806	 0.392261947558617 
807	 0.392223749653306 
808	 0.392097340275904 
809	 0.392195174216498 
810	 0.392386813024052 
811	 0.392558507941616 
812	 0.392802085151332 
813	 0.393201494700004 
814	 0.393246354535265 
815	 0.393140947341126 
816	 0.393131260263555 
817	 0.393406344334825 
818	 0.393595103765513 
819	 0.393621780665951 
820	 0.393614201461257 
821	 0.393938502214569 
822	 0.394252545640099 
823	 0.394455022692995 
824	 0.394519767318409 
825	 0.394408090327366 
826	 0.394409793480173 
827	 0.394609937391392 
828	 0.39491454662 
829	 0.394898838344101 
830	 0.395038125734639 
831	 0.395305778904553 
832	 0.395256614442115 
833	 0.395470992381091 
834	 0.395727533461698 
835	 0.395907838146609 
836	 0.396233333262222 
837	 0.39616116286846 
838	 0.396064554981702 
839	 0.396281270932143 
840	 0.396370514887615 
841	 0.396583860340427 
842	 0.396711428053994 
843	 0.396557509968997 
844	 0.396915914548879 
845	 0.397178718360842 
846	 0.397172813290977 
847	 0.397112916313375 
848	 0.397147412176963 
849	 0.397247725460815 
850	 0.397310468622765 
851	 0.397192671794441 
852	 0.39721183956567 
853	 0.397220088695539 
854	 0.397160340283156 
855	 0.397375923081443 
856	 0.397635917055711 
857	 0.397728793766892 
858	 0.397599928021286 
859	 0.397699191410355 
860	 0.397830397917037 
861	 0.397950819956161 
862	 0.398063677055633 
863	 0.397913558858375 
864	 0.39803916728088 
865	 0.398291257184015 
866	 0.39802768440211 
867	 0.398384481708726 
868	 0.398797304139236 
869	 0.398872328867989 
870	 0.398790457975943 
871	 0.398770411374824 
872	 0.398802288746934 
873	 0.398833281424609 
874	 0.398837395430588 
875	 0.39910718397138 
876	 0.399438390475023 
877	 0.399574057613177 
878	 0.399678673677139 
879	 0.399844668247542 
880	 0.399937718859146 
881	 0.399819026138826 
882	 0.399963031660182 
883	 0.400073241200456 
884	 0.400084103230159 
885	 0.400140443278091 
886	 0.40027571742002 
887	 0.400385413361455 
888	 0.400502306244491 
889	 0.40080267740462 
890	 0.400856338670923 
891	 0.400810316575835 
892	 0.400900546006207 
893	 0.401312455301869 
894	 0.401413600498059 
895	 0.401331165781159 
896	 0.401302757484794 
897	 0.401285308473386 
898	 0.401350318313488 
899	 0.401472758986566 
900	 0.401586253279573 
901	 0.401624637805175 
902	 0.401623812864053 
903	 0.40157199819121 
904	 0.401470607204279 
905	 0.401493666299238 
906	 0.401674291950192 
907	 0.401802566358171 
908	 0.401593007438153 
909	 0.401434189219935 
910	 0.401591923060345 
911	 0.401827513732385 
912	 0.401528889499888 
913	 0.401510990078905 
914	 0.401826784490084 
915	 0.402176985010969 
916	 0.40200453600789 
917	 0.401716762421679 
918	 0.401597908859236 
919	 0.40174611486641 
920	 0.401969953301398 
921	 0.402282440141994 
922	 0.40249509220919 
923	 0.402498489039425 
924	 0.402478019331968 
925	 0.40255178178832 
926	 0.40263211529193 
927	 0.402592916652177 
928	 0.402421759495961 
929	 0.402508595570144 
930	 0.402660534523419 
931	 0.402631788485277 
932	 0.403144410734653 
933	 0.403373495972841 
934	 0.403319442849643 
935	 0.403382427779694 
936	 0.403261780034864 
937	 0.403176015947404 
938	 0.403448876348206 
939	 0.404214337768577 
940	 0.404152935758043 
941	 0.403845953738493 
942	 0.403768246011788 
943	 0.404059526678422 
944	 0.404350357414445 
945	 0.404389149350514 
946	 0.404256287548904 
947	 0.404339617352939 
948	 0.404689665549037 
949	 0.405077459766104 
950	 0.405247328420869 
951	 0.405038515680944 
952	 0.405076194460545 
953	 0.405047742745525 
954	 0.404834007386031 
955	 0.404837668373227 
956	 0.404951243463965 
957	 0.405136752346298 
958	 0.405387289161609 
959	 0.405732283259011 
960	 0.405700835118494 
961	 0.405473942174094 
962	 0.405306525239208 
963	 0.405249091084532 
964	 0.405193674103145 
965	 0.405188565811807 
966	 0.405245351879464 
967	 0.405201025320574 
968	 0.405376640294587 
969	 0.405358048003505 
970	 0.404927672413805 
971	 0.404855566571642 
972	 0.404942193525324 
973	 0.404973910445593 
974	 0.404873623991021 
975	 0.40499544675605 
976	 0.404904931712963 
977	 0.404874007511293 
978	 0.405134539236487 
979	 0.405107141299091 
980	 0.405007328660136 
981	 0.404725981418306 
982	 0.404314012784182 
983	 0.404614082470721 
984	 0.404873464388395 
985	 0.405127310334748 
986	 0.405444106001816 
987	 0.405020986933736 
988	 0.404934658595972 
989	 0.405010587772291 
990	 0.404863568391989 
991	 0.405073495961257 
992	 0.405246861388318 
993	 0.405321434745573 
994	 0.40533060144066 
995	 0.405128902440374 
996	 0.405485760713363 
997	 0.405961993042106 
998	 0.405945927051917 
999	 0.405865294776712 
1000	 0.405610599971187 
1001	 0.420268350711678 
1002	 0.420387118694257 
1003	 0.420634519979626 
1004	 0.420789203638843 
1005	 0.420928953312551 
1006	 0.421045936136304 
1007	 0.421084377291978 
1008	 0.421230661081301 
1009	 0.421462431870231 
1010	 0.421609655257304 
1011	 0.421760447953496 
1012	 0.421909492041288 
1013	 0.42192867792536 
1014	 0.422086360158885 
1015	 0.422326900348097 
1016	 0.422628863035817 
1017	 0.422964104748612 
1018	 0.423212680633858 
1019	 0.42326484413223 
1020	 0.423363578306355 
1021	 0.423470342821093 
1022	 0.42350273377954 
1023	 0.423597543333455 
1024	 0.423800397825601 
1025	 0.423865767805164 
1026	 0.423902263974685 
1027	 0.423899469767456 
1028	 0.423804392559939 
1029	 0.423747993375444 
1030	 0.42368955236736 
1031	 0.423576777032393 
1032	 0.423513629670774 
1033	 0.423453534257023 
1034	 0.423443154810409 
1035	 0.423441013909802 
1036	 0.423372042560531 
1037	 0.423307538829295 
1038	 0.423162404465263 
1039	 0.422905035770407 
1040	 0.422717489611594 
1041	 0.422543273376074 
1042	 0.422318761767397 
1043	 0.422103610847945 
1044	 0.421854343826934 
1045	 0.421514903444507 
1046	 0.421252204902432 
1047	 0.421009155904821 
1048	 0.420679300807327 
1049	 0.420418607855159 
1050	 0.420195816965704 
1051	 0.419979902309003 
1052	 0.419820976077292 
1053	 0.419672467871658 
1054	 0.419535776268036 
1055	 0.419419307557511 
1056	 0.419311552775728 
1057	 0.419281092521884 
1058	 0.419311550400962 
1059	 0.419308636312075 
1060	 0.419398185427245 
1061	 0.41952220790892 
1062	 0.419605559282379 
1063	 0.419776157899157 
1064	 0.420020280589065 
1065	 0.420248675907328 
1066	 0.420589488323895 
1067	 0.421036976563872 
1068	 0.421491372752931 
1069	 0.421972797850464 
1070	 0.422481911716786 
1071	 0.423025733703975 
1072	 0.423576755245335 
1073	 0.424118173800439 
1074	 0.424756892553446 
1075	 0.425417378968905 
1076	 0.426047954305329 
1077	 0.426807370265451 
1078	 0.427568447881095 
1079	 0.428306101686183 
1080	 0.429076716466232 
1081	 0.429822016251399 
1082	 0.430565975976937 
1083	 0.431321632372306 
1084	 0.432127766540064 
1085	 0.432954144599541 
1086	 0.433734256415236 
1087	 0.434494850004361 
1088	 0.435250819704778 
1089	 0.435956686636053 
1090	 0.436588898209492 
1091	 0.43719380105892 
1092	 0.43776911504253 
1093	 0.438340934979834 
1094	 0.438947076182499 
1095	 0.439530420005784 
1096	 0.440074405588873 
1097	 0.440555567691592 
1098	 0.440914196164728 
1099	 0.441255276893992 
1100	 0.441583176376208 
1101	 0.441880093152418 
1102	 0.442160969536 
1103	 0.442349597239931 
1104	 0.442474471093504 
1105	 0.44254158558633 
1106	 0.442516362251233 
1107	 0.442429261740247 
1108	 0.442337959903059 
1109	 0.442177912910214 
1110	 0.44201665750312 
1111	 0.441854837539839 
1112	 0.441603679833649 
1113	 0.441290668908054 
1114	 0.440944303175632 
1115	 0.440542990818855 
1116	 0.440098310630885 
1117	 0.439657310008421 
1118	 0.439242089814203 
1119	 0.43883333696548 
1120	 0.438398287392783 
1121	 0.437969824054332 
1122	 0.437553058101145 
1123	 0.437096233146312 
1124	 0.43665515477718 
1125	 0.436271220058875 
1126	 0.435901922423877 
1127	 0.43551799068911 
1128	 0.435091980275568 
1129	 0.434629391098114 
1130	 0.434172952084169 
1131	 0.433749739056012 
1132	 0.433374386402787 
1133	 0.433017228584294 
1134	 0.432718664754476 
1135	 0.432431552936217 
1136	 0.432126933991984 
1137	 0.431896406099505 
1138	 0.431759489700148 
1139	 0.431554283565504 
1140	 0.431328032098773 
1141	 0.43117737738972 
1142	 0.431016454682586 
1143	 0.430903545842989 
1144	 0.43085969474059 
1145	 0.43082586214508 
1146	 0.430757285837526 
1147	 0.430655722293229 
1148	 0.430594228172716 
1149	 0.430568443267163 
1150	 0.430572669045753 
1151	 0.430586818207673 
1152	 0.43060263853246 
1153	 0.430641720142356 
1154	 0.430656027606558 
1155	 0.430634726825481 
1156	 0.430669872546584 
1157	 0.430738265637664 
1158	 0.430785422764109 
1159	 0.430863097796752 
1160	 0.430917010515588 
1161	 0.430937767723214 
1162	 0.430927589058079 
1163	 0.430907811195615 
1164	 0.430933671832211 
1165	 0.43100929502905 
1166	 0.431058185784201 
1167	 0.431112618963211 
1168	 0.43120309620573 
1169	 0.43128308313212 
1170	 0.431346879384487 
1171	 0.431433812466505 
1172	 0.431540958726531 
1173	 0.431645512202558 
1174	 0.431766399838176 
1175	 0.431862054105122 
1176	 0.431933132694143 
1177	 0.432034246388705 
1178	 0.432132082753319 
1179	 0.432241161303284 
1180	 0.432371085062806 
1181	 0.43250590525679 
1182	 0.43263705303366 
1183	 0.432773472691648 
1184	 0.432965910095189 
1185	 0.433158245248549 
1186	 0.433313655237707 
1187	 0.433466837199297 
1188	 0.433606113917876 
1189	 0.433693587601928 
1190	 0.43383036645089 
1191	 0.433979913090335 
1192	 0.434140305993973 
1193	 0.434329309893291 
1194	 0.434503039984162 
1195	 0.434700436871112 
1196	 0.434860145274207 
1197	 0.434986644143172 
1198	 0.435121900157114 
1199	 0.435256817025068 
1200	 0.435401830860603 
1201	 0.435591952800736 
1202	 0.435753274920326 
1203	 0.435884621371018 
1204	 0.436062235439846 
1205	 0.436240492503784 
1206	 0.436423861166359 
1207	 0.436611115093153 
1208	 0.436827380019255 
1209	 0.437006689874019 
1210	 0.437159376482344 
1211	 0.437339862254197 
1212	 0.437506220569306 
1213	 0.437704396845084 
1214	 0.43792279529624 
1215	 0.438154664767435 
1216	 0.438428135653045 
1217	 0.438672346660363 
1218	 0.438920044239742 
1219	 0.439162120286904 
1220	 0.439368466480491 
1221	 0.439601922624714 
1222	 0.439842367341494 
1223	 0.440085814994077 
1224	 0.440338361292677 
1225	 0.440616987565728 
1226	 0.440841500827721 
1227	 0.441057416160566 
1228	 0.44125453310887 
1229	 0.441397140778749 
1230	 0.441581114519389 
1231	 0.441776453877007 
1232	 0.441973912444165 
1233	 0.442174588134476 
1234	 0.442383146163277 
1235	 0.442613397736833 
1236	 0.442815534486908 
1237	 0.443004922267738 
1238	 0.443209392227263 
1239	 0.443396514900112 
1240	 0.443598915560293 
1241	 0.443828658109598 
1242	 0.444048570717892 
1243	 0.444241667085106 
1244	 0.444418840707406 
1245	 0.444586084114764 
1246	 0.444735577183662 
1247	 0.444875270840111 
1248	 0.445008396250785 
1249	 0.445128814049205 
1250	 0.445229973235527 
1251	 0.445327570779298 
1252	 0.445422665527364 
1253	 0.445501468393334 
1254	 0.445581081794966 
1255	 0.445621629039398 
1256	 0.445638167871203 
1257	 0.445635307949622 
1258	 0.445580576471039 
1259	 0.44554837805591 
1260	 0.445538413124164 
1261	 0.445484877823229 
1262	 0.445419086557134 
1263	 0.445330918923547 
1264	 0.445235713406849 
1265	 0.445084557630914 
1266	 0.445007764713739 
1267	 0.44496429919207 
1268	 0.444904537798505 
1269	 0.444868720649199 
1270	 0.444816239502534 
1271	 0.444738573305362 
1272	 0.444693065120584 
1273	 0.444658819244073 
1274	 0.444636619856054 
1275	 0.444624769248281 
1276	 0.444630337653067 
1277	 0.44464005780271 
1278	 0.444682089751275 
1279	 0.444762933378957 
1280	 0.444836451422048 
1281	 0.444900258485653 
1282	 0.445014293647673 
1283	 0.44512792348241 
1284	 0.445295864346909 
1285	 0.445510213760626 
1286	 0.445774123999561 
1287	 0.446093445672551 
1288	 0.446463405649068 
1289	 0.446863783361301 
1290	 0.447315132425326 
1291	 0.447814957461529 
1292	 0.448346044488164 
1293	 0.448931708038493 
1294	 0.449585105697917 
1295	 0.4502671467095 
1296	 0.450970678909043 
1297	 0.451748461090251 
1298	 0.452598425149191 
1299	 0.453469622282187 
1300	 0.454430788153374 
1301	 0.455351371950867 
1302	 0.456276349127543 
1303	 0.457207393691293 
1304	 0.458121262264597 
1305	 0.459055417239353 
1306	 0.460045201698692 
1307	 0.460977502266449 
1308	 0.461878589510482 
1309	 0.462789275854439 
1310	 0.463638786464023 
1311	 0.46444303135017 
1312	 0.465211497795882 
1313	 0.465974496555394 
1314	 0.466616578824891 
1315	 0.467187236417079 
1316	 0.467696103017678 
1317	 0.468081924652017 
1318	 0.468508388031777 
1319	 0.468928104734255 
1320	 0.469276087146137 
1321	 0.469634943695511 
1322	 0.469869493319788 
1323	 0.470011010991465 
1324	 0.470097426617434 
1325	 0.470092825232409 
1326	 0.470061528644332 
1327	 0.46999608236505 
1328	 0.469855936519817 
1329	 0.469655788140415 
1330	 0.469416443146217 
1331	 0.469118364199375 
1332	 0.468773887463375 
1333	 0.468372046087857 
1334	 0.467965349362821 
1335	 0.467517237370514 
1336	 0.467025800384688 
1337	 0.46649936447676 
1338	 0.465959326711046 
1339	 0.465364890841581 
1340	 0.464722128720496 
1341	 0.464048533477499 
1342	 0.463330067894953 
1343	 0.462609347047618 
1344	 0.461826480874291 
1345	 0.461107941655965 
1346	 0.460408839983743 
1347	 0.45971539902445 
1348	 0.459049663670453 
1349	 0.458377218510285 
1350	 0.457689649517712 
1351	 0.457030385722787 
1352	 0.456384115814749 
1353	 0.455751146587612 
1354	 0.455097728884734 
1355	 0.454521536938145 
1356	 0.454002179499655 
1357	 0.453480568862176 
1358	 0.453003436109729 
1359	 0.452537391675007 
1360	 0.452074453936616 
1361	 0.451603216871531 
1362	 0.451200324358798 
1363	 0.450851164446026 
1364	 0.450533957801412 
1365	 0.450261347758396 
1366	 0.450009170813708 
1367	 0.449787723638821 
1368	 0.449600656992338 
1369	 0.449448049204641 
1370	 0.449308070646138 
1371	 0.449203058051212 
1372	 0.449098053412229 
1373	 0.449014568315045 
1374	 0.448917760286681 
1375	 0.448812952291769 
1376	 0.448737347179845 
1377	 0.448683809627422 
1378	 0.448602718980322 
1379	 0.448505808845138 
1380	 0.448456099225696 
1381	 0.448384167315497 
1382	 0.448364464012236 
1383	 0.448397599229696 
1384	 0.448461467563752 
1385	 0.448582282936629 
1386	 0.448670867427555 
1387	 0.448794773578542 
1388	 0.448894324964077 
1389	 0.448929067119588 
1390	 0.449012781084755 
1391	 0.449132429967624 
1392	 0.449240679773146 
1393	 0.449355629920447 
1394	 0.449508267709967 
1395	 0.44963752621305 
1396	 0.449763544640445 
1397	 0.449882053475092 
1398	 0.450007681201697 
1399	 0.45009952194694 
1400	 0.450174695383067 
1401	 0.450237410427396 
1402	 0.450284878819886 
1403	 0.450311208041848 
1404	 0.450317867566341 
1405	 0.450319386991415 
1406	 0.450273230351816 
1407	 0.450284794715199 
1408	 0.45031279139877 
1409	 0.450355290685925 
1410	 0.450432220657056 
1411	 0.450507251531092 
1412	 0.450598474900214 
1413	 0.450675904444855 
1414	 0.450780381592686 
1415	 0.45083573468049 
1416	 0.450842315347128 
1417	 0.4508745697798 
1418	 0.450878117630118 
1419	 0.45091193985173 
1420	 0.450979278105152 
1421	 0.451036784464516 
1422	 0.451082040318179 
1423	 0.451157958249722 
1424	 0.451238004536389 
1425	 0.451349276346591 
1426	 0.451493188169228 
1427	 0.45164329464222 
1428	 0.451793003465603 
1429	 0.451921584340005 
1430	 0.452049654340237 
1431	 0.452164109597714 
1432	 0.452287713696448 
1433	 0.452413747443872 
1434	 0.45253672025696 
1435	 0.452666082898637 
1436	 0.452772537907733 
1437	 0.452865134227406 
1438	 0.452963117551711 
1439	 0.453029036478673 
1440	 0.453150575037932 
1441	 0.453320513325832 
1442	 0.453441311347947 
1443	 0.453561370568536 
1444	 0.453689454290673 
1445	 0.453789982521224 
1446	 0.453904586136258 
1447	 0.454043829695165 
1448	 0.454179269416835 
1449	 0.454286014207111 
1450	 0.454434164807711 
1451	 0.454633185397427 
1452	 0.454796724166149 
1453	 0.45495192765709 
1454	 0.455121236168866 
1455	 0.455284628194212 
1456	 0.455446111043864 
1457	 0.455649037617348 
1458	 0.455801234351036 
1459	 0.45589629462927 
1460	 0.456019657914649 
1461	 0.456144358275817 
1462	 0.45625265655879 
1463	 0.456354002999777 
1464	 0.456472144347398 
1465	 0.456589984454184 
1466	 0.456688074659781 
1467	 0.456809531825406 
1468	 0.456972764760069 
1469	 0.457139434664336 
1470	 0.457286888891717 
1471	 0.457422171847751 
1472	 0.457566128820671 
1473	 0.457680287467407 
1474	 0.457753772806155 
1475	 0.457858612908564 
1476	 0.457966964137311 
1477	 0.458076399471357 
1478	 0.458181879051655 
1479	 0.458315816348187 
1480	 0.458465058868105 
1481	 0.458611514237847 
1482	 0.458781369774408 
1483	 0.458935958519101 
1484	 0.459090938448522 
1485	 0.459221766062791 
1486	 0.459341297085039 
1487	 0.4594607566947 
1488	 0.459539532782937 
1489	 0.459668694534284 
1490	 0.459831663669002 
1491	 0.459981064055941 
1492	 0.460153688490707 
1493	 0.460306710467433 
1494	 0.460453539740135 
1495	 0.460582376426686 
1496	 0.460701194264959 
1497	 0.46080935433637 
1498	 0.460892231014998 
1499	 0.460986079113141 
1500	 0.461089788380502 
1501	 0.461171082282107 
1502	 0.461230740893834 
1503	 0.461305688282973 
1504	 0.461350309830787 
1505	 0.461440765880883 
1506	 0.461572658247142 
1507	 0.461697042240436 
1508	 0.461859491817698 
1509	 0.461990463273567 
1510	 0.462089567102434 
1511	 0.462211816831802 
1512	 0.462338178834684 
1513	 0.462457969035828 
1514	 0.4625830542303 
1515	 0.462715948592192 
1516	 0.46283855324223 
1517	 0.46297055409335 
1518	 0.463142457656574 
1519	 0.463280753391925 
1520	 0.463396506143247 
1521	 0.46351171542723 
1522	 0.463618318921998 
1523	 0.463724466497249 
1524	 0.463826067523815 
1525	 0.463933509086191 
1526	 0.464037558937276 
1527	 0.464128521969439 
1528	 0.464228793162658 
1529	 0.464339289238213 
1530	 0.464441796637815 
1531	 0.464547083298331 
1532	 0.464629001986832 
1533	 0.464685342305598 
1534	 0.464794043924816 
1535	 0.464901368071854 
1536	 0.465031569821485 
1537	 0.465213120842328 
1538	 0.465364974730266 
1539	 0.465505411416956 
1540	 0.465652678467051 
1541	 0.465818267524872 
1542	 0.465950243778838 
1543	 0.466078816318602 
1544	 0.466168096702979 
1545	 0.466217638475301 
1546	 0.466281937065653 
1547	 0.466312289641257 
1548	 0.466382808863189 
1549	 0.466466622757157 
1550	 0.466570169778909 
1551	 0.466708756643569 
1552	 0.466817071222623 
1553	 0.466938734579728 
1554	 0.467032479069819 
1555	 0.467091075451838 
1556	 0.467169762939803 
1557	 0.467264314460023 
1558	 0.46731991350934 
1559	 0.467359391557556 
1560	 0.467397162295587 
1561	 0.467381174024596 
1562	 0.467428425124185 
1563	 0.467505679228494 
1564	 0.46759089244317 
1565	 0.467705712749007 
1566	 0.46782231806804 
1567	 0.467949941260378 
1568	 0.468079255479993 
1569	 0.468229589240279 
1570	 0.468361118345962 
1571	 0.468484672131725 
1572	 0.468608036280768 
1573	 0.468710409135345 
1574	 0.46884122808162 
1575	 0.469008293103518 
1576	 0.469131804868869 
1577	 0.46925728340924 
1578	 0.469359477071069 
1579	 0.469402818686948 
1580	 0.469484466429888 
1581	 0.469590028210743 
1582	 0.469672024727042 
1583	 0.46973561653268 
1584	 0.469831440073535 
1585	 0.469928629785613 
1586	 0.470033562209265 
1587	 0.47016643704869 
1588	 0.470300028691323 
1589	 0.470453770938357 
1590	 0.470567032660628 
1591	 0.470661709808708 
1592	 0.470770343334966 
1593	 0.470821988038426 
1594	 0.470940104484953 
1595	 0.47112885244518 
1596	 0.471287717498583 
1597	 0.471504680905715 
1598	 0.471631863327299 
1599	 0.471698770009337 
1600	 0.471763329104374 
1601	 0.471729722951577 
1602	 0.47177789293435 
1603	 0.47187270840557 
1604	 0.47195906691151 
1605	 0.472086653507227 
1606	 0.472197875097754 
1607	 0.472292841257737 
1608	 0.472393551148312 
1609	 0.472522929702249 
1610	 0.472610486257027 
1611	 0.472678929292581 
1612	 0.472730898781713 
1613	 0.472718304234359 
1614	 0.472755938507317 
1615	 0.472814049373297 
1616	 0.472871519784213 
1617	 0.47295815294442 
1618	 0.473037802665975 
1619	 0.473099573991821 
1620	 0.473180841703875 
1621	 0.473313070929633 
1622	 0.47338290444948 
1623	 0.473423721487813 
1624	 0.473464609999456 
1625	 0.47346111668325 
1626	 0.473466601694953 
1627	 0.473477075874936 
1628	 0.473489871512694 
1629	 0.473495714316638 
1630	 0.473501389537946 
1631	 0.473482915886872 
1632	 0.473523058733138 
1633	 0.47357679290881 
1634	 0.473666621675144 
1635	 0.473862818874232 
1636	 0.473982967183129 
1637	 0.474062521524765 
1638	 0.474167170986774 
1639	 0.474261787778542 
1640	 0.474343271504751 
1641	 0.474439885960045 
1642	 0.474526837596737 
1643	 0.474580755413599 
1644	 0.474646531736571 
1645	 0.474728445659248 
1646	 0.47480367775968 
1647	 0.474882062418281 
1648	 0.474933110848875 
1649	 0.474970585883038 
1650	 0.475004322832672 
1651	 0.475016115739937 
1652	 0.475030000730439 
1653	 0.47503902226611 
1654	 0.475057938306654 
1655	 0.475083174121019 
1656	 0.475087986122335 
1657	 0.475124467846914 
1658	 0.47509198582505 
1659	 0.475005050235424 
1660	 0.474912496358827 
1661	 0.474766954813864 
1662	 0.474647572844323 
1663	 0.474543656074207 
1664	 0.474399152091282 
1665	 0.47422611581821 
1666	 0.474072014711509 
1667	 0.473945499549325 
1668	 0.473741612555863 
1669	 0.473514034624665 
1670	 0.47326437374821 
1671	 0.472944541074387 
1672	 0.472607795420177 
1673	 0.472276054978621 
1674	 0.471917326733392 
1675	 0.471492229871935 
1676	 0.471093520673668 
1677	 0.470684651030066 
1678	 0.470300885595964 
1679	 0.469925476944098 
1680	 0.469553773415404 
1681	 0.469242922239622 
1682	 0.468850517624512 
1683	 0.468415793380536 
1684	 0.467974117343334 
1685	 0.467488539228136 
1686	 0.467004457201489 
1687	 0.466499603231016 
1688	 0.466013108048043 
1689	 0.465551095838667 
1690	 0.465014527394853 
1691	 0.464453245286459 
1692	 0.463892848885852 
1693	 0.46327892408896 
1694	 0.462685143496244 
1695	 0.462104700160103 
1696	 0.461515579587677 
1697	 0.460907082410824 
1698	 0.460306714966998 
1699	 0.459729077912051 
1700	 0.459129242150917 
1701	 0.458500149136626 
1702	 0.457908401437401 
1703	 0.457318131422732 
1704	 0.456753002799422 
1705	 0.456200335442548 
1706	 0.45562236411477 
1707	 0.455158358488013 
1708	 0.454729291165291 
1709	 0.454342110094839 
1710	 0.45402714253076 
1711	 0.45367013816719 
1712	 0.453326324119683 
1713	 0.453017361982257 
1714	 0.452736284064075 
1715	 0.452512016830713 
1716	 0.452254507329136 
1717	 0.452014654325468 
1718	 0.451771526393928 
1719	 0.451572509163409 
1720	 0.451471024579989 
1721	 0.451346668715252 
1722	 0.451266684704367 
1723	 0.451204649475445 
1724	 0.451114468469417 
1725	 0.451088032688393 
1726	 0.451117097317777 
1727	 0.451178225913689 
1728	 0.451314649557438 
1729	 0.451531529108945 
1730	 0.451758811284536 
1731	 0.451988686672282 
1732	 0.452276077386803 
1733	 0.452597801604088 
1734	 0.45295508571654 
1735	 0.45331504645859 
1736	 0.453629192951901 
1737	 0.453919387855844 
1738	 0.454204749372113 
1739	 0.454452403885764 
1740	 0.454694251779334 
1741	 0.454872469273403 
1742	 0.455011437485784 
1743	 0.455089777359006 
1744	 0.455105844152184 
1745	 0.45507227697053 
1746	 0.454936778674957 
1747	 0.454844892762718 
1748	 0.454705276095746 
1749	 0.454655414325624 
1750	 0.45465063425386 
1751	 0.454692112498373 
1752	 0.454795587077817 
1753	 0.45488755162468 
1754	 0.455016571947485 
1755	 0.455140528960241 
1756	 0.455265928195646 
1757	 0.45540531505548 
1758	 0.455527074313846 
1759	 0.455700200365216 
1760	 0.455960560752569 
1761	 0.456314367085712 
1762	 0.456702607381692 
1763	 0.457138353641757 
1764	 0.457599661690882 
1765	 0.458067407238793 
1766	 0.458571011351226 
1767	 0.459046326364597 
1768	 0.45952701315297 
1769	 0.459979135454321 
1770	 0.46035766208201 
1771	 0.460731302552325 
1772	 0.461060071475432 
1773	 0.461359254764346 
1774	 0.461755631990878 
1775	 0.462175183247887 
1776	 0.462555046079601 
1777	 0.46293666937485 
1778	 0.463244567396274 
1779	 0.463483124946764 
1780	 0.463661809486503 
1781	 0.463782473797155 
1782	 0.463906961645889 
1783	 0.46403756757848 
1784	 0.464217105231423 
1785	 0.46445272824928 
1786	 0.464651648858387 
1787	 0.464872157586908 
1788	 0.465036714967001 
1789	 0.465201757813835 
1790	 0.465248790035781 
1791	 0.465167626980132 
1792	 0.465126303339461 
1793	 0.464975444916271 
1794	 0.465055403733632 
1795	 0.465177850065781 
1796	 0.465253542034352 
1797	 0.46536515265543 
1798	 0.465422962652546 
1799	 0.465553069632099 
1800	 0.465789428382849 
1801	 0.470477580013226 
1802	 0.470723820637855 
1803	 0.470921988295727 
1804	 0.471048782334256 
1805	 0.4711504159131 
1806	 0.471312729927643 
1807	 0.471456657684585 
1808	 0.471659174530692 
1809	 0.471945982990268 
1810	 0.472174998985077 
1811	 0.472385289125213 
1812	 0.47262446029456 
1813	 0.472891622843636 
1814	 0.47313149619071 
1815	 0.473317168206807 
1816	 0.473507159286313 
1817	 0.473656826399774 
1818	 0.473682857071092 
1819	 0.473821537018898 
1820	 0.474004605699928 
1821	 0.474182842797986 
1822	 0.474368038265288 
1823	 0.474600691915284 
1824	 0.474844097786563 
1825	 0.475083639652456 
1826	 0.475316371884993 
1827	 0.475583828025633 
1828	 0.475787782211841 
1829	 0.47592934471339 
1830	 0.476127145970137 
1831	 0.476335226546007 
1832	 0.476532752494797 
1833	 0.476734958652055 
1834	 0.476903257275944 
1835	 0.477034785895024 
1836	 0.477153041717312 
1837	 0.477271800506352 
1838	 0.477395647968564 
1839	 0.477516034627163 
1840	 0.477591453428042 
1841	 0.477726487662174 
1842	 0.477893909714408 
1843	 0.478039556771045 
1844	 0.478264640034703 
1845	 0.478498500862548 
1846	 0.478703677908091 
1847	 0.478941300905511 
1848	 0.479155753561831 
1849	 0.479365379330608 
1850	 0.479539830176527 
1851	 0.47969434225816 
1852	 0.479857418907662 
1853	 0.479976544222526 
1854	 0.480088815195535 
1855	 0.480261388808739 
1856	 0.48037773568535 
1857	 0.480500299399197 
1858	 0.480655803096201 
1859	 0.480761006919093 
1860	 0.480839525855666 
1861	 0.480924674437066 
1862	 0.480999446783687 
1863	 0.481023637864773 
1864	 0.481109582878882 
1865	 0.4811600446624 
1866	 0.48121633756387 
1867	 0.481296311306852 
1868	 0.481256054707527 
1869	 0.481177612665272 
1870	 0.481067182212512 
1871	 0.480812524763916 
1872	 0.480679628405549 
1873	 0.480550498986267 
1874	 0.48049711881402 
1875	 0.480552159089908 
1876	 0.480621638361481 
1877	 0.480730988187839 
1878	 0.480799345007056 
1879	 0.480815601818447 
1880	 0.48081072570504 
1881	 0.480697433805087 
1882	 0.480505040812806 
1883	 0.480269462259689 
1884	 0.479943251483109 
1885	 0.479512296392846 
1886	 0.47902721633247 
1887	 0.478475792997743 
1888	 0.477880348425346 
1889	 0.477282239052781 
1890	 0.476648094822892 
1891	 0.476033988680599 
1892	 0.475420955947506 
1893	 0.474784875505253 
1894	 0.474112577218121 
1895	 0.473510717238838 
1896	 0.472908113527387 
1897	 0.472277814739194 
1898	 0.471695154610139 
1899	 0.471109669323278 
1900	 0.470524155020974 
1901	 0.46995844589491 
1902	 0.469395154191443 
1903	 0.468871053230665 
1904	 0.468346378592746 
1905	 0.467812036945964 
1906	 0.467321655984521 
1907	 0.466888383630439 
1908	 0.466429788512114 
1909	 0.466061342084816 
1910	 0.465677947030339 
1911	 0.465273868622373 
1912	 0.464970006398134 
1913	 0.464657885381255 
1914	 0.464413058672234 
1915	 0.4642124497702 
1916	 0.464086595898431 
1917	 0.463932148070921 
1918	 0.463822852840067 
1919	 0.463766667387947 
1920	 0.463690409911801 
1921	 0.463631122664177 
1922	 0.46355467632206 
1923	 0.463426636381931 
1924	 0.463344864175051 
1925	 0.46328458769209 
1926	 0.463271025613561 
1927	 0.463313322890274 
1928	 0.463382354805846 
1929	 0.463478747464516 
1930	 0.463628058002556 
1931	 0.463781012355063 
1932	 0.463921507592732 
1933	 0.464065446792304 
1934	 0.464160268754522 
1935	 0.464245908807223 
1936	 0.464361597443606 
1937	 0.464503057362448 
1938	 0.464630596408002 
1939	 0.464825120042899 
1940	 0.465065997997699 
1941	 0.465353239635676 
1942	 0.465623753662415 
1943	 0.465953718312684 
1944	 0.466323131512067 
1945	 0.466607706195756 
1946	 0.466873872992285 
1947	 0.467126507384568 
1948	 0.467350795882081 
1949	 0.467588475184748 
1950	 0.467823262544456 
1951	 0.468087650446659 
1952	 0.468328916956755 
1953	 0.468548756196783 
1954	 0.468758147922489 
1955	 0.469019255267313 
1956	 0.469239936591111 
1957	 0.469450845621611 
1958	 0.469726142731884 
1959	 0.469950663016543 
1960	 0.470183805520944 
1961	 0.470426909091171 
1962	 0.470659041731967 
1963	 0.470908453827355 
1964	 0.471175200142678 
1965	 0.471456090635379 
1966	 0.471761499368899 
1967	 0.472062351251799 
1968	 0.472358221413719 
1969	 0.47261785698394 
1970	 0.472878072079751 
1971	 0.473140405119659 
1972	 0.473380777202572 
1973	 0.473639069630755 
1974	 0.473881836066734 
1975	 0.474112967341675 
1976	 0.474327458841662 
1977	 0.474545216592629 
1978	 0.474746610759054 
1979	 0.474933720114937 
1980	 0.475074272093103 
1981	 0.475264532984064 
1982	 0.475411715662583 
1983	 0.475537068477209 
1984	 0.475714580529457 
1985	 0.475895586944791 
1986	 0.476042416920271 
1987	 0.476165004516007 
1988	 0.47626335214561 
1989	 0.476374448928238 
1990	 0.476441720241443 
1991	 0.476556022841103 
1992	 0.476711643024575 
1993	 0.476847202666844 
1994	 0.477003469092907 
1995	 0.477141103039619 
1996	 0.477235364422056 
1997	 0.477337281619899 
1998	 0.477434507211259 
1999	 0.47748469785368 
2000	 0.477601365690262 
2001	 0.477751448350466 
2002	 0.477900656430887 
2003	 0.47809632114459 
2004	 0.478267523615479 
2005	 0.478441624744676 
2006	 0.478595375158092 
2007	 0.478774722799514 
2008	 0.478879139762083 
2009	 0.478916668853389 
2010	 0.478948448177584 
2011	 0.478942205813765 
2012	 0.478866680046258 
2013	 0.478787221324723 
2014	 0.478665683787679 
2015	 0.478565990724752 
2016	 0.478428661861511 
2017	 0.478338532413958 
2018	 0.478278175828122 
2019	 0.478236659904811 
2020	 0.478208114234752 
2021	 0.478205791146489 
2022	 0.478247821074061 
2023	 0.47823598333109 
2024	 0.478167165784491 
2025	 0.478060598357419 
2026	 0.477943832815768 
2027	 0.477758605420545 
2028	 0.477603020339825 
2029	 0.477453255448311 
2030	 0.477300522954452 
2031	 0.477119492633843 
2032	 0.476969428731891 
2033	 0.476859838412212 
2034	 0.476725476983313 
2035	 0.47658965338879 
2036	 0.476443600963518 
2037	 0.476315056687915 
2038	 0.476141948057837 
2039	 0.475998960002303 
2040	 0.47587260470469 
2041	 0.475747239188313 
2042	 0.475600191340051 
2043	 0.475513817900032 
2044	 0.475464241485859 
2045	 0.475407516471873 
2046	 0.475404330644584 
2047	 0.475360647753166 
2048	 0.475284333087708 
2049	 0.475229583224447 
2050	 0.47516765668275 
2051	 0.475112606355327 
2052	 0.475109496797566 
2053	 0.475100904279664 
2054	 0.475117081113704 
2055	 0.475187573212617 
2056	 0.475207780826407 
2057	 0.475212157171301 
2058	 0.475233636086699 
2059	 0.475279396630139 
2060	 0.475248099352748 
2061	 0.475190498741991 
2062	 0.475118136345074 
2063	 0.474957240499458 
2064	 0.474837634316609 
2065	 0.474685832362327 
2066	 0.474645622411227 
2067	 0.474611702327033 
2068	 0.47458009982376 
2069	 0.474566243758811 
2070	 0.474599608121094 
2071	 0.474605120519988 
2072	 0.474612287219079 
2073	 0.474607663281603 
2074	 0.474610858510301 
2075	 0.474600873321292 
2076	 0.474577368303429 
2077	 0.474532309436476 
2078	 0.474479385215355 
2079	 0.474410794969501 
2080	 0.474278421501487 
2081	 0.47420187298092 
2082	 0.474156082086678 
2083	 0.47411937666756 
2084	 0.474045033009003 
2085	 0.473986992267567 
2086	 0.473906104808699 
2087	 0.47378696067822 
2088	 0.473671752642148 
2089	 0.473564692027787 
2090	 0.473440939591543 
2091	 0.473252189886854 
2092	 0.473133713624023 
2093	 0.473029395533274 
2094	 0.472975650698147 
2095	 0.473000905749368 
2096	 0.47299899010096 
2097	 0.473026418346228 
2098	 0.473029871613685 
2099	 0.473066796230354 
2100	 0.47306397786388 
2101	 0.473033232245644 
2102	 0.473014386721304 
2103	 0.472937500685594 
2104	 0.472790502756075 
2105	 0.472652216095729 
2106	 0.472490137715566 
2107	 0.472331908897988 
2108	 0.47215564490019 
2109	 0.471986575219369 
2110	 0.471810463449447 
2111	 0.471645619963833 
2112	 0.471477134314577 
2113	 0.471312994445507 
2114	 0.471167435909912 
2115	 0.471022071589527 
2116	 0.470869250533053 
2117	 0.470727338581576 
2118	 0.470589780511477 
2119	 0.47044511303272 
2120	 0.470339562455749 
2121	 0.470251600376294 
2122	 0.470177736852726 
2123	 0.470173490805589 
2124	 0.470081790358251 
2125	 0.469965292856196 
2126	 0.469833449936702 
2127	 0.469642931825551 
2128	 0.469472062349776 
2129	 0.469281085365805 
2130	 0.469122628063271 
2131	 0.468959640790979 
2132	 0.468829786827781 
2133	 0.468739696739203 
2134	 0.468671103659286 
2135	 0.468557040087758 
2136	 0.468475750299634 
2137	 0.468361178848178 
2138	 0.46823141171863 
2139	 0.468070747652519 
2140	 0.467887754187119 
2141	 0.467701442446029 
2142	 0.467476102921652 
2143	 0.467277562557418 
2144	 0.467080429929683 
2145	 0.466908350782106 
2146	 0.466743141256672 
2147	 0.466590094106918 
2148	 0.466476471675101 
2149	 0.466341904431373 
2150	 0.466231350414748 
2151	 0.466070619443123 
2152	 0.465901580019932 
2153	 0.465674546066305 
2154	 0.465423959589972 
2155	 0.46517979726335 
2156	 0.46495942337142 
2157	 0.464744594444926 
2158	 0.464553322383902 
2159	 0.464409376362063 
2160	 0.464196508045362 
2161	 0.463981227638998 
2162	 0.463739449388975 
2163	 0.463445696460409 
2164	 0.46315904594052 
2165	 0.462864535384007 
2166	 0.462559324816848 
2167	 0.46222645120885 
2168	 0.461916394453488 
2169	 0.461566516137998 
2170	 0.461303985041991 
2171	 0.461083893837265 
2172	 0.460889441177115 
2173	 0.460741632675541 
2174	 0.460664117184964 
2175	 0.46057106349352 
2176	 0.460414787587789 
2177	 0.460279623990664 
2178	 0.460154341492904 
2179	 0.459971323620968 
2180	 0.459769315323725 
2181	 0.459542197020641 
2182	 0.459248762952475 
2183	 0.459007814201038 
2184	 0.458775325986636 
2185	 0.458537513328318 
2186	 0.458301146271362 
2187	 0.458081835525605 
2188	 0.457845488302223 
2189	 0.457655393987126 
2190	 0.457509828721826 
2191	 0.4573604022608 
2192	 0.457263085276451 
2193	 0.457114876590798 
2194	 0.456957087442363 
2195	 0.456777504361042 
2196	 0.45655924243067 
2197	 0.456315147663832 
2198	 0.456132457002555 
2199	 0.455949471423961 
2200	 0.45580270862401 
2201	 0.455728017281679 
2202	 0.455568152517925 
2203	 0.455374773066481 
2204	 0.45520848456737 
2205	 0.45500225263289 
2206	 0.454847070322778 
2207	 0.454742159504128 
2208	 0.454628692342621 
2209	 0.454552086130792 
2210	 0.45440068781477 
2211	 0.454195114186677 
2212	 0.454049997027863 
2213	 0.453904237162821 
2214	 0.453738584482561 
2215	 0.453669184651314 
2216	 0.453470656909938 
2217	 0.453136714709912 
2218	 0.452845291588537 
2219	 0.452520223507476 
2220	 0.452195884474433 
2221	 0.451890712102296 
2222	 0.451564542527677 
2223	 0.451191378648005 
2224	 0.450798049948981 
2225	 0.45037315253739 
2226	 0.450004411366122 
2227	 0.449687178306479 
2228	 0.449437494268968 
2229	 0.44913958042716 
2230	 0.448893568669482 
2231	 0.448557364070643 
2232	 0.448208602997878 
2233	 0.447745290294624 
2234	 0.447252676360858 
2235	 0.446620201084633 
2236	 0.445841844846837 
2237	 0.445021089720862 
2238	 0.444079368213787 
2239	 0.443130087757262 
2240	 0.442109995967341 
2241	 0.441090636036138 
2242	 0.440053350101482 
2243	 0.43897999522998 
2244	 0.437878529783569 
2245	 0.436752110627904 
2246	 0.435579659451726 
2247	 0.434392695377375 
2248	 0.43320009677713 
2249	 0.431951994196304 
2250	 0.430673770903378 
2251	 0.429375192763857 
2252	 0.427899289580899 
2253	 0.426479676858612 
2254	 0.424975911119201 
2255	 0.423359690611163 
2256	 0.421888020307466 
2257	 0.420438103348441 
2258	 0.419040738655969 
2259	 0.417730388151233 
2260	 0.416385086463662 
2261	 0.415040356237746 
2262	 0.413758983323788 
2263	 0.412446603759316 
2264	 0.411305319956819 
2265	 0.410302188876565 
2266	 0.409263583810056 
2267	 0.408398744868286 
2268	 0.40733369115254 
2269	 0.406163171424457 
2270	 0.405018366466589 
2271	 0.403752189532184 
2272	 0.402586224332981 
2273	 0.401462592206544 
2274	 0.400359979853718 
2275	 0.399303059853185 
2276	 0.398251222389029 
2277	 0.397256755604868 
2278	 0.396218824556061 
2279	 0.395199837856649 
2280	 0.394108876852062 
2281	 0.392973145539104 
2282	 0.391794582227524 
2283	 0.39058565373265 
2284	 0.389300570886781 
2285	 0.387908060054423 
2286	 0.386535981326302 
2287	 0.38508351782723 
2288	 0.383591210573212 
2289	 0.382220528379974 
2290	 0.380826442793691 
2291	 0.379413608686863 
2292	 0.378039688110162 
2293	 0.37662697574195 
2294	 0.375259169430879 
2295	 0.373941580187176 
2296	 0.372663516337975 
2297	 0.371627792479681 
2298	 0.3706803589862 
2299	 0.370019984548314 
2300	 0.369583486698501 
2301	 0.369444284686791 
2302	 0.369573139687396 
2303	 0.36989370917472 
2304	 0.370592237903388 
2305	 0.371261686046189 
2306	 0.372072417351177 
2307	 0.372996875202029 
2308	 0.373964698251635 
2309	 0.375183342571014 
2310	 0.376673639140852 
2311	 0.378157495618307 
2312	 0.379961475456745 
2313	 0.381467345962119 
2314	 0.382880988568417 
2315	 0.384261643033742 
2316	 0.385508618949009 
2317	 0.386732881867565 
2318	 0.388042289269005 
2319	 0.389067794686524 
2320	 0.389941306185564 
2321	 0.390656907736164 
2322	 0.391182369699999 
2323	 0.391554359767203 
2324	 0.391688022667314 
2325	 0.391817050823242 
2326	 0.391734596955192 
2327	 0.391694667366402 
2328	 0.39177255824852 
2329	 0.391597443030865 
2330	 0.391279890550464 
2331	 0.3908820377469 
2332	 0.390380661158264 
2333	 0.389666981603335 
2334	 0.388852241968042 
2335	 0.388083183671948 
2336	 0.387134480118613 
2337	 0.386183496115676 
2338	 0.385479113200716 
2339	 0.384724681149275 
2340	 0.383958979919751 
2341	 0.383267235214916 
2342	 0.382536564419454 
2343	 0.381903850028554 
2344	 0.381457640836956 
2345	 0.381175716974258 
2346	 0.38111935992795 
2347	 0.381368330156462 
2348	 0.381731130481354 
2349	 0.382326693704388 
2350	 0.383132294913912 
2351	 0.383959061972276 
2352	 0.38497318304807 
2353	 0.385956033928747 
2354	 0.386709881410977 
2355	 0.387488280478967 
2356	 0.388129261734994 
2357	 0.388727780504365 
2358	 0.389473579125032 
2359	 0.389963767539524 
2360	 0.39040013489418 
2361	 0.390755050598649 
2362	 0.390876584597351 
2363	 0.391010916770626 
2364	 0.391023569790834 
2365	 0.390980867930425 
2366	 0.391111326655625 
2367	 0.391285997211381 
2368	 0.391345138720024 
2369	 0.391439790162774 
2370	 0.391445280668874 
2371	 0.391170275785823 
2372	 0.39099097374275 
2373	 0.390916068619323 
2374	 0.39067643650098 
2375	 0.390543426611805 
2376	 0.390533546718294 
2377	 0.390482913486647 
2378	 0.390555214498946 
2379	 0.390626776088318 
2380	 0.390601884091482 
2381	 0.390585902264992 
2382	 0.390668535710436 
2383	 0.390814762853046 
2384	 0.390942938273643 
2385	 0.391174369726645 
2386	 0.391355898974664 
2387	 0.391535971999127 
2388	 0.391639292654566 
2389	 0.391717556072697 
2390	 0.391673353955822 
2391	 0.391438348714169 
2392	 0.391261438103184 
2393	 0.391099780057212 
2394	 0.391029880964983 
2395	 0.390874429662124 
2396	 0.39098536200253 
2397	 0.391343438970744 
2398	 0.391511903697184 
2399	 0.391851325712036 
2400	 0.391976934162088 
2401	 0.391871316943483 
2402	 0.391677238666941 
2403	 0.391491214481708 
2404	 0.391423362967964 
2405	 0.391379476102465 
2406	 0.391276879019168 
2407	 0.39117307424039 
2408	 0.391007227490432 
2409	 0.390719627594996 
2410	 0.390390156938606 
2411	 0.39020524362009 
2412	 0.390243247183647 
2413	 0.390350582289517 
2414	 0.39046849802708 
2415	 0.390603194800024 
2416	 0.390511953377077 
2417	 0.390465005693019 
2418	 0.390539038629867 
2419	 0.390605705992649 
2420	 0.390935799584234 
2421	 0.391112488543387 
2422	 0.391008343040592 
2423	 0.390854501653197 
2424	 0.390587321920979 
2425	 0.3903797200433 
2426	 0.390187268657579 
2427	 0.389953954494478 
2428	 0.389740170197425 
2429	 0.389670263806376 
2430	 0.389601105992807 
2431	 0.389460300814705 
2432	 0.389272417339395 
2433	 0.388675359999938 
2434	 0.38807550088033 
2435	 0.387849136332823 
2436	 0.387664807742423 
2437	 0.387572127353986 
2438	 0.387746535226347 
2439	 0.38756736512346 
2440	 0.386922636604269 
2441	 0.3865752623202 
2442	 0.386424750365618 
2443	 0.386327999193728 
2444	 0.386294847261214 
2445	 0.386177743461074 
2446	 0.385779774773521 
2447	 0.385056231872771 
2448	 0.384799758878809 
2449	 0.384536841196351 
2450	 0.383567690413044 
2451	 0.383144187394524 
2452	 0.382900375727286 
2453	 0.382368853298994 
2454	 0.382508398065817 
2455	 0.382444118130168 
2456	 0.38205748041791 
2457	 0.38184331359273 
2458	 0.381360481305924 
2459	 0.380985617072218 
2460	 0.38079178865216 
2461	 0.380436230015071 
2462	 0.380090542864473 
2463	 0.379767472967875 
2464	 0.379444648775946 
2465	 0.379234894310213 
2466	 0.37929526195664 
2467	 0.37942359412866 
2468	 0.379041987255265 
2469	 0.378509805764399 
2470	 0.378245716884676 
2471	 0.378157899403352 
2472	 0.378314756342495 
2473	 0.378536766352331 
2474	 0.37856829321578 
2475	 0.378365022005861 
2476	 0.378116841504331 
2477	 0.37805058128267 
2478	 0.37800512019138 
2479	 0.377951206691586 
2480	 0.378167108946309 
2481	 0.378324124062307 
2482	 0.378383581666072 
2483	 0.378076256849553 
2484	 0.37803598047676 
2485	 0.37786287011773 
2486	 0.37804588494329 
2487	 0.378306310652092 
2488	 0.378046987266538 
2489	 0.377922917426084 
2490	 0.377959553317416 
2491	 0.37801403480944 
2492	 0.378484512853025 
2493	 0.378941292866829 
2494	 0.379264347980531 
2495	 0.379705407619055 
2496	 0.380149415769466 
2497	 0.380392817074878 
2498	 0.380874218889663 
2499	 0.38112705612213 
2500	 0.381157853881791 
