Wavelength	spectrum00014.asd
350	 3.90908315167034E-02 
351	 4.05467637757957E-02 
352	 4.18207758027845E-02 
353	 3.89791243116785E-02 
354	 3.96532171357008E-02 
355	 3.89332319651675E-02 
356	 3.75642832972027E-02 
357	 3.70981060276846E-02 
358	 3.82616995191177E-02 
359	 3.63381766957424E-02 
360	 3.41810513651859E-02 
361	 3.68956646697935E-02 
362	 3.52029423322093E-02 
363	 3.37275771757631E-02 
364	 3.42800017796991E-02 
365	 3.33834600560852E-02 
366	 3.20891286237257E-02 
367	 3.11911330212187E-02 
368	 3.12826248402076E-02 
369	 3.27343046927423E-02 
370	 3.16933266293577E-02 
371	 3.05034533799135E-02 
372	 0.033909342571526 
373	 3.39768864050617E-02 
374	 0.033391937151912 
375	 3.32053511344733E-02 
376	 3.03960045848306E-02 
377	 3.03341897980583E-02 
378	 3.25634345680218E-02 
379	 3.44261150504273E-02 
380	 3.14968455812806E-02 
381	 3.00099156340854E-02 
382	 3.05996261870936E-02 
383	 3.05128279959266E-02 
384	 3.15381033729204E-02 
385	 3.26303279047112E-02 
386	 3.31454783716611E-02 
387	 3.35104130363405E-02 
388	 0.033147494825773 
389	 0.033246886227714 
390	 3.44157333409897E-02 
391	 3.34106172158605E-02 
392	 3.23654356188586E-02 
393	 3.22375661596873E-02 
394	 3.29204627951741E-02 
395	 3.29579068727189E-02 
396	 3.29093134738156E-02 
397	 3.28620572436722E-02 
398	 3.14663833449459E-02 
399	 3.25220618153044E-02 
400	 3.41075259645937E-02 
401	 3.35445298845288E-02 
402	 3.23198167530489E-02 
403	 3.18227350768267E-02 
404	 3.27886364116426E-02 
405	 0.035122527559649 
406	 3.48854344179297E-02 
407	 3.39854187622728E-02 
408	 3.39741137629498E-02 
409	 3.39978564146583E-02 
410	 3.39929417136742E-02 
411	 0.033978718474171 
412	 3.40539384365806E-02 
413	 3.44159444862147E-02 
414	 3.49739862346052E-02 
415	 3.55005756943179E-02 
416	 3.56863040254083E-02 
417	 3.55935964351012E-02 
418	 3.54064731376305E-02 
419	 3.54354501641202E-02 
420	 3.63904570523698E-02 
421	 3.64676147552829E-02 
422	 3.62537894599871E-02 
423	 3.69669747013387E-02 
424	 3.69343945107221E-02 
425	 3.68403840015327E-02 
426	 3.71572789102026E-02 
427	 3.79030986341548E-02 
428	 3.81067600862156E-02 
429	 3.81426757462739E-02 
430	 3.85046637262001E-02 
431	 3.91166905280883E-02 
432	 0.039340013343969 
433	 3.94567030960963E-02 
434	 4.01501760214702E-02 
435	 4.06584984058669E-02 
436	 4.10214090929872E-02 
437	 4.13836720307805E-02 
438	 4.19085395601988E-02 
439	 4.23785863757741E-02 
440	 4.27506994062244E-02 
441	 4.30711508174624E-02 
442	 4.35136053955638E-02 
443	 4.39793288510953E-02 
444	 4.44458688348707E-02 
445	 4.49514050665702E-02 
446	 4.53693766459048E-02 
447	 4.57677940131069E-02 
448	 4.62352260717394E-02 
449	 4.68679426098041E-02 
450	 4.72729158626125E-02 
451	 4.76966748434321E-02 
452	 0.048493274522232 
453	 4.90449594416949E-02 
454	 4.94667355955018E-02 
455	 4.98440502380659E-02 
456	 5.01770056596702E-02 
457	 5.07737769685016E-02 
458	 5.14429289881798E-02 
459	 5.19676000769891E-02 
460	 5.24005829311949E-02 
461	 5.29444556129874E-02 
462	 5.34810451261101E-02 
463	 0.05377725709423 
464	 5.43236155212054E-02 
465	 5.47676052871544E-02 
466	 0.055038323479624 
467	 5.56427630619457E-02 
468	 5.62944750125319E-02 
469	 5.67432859206363E-02 
470	 5.69299434709568E-02 
471	 5.75389430043893E-02 
472	 5.80312057410815E-02 
473	 5.83133821145102E-02 
474	 5.86833251099418E-02 
475	 5.92543943548967E-02 
476	 5.98277995801773E-02 
477	 6.02716130267398E-02 
478	 0.06073997622746 
479	 6.09594180966743E-02 
480	 6.12028539900929E-02 
481	 6.18229064633013E-02 
482	 6.22177231196736E-02 
483	 6.26712868133892E-02 
484	 6.31375616863821E-02 
485	 6.31385495139113E-02 
486	 6.36109904604867E-02 
487	 6.42221298744548E-02 
488	 0.064535047964865 
489	 6.47567714629035E-02 
490	 6.49724317416604E-02 
491	 0.065239582175636 
492	 6.55755597109596E-02 
493	 0.065827298322887 
494	 6.61710141674228E-02 
495	 6.66072899613961E-02 
496	 6.67806980934822E-02 
497	 6.69011649042766E-02 
498	 6.70287507758817E-02 
499	 6.71689692156358E-02 
500	 6.72625997796823E-02 
501	 6.75214848972672E-02 
502	 6.78509435000452E-02 
503	 6.78995480772338E-02 
504	 6.78417024668299E-02 
505	 6.78994447760641E-02 
506	 6.81230928532339E-02 
507	 6.81459731197402E-02 
508	 6.80785535313463E-02 
509	 0.068003291559647 
510	 6.79688300957954E-02 
511	 6.78298070170887E-02 
512	 6.76166844297519E-02 
513	 0.067436373595135 
514	 6.74739211235406E-02 
515	 6.73098588049169E-02 
516	 6.70756624317726E-02 
517	 6.69484937332139E-02 
518	 6.67263010292071E-02 
519	 6.64785912709885E-02 
520	 6.62227881677816E-02 
521	 6.59367788916133E-02 
522	 0.06558537892047 
523	 6.53028269892501E-02 
524	 6.51255291931436E-02 
525	 6.48633787999839E-02 
526	 6.45203612878926E-02 
527	 6.41011158843572E-02 
528	 6.36555320653291E-02 
529	 6.34474996653442E-02 
530	 6.30713372317661E-02 
531	 6.25162931656978E-02 
532	 6.22197482216104E-02 
533	 6.19016972010865E-02 
534	 0.061495631431034 
535	 6.10246774312569E-02 
536	 6.06344955934982E-02 
537	 6.02468167184507E-02 
538	 0.059828482076446 
539	 5.93757465265039E-02 
540	 5.89054509978851E-02 
541	 5.84520375615209E-02 
542	 5.80159238795766E-02 
543	 5.75382074654537E-02 
544	 5.70966440542017E-02 
545	 5.67112628241374E-02 
546	 5.63483401028723E-02 
547	 5.58141787845777E-02 
548	 5.53511772485954E-02 
549	 5.49917269109838E-02 
550	 5.45735460353493E-02 
551	 5.41860294231569E-02 
552	 5.37710993230741E-02 
553	 5.33102673536902E-02 
554	 5.29552712714995E-02 
555	 0.052581988340362 
556	 0.052123937303411 
557	 5.15831369622603E-02 
558	 5.12470202236947E-02 
559	 5.08782304428106E-02 
560	 5.04162750112832E-02 
561	 5.01189930342427E-02 
562	 4.96920633803443E-02 
563	 4.92423077425593E-02 
564	 4.88914468578165E-02 
565	 4.83763441427064E-02 
566	 4.78408966786465E-02 
567	 4.73383440274356E-02 
568	 4.68525905021644E-02 
569	 0.046469955530236 
570	 4.61431528216671E-02 
571	 4.58563880128879E-02 
572	 4.57031438331227E-02 
573	 4.56767766928497E-02 
574	 0.04568409054704 
575	 4.55838143451348E-02 
576	 4.52274930368239E-02 
577	 4.46942229020469E-02 
578	 4.40952872932527E-02 
579	 4.35532590357423E-02 
580	 4.31080046428684E-02 
581	 4.27689796968161E-02 
582	 0.042523282256543 
583	 4.23503375885103E-02 
584	 4.21739830939539E-02 
585	 4.19876034532072E-02 
586	 4.18199984618725E-02 
587	 4.16027004101199E-02 
588	 4.13480284005942E-02 
589	 4.10713732371638E-02 
590	 4.07691466219307E-02 
591	 4.06023103047407E-02 
592	 4.05397263823063E-02 
593	 4.04693216729284E-02 
594	 4.02506133148179E-02 
595	 3.99896873261196E-02 
596	 3.96769665381549E-02 
597	 3.92134775053131E-02 
598	 3.88106107141884E-02 
599	 3.84886238280056E-02 
600	 3.82327321668038E-02 
601	 3.80515200823746E-02 
602	 3.78638222119063E-02 
603	 3.76935170099247E-02 
604	 3.75959463164101E-02 
605	 3.74946840671696E-02 
606	 3.73381546156938E-02 
607	 3.71473738817443E-02 
608	 0.037028071439889 
609	 0.036872829128816 
610	 0.036691923720616 
611	 3.65210019461218E-02 
612	 0.036376048053039 
613	 3.62613397301517E-02 
614	 3.61669211640906E-02 
615	 3.60673305036262E-02 
616	 3.58871872447893E-02 
617	 3.57300620293383E-02 
618	 3.56391191656452E-02 
619	 3.55051696906841E-02 
620	 0.035416929095975 
621	 3.53422057134866E-02 
622	 3.52302833402907E-02 
623	 3.51406160714216E-02 
624	 3.50608355968897E-02 
625	 3.49907852309617E-02 
626	 3.49424511675009E-02 
627	 3.48851370908406E-02 
628	 3.47993110461902E-02 
629	 0.034705366524876 
630	 3.47263675720597E-02 
631	 3.46791827619192E-02 
632	 3.45872052104579E-02 
633	 3.45528709898008E-02 
634	 3.45080200155645E-02 
635	 3.45133432769019E-02 
636	 3.45494724191608E-02 
637	 3.44887275207934E-02 
638	 3.44135761738638E-02 
639	 3.43776468309891E-02 
640	 3.44027384300161E-02 
641	 3.44397079314888E-02 
642	 3.44392840480806E-02 
643	 3.44392063426475E-02 
644	 3.45122262569484E-02 
645	 3.45005948511926E-02 
646	 3.44995708487513E-02 
647	 3.45493904607589E-02 
648	 3.45481457142134E-02 
649	 3.45659553774189E-02 
650	 3.46106298517415E-02 
651	 3.46754238895684E-02 
652	 3.47850529955486E-02 
653	 3.48366314666647E-02 
654	 3.48425793371916E-02 
655	 3.49052677388415E-02 
656	 3.49658357392861E-02 
657	 3.50257933851514E-02 
658	 3.50936612375578E-02 
659	 3.51742812019196E-02 
660	 3.52592302667864E-02 
661	 3.53591006711734E-02 
662	 3.54793503045887E-02 
663	 0.035557826714421 
664	 3.56567030332553E-02 
665	 3.57754108333191E-02 
666	 3.58467104568501E-02 
667	 3.59249670572486E-02 
668	 3.60409273456288E-02 
669	 0.036188738191489 
670	 3.62849323364072E-02 
671	 3.63624494844211E-02 
672	 3.64662632605486E-02 
673	 3.66292606859741E-02 
674	 3.67541148343609E-02 
675	 3.68898840973972E-02 
676	 3.70395604825331E-02 
677	 3.71374399468404E-02 
678	 3.72200976283682E-02 
679	 3.73326518473463E-02 
680	 0.037502016538512 
681	 0.037705674727536 
682	 3.78648020690236E-02 
683	 0.03800589530816 
684	 3.81981635796603E-02 
685	 3.83220538810851E-02 
686	 3.84784707586201E-02 
687	 3.86787691814288E-02 
688	 3.87787638568885E-02 
689	 3.89526885325165E-02 
690	 3.91338634168835E-02 
691	 3.92484730636659E-02 
692	 3.94229430541818E-02 
693	 3.96304171856219E-02 
694	 3.98378175869452E-02 
695	 0.040014225157658 
696	 4.01896804752178E-02 
697	 4.03743521809169E-02 
698	 4.05638544177978E-02 
699	 4.07353366850111E-02 
700	 4.09163113056915E-02 
701	 4.11147725349284E-02 
702	 4.13229514010228E-02 
703	 4.14975180463879E-02 
704	 4.16881262549916E-02 
705	 4.19007379921439E-02 
706	 4.21090339544767E-02 
707	 4.23096486573358E-02 
708	 4.25107279450075E-02 
709	 4.27101764861914E-02 
710	 4.28846565124962E-02 
711	 4.30726238341323E-02 
712	 4.32617068310449E-02 
713	 4.34418276476413E-02 
714	 4.36751285503677E-02 
715	 4.39273404969072E-02 
716	 4.41446851811203E-02 
717	 4.42779222389234E-02 
718	 4.44525528864133E-02 
719	 4.46582581705824E-02 
720	 4.48699354669756E-02 
721	 4.50719738137743E-02 
722	 4.52756350129664E-02 
723	 4.54849899107344E-02 
724	 4.56999973946499E-02 
725	 0.045913385760057 
726	 0.046121774553863 
727	 4.63248168839943E-02 
728	 4.65237054746961E-02 
729	 4.67037604664813E-02 
730	 4.68825545603857E-02 
731	 4.70752618822777E-02 
732	 4.72863418054101E-02 
733	 4.74934252869013E-02 
734	 4.76731548859168E-02 
735	 4.78278466625879E-02 
736	 4.80525906450506E-02 
737	 4.82653771603112E-02 
738	 4.84588175223151E-02 
739	 4.86683082612433E-02 
740	 4.88137809107901E-02 
741	 4.89982569048067E-02 
742	 4.92386726160549E-02 
743	 4.93934081139984E-02 
744	 4.95674560095262E-02 
745	 4.97646751688569E-02 
746	 4.99554781536403E-02 
747	 5.00886583968058E-02 
748	 5.02524747996308E-02 
749	 5.04499180659589E-02 
750	 0.050634436611905 
751	 5.08128284837331E-02 
752	 5.09774209018252E-02 
753	 5.11307006802891E-02 
754	 5.12888520837518E-02 
755	 5.14471744797083E-02 
756	 5.16161258786533E-02 
757	 0.051796515631583 
758	 5.19522809127638E-02 
759	 5.21102149589045E-02 
760	 5.22845750849799E-02 
761	 5.24709726036189E-02 
762	 0.052591442715799 
763	 5.27341731018915E-02 
764	 5.29121663970559E-02 
765	 5.30490598645104E-02 
766	 5.31694290007013E-02 
767	 5.33222422342775E-02 
768	 5.35134779231765E-02 
769	 5.36356470942861E-02 
770	 5.37849246877505E-02 
771	 0.053956255718349 
772	 5.41115072840159E-02 
773	 5.42453112618714E-02 
774	 5.43761556575672E-02 
775	 0.054512651150516 
776	 0.054653825144433 
777	 5.47931055295297E-02 
778	 5.49504347749044E-02 
779	 5.51265898830091E-02 
780	 5.52853541994296E-02 
781	 5.54127608053692E-02 
782	 5.55344387963688E-02 
783	 5.56762136456954E-02 
784	 5.58150581313988E-02 
785	 5.59827738058965E-02 
786	 5.61489643153457E-02 
787	 5.62669515974971E-02 
788	 5.64558664347042E-02 
789	 5.66318042903523E-02 
790	 5.67583398617877E-02 
791	 5.68802487117942E-02 
792	 5.70455700602301E-02 
793	 5.72206650716073E-02 
794	 0.05737972232829 
795	 5.75706459686832E-02 
796	 5.76984174174515E-02 
797	 5.78060574763155E-02 
798	 5.79650612031111E-02 
799	 5.81050996627232E-02 
800	 5.82760373150888E-02 
801	 5.84841797201292E-02 
802	 5.86927680834743E-02 
803	 5.88343770028265E-02 
804	 5.89789039258484E-02 
805	 5.91702981958672E-02 
806	 5.93842341524984E-02 
807	 5.95265430601209E-02 
808	 5.96604448575347E-02 
809	 5.98483588211066E-02 
810	 6.00208088977533E-02 
811	 6.02018228283437E-02 
812	 6.04082029015234E-02 
813	 6.06420368348183E-02 
814	 6.08440745429926E-02 
815	 6.10293881404374E-02 
816	 6.12088280409653E-02 
817	 6.13876571505082E-02 
818	 6.16062022693333E-02 
819	 6.18314696629793E-02 
820	 6.20447266782746E-02 
821	 6.22703015158704E-02 
822	 6.25038570576141E-02 
823	 6.27175389465743E-02 
824	 6.29093232609203E-02 
825	 6.31737606137772E-02 
826	 6.34475942947447E-02 
827	 6.37000597936191E-02 
828	 0.063925802121713 
829	 0.064169379767939 
830	 6.44216391192368E-02 
831	 6.46869150257004E-02 
832	 0.064978069512238 
833	 6.52497943189299E-02 
834	 6.55194269475169E-02 
835	 6.57986003494254E-02 
836	 6.60760274740076E-02 
837	 6.63618904561051E-02 
838	 6.66658512273987E-02 
839	 6.69834472378511E-02 
840	 6.72706966980882E-02 
841	 6.75741847520356E-02 
842	 0.067900566129718 
843	 6.82401037452027E-02 
844	 6.85931741381072E-02 
845	 6.89315578104998E-02 
846	 6.92540410241794E-02 
847	 6.95833764494355E-02 
848	 6.99503346372332E-02 
849	 7.03087921049417E-02 
850	 7.06533878281522E-02 
851	 7.10355892647568E-02 
852	 7.13860173873153E-02 
853	 7.17394905700195E-02 
854	 7.21425492140601E-02 
855	 7.26265939458918E-02 
856	 7.30223699813731E-02 
857	 7.33827806611081E-02 
858	 7.38002889814424E-02 
859	 7.42211022446551E-02 
860	 7.46824090254639E-02 
861	 7.51472590798362E-02 
862	 7.55617046966329E-02 
863	 7.60134432132152E-02 
864	 7.64821048859155E-02 
865	 7.69618741199378E-02 
866	 7.74619856658536E-02 
867	 7.79477793696241E-02 
868	 7.84977985185763E-02 
869	 7.90913480741059E-02 
870	 0.079562832151604 
871	 8.01091778720858E-02 
872	 0.080694352109447 
873	 8.12631503562708E-02 
874	 8.18384217882156E-02 
875	 8.24238913785038E-02 
876	 8.29995928316177E-02 
877	 8.35699645815573E-02 
878	 8.42590125842926E-02 
879	 8.49283100562237E-02 
880	 8.55385094683732E-02 
881	 8.61211310233942E-02 
882	 8.67778368034707E-02 
883	 8.74314947037472E-02 
884	 8.80930323774432E-02 
885	 8.88312314702168E-02 
886	 8.95285914811362E-02 
887	 9.02107199092178E-02 
888	 9.09168574755677E-02 
889	 9.16751533896187E-02 
890	 9.24595466456685E-02 
891	 9.32072386295045E-02 
892	 9.39156921566059E-02 
893	 9.46864929318493E-02 
894	 9.55250569769243E-02 
895	 9.63273920522941E-02 
896	 0.0970537843343 
897	 9.79072122133837E-02 
898	 9.86921126395923E-02 
899	 9.94605587310071E-02 
900	 0.100317627365631 
901	 0.101225473335353 
902	 0.102127919882383 
903	 0.102998704415454 
904	 0.103851234326682 
905	 0.104790553205662 
906	 0.105770695814075 
907	 0.106662450574123 
908	 0.107372525141466 
909	 0.108445143971328 
910	 0.109502159982019 
911	 0.11041163965173 
912	 0.111376680574362 
913	 0.112285572476223 
914	 0.113315873732666 
915	 0.11446774414464 
916	 0.115462199972628 
917	 0.1164181634269 
918	 0.117429332184509 
919	 0.118532331005726 
920	 0.119665959151071 
921	 0.120798551552402 
922	 0.121855826101429 
923	 0.12284930013769 
924	 0.124022220716458 
925	 0.12521156689338 
926	 0.126392917937488 
927	 0.127569749510737 
928	 0.128687492567705 
929	 0.129754025770587 
930	 0.130855502576424 
931	 0.132082118297925 
932	 0.133410828188849 
933	 0.134706696569654 
934	 0.135935888969726 
935	 0.137142827709484 
936	 0.138405128745672 
937	 0.139589255679838 
938	 0.140776493756199 
939	 0.142150896669191 
940	 0.143503330817336 
941	 0.144857127517035 
942	 0.146169298093473 
943	 0.147352382155467 
944	 0.148483113301454 
945	 0.149805779187451 
946	 0.151248346399669 
947	 0.152448994539487 
948	 0.15379670634982 
949	 0.155165065972125 
950	 0.156455347404708 
951	 0.157715442272852 
952	 0.159188306293466 
953	 0.160481974172525 
954	 0.161537836167871 
955	 0.162924827500067 
956	 0.164296462566279 
957	 0.165639299654516 
958	 0.166989259984597 
959	 0.168353401880837 
960	 0.16959658491342 
961	 0.17077055858455 
962	 0.171913921261544 
963	 0.172937584989861 
964	 0.174305835164614 
965	 0.175782330905462 
966	 0.177091292480004 
967	 0.178328109523126 
968	 0.179631724885045 
969	 0.180876536409424 
970	 0.182013664457294 
971	 0.183386174529805 
972	 0.184765321747113 
973	 0.185943262729601 
974	 0.186933633860172 
975	 0.188313053901333 
976	 0.189608391697158 
977	 0.190870416124902 
978	 0.192226139531369 
979	 0.193504256539792 
980	 0.194794263792378 
981	 0.195992397016028 
982	 0.19705474003925 
983	 0.198321714189705 
984	 0.19958351779037 
985	 0.200918770291363 
986	 0.202360957383064 
987	 0.203505190071341 
988	 0.20457023585552 
989	 0.205699803788991 
990	 0.20693599743924 
991	 0.208089057767238 
992	 0.209309727928148 
993	 0.210627038137544 
994	 0.21194700024834 
995	 0.212937458183675 
996	 0.213967077582366 
997	 0.215170149720626 
998	 0.216476846509313 
999	 0.217495849623791 
1000	 0.218628643761635 
1001	 0.225362317354673 
1002	 0.226574250371639 
1003	 0.227756215921217 
1004	 0.228874553531185 
1005	 0.229889302839369 
1006	 0.231022438499986 
1007	 0.232171082435086 
1008	 0.233330825726174 
1009	 0.234573162670863 
1010	 0.23572898410836 
1011	 0.236852094639752 
1012	 0.237943440132613 
1013	 0.238971340540975 
1014	 0.240054136693277 
1015	 0.241146525825897 
1016	 0.242204539717782 
1017	 0.243359967640134 
1018	 0.244465308988951 
1019	 0.245476624694719 
1020	 0.246575162647919 
1021	 0.247651810835645 
1022	 0.248727942658734 
1023	 0.249732495525297 
1024	 0.250750581615403 
1025	 0.251704977104091 
1026	 0.252545459946983 
1027	 0.253438280413554 
1028	 0.254357976493622 
1029	 0.25522646019573 
1030	 0.256035724989228 
1031	 0.256940795451202 
1032	 0.257905778923805 
1033	 0.258773286006466 
1034	 0.259670479084033 
1035	 0.26050264170826 
1036	 0.261289120659736 
1037	 0.261997502281545 
1038	 0.262728197932455 
1039	 0.263450542649289 
1040	 0.264154419387717 
1041	 0.264794805278796 
1042	 0.265482789730266 
1043	 0.266211625296982 
1044	 0.266886360338988 
1045	 0.267546792472759 
1046	 0.268198201498311 
1047	 0.268827868989378 
1048	 0.269450834519663 
1049	 0.270105934243275 
1050	 0.270754856844494 
1051	 0.271323272538549 
1052	 0.2719427643184 
1053	 0.272584628775359 
1054	 0.273244211961355 
1055	 0.273866252727766 
1056	 0.274496838306485 
1057	 0.275144889847037 
1058	 0.275752227523571 
1059	 0.276409083389401 
1060	 0.277165101669656 
1061	 0.277879972678341 
1062	 0.278609753902194 
1063	 0.279431634824091 
1064	 0.280188246763671 
1065	 0.280992931319907 
1066	 0.281800189254648 
1067	 0.282622209856903 
1068	 0.283537444630836 
1069	 0.284416653817175 
1070	 0.285325388357702 
1071	 0.286283813875369 
1072	 0.287184474232169 
1073	 0.288012947534265 
1074	 0.288915158365955 
1075	 0.289863965547343 
1076	 0.290824950260896 
1077	 0.291829997336256 
1078	 0.292833342983427 
1079	 0.293787342936319 
1080	 0.294788325519154 
1081	 0.295801935725692 
1082	 0.296854213510299 
1083	 0.297907637352347 
1084	 0.298905489597557 
1085	 0.299930428266612 
1086	 0.300881038988765 
1087	 0.301781773088123 
1088	 0.302670883994486 
1089	 0.303560727589952 
1090	 0.304374253695797 
1091	 0.305249669232342 
1092	 0.306071010799985 
1093	 0.306803143354349 
1094	 0.307604593232743 
1095	 0.308375625137916 
1096	 0.309137486523896 
1097	 0.309961450780461 
1098	 0.310638478550413 
1099	 0.311183136317846 
1100	 0.311728689411639 
1101	 0.312218569644559 
1102	 0.312702478626928 
1103	 0.313165527338163 
1104	 0.313646717869924 
1105	 0.314078526757231 
1106	 0.3144404930827 
1107	 0.314726631340533 
1108	 0.315007522218509 
1109	 0.315256751479258 
1110	 0.315458251152652 
1111	 0.315648247747363 
1112	 0.315770601153091 
1113	 0.315862936863028 
1114	 0.315985057018712 
1115	 0.316065442533612 
1116	 0.316118190435597 
1117	 0.316161225492211 
1118	 0.316162758317335 
1119	 0.316080426664118 
1120	 0.316056047156615 
1121	 0.316065922340401 
1122	 0.316005064763091 
1123	 0.315900635883717 
1124	 0.315786385779728 
1125	 0.315648171547113 
1126	 0.31552795043722 
1127	 0.315461989678554 
1128	 0.315389140854002 
1129	 0.315234844227183 
1130	 0.315104069777191 
1131	 0.314970850195606 
1132	 0.314795194033345 
1133	 0.314690109624709 
1134	 0.314592139332548 
1135	 0.314488735661384 
1136	 0.31441007335684 
1137	 0.314306896475453 
1138	 0.31418083790493 
1139	 0.314069414971886 
1140	 0.31394123757588 
1141	 0.313845251213226 
1142	 0.313775452962561 
1143	 0.313669365004 
1144	 0.313552354944057 
1145	 0.313399912461242 
1146	 0.313255399715977 
1147	 0.313150747080623 
1148	 0.313057058913901 
1149	 0.312983745052466 
1150	 0.312897145453528 
1151	 0.312816481025409 
1152	 0.312711339234285 
1153	 0.312583545247633 
1154	 0.312462686599019 
1155	 0.31232341089241 
1156	 0.312197089680408 
1157	 0.312087009934299 
1158	 0.311973177442616 
1159	 0.31187251376898 
1160	 0.311744116865277 
1161	 0.311592827002046 
1162	 0.311454504973035 
1163	 0.31130018926568 
1164	 0.311106183846822 
1165	 0.310935706487989 
1166	 0.310783018143595 
1167	 0.310627582563536 
1168	 0.310506534733548 
1169	 0.310374794170793 
1170	 0.31024604961692 
1171	 0.310116784944834 
1172	 0.309994632720939 
1173	 0.309855999337303 
1174	 0.309726376722362 
1175	 0.309577071775119 
1176	 0.309395032678088 
1177	 0.309234945807924 
1178	 0.309086951074147 
1179	 0.308906289103319 
1180	 0.308761626252997 
1181	 0.308609631188426 
1182	 0.308412544502765 
1183	 0.308239018058131 
1184	 0.308073305401249 
1185	 0.30791811674946 
1186	 0.30779123409355 
1187	 0.307710438345949 
1188	 0.307604419218594 
1189	 0.307484007753881 
1190	 0.307405780466681 
1191	 0.307328337073891 
1192	 0.307301218556201 
1193	 0.307333029467541 
1194	 0.307352354603204 
1195	 0.307403242785395 
1196	 0.307438298910642 
1197	 0.307460125554735 
1198	 0.307498411955661 
1199	 0.307538312959922 
1200	 0.307620196087202 
1201	 0.307733263372839 
1202	 0.307791792281002 
1203	 0.307847293018574 
1204	 0.307939205953754 
1205	 0.30809489150325 
1206	 0.308286627239349 
1207	 0.308517270304835 
1208	 0.308800667077347 
1209	 0.309123550972412 
1210	 0.309460719688548 
1211	 0.309866588045184 
1212	 0.31034244476832 
1213	 0.310864288521815 
1214	 0.31144164495827 
1215	 0.312046922245226 
1216	 0.312698698058209 
1217	 0.313386182784556 
1218	 0.314114060534018 
1219	 0.314864111688702 
1220	 0.315651233786366 
1221	 0.316529006425353 
1222	 0.317351620866671 
1223	 0.318151473669439 
1224	 0.318913356252193 
1225	 0.319635515653741 
1226	 0.320331681005582 
1227	 0.320988220312508 
1228	 0.321651793204614 
1229	 0.322310959943124 
1230	 0.32293242643694 
1231	 0.32355352526973 
1232	 0.324125780280101 
1233	 0.324635870802493 
1234	 0.325143250096183 
1235	 0.325613167133559 
1236	 0.32608931625316 
1237	 0.32659458957102 
1238	 0.327034466041039 
1239	 0.327450498124645 
1240	 0.327815057567289 
1241	 0.328178202971667 
1242	 0.328508641958412 
1243	 0.328853798520761 
1244	 0.329230417483353 
1245	 0.32955092030756 
1246	 0.329831538203342 
1247	 0.330119945164357 
1248	 0.330388679726275 
1249	 0.330655175317026 
1250	 0.330937134950789 
1251	 0.331170645613168 
1252	 0.331381717427746 
1253	 0.331567525200298 
1254	 0.33172824411466 
1255	 0.331854149518846 
1256	 0.33194992627844 
1257	 0.332028357372481 
1258	 0.332059887208303 
1259	 0.332091019218178 
1260	 0.332105586670255 
1261	 0.33211624694829 
1262	 0.332098606834383 
1263	 0.332106347643093 
1264	 0.33212075156157 
1265	 0.332146629640555 
1266	 0.332156952867503 
1267	 0.33216843108887 
1268	 0.332189832742192 
1269	 0.332201213729253 
1270	 0.332223328133277 
1271	 0.332262759779944 
1272	 0.332302424217966 
1273	 0.33233898592321 
1274	 0.332380194428867 
1275	 0.332420422404756 
1276	 0.332486711009138 
1277	 0.332544967845953 
1278	 0.332643394595296 
1279	 0.332813668184456 
1280	 0.332938160028535 
1281	 0.333045227164527 
1282	 0.333175368148494 
1283	 0.33325977551545 
1284	 0.3334080669891 
1285	 0.333596287517217 
1286	 0.333841733094391 
1287	 0.334067399668463 
1288	 0.334307380865901 
1289	 0.334592925944254 
1290	 0.33487399047035 
1291	 0.335234041181675 
1292	 0.335671583581239 
1293	 0.336106985663308 
1294	 0.336554600079611 
1295	 0.337073959624357 
1296	 0.337660626211794 
1297	 0.338232158135937 
1298	 0.3388643440437 
1299	 0.339472423808241 
1300	 0.340062667080017 
1301	 0.340660318611867 
1302	 0.341268586992966 
1303	 0.341878016665495 
1304	 0.342490672918681 
1305	 0.343089631608328 
1306	 0.343709245450319 
1307	 0.344290217334812 
1308	 0.344837222560068 
1309	 0.345372856212104 
1310	 0.345888844666609 
1311	 0.346384634940662 
1312	 0.34685181317293 
1313	 0.347306225375528 
1314	 0.347713896345416 
1315	 0.348093700939079 
1316	 0.348420417291289 
1317	 0.348696267457557 
1318	 0.34895791443662 
1319	 0.349195740489461 
1320	 0.349371179043997 
1321	 0.34951581323338 
1322	 0.349614359532782 
1323	 0.349660847656492 
1324	 0.349657693489301 
1325	 0.349644522770515 
1326	 0.349536896582382 
1327	 0.349334728092261 
1328	 0.349112467365018 
1329	 0.348828611316475 
1330	 0.348521711157233 
1331	 0.348206019347104 
1332	 0.347830592883782 
1333	 0.347421994608717 
1334	 0.346942804988271 
1335	 0.346460210987498 
1336	 0.345931855905933 
1337	 0.345407395282993 
1338	 0.344876504753611 
1339	 0.344317188237592 
1340	 0.343740028581932 
1341	 0.343142800883536 
1342	 0.342527506057972 
1343	 0.341888397482605 
1344	 0.341236959271089 
1345	 0.340551102464243 
1346	 0.339845388748057 
1347	 0.339104080960708 
1348	 0.338312395457778 
1349	 0.337538963860865 
1350	 0.336724504925359 
1351	 0.33594919440227 
1352	 0.335183649142794 
1353	 0.334441512901383 
1354	 0.333713033957604 
1355	 0.333009881233631 
1356	 0.332351788712814 
1357	 0.331669983276708 
1358	 0.330966998166869 
1359	 0.330303845807599 
1360	 0.329648345335377 
1361	 0.329005202381218 
1362	 0.328384550778973 
1363	 0.327808847138335 
1364	 0.327241151365794 
1365	 0.326679520562151 
1366	 0.326146139648302 
1367	 0.325657716939203 
1368	 0.325140834791133 
1369	 0.324635928943801 
1370	 0.324103074824776 
1371	 0.323552252282386 
1372	 0.323008378036204 
1373	 0.32247696295448 
1374	 0.321888397315492 
1375	 0.321281572746103 
1376	 0.320645337899134 
1377	 0.319958344509145 
1378	 0.319258891907718 
1379	 0.318534657064866 
1380	 0.317811291739752 
1381	 0.31704562936368 
1382	 0.316304903136284 
1383	 0.315565033548844 
1384	 0.314847542148228 
1385	 0.314129010661314 
1386	 0.313450114545337 
1387	 0.312808981258238 
1388	 0.31218005572625 
1389	 0.311555020689794 
1390	 0.310979121534997 
1391	 0.310455805144988 
1392	 0.309905168168726 
1393	 0.309436625275147 
1394	 0.308975943471854 
1395	 0.308489835980807 
1396	 0.30801207547614 
1397	 0.307507141284635 
1398	 0.307017591668113 
1399	 0.306416011155668 
1400	 0.3057851499346 
1401	 0.305059510391124 
1402	 0.304259871349085 
1403	 0.303354651512993 
1404	 0.302366118681526 
1405	 0.30132275453001 
1406	 0.300148329621883 
1407	 0.298993931227309 
1408	 0.297751594447927 
1409	 0.296599913484407 
1410	 0.295373752871884 
1411	 0.294340468114719 
1412	 0.293378143380725 
1413	 0.292579709212825 
1414	 0.291924331034732 
1415	 0.291377057193578 
1416	 0.291016034941105 
1417	 0.290662964040793 
1418	 0.290437369576727 
1419	 0.290190671558766 
1420	 0.289984500990918 
1421	 0.289766449067295 
1422	 0.289547134286648 
1423	 0.28934291858796 
1424	 0.289148823403464 
1425	 0.288941125572341 
1426	 0.288780891302629 
1427	 0.288623049148351 
1428	 0.288468539415359 
1429	 0.288331586507393 
1430	 0.288211900245212 
1431	 0.28809838579331 
1432	 0.288013124432095 
1433	 0.287948580689268 
1434	 0.287914903642206 
1435	 0.287905402343882 
1436	 0.287910482124686 
1437	 0.287941412848061 
1438	 0.287991753201598 
1439	 0.288061842041709 
1440	 0.288143133455108 
1441	 0.28825837205147 
1442	 0.288360774110768 
1443	 0.288460029373092 
1444	 0.288573224528479 
1445	 0.288679200557294 
1446	 0.288822761316035 
1447	 0.289000457537838 
1448	 0.28916674865786 
1449	 0.289371509248009 
1450	 0.289537132751288 
1451	 0.289673455676315 
1452	 0.28981969924563 
1453	 0.289961496643202 
1454	 0.290092504546223 
1455	 0.290226128033681 
1456	 0.290345513762988 
1457	 0.290444230109869 
1458	 0.290542318674661 
1459	 0.290645209931535 
1460	 0.290726659051483 
1461	 0.290801156599778 
1462	 0.290856365955053 
1463	 0.290879888590556 
1464	 0.290907255037956 
1465	 0.290939376740745 
1466	 0.290943573119625 
1467	 0.290932559901857 
1468	 0.290902804048788 
1469	 0.290837746188422 
1470	 0.290740933574115 
1471	 0.290644982698061 
1472	 0.29054774880892 
1473	 0.290401705175893 
1474	 0.290235933446787 
1475	 0.290032451114338 
1476	 0.289780455668943 
1477	 0.289522939433631 
1478	 0.289257750036429 
1479	 0.288938714200625 
1480	 0.288592585648139 
1481	 0.288202227234643 
1482	 0.287746015888174 
1483	 0.287302831076096 
1484	 0.286814443891958 
1485	 0.286371130970165 
1486	 0.285934894580061 
1487	 0.285512630635805 
1488	 0.28511022333277 
1489	 0.284716930561028 
1490	 0.284295300945847 
1491	 0.283965318983016 
1492	 0.283655776955774 
1493	 0.283436905760489 
1494	 0.283317961935786 
1495	 0.283209827817155 
1496	 0.283142394150703 
1497	 0.28313518336881 
1498	 0.28312926476282 
1499	 0.283252785109003 
1500	 0.28344197366621 
1501	 0.283760846762909 
1502	 0.284185662291237 
1503	 0.284723679655054 
1504	 0.285373856674678 
1505	 0.286140702360459 
1506	 0.287103603024088 
1507	 0.288033569502045 
1508	 0.289119217123372 
1509	 0.290092574616798 
1510	 0.291065340094298 
1511	 0.291924990098118 
1512	 0.29270346476075 
1513	 0.293418794285271 
1514	 0.294024958084113 
1515	 0.294602247877182 
1516	 0.295097910550357 
1517	 0.295599640430503 
1518	 0.296064387187209 
1519	 0.296520378872146 
1520	 0.296961039975312 
1521	 0.29741091876755 
1522	 0.297833487126413 
1523	 0.298270674844668 
1524	 0.298691494530465 
1525	 0.299112965625855 
1526	 0.299528530949258 
1527	 0.299931755932358 
1528	 0.300333766101509 
1529	 0.300739783068402 
1530	 0.301131843108806 
1531	 0.301510507988348 
1532	 0.301891219952582 
1533	 0.302276793862165 
1534	 0.302634103109638 
1535	 0.302983125433651 
1536	 0.303306354635363 
1537	 0.303594740365732 
1538	 0.303903558922043 
1539	 0.304207831772003 
1540	 0.304505485393849 
1541	 0.304811450544223 
1542	 0.305096082427737 
1543	 0.305369476052489 
1544	 0.305620937547786 
1545	 0.305872680462786 
1546	 0.306074344966798 
1547	 0.306237026922474 
1548	 0.306389475464017 
1549	 0.306495375549234 
1550	 0.306627150713372 
1551	 0.306759949411096 
1552	 0.306883099692884 
1553	 0.307019732876231 
1554	 0.307120046718864 
1555	 0.307183625660984 
1556	 0.307271322276215 
1557	 0.30735272121131 
1558	 0.307432496924219 
1559	 0.307517664297795 
1560	 0.30760874009813 
1561	 0.307678833625844 
1562	 0.307786422825893 
1563	 0.307924089036211 
1564	 0.308061426706162 
1565	 0.308236061203854 
1566	 0.30836567592884 
1567	 0.308475999555797 
1568	 0.308591614867982 
1569	 0.308666043779366 
1570	 0.308786602675009 
1571	 0.3089363456381 
1572	 0.309086129643911 
1573	 0.309259570324788 
1574	 0.309421768590894 
1575	 0.30958103005258 
1576	 0.309746609988128 
1577	 0.309920388117808 
1578	 0.31008243707309 
1579	 0.310260399535004 
1580	 0.310402058678158 
1581	 0.310511020379467 
1582	 0.310627243895727 
1583	 0.310721285361091 
1584	 0.310825383065886 
1585	 0.310934466864653 
1586	 0.311045477621786 
1587	 0.311152311591204 
1588	 0.311268710202274 
1589	 0.311398734299001 
1590	 0.311520415697878 
1591	 0.311643562803319 
1592	 0.311762942886959 
1593	 0.311854288777361 
1594	 0.311989901582025 
1595	 0.312162048177112 
1596	 0.312314479190984 
1597	 0.31250135988965 
1598	 0.31264962412682 
1599	 0.312753802867876 
1600	 0.312873139623316 
1601	 0.31299847093697 
1602	 0.31310308136964 
1603	 0.313206772705407 
1604	 0.313290968829804 
1605	 0.313335286088321 
1606	 0.313399284690683 
1607	 0.313469450856297 
1608	 0.313529478621063 
1609	 0.313594092519241 
1610	 0.31364977973553 
1611	 0.313679281291207 
1612	 0.313730214849458 
1613	 0.313800456871606 
1614	 0.313855968578962 
1615	 0.313904365484272 
1616	 0.313966829564732 
1617	 0.314050897876847 
1618	 0.314092439706433 
1619	 0.31413038471349 
1620	 0.314150119607648 
1621	 0.314131684193976 
1622	 0.314101481182868 
1623	 0.314060505709671 
1624	 0.314015092985516 
1625	 0.313937444704834 
1626	 0.313871151369728 
1627	 0.313818598808492 
1628	 0.313755222233679 
1629	 0.313669187160171 
1630	 0.313608750268604 
1631	 0.313568805240273 
1632	 0.313508522805069 
1633	 0.313450962454736 
1634	 0.313397739287755 
1635	 0.31331233491261 
1636	 0.313265325502108 
1637	 0.313257279915574 
1638	 0.31323630977708 
1639	 0.313264091978751 
1640	 0.313220917003232 
1641	 0.313131052072656 
1642	 0.313037794174907 
1643	 0.312891971956883 
1644	 0.312765015966299 
1645	 0.312642679166079 
1646	 0.312523523292395 
1647	 0.312408351553426 
1648	 0.31228024248094 
1649	 0.312184901914446 
1650	 0.312021851884399 
1651	 0.311825889464793 
1652	 0.311596446355946 
1653	 0.311306419443128 
1654	 0.311014744796554 
1655	 0.3107136459904 
1656	 0.310367780267306 
1657	 0.30998828714572 
1658	 0.309588884154371 
1659	 0.309153064257279 
1660	 0.308702514861963 
1661	 0.30825596901839 
1662	 0.307750628127896 
1663	 0.307224235386982 
1664	 0.306610215146383 
1665	 0.305927892632686 
1666	 0.305189557301725 
1667	 0.304380844030996 
1668	 0.303537418550919 
1669	 0.302656762518553 
1670	 0.301706820797658 
1671	 0.300676398494358 
1672	 0.299619176984171 
1673	 0.298528025984292 
1674	 0.297359361356318 
1675	 0.296150262210962 
1676	 0.294887369306251 
1677	 0.293515170027492 
1678	 0.292168133212771 
1679	 0.290801843845574 
1680	 0.289399900858337 
1681	 0.287998229237462 
1682	 0.286525341585452 
1683	 0.284985663452742 
1684	 0.28345554513382 
1685	 0.281873783217016 
1686	 0.280314673046412 
1687	 0.278753423074532 
1688	 0.277180899122027 
1689	 0.275609683938047 
1690	 0.274011478391347 
1691	 0.272387817890603 
1692	 0.27082864794594 
1693	 0.269302137138202 
1694	 0.267716820366243 
1695	 0.266152327968905 
1696	 0.264514217393328 
1697	 0.262794768024157 
1698	 0.261092402145211 
1699	 0.259390577503671 
1700	 0.257694173259076 
1701	 0.255947101405908 
1702	 0.25427837087932 
1703	 0.252611016609278 
1704	 0.251038914477999 
1705	 0.249511349747728 
1706	 0.248039785048494 
1707	 0.246738422111003 
1708	 0.245475846907158 
1709	 0.244314892452225 
1710	 0.24326659128135 
1711	 0.24216690789728 
1712	 0.241105375497639 
1713	 0.240123755778365 
1714	 0.239191914901837 
1715	 0.238326798807318 
1716	 0.237485980438757 
1717	 0.23669905802388 
1718	 0.235906090011145 
1719	 0.23511888191259 
1720	 0.23444534323688 
1721	 0.233861561781952 
1722	 0.233388579809775 
1723	 0.233037855451396 
1724	 0.232748122251649 
1725	 0.232513715392033 
1726	 0.232426142483926 
1727	 0.232571870140951 
1728	 0.23290306694433 
1729	 0.23344321830807 
1730	 0.234167585069721 
1731	 0.234944152719141 
1732	 0.235852625420079 
1733	 0.236816890689048 
1734	 0.237831723915286 
1735	 0.238916136151047 
1736	 0.239957194763514 
1737	 0.24096525024628 
1738	 0.241835557073198 
1739	 0.242543501405173 
1740	 0.243129269753473 
1741	 0.243585617153363 
1742	 0.243879585312801 
1743	 0.244100124073433 
1744	 0.244192382581482 
1745	 0.244208612129185 
1746	 0.244106200871577 
1747	 0.244002075850572 
1748	 0.243796053715168 
1749	 0.243608067804413 
1750	 0.24337218172138 
1751	 0.243227564172552 
1752	 0.243104696803501 
1753	 0.243030925882091 
1754	 0.243019352399581 
1755	 0.243044710536702 
1756	 0.243072894954834 
1757	 0.243173803637401 
1758	 0.243390593420078 
1759	 0.243696399659707 
1760	 0.244129747166937 
1761	 0.244774838536852 
1762	 0.245486440840375 
1763	 0.246319217442471 
1764	 0.247236440915372 
1765	 0.248221708152538 
1766	 0.249378864485703 
1767	 0.250494111889222 
1768	 0.251635183623352 
1769	 0.252794786144391 
1770	 0.253772585743985 
1771	 0.2547709668259 
1772	 0.25575118409653 
1773	 0.256625133574159 
1774	 0.257573100111521 
1775	 0.258470344266627 
1776	 0.259283376700605 
1777	 0.260042544384412 
1778	 0.260657123989749 
1779	 0.261193084546235 
1780	 0.261663033122905 
1781	 0.26206909288728 
1782	 0.26249059032332 
1783	 0.26288470177327 
1784	 0.263246321523985 
1785	 0.263606360095997 
1786	 0.263898378243861 
1787	 0.264134171834795 
1788	 0.264372948180132 
1789	 0.264583495592955 
1790	 0.264757883131034 
1791	 0.264913578746749 
1792	 0.265022903215267 
1793	 0.265063017366454 
1794	 0.2651654776225 
1795	 0.265230513762101 
1796	 0.265319169456182 
1797	 0.265411760478186 
1798	 0.265472732140568 
1799	 0.265601482239237 
1800	 0.265776825887282 
1801	 0.269535571894682 
1802	 0.269782731943105 
1803	 0.270029655642208 
1804	 0.270268976373225 
1805	 0.270530149646222 
1806	 0.270750601319743 
1807	 0.27093063299677 
1808	 0.27116051065739 
1809	 0.271405304439137 
1810	 0.271617176136614 
1811	 0.271862840414999 
1812	 0.272070103451506 
1813	 0.272207125199814 
1814	 0.27238089585521 
1815	 0.272607761522793 
1816	 0.272784523611902 
1817	 0.272964372820574 
1818	 0.273131652689916 
1819	 0.273336701511637 
1820	 0.273530886339904 
1821	 0.27374427282849 
1822	 0.273997054805251 
1823	 0.274263699523124 
1824	 0.274474366816423 
1825	 0.274704754035148 
1826	 0.274920995321962 
1827	 0.275114779918608 
1828	 0.275328805728819 
1829	 0.275554751941926 
1830	 0.27576497620605 
1831	 0.275961139250832 
1832	 0.276202178048715 
1833	 0.276421129109054 
1834	 0.27660368853214 
1835	 0.276792353225107 
1836	 0.27697054911413 
1837	 0.277185800106272 
1838	 0.277431336077643 
1839	 0.27763980028345 
1840	 0.277876821160947 
1841	 0.278065122657188 
1842	 0.27819285462292 
1843	 0.278332377514559 
1844	 0.278492239513704 
1845	 0.278672000326936 
1846	 0.278856933013862 
1847	 0.279012641856538 
1848	 0.279198138478131 
1849	 0.279422901663932 
1850	 0.279587749920376 
1851	 0.279745874453221 
1852	 0.279899348961869 
1853	 0.279983911172985 
1854	 0.280011918871552 
1855	 0.280025632513797 
1856	 0.280020037109615 
1857	 0.27997988745004 
1858	 0.279912518340056 
1859	 0.279834929885462 
1860	 0.279756349288272 
1861	 0.279622814887674 
1862	 0.279450216070227 
1863	 0.279288062959697 
1864	 0.279073034351649 
1865	 0.278773015371426 
1866	 0.278438208786728 
1867	 0.278024395857779 
1868	 0.277616400804154 
1869	 0.277224614891317 
1870	 0.276769365734395 
1871	 0.276316371889106 
1872	 0.275817564817357 
1873	 0.275264197864023 
1874	 0.274667080359927 
1875	 0.274093680454959 
1876	 0.273432754998698 
1877	 0.272701603284198 
1878	 0.271848725320441 
1879	 0.270871097135164 
1880	 0.269852895501129 
1881	 0.268744441142838 
1882	 0.267534737874364 
1883	 0.266289836030361 
1884	 0.264928377677525 
1885	 0.263377477494097 
1886	 0.2617846325913 
1887	 0.260039618184545 
1888	 0.258200552889115 
1889	 0.256505167628874 
1890	 0.254684867906929 
1891	 0.252815484132119 
1892	 0.250972435942166 
1893	 0.249034781082564 
1894	 0.246948295213786 
1895	 0.244941139022252 
1896	 0.242973941316032 
1897	 0.241000400037167 
1898	 0.239193231904739 
1899	 0.23738241254464 
1900	 0.235630755644215 
1901	 0.23395951141647 
1902	 0.23221785126855 
1903	 0.230616036645921 
1904	 0.229060311231771 
1905	 0.227537649411692 
1906	 0.226052406440128 
1907	 0.22476307651228 
1908	 0.22348772101467 
1909	 0.222274384746317 
1910	 0.221143776784617 
1911	 0.220011002076073 
1912	 0.218967659079506 
1913	 0.217965266073934 
1914	 0.217001736330118 
1915	 0.216125060272851 
1916	 0.215343610259463 
1917	 0.214568422415922 
1918	 0.213860900421145 
1919	 0.213248807293389 
1920	 0.21263071610336 
1921	 0.212043039622459 
1922	 0.21145566351149 
1923	 0.210888630893048 
1924	 0.210381913147119 
1925	 0.209891071509596 
1926	 0.209477508071224 
1927	 0.209142923714264 
1928	 0.208819549120119 
1929	 0.208539269622579 
1930	 0.208304641604158 
1931	 0.208082075515407 
1932	 0.207914527766516 
1933	 0.207775027993822 
1934	 0.207685519067644 
1935	 0.207637733798928 
1936	 0.207581520913835 
1937	 0.20756930610182 
1938	 0.20758077219032 
1939	 0.20765449603092 
1940	 0.207771903161555 
1941	 0.207922483421132 
1942	 0.208121172086252 
1943	 0.208329280797692 
1944	 0.208530985887152 
1945	 0.208788683480646 
1946	 0.209104290375023 
1947	 0.209438817734231 
1948	 0.20980439524787 
1949	 0.210183307253206 
1950	 0.210546501490912 
1951	 0.210892661985735 
1952	 0.211261836550863 
1953	 0.211640394392632 
1954	 0.212008432710268 
1955	 0.212404524707226 
1956	 0.212832650400068 
1957	 0.213251459796973 
1958	 0.213689647356266 
1959	 0.214102228240606 
1960	 0.214469311842212 
1961	 0.214834484417534 
1962	 0.215159222063108 
1963	 0.215500739727512 
1964	 0.215850838568529 
1965	 0.216189299759746 
1966	 0.216512664889812 
1967	 0.216861127533653 
1968	 0.217186405100931 
1969	 0.217510233318856 
1970	 0.217865425136082 
1971	 0.218226957483156 
1972	 0.218594211425346 
1973	 0.21893778895923 
1974	 0.219258057800651 
1975	 0.219540961244936 
1976	 0.219832044178267 
1977	 0.220103008285025 
1978	 0.220395987875985 
1979	 0.220695258540264 
1980	 0.220981225848663 
1981	 0.22130834854608 
1982	 0.221628194895939 
1983	 0.221968340138572 
1984	 0.222348477026695 
1985	 0.222671372739418 
1986	 0.222979072431226 
1987	 0.223308220187012 
1988	 0.223632173020751 
1989	 0.223938758494428 
1990	 0.224278902892804 
1991	 0.22457450382479 
1992	 0.224819022983048 
1993	 0.225077763129426 
1994	 0.22532513770576 
1995	 0.225561723504998 
1996	 0.225835277029118 
1997	 0.226051401935113 
1998	 0.226257883605354 
1999	 0.226450642988893 
2000	 0.226639707015485 
2001	 0.226795383606117 
2002	 0.22697559830003 
2003	 0.227188484290026 
2004	 0.227363593911992 
2005	 0.227536260457815 
2006	 0.22767153891276 
2007	 0.227790106565959 
2008	 0.227875317965696 
2009	 0.227896835098502 
2010	 0.227874285213 
2011	 0.227798532673938 
2012	 0.227651428034786 
2013	 0.227520265431723 
2014	 0.227391521311286 
2015	 0.227191513200993 
2016	 0.226966310095321 
2017	 0.22670329783717 
2018	 0.226368724511489 
2019	 0.226025397506453 
2020	 0.225671608137713 
2021	 0.2252635862211 
2022	 0.224844626707763 
2023	 0.224402477270128 
2024	 0.223919369661897 
2025	 0.223423409777509 
2026	 0.222897383112651 
2027	 0.222303105083524 
2028	 0.221762640003582 
2029	 0.221218693235624 
2030	 0.220695011443045 
2031	 0.220209359630967 
2032	 0.21970049035636 
2033	 0.219189625638253 
2034	 0.218674311697575 
2035	 0.218154058367591 
2036	 0.217616200974739 
2037	 0.217099431509144 
2038	 0.21658044399459 
2039	 0.216142968713653 
2040	 0.215711768851033 
2041	 0.215406101752852 
2042	 0.215177494545975 
2043	 0.215047980208565 
2044	 0.215017626469346 
2045	 0.215061394303478 
2046	 0.215230445061918 
2047	 0.215395698154358 
2048	 0.215656873172096 
2049	 0.215893697153007 
2050	 0.216152286146389 
2051	 0.216397612931823 
2052	 0.216675622492545 
2053	 0.216935181115469 
2054	 0.21718804378861 
2055	 0.217441026870781 
2056	 0.217698110058924 
2057	 0.217929463996238 
2058	 0.218189715649873 
2059	 0.218468272541202 
2060	 0.218756374105623 
2061	 0.219057854497626 
2062	 0.219365383963632 
2063	 0.219685264898767 
2064	 0.220005183215383 
2065	 0.220319789799344 
2066	 0.220665177421607 
2067	 0.221012487252448 
2068	 0.221332017384253 
2069	 0.221628844687578 
2070	 0.221888566133174 
2071	 0.222184809476846 
2072	 0.222506325796971 
2073	 0.222759532175976 
2074	 0.223005925465031 
2075	 0.223233645665728 
2076	 0.223412312885949 
2077	 0.22356571563543 
2078	 0.223726225964166 
2079	 0.223840711361283 
2080	 0.223880777836702 
2081	 0.223924791989672 
2082	 0.223937745810711 
2083	 0.22397722864079 
2084	 0.223969743213676 
2085	 0.224004721744549 
2086	 0.224039116743715 
2087	 0.224097466144906 
2088	 0.224118998170714 
2089	 0.224143012968958 
2090	 0.224144476574027 
2091	 0.224132255883745 
2092	 0.224087785696874 
2093	 0.224011988909176 
2094	 0.223941285013536 
2095	 0.223830456225113 
2096	 0.2237445803244 
2097	 0.223670755259062 
2098	 0.223598895093257 
2099	 0.223545347511473 
2100	 0.223488892122565 
2101	 0.223456639645852 
2102	 0.223479298808631 
2103	 0.223414468800673 
2104	 0.223360556483704 
2105	 0.223209144443464 
2106	 0.222953860058941 
2107	 0.22273068980323 
2108	 0.222463143820266 
2109	 0.222198219036538 
2110	 0.221945614700853 
2111	 0.22166449908025 
2112	 0.221350574794911 
2113	 0.221036445674075 
2114	 0.220680891902447 
2115	 0.220364117563143 
2116	 0.220052067302352 
2117	 0.219765645500979 
2118	 0.219476802995028 
2119	 0.219208431156697 
2120	 0.218953275694112 
2121	 0.218699668298204 
2122	 0.21845621115758 
2123	 0.21826399523336 
2124	 0.218012941803001 
2125	 0.217727937531537 
2126	 0.21745712239117 
2127	 0.217165981646712 
2128	 0.216885808235492 
2129	 0.216605866567138 
2130	 0.216337491052135 
2131	 0.216070523927641 
2132	 0.215818248182118 
2133	 0.215584454673108 
2134	 0.21536952136143 
2135	 0.215132739490184 
2136	 0.21482887363333 
2137	 0.214531982802652 
2138	 0.214189740276446 
2139	 0.213883476530211 
2140	 0.213574330565607 
2141	 0.213288472393003 
2142	 0.213027374657085 
2143	 0.212750457272105 
2144	 0.212486762775956 
2145	 0.212210500724381 
2146	 0.211901487519494 
2147	 0.211628315067647 
2148	 0.211346747835722 
2149	 0.211113256455891 
2150	 0.2109238802228 
2151	 0.210743766805946 
2152	 0.21061166303973 
2153	 0.210480411919511 
2154	 0.210292643768757 
2155	 0.210069210611499 
2156	 0.209835919986881 
2157	 0.209543577921257 
2158	 0.209287553124783 
2159	 0.2090450820492 
2160	 0.208784227280681 
2161	 0.208492094223409 
2162	 0.208257896343115 
2163	 0.208028819421414 
2164	 0.207832619045305 
2165	 0.20768872473057 
2166	 0.207537448955807 
2167	 0.20740496197989 
2168	 0.207272066748995 
2169	 0.207143095185065 
2170	 0.207023883413902 
2171	 0.206882110834308 
2172	 0.206795638528266 
2173	 0.206745386164383 
2174	 0.206708631897124 
2175	 0.206734130897154 
2176	 0.206762901046538 
2177	 0.206782349952629 
2178	 0.206805244089843 
2179	 0.206844984249576 
2180	 0.206875553918065 
2181	 0.206949969884701 
2182	 0.207079327499172 
2183	 0.20715770852723 
2184	 0.207238138603082 
2185	 0.207307376934364 
2186	 0.207340660285721 
2187	 0.207397542738047 
2188	 0.207449093664402 
2189	 0.20753762837668 
2190	 0.207654832711697 
2191	 0.207760830141271 
2192	 0.207924073336048 
2193	 0.208025791792187 
2194	 0.208100595990816 
2195	 0.208141216790363 
2196	 0.208135701971932 
2197	 0.208118292493262 
2198	 0.208118375569109 
2199	 0.208050445757507 
2200	 0.207972509982773 
2201	 0.20788662645391 
2202	 0.207770246923841 
2203	 0.207599509975293 
2204	 0.20745622358403 
2205	 0.207326609077845 
2206	 0.207143070974766 
2207	 0.206908793211911 
2208	 0.206728085023989 
2209	 0.20651057462147 
2210	 0.206364101018057 
2211	 0.206256278282757 
2212	 0.206206187024461 
2213	 0.206209399121227 
2214	 0.206235185020226 
2215	 0.206350277783441 
2216	 0.206428821506258 
2217	 0.20653022414801 
2218	 0.206591011765686 
2219	 0.206713110051424 
2220	 0.206686553585873 
2221	 0.206563370211473 
2222	 0.206401077734593 
2223	 0.206127272763718 
2224	 0.205772646025217 
2225	 0.205493421478441 
2226	 0.205094056981002 
2227	 0.204620366592474 
2228	 0.20408069152678 
2229	 0.203495560513791 
2230	 0.202805333679607 
2231	 0.202115221459387 
2232	 0.201421906309689 
2233	 0.200622686727912 
2234	 0.199799407312802 
2235	 0.198805633424845 
2236	 0.197675562041978 
2237	 0.196516135173586 
2238	 0.195203455166305 
2239	 0.1938941781799 
2240	 0.192596196870868 
2241	 0.191165183291398 
2242	 0.189686846254953 
2243	 0.188081632239613 
2244	 0.186333877308225 
2245	 0.184545174084971 
2246	 0.182579337581809 
2247	 0.180664869576057 
2248	 0.17875901335259 
2249	 0.176791477682559 
2250	 0.174797353313039 
2251	 0.172800676823711 
2252	 0.170668214072913 
2253	 0.168600113959153 
2254	 0.166563750583968 
2255	 0.164530055872319 
2256	 0.162653963674687 
2257	 0.160763844867013 
2258	 0.158887173214078 
2259	 0.15706081614048 
2260	 0.155227248185549 
2261	 0.153379172958987 
2262	 0.151587121207989 
2263	 0.149806812704967 
2264	 0.148079135089152 
2265	 0.146443428902041 
2266	 0.14469628277243 
2267	 0.14304606667936 
2268	 0.141171323496485 
2269	 0.139189020962883 
2270	 0.137072494863422 
2271	 0.134770292581391 
2272	 0.132403295366289 
2273	 0.129932538521063 
2274	 0.127329789632061 
2275	 0.124586055198462 
2276	 0.121811429254085 
2277	 0.118782045256597 
2278	 0.115967155238694 
2279	 0.113010793478732 
2280	 0.110425922920578 
2281	 0.10799791135795 
2282	 0.105899779995205 
2283	 0.104092308237227 
2284	 0.102628535958673 
2285	 0.10135461835564 
2286	 0.100407461629342 
2287	 9.96855226761122E-02 
2288	 9.91983260322949E-02 
2289	 9.90028658445537E-02 
2290	 0.098931055117327 
2291	 9.89656451843324E-02 
2292	 9.91443907239509E-02 
2293	 9.93880786590476E-02 
2294	 9.96350729557913E-02 
2295	 9.98742486090811E-02 
2296	 0.100080816927841 
2297	 0.100264922014047 
2298	 0.1003792728588 
2299	 0.10054110518975 
2300	 0.100686798493445 
2301	 0.100913389777643 
2302	 0.101144566544724 
2303	 0.101488673222828 
2304	 0.101901053124733 
2305	 0.102405693497484 
2306	 0.102969862098231 
2307	 0.103694489107815 
2308	 0.104515205454402 
2309	 0.105519707775616 
2310	 0.106765223415488 
2311	 0.10796087814542 
2312	 0.109353480931654 
2313	 0.110609908307533 
2314	 0.111871053252651 
2315	 0.113010304947696 
2316	 0.114065694089479 
2317	 0.115047548693353 
2318	 0.116021670192172 
2319	 0.116747908907675 
2320	 0.11740170491248 
2321	 0.117795120026148 
2322	 0.117847233612459 
2323	 0.117857600044569 
2324	 0.117723414970552 
2325	 0.117424486243221 
2326	 0.117040478751528 
2327	 0.116422963268204 
2328	 0.115562513185929 
2329	 0.114567923274234 
2330	 0.113456140919782 
2331	 0.112011753508752 
2332	 0.110374284062935 
2333	 0.10849082585391 
2334	 0.106284797213056 
2335	 0.104026371770473 
2336	 0.101653713946679 
2337	 9.91632825356844E-02 
2338	 0.096810287792841 
2339	 9.43811995031845E-02 
2340	 9.20456466382581E-02 
2341	 8.99698973905466E-02 
2342	 8.79020055306292E-02 
2343	 8.61405910271076E-02 
2344	 8.46553384399423E-02 
2345	 8.34585657017478E-02 
2346	 8.27115736826505E-02 
2347	 8.22234101055753E-02 
2348	 8.18767450089329E-02 
2349	 8.17631080555313E-02 
2350	 8.16557899788118E-02 
2351	 8.14745404899387E-02 
2352	 8.13497274470728E-02 
2353	 0.081235884367917 
2354	 8.15091666013936E-02 
2355	 8.20091854363932E-02 
2356	 8.27087205715203E-02 
2357	 8.39296084998072E-02 
2358	 8.54300922035107E-02 
2359	 8.72509499028785E-02 
2360	 8.94839422905025E-02 
2361	 9.20951887738721E-02 
2362	 0.094595859719616 
2363	 9.70905005156999E-02 
2364	 9.96014465998421E-02 
2365	 0.101702654152182 
2366	 0.103726186689393 
2367	 0.105572044415748 
2368	 0.107083051755037 
2369	 0.108436362328223 
2370	 0.10958167504283 
2371	 0.110520122438914 
2372	 0.111393688423902 
2373	 0.112096921621431 
2374	 0.112540104359245 
2375	 0.112856975670663 
2376	 0.113044721078953 
2377	 0.113144084387156 
2378	 0.113428417939207 
2379	 0.113659369150112 
2380	 0.113794447271804 
2381	 0.114092508334641 
2382	 0.114275136494023 
2383	 0.114285929733673 
2384	 0.114512095528598 
2385	 0.114837881743163 
2386	 0.115101445443103 
2387	 0.115445938584492 
2388	 0.115751303342575 
2389	 0.116024036320076 
2390	 0.116279346676898 
2391	 0.116594535930827 
2392	 0.116768751168586 
2393	 0.116786044625135 
2394	 0.11689886411603 
2395	 0.116888728670009 
2396	 0.117131017700302 
2397	 0.117655770493601 
2398	 0.11787655306803 
2399	 0.118132826726749 
2400	 0.118268506344294 
2401	 0.118072802296125 
2402	 0.118270766205463 
2403	 0.118440219595667 
2404	 0.118737598279152 
2405	 0.119001448303589 
2406	 0.119098398424381 
2407	 0.119220908938367 
2408	 0.119385249772272 
2409	 0.119570770085466 
2410	 0.119552362379183 
2411	 0.119511515808321 
2412	 0.119613148532845 
2413	 0.11954902304947 
2414	 0.119656736369602 
2415	 0.120063374921773 
2416	 0.120252685924627 
2417	 0.120309004145336 
2418	 0.120393176960692 
2419	 0.120275779211895 
2420	 0.120084742886777 
2421	 0.120016600542256 
2422	 0.119983270776516 
2423	 0.119984007481089 
2424	 0.120076053337558 
2425	 0.120210405038673 
2426	 0.12021969971161 
2427	 0.120104859783198 
2428	 0.119860143704105 
2429	 0.119566533566428 
2430	 0.119575291935783 
2431	 0.119685136559234 
2432	 0.11974015927421 
2433	 0.120021858433271 
2434	 0.12021890332403 
2435	 0.12007298372924 
2436	 0.119812872393916 
2437	 0.119437341538163 
2438	 0.119043211797196 
2439	 0.118910851991612 
2440	 0.118958536601761 
2441	 0.119162795842915 
2442	 0.119307035381969 
2443	 0.1191790042162 
2444	 0.119167585637886 
2445	 0.118843326535405 
2446	 0.117987805755082 
2447	 0.11741316742069 
2448	 0.116911927818637 
2449	 0.116460964810985 
2450	 0.116327896502391 
2451	 0.116107367483169 
2452	 0.115939565465463 
2453	 0.115765643832996 
2454	 0.115606613383145 
2455	 0.115510074168959 
2456	 0.115029464343926 
2457	 0.114616362341709 
2458	 0.114430341225324 
2459	 0.114077631207609 
2460	 0.113911908443791 
2461	 0.113590539553845 
2462	 0.11314518804522 
2463	 0.113089931259126 
2464	 0.112963426443127 
2465	 0.112902839936915 
2466	 0.112771839999724 
2467	 0.112306822396659 
2468	 0.111923583279086 
2469	 0.111716068389615 
2470	 0.111509822440114 
2471	 0.111286534996733 
2472	 0.111020641902874 
2473	 0.110554426229495 
2474	 0.110193884197475 
2475	 0.10989309838553 
2476	 0.109863195798486 
2477	 0.110207764347679 
2478	 0.110342971088736 
2479	 0.110271258670831 
2480	 0.109729005714601 
2481	 0.109348253631489 
2482	 0.108943253600097 
2483	 0.108909335604109 
2484	 0.109023328161456 
2485	 0.109419435090262 
2486	 0.109300623308105 
2487	 0.109155050937192 
2488	 0.109186611479665 
2489	 0.10892842547568 
2490	 0.108925821297751 
2491	 0.109510254707128 
2492	 0.110047518288131 
2493	 0.110166261365404 
2494	 0.110361840658965 
2495	 0.110394544187622 
2496	 0.110247063569647 
2497	 0.110512835405008 
2498	 0.110793945565978 
2499	 0.110835890077161 
2500	 0.110503221312256 
