Wavelength	spectrum00001.asd
350	 6.27381578533596E-02 
351	 0.057900362659993 
352	 5.31388009456172E-02 
353	 5.30351807049324E-02 
354	 5.71005005102746E-02 
355	 5.52655005249216E-02 
356	 5.13416564122845E-02 
357	 4.99604646035016E-02 
358	 4.83824571328939E-02 
359	 4.76569019683939E-02 
360	 4.79868376088095E-02 
361	 0.048734164621509 
362	 4.65828426735658E-02 
363	 4.38681511927757E-02 
364	 4.16846342446138E-02 
365	 3.86993519198892E-02 
366	 4.00888289342622E-02 
367	 4.37889407327799E-02 
368	 4.60693791915922E-02 
369	 4.41130276975218E-02 
370	 4.16575020990494E-02 
371	 4.01580950543365E-02 
372	 3.95720505496452E-02 
373	 0.039485478630954 
374	 3.84796331315043E-02 
375	 0.037119311617988 
376	 3.89127093386241E-02 
377	 3.77180360402453E-02 
378	 3.65759170183614E-02 
379	 3.87233839151978E-02 
380	 3.97780254051578E-02 
381	 3.83302348873514E-02 
382	 3.66115499905782E-02 
383	 3.82352116185433E-02 
384	 3.77684165449245E-02 
385	 3.64238135226631E-02 
386	 3.58386509877462E-02 
387	 3.71121630411603E-02 
388	 3.72097648912686E-02 
389	 3.63661881693174E-02 
390	 0.035834582249556 
391	 3.70420807852888E-02 
392	 3.73770254784079E-02 
393	 3.57871015853094E-02 
394	 3.28773290589811E-02 
395	 3.40425238830487E-02 
396	 3.54824845115685E-02 
397	 3.47790969568348E-02 
398	 3.36936299690968E-02 
399	 3.32377765825021E-02 
400	 3.39766719186843E-02 
401	 3.54916125596918E-02 
402	 0.034532243845436 
403	 3.32160640128948E-02 
404	 3.26220637961275E-02 
405	 3.27851509473413E-02 
406	 3.30648772952512E-02 
407	 3.30983394139204E-02 
408	 3.27044767514044E-02 
409	 3.17820523249746E-02 
410	 3.15421773133186E-02 
411	 3.19207098350846E-02 
412	 3.22488464149309E-02 
413	 0.031331006159447 
414	 3.07276267365153E-02 
415	 3.08102824192679E-02 
416	 3.07697943322004E-02 
417	 3.05796233406965E-02 
418	 3.00295743985257E-02 
419	 2.93720629385509E-02 
420	 3.00643596981641E-02 
421	 0.030132244637437 
422	 2.99029736126631E-02 
423	 3.03491904422577E-02 
424	 2.99500128947351E-02 
425	 2.96302529107797E-02 
426	 2.96628016846837E-02 
427	 2.93830258517895E-02 
428	 2.96349744801641E-02 
429	 2.97734471691985E-02 
430	 2.93260766577315E-02 
431	 2.93223052023949E-02 
432	 2.92284508009261E-02 
433	 2.90942995112505E-02 
434	 2.92160818051793E-02 
435	 2.89084120493499E-02 
436	 0.028935485219811 
437	 2.94036485227209E-02 
438	 2.91742557359428E-02 
439	 2.88566034801574E-02 
440	 2.86640248687161E-02 
441	 2.86797235144808E-02 
442	 0.028952497155328 
443	 2.89186483495768E-02 
444	 2.86688683587108E-02 
445	 2.87733125416906E-02 
446	 2.85297940952323E-02 
447	 2.84787181082609E-02 
448	 2.88406705116429E-02 
449	 2.87031361358277E-02 
450	 2.85797179762908E-02 
451	 2.86334894412835E-02 
452	 2.88603058080895E-02 
453	 2.90876132870572E-02 
454	 2.90268310991178E-02 
455	 2.87333463674197E-02 
456	 2.86374603397782E-02 
457	 2.86994575142376E-02 
458	 2.86967811649243E-02 
459	 0.028537084044786 
460	 2.86686915081785E-02 
461	 2.87490881305809E-02 
462	 0.02868409533269 
463	 2.85442354710704E-02 
464	 2.84894675332947E-02 
465	 2.84921132640369E-02 
466	 2.85220181188072E-02 
467	 0.028587438200144 
468	 2.86303619165211E-02 
469	 2.85945132510213E-02 
470	 2.84827670426971E-02 
471	 2.85152953532726E-02 
472	 2.85418958682194E-02 
473	 2.85590457666288E-02 
474	 2.86660326586279E-02 
475	 2.85066313960349E-02 
476	 0.028411088376364 
477	 2.85573024641563E-02 
478	 2.85405516738094E-02 
479	 2.85669714928957E-02 
480	 2.86225810212147E-02 
481	 2.86096757988679E-02 
482	 2.84291179245245E-02 
483	 2.83328693482419E-02 
484	 2.84136520703038E-02 
485	 2.85515575214857E-02 
486	 2.85578700893737E-02 
487	 2.86103684903289E-02 
488	 2.88191299120013E-02 
489	 2.88001862593425E-02 
490	 2.87671051626385E-02 
491	 2.87762050007509E-02 
492	 2.87821022970772E-02 
493	 2.87114005181086E-02 
494	 2.87503835131316E-02 
495	 2.89054999164741E-02 
496	 2.88278683108695E-02 
497	 2.88676328266574E-02 
498	 2.90018612864212E-02 
499	 2.90984613127297E-02 
500	 0.02910928155093 
501	 2.90482931781608E-02 
502	 2.90032802291188E-02 
503	 2.91059125064239E-02 
504	 2.91310011293849E-02 
505	 0.029090961626807 
506	 2.90773947825301E-02 
507	 2.92892433405386E-02 
508	 2.93247697377997E-02 
509	 2.93032974804467E-02 
510	 2.95058738430223E-02 
511	 2.95595341880732E-02 
512	 2.95250991751631E-02 
513	 2.94827038258273E-02 
514	 2.94825188843226E-02 
515	 2.95709266877135E-02 
516	 2.96692507892295E-02 
517	 2.97045687251469E-02 
518	 2.97511163008376E-02 
519	 2.97643913533616E-02 
520	 2.97962179870349E-02 
521	 0.029943902417948 
522	 2.99965572727453E-02 
523	 3.00422606162967E-02 
524	 3.01356512049311E-02 
525	 0.030168673272111 
526	 3.03002125100236E-02 
527	 3.04159215132862E-02 
528	 3.03801936395113E-02 
529	 3.05240724622948E-02 
530	 3.06209464951635E-02 
531	 3.06386949043996E-02 
532	 3.07814002674736E-02 
533	 3.09264161193714E-02 
534	 3.10134652776196E-02 
535	 3.10465560826403E-02 
536	 3.11716635267088E-02 
537	 3.13205212999889E-02 
538	 0.031450748041822 
539	 3.15439904708121E-02 
540	 3.16553432367708E-02 
541	 3.17882754131746E-02 
542	 3.19421903310569E-02 
543	 3.21215125638657E-02 
544	 3.23283592852455E-02 
545	 3.25250893293525E-02 
546	 3.26873743949765E-02 
547	 3.29150433317455E-02 
548	 3.30817534854532E-02 
549	 3.32223432424551E-02 
550	 0.033510780801702 
551	 3.38209494637562E-02 
552	 3.41409388868036E-02 
553	 3.44748984175765E-02 
554	 0.034814704059765 
555	 3.51379306315086E-02 
556	 3.54651391474353E-02 
557	 3.58349318047947E-02 
558	 3.62445544261371E-02 
559	 0.036674314347053 
560	 3.71451876921327E-02 
561	 3.77398178640399E-02 
562	 3.82772891423496E-02 
563	 3.88169416407723E-02 
564	 0.039433143347755 
565	 3.99691643271815E-02 
566	 4.06398481615227E-02 
567	 0.041429004984817 
568	 4.21692459022718E-02 
569	 0.043161414730581 
570	 0.044288527687792 
571	 0.045475592927187 
572	 0.046882245532333 
573	 4.83918733566879E-02 
574	 4.99816040124238E-02 
575	 5.16401651755331E-02 
576	 5.31857156970386E-02 
577	 5.46668670523598E-02 
578	 5.61839098017606E-02 
579	 5.78703069409432E-02 
580	 5.97402764628085E-02 
581	 6.18800964176149E-02 
582	 6.43456355541384E-02 
583	 6.70525890863383E-02 
584	 6.99895222993187E-02 
585	 7.31281074587354E-02 
586	 7.64563845604522E-02 
587	 7.99873025741193E-02 
588	 8.37576026801456E-02 
589	 8.78212156046849E-02 
590	 9.21997439912183E-02 
591	 9.71530637404131E-02 
592	 0.102506440491523 
593	 0.10798299812459 
594	 0.113593188167739 
595	 0.119354209839642 
596	 0.125219554287502 
597	 0.131070978016377 
598	 0.137142846231256 
599	 0.143632048165275 
600	 0.150637681460883 
601	 0.157961844805044 
602	 0.165497605948088 
603	 0.173314134660658 
604	 0.181501595032044 
605	 0.189673046058545 
606	 0.197747444388676 
607	 0.205720825812736 
608	 0.213636554766037 
609	 0.221428965408261 
610	 0.2291057499568 
611	 0.236670452294682 
612	 0.243925087972366 
613	 0.251027792708745 
614	 0.25793154821419 
615	 0.264502073859928 
616	 0.270759449493653 
617	 0.276758042493176 
618	 0.282519863694298 
619	 0.28804039694518 
620	 0.293226771204973 
621	 0.298085316286337 
622	 0.302659189363349 
623	 0.306975374976548 
624	 0.311133748165613 
625	 0.315070796732982 
626	 0.318578433078656 
627	 0.322071389216516 
628	 0.325328897266042 
629	 0.328202349376334 
630	 0.331043422998977 
631	 0.33368879743533 
632	 0.336174557952084 
633	 0.338588623191648 
634	 0.340772267841304 
635	 0.342924712221892 
636	 0.345010578199228 
637	 0.346668869526009 
638	 0.348452613894298 
639	 0.350174542977927 
640	 0.351638954874545 
641	 0.353260478563708 
642	 0.35474911205984 
643	 0.356076108068346 
644	 0.357378029310639 
645	 0.358631131605428 
646	 0.359897531219017 
647	 0.361152323141158 
648	 0.362211294051294 
649	 0.363298156530284 
650	 0.364400283530119 
651	 0.365439328730515 
652	 0.366394485425773 
653	 0.367306144317725 
654	 0.368225433731099 
655	 0.369200534367727 
656	 0.370164982995387 
657	 0.370961064771511 
658	 0.371598041042916 
659	 0.372456613420662 
660	 0.37338830972473 
661	 0.374239631419975 
662	 0.374913787399092 
663	 0.375684128522245 
664	 0.376443187785529 
665	 0.377112437248825 
666	 0.377678284739686 
667	 0.378426987232736 
668	 0.379196557030118 
669	 0.379821616807774 
670	 0.38036372505468 
671	 0.380934594413527 
672	 0.381595760374823 
673	 0.382348925256504 
674	 0.383040255640388 
675	 0.383493524474983 
676	 0.383860478421457 
677	 0.384663113082947 
678	 0.385197391056945 
679	 0.385670148316436 
680	 0.386323735295328 
681	 0.386831980225215 
682	 0.387343530435196 
683	 0.387834068703681 
684	 0.388228058084051 
685	 0.388814383571327 
686	 0.389483492358897 
687	 0.3900850203122 
688	 0.39048099343406 
689	 0.390822295045335 
690	 0.391193558278262 
691	 0.391627318639038 
692	 0.392038240567401 
693	 0.392538860991262 
694	 0.393102477646931 
695	 0.393613852862703 
696	 0.394057081048579 
697	 0.394430724166976 
698	 0.394793007281216 
699	 0.395289872552942 
700	 0.395741897243077 
701	 0.396119623220257 
702	 0.396467824075101 
703	 0.396923338220087 
704	 0.397435344549664 
705	 0.397899689679358 
706	 0.398203667662598 
707	 0.398509296987558 
708	 0.398865123842101 
709	 0.399269011525754 
710	 0.399665004382004 
711	 0.400077270095949 
712	 0.400448493027092 
713	 0.400751290051862 
714	 0.401147221103926 
715	 0.401684800372272 
716	 0.402147747753088 
717	 0.402215288581315 
718	 0.40254980193962 
719	 0.402963501437229 
720	 0.403290356546265 
721	 0.403601212045606 
722	 0.404014448687179 
723	 0.404431246185782 
724	 0.404748513594373 
725	 0.405147880374969 
726	 0.405438915500428 
727	 0.405676478776188 
728	 0.406069387251074 
729	 0.406465239929414 
730	 0.406743513511544 
731	 0.406929712320943 
732	 0.40727093933168 
733	 0.407693869411048 
734	 0.408064375019698 
735	 0.40830820063488 
736	 0.408653645635353 
737	 0.40900026951037 
738	 0.409370288747492 
739	 0.409832452851687 
740	 0.410092751084537 
741	 0.410283224958268 
742	 0.410539483594008 
743	 0.410918216737022 
744	 0.411325106581978 
745	 0.411613737321265 
746	 0.411723844042454 
747	 0.411889190448652 
748	 0.412213598593866 
749	 0.412589697232588 
750	 0.412832896258912 
751	 0.413250708943457 
752	 0.413560670954149 
753	 0.413724703675024 
754	 0.414085407207788 
755	 0.414608002814999 
756	 0.415024896666667 
757	 0.415194043457065 
758	 0.415490699676346 
759	 0.415738649582182 
760	 0.415940499214754 
761	 0.416191787698145 
762	 0.416633367292583 
763	 0.417009727672513 
764	 0.41720269084147 
765	 0.417289589713535 
766	 0.417528960206663 
767	 0.417884629190292 
768	 0.418233011151328 
769	 0.418395428993016 
770	 0.418575955041404 
771	 0.418839074602935 
772	 0.419168818293618 
773	 0.419459145019747 
774	 0.419592112862165 
775	 0.41971045737353 
776	 0.420118787613927 
777	 0.420443866505717 
778	 0.420668986791145 
779	 0.420869052094233 
780	 0.421179883536647 
781	 0.421368951491486 
782	 0.421557490078155 
783	 0.421887886277362 
784	 0.422234404297459 
785	 0.422340572625782 
786	 0.422329653445701 
787	 0.4225456763358 
788	 0.423193030072421 
789	 0.423529256463853 
790	 0.423419152398451 
791	 0.423540944669475 
792	 0.423980983009674 
793	 0.424381341415856 
794	 0.424506527106859 
795	 0.424679165601267 
796	 0.424728021237411 
797	 0.424884235599458 
798	 0.42534026009 
799	 0.42539451398129 
800	 0.425544384445592 
801	 0.42590038635131 
802	 0.426221024885564 
803	 0.426336939958821 
804	 0.426417098885435 
805	 0.426614043464191 
806	 0.426973898547273 
807	 0.427189784628853 
808	 0.427256980112044 
809	 0.427280065380705 
810	 0.427396039349256 
811	 0.427675523644965 
812	 0.42802907403578 
813	 0.428317742004017 
814	 0.428633304809228 
815	 0.428792541461675 
816	 0.428787139626464 
817	 0.428795084687576 
818	 0.429123536362379 
819	 0.429403169741897 
820	 0.429485166776566 
821	 0.429754626862905 
822	 0.429967123773368 
823	 0.430179206024476 
824	 0.430432946545922 
825	 0.430471420013799 
826	 0.430568238477965 
827	 0.430790916572536 
828	 0.431058906050188 
829	 0.4310759770923 
830	 0.431277786858495 
831	 0.43162092367425 
832	 0.431666048105436 
833	 0.431922170654422 
834	 0.432174001922355 
835	 0.43230432079287 
836	 0.432506774635719 
837	 0.432658642323422 
838	 0.432853903576733 
839	 0.433134700136324 
840	 0.433266701426338 
841	 0.433268396432797 
842	 0.433273201009428 
843	 0.433439568151274 
844	 0.433776824679601 
845	 0.434063715157813 
846	 0.434261294799963 
847	 0.434456009278504 
848	 0.434457917824268 
849	 0.434490064175266 
850	 0.434628774600539 
851	 0.434712555292229 
852	 0.434793275713522 
853	 0.43502376186649 
854	 0.435388226740424 
855	 0.435484109885726 
856	 0.43549856681901 
857	 0.435510447443403 
858	 0.435572813846181 
859	 0.435746543443098 
860	 0.435961822787145 
861	 0.436144428716523 
862	 0.43625051591733 
863	 0.436402912703678 
864	 0.43655546986543 
865	 0.436663968883549 
866	 0.436715413182217 
867	 0.436858684287937 
868	 0.437204232958802 
869	 0.437562265647641 
870	 0.437394801860051 
871	 0.437510237845876 
872	 0.437690199642774 
873	 0.437692833879358 
874	 0.437718023099124 
875	 0.438109228760236 
876	 0.438483749955313 
877	 0.438470403496349 
878	 0.438612671057434 
879	 0.438881051884161 
880	 0.439072225466762 
881	 0.439016721395742 
882	 0.43922903600158 
883	 0.439337735606694 
884	 0.439374940076895 
885	 0.439652391435107 
886	 0.439779585835349 
887	 0.439828278662199 
888	 0.439949636717288 
889	 0.440287839957062 
890	 0.440451581222267 
891	 0.440535168116721 
892	 0.440657292652935 
893	 0.440814823575226 
894	 0.440833294172185 
895	 0.440889479655377 
896	 0.441120360127935 
897	 0.441335793585848 
898	 0.441472892182122 
899	 0.441437909376882 
900	 0.44126433375534 
901	 0.441395499679566 
902	 0.441843622923168 
903	 0.44221354529311 
904	 0.442071130368185 
905	 0.441851913135038 
906	 0.441969700416917 
907	 0.442208579523411 
908	 0.442050861955969 
909	 0.442359762299863 
910	 0.442652637539876 
911	 0.44263008729225 
912	 0.442377042586794 
913	 0.442449330023044 
914	 0.442815321637502 
915	 0.443205422301298 
916	 0.443211018354531 
917	 0.443159443362414 
918	 0.443088662934193 
919	 0.443074753581141 
920	 0.443353884171045 
921	 0.443791186973608 
922	 0.444050392523121 
923	 0.444024199984525 
924	 0.444312235879883 
925	 0.444274366973092 
926	 0.444294306539272 
927	 0.444728811367601 
928	 0.444708608475068 
929	 0.444635970181633 
930	 0.444635655562439 
931	 0.444773532151898 
932	 0.445427945811832 
933	 0.445694001433347 
934	 0.445691662003313 
935	 0.445972516389762 
936	 0.445951943002651 
937	 0.445837295896379 
938	 0.445894346868043 
939	 0.446295205542432 
940	 0.446620874433669 
941	 0.446717439358098 
942	 0.446629948531191 
943	 0.446574466567754 
944	 0.446847629422641 
945	 0.447033909607355 
946	 0.447003548301679 
947	 0.447049652712514 
948	 0.447651076929178 
949	 0.448013293971844 
950	 0.447911339881965 
951	 0.448046679102913 
952	 0.448237360801568 
953	 0.448423438976683 
954	 0.448472247321057 
955	 0.448180431673954 
956	 0.448434653471143 
957	 0.449042693228434 
958	 0.44951013445995 
959	 0.449312865012898 
960	 0.449200785909199 
961	 0.449257054958796 
962	 0.449307480850565 
963	 0.449025103975629 
964	 0.448970008418794 
965	 0.449221674149055 
966	 0.449638588250846 
967	 0.449942351623091 
968	 0.449806885897897 
969	 0.449624425096068 
970	 0.449743774176914 
971	 0.449832333848225 
972	 0.450056683110821 
973	 0.450028310151756 
974	 0.449616336652448 
975	 0.449799194591639 
976	 0.450174442391499 
977	 0.450421416393916 
978	 0.450399749191596 
979	 0.450439874764974 
980	 0.450509369820119 
981	 0.450452921854497 
982	 0.450289496749327 
983	 0.450725723243897 
984	 0.45114619454057 
985	 0.451352816014113 
986	 0.451345167337369 
987	 0.451203499560102 
988	 0.451173459795207 
989	 0.451250651786018 
990	 0.45134210243481 
991	 0.45143453789943 
992	 0.451565848011744 
993	 0.451812057281433 
994	 0.452199594160175 
995	 0.452575816057768 
996	 0.452893258579457 
997	 0.453028799314745 
998	 0.452931719042659 
999	 0.452838069626241 
1000	 0.452513582203638 
1001	 0.457965386127198 
1002	 0.458181909684063 
1003	 0.458402139065376 
1004	 0.458555165996785 
1005	 0.458626002365282 
1006	 0.45876558788579 
1007	 0.458890384081517 
1008	 0.459082689869227 
1009	 0.459358717962047 
1010	 0.459564812118817 
1011	 0.459767415430001 
1012	 0.459954347076257 
1013	 0.460102114453325 
1014	 0.460261610435476 
1015	 0.460387578501478 
1016	 0.460606602505409 
1017	 0.460854757570954 
1018	 0.46101226179867 
1019	 0.461244463589154 
1020	 0.461539533351826 
1021	 0.461731146463883 
1022	 0.461910042101643 
1023	 0.462016324758052 
1024	 0.461994921341491 
1025	 0.462064128211009 
1026	 0.46211634824594 
1027	 0.462203063108832 
1028	 0.462388774052128 
1029	 0.462480397551033 
1030	 0.462442898285105 
1031	 0.462489038670973 
1032	 0.46244751121563 
1033	 0.462362583144399 
1034	 0.462383883465799 
1035	 0.462361118642596 
1036	 0.462364850132886 
1037	 0.462384414220847 
1038	 0.4623939184223 
1039	 0.462406421057576 
1040	 0.46244189736347 
1041	 0.462495434336903 
1042	 0.462530075685475 
1043	 0.462603990811503 
1044	 0.462595953115435 
1045	 0.462569877063174 
1046	 0.462514181133115 
1047	 0.462506972050804 
1048	 0.462591183217354 
1049	 0.462666295516276 
1050	 0.462728253088844 
1051	 0.462704896917866 
1052	 0.462666043273916 
1053	 0.462688261208667 
1054	 0.462698664514277 
1055	 0.462744537368011 
1056	 0.462867553027137 
1057	 0.462985854104548 
1058	 0.463091747107169 
1059	 0.463215570367203 
1060	 0.463421731806303 
1061	 0.463565603574353 
1062	 0.463712474637608 
1063	 0.46394003535679 
1064	 0.464156092787378 
1065	 0.464432126895356 
1066	 0.464689642937587 
1067	 0.464919255280257 
1068	 0.46523916866619 
1069	 0.46552761460481 
1070	 0.465806648654435 
1071	 0.466089369440008 
1072	 0.466406942468442 
1073	 0.466677693171372 
1074	 0.466988498357127 
1075	 0.467312424927068 
1076	 0.46768405866935 
1077	 0.468146532285247 
1078	 0.468561968292397 
1079	 0.468998321500359 
1080	 0.469492955684137 
1081	 0.469964565296587 
1082	 0.47043858610597 
1083	 0.470913845468897 
1084	 0.471342485634849 
1085	 0.471763783891791 
1086	 0.472187095155707 
1087	 0.472597518012049 
1088	 0.47301896170534 
1089	 0.473470675010676 
1090	 0.473872460902686 
1091	 0.474255788804357 
1092	 0.474685712971523 
1093	 0.475062532414398 
1094	 0.475354616155162 
1095	 0.475645930295365 
1096	 0.47596296060695 
1097	 0.476313947861454 
1098	 0.47668605046232 
1099	 0.47700626872834 
1100	 0.477235236239571 
1101	 0.477411580015589 
1102	 0.477603804243927 
1103	 0.477776594215756 
1104	 0.477960551670776 
1105	 0.478104989319258 
1106	 0.478203315556964 
1107	 0.478245306323491 
1108	 0.478264615471628 
1109	 0.478325424221163 
1110	 0.478349475490174 
1111	 0.478369345278356 
1112	 0.478423666427467 
1113	 0.478358588905758 
1114	 0.478281128436493 
1115	 0.478230040471533 
1116	 0.478101397516382 
1117	 0.478020379942287 
1118	 0.477961593051129 
1119	 0.477949652344695 
1120	 0.477889287343587 
1121	 0.477837879499521 
1122	 0.477738171252285 
1123	 0.477636754015196 
1124	 0.477561429475433 
1125	 0.477465035118705 
1126	 0.477390515876805 
1127	 0.47735065408121 
1128	 0.47732520337412 
1129	 0.477305979958365 
1130	 0.477292387397554 
1131	 0.477262514160184 
1132	 0.477228605144831 
1133	 0.477202999748625 
1134	 0.4771993453766 
1135	 0.477214260993671 
1136	 0.477259984302243 
1137	 0.477271006540755 
1138	 0.477258855806964 
1139	 0.477312631264777 
1140	 0.477386519541058 
1141	 0.477456352050891 
1142	 0.477593363621554 
1143	 0.477718377235762 
1144	 0.477765498232724 
1145	 0.477808647621712 
1146	 0.477831260459897 
1147	 0.477882397494922 
1148	 0.477967536032565 
1149	 0.478016069645746 
1150	 0.478117817015459 
1151	 0.478208550577984 
1152	 0.478251430380082 
1153	 0.478267699983209 
1154	 0.478303809922213 
1155	 0.478291635198172 
1156	 0.478308723364714 
1157	 0.47835525593694 
1158	 0.478390610276034 
1159	 0.478410498757354 
1160	 0.478469290767537 
1161	 0.478520282782198 
1162	 0.478554560495207 
1163	 0.478643223825217 
1164	 0.478722758462167 
1165	 0.478791610852446 
1166	 0.478896917445251 
1167	 0.478971454440157 
1168	 0.479037272859773 
1169	 0.479106197464284 
1170	 0.479178750685248 
1171	 0.479239155585806 
1172	 0.479299543423494 
1173	 0.479344477308408 
1174	 0.479348059337187 
1175	 0.479409538238463 
1176	 0.479490882563436 
1177	 0.479571771288905 
1178	 0.479682467618444 
1179	 0.479804709144451 
1180	 0.479886992919279 
1181	 0.479956974694363 
1182	 0.480059704376063 
1183	 0.480178866051013 
1184	 0.480356779198531 
1185	 0.480547895646484 
1186	 0.480679881212716 
1187	 0.480794476664612 
1188	 0.480904404266708 
1189	 0.480927157338194 
1190	 0.481071724389822 
1191	 0.481293185795049 
1192	 0.481477712583 
1193	 0.481747522170846 
1194	 0.481914900801354 
1195	 0.481988653023639 
1196	 0.482105419266386 
1197	 0.482195856300164 
1198	 0.482288705987212 
1199	 0.482439443276184 
1200	 0.482656796344894 
1201	 0.482861215472966 
1202	 0.483031381356929 
1203	 0.483227963411063 
1204	 0.483420310520005 
1205	 0.483609321226568 
1206	 0.483811422378366 
1207	 0.484019939270373 
1208	 0.484221095574359 
1209	 0.484413684151548 
1210	 0.484610360508721 
1211	 0.484815801349086 
1212	 0.485001988973423 
1213	 0.485223198416039 
1214	 0.485471630056464 
1215	 0.485723927657003 
1216	 0.48600281630863 
1217	 0.486258037944766 
1218	 0.486512366795039 
1219	 0.486770494629145 
1220	 0.487009873685938 
1221	 0.487253096544962 
1222	 0.487490420346165 
1223	 0.487764643299406 
1224	 0.488016877622287 
1225	 0.48827271371439 
1226	 0.488501769790243 
1227	 0.488709397972906 
1228	 0.488933548680618 
1229	 0.489137174498774 
1230	 0.489373740616449 
1231	 0.489665030033527 
1232	 0.489894266585197 
1233	 0.490085077159423 
1234	 0.490304076035787 
1235	 0.49051198006378 
1236	 0.490715275037497 
1237	 0.490931170906195 
1238	 0.491157700063476 
1239	 0.491379571069441 
1240	 0.491593031722421 
1241	 0.49180723417406 
1242	 0.492028774377927 
1243	 0.492260977613504 
1244	 0.492499358126028 
1245	 0.492685202431947 
1246	 0.492874235165116 
1247	 0.493044271113006 
1248	 0.493141371125966 
1249	 0.493297112536359 
1250	 0.49349431517881 
1251	 0.493663046672137 
1252	 0.493837057416835 
1253	 0.493984018467609 
1254	 0.49414057820124 
1255	 0.494241513699604 
1256	 0.494280584675251 
1257	 0.494342689962494 
1258	 0.494401128208033 
1259	 0.494421002486445 
1260	 0.494438820229408 
1261	 0.49443548673764 
1262	 0.494362903504747 
1263	 0.494309089409979 
1264	 0.49428334918217 
1265	 0.494254385726997 
1266	 0.494286379266551 
1267	 0.494361407384351 
1268	 0.494438107443709 
1269	 0.494553588946142 
1270	 0.494666372464692 
1271	 0.494784021913087 
1272	 0.494912354365654 
1273	 0.495057788567222 
1274	 0.495208287293522 
1275	 0.495349665559904 
1276	 0.495527007437507 
1277	 0.495729201511408 
1278	 0.495944514168757 
1279	 0.496221553140311 
1280	 0.496442979246708 
1281	 0.496645967608911 
1282	 0.496846919568131 
1283	 0.496979239810721 
1284	 0.497171940395685 
1285	 0.497392170753677 
1286	 0.497641676640593 
1287	 0.497895784813404 
1288	 0.498180178235197 
1289	 0.498471483675471 
1290	 0.498770225652549 
1291	 0.499079611603751 
1292	 0.499413324695886 
1293	 0.49974527283519 
1294	 0.500041103640738 
1295	 0.500432832784222 
1296	 0.500881600918569 
1297	 0.50133252386862 
1298	 0.501855829555672 
1299	 0.502349652964988 
1300	 0.50283239896941 
1301	 0.503323072880935 
1302	 0.503824682067319 
1303	 0.504323293659376 
1304	 0.504791373046135 
1305	 0.505306726885105 
1306	 0.505867433018466 
1307	 0.506403916136611 
1308	 0.506946224720939 
1309	 0.507511040891094 
1310	 0.508037206451437 
1311	 0.508534692913938 
1312	 0.509027560788045 
1313	 0.509531887184212 
1314	 0.509964380043453 
1315	 0.510361041520033 
1316	 0.510724268752808 
1317	 0.51100853022814 
1318	 0.511347076057586 
1319	 0.511708645905706 
1320	 0.512007583926467 
1321	 0.512332097378749 
1322	 0.5125598390852 
1323	 0.512679480456786 
1324	 0.512827579566141 
1325	 0.512967169571155 
1326	 0.513056564625522 
1327	 0.513098683887874 
1328	 0.513162985261485 
1329	 0.513198949686432 
1330	 0.513227993803448 
1331	 0.513323544839496 
1332	 0.513330350560524 
1333	 0.513274304837357 
1334	 0.513179823651111 
1335	 0.513102917865063 
1336	 0.51298326169146 
1337	 0.512897481708601 
1338	 0.512857645267753 
1339	 0.512727810506221 
1340	 0.512568709848141 
1341	 0.512387854962192 
1342	 0.512126593388944 
1343	 0.511947624960332 
1344	 0.511806617531776 
1345	 0.511624027656665 
1346	 0.511462295077469 
1347	 0.511272342737004 
1348	 0.51101758305767 
1349	 0.510822190144721 
1350	 0.51063800154038 
1351	 0.510481590311905 
1352	 0.510362712536011 
1353	 0.510238350419447 
1354	 0.510137273652469 
1355	 0.510026931248605 
1356	 0.509910354545314 
1357	 0.509800250668183 
1358	 0.509672250088463 
1359	 0.509577756532917 
1360	 0.509492505027556 
1361	 0.509439971292622 
1362	 0.509390876340892 
1363	 0.509362752820133 
1364	 0.509322893611861 
1365	 0.509279001347637 
1366	 0.509242448402168 
1367	 0.509208749793704 
1368	 0.509182981767944 
1369	 0.509167903330735 
1370	 0.509142932500564 
1371	 0.509100353208922 
1372	 0.509107517264182 
1373	 0.509125494445769 
1374	 0.509157049646436 
1375	 0.509249921275446 
1376	 0.509289376220491 
1377	 0.50930988130345 
1378	 0.509326778723625 
1379	 0.509316071229075 
1380	 0.509326489799924 
1381	 0.50934235749028 
1382	 0.509358362195097 
1383	 0.509362517945506 
1384	 0.50940059306344 
1385	 0.509456334671159 
1386	 0.509514254979719 
1387	 0.509603793755438 
1388	 0.5096855619824 
1389	 0.509763218747757 
1390	 0.509839604667017 
1391	 0.509917994842906 
1392	 0.509998721606904 
1393	 0.510078532802398 
1394	 0.510179599522281 
1395	 0.510248657826909 
1396	 0.510320780328857 
1397	 0.510369992339616 
1398	 0.510383102454571 
1399	 0.51042126129662 
1400	 0.51046877367473 
1401	 0.510498166222693 
1402	 0.51054428877187 
1403	 0.510536181336498 
1404	 0.510484436026763 
1405	 0.510451413579157 
1406	 0.51037374004331 
1407	 0.510349279901419 
1408	 0.510356871618465 
1409	 0.510363934844734 
1410	 0.510376558143312 
1411	 0.510419812805575 
1412	 0.510489319937868 
1413	 0.510550916231717 
1414	 0.51065241936479 
1415	 0.510719297684474 
1416	 0.510756741897404 
1417	 0.510805756313971 
1418	 0.510831882376758 
1419	 0.510888172725423 
1420	 0.510961459929948 
1421	 0.511042256512137 
1422	 0.5111471185415 
1423	 0.511248222588018 
1424	 0.511345639788212 
1425	 0.511455468954099 
1426	 0.511561179457362 
1427	 0.511709729136406 
1428	 0.511893412422454 
1429	 0.512067109282093 
1430	 0.512234351563319 
1431	 0.512421168614577 
1432	 0.512567134438515 
1433	 0.512674459982322 
1434	 0.512821555678403 
1435	 0.512972188193963 
1436	 0.513121112363113 
1437	 0.513282654179752 
1438	 0.513443858175157 
1439	 0.5135857240267 
1440	 0.513764837751484 
1441	 0.513973896831065 
1442	 0.51417626491076 
1443	 0.514389951952352 
1444	 0.514607186822437 
1445	 0.514839824077812 
1446	 0.51504813980262 
1447	 0.515241422694925 
1448	 0.515454345105983 
1449	 0.515658581454537 
1450	 0.515873616827193 
1451	 0.516125006719405 
1452	 0.516346112721235 
1453	 0.516537379885904 
1454	 0.516750306983586 
1455	 0.516965317236016 
1456	 0.517183181518909 
1457	 0.517399293705919 
1458	 0.517639451820172 
1459	 0.517904995729024 
1460	 0.518151907489502 
1461	 0.518421544261245 
1462	 0.518666839240096 
1463	 0.518867784217913 
1464	 0.519092119245864 
1465	 0.519322352387284 
1466	 0.519559170029726 
1467	 0.51977940688088 
1468	 0.52000582647314 
1469	 0.52023266366816 
1470	 0.520435962465423 
1471	 0.520644144851631 
1472	 0.520870235815809 
1473	 0.521051963828629 
1474	 0.521192164897057 
1475	 0.521379473434679 
1476	 0.521566799181579 
1477	 0.521754424289856 
1478	 0.521965102927354 
1479	 0.522167433955484 
1480	 0.522342195820758 
1481	 0.522564283917107 
1482	 0.522820448545206 
1483	 0.523064590941328 
1484	 0.523331109299353 
1485	 0.523575428717372 
1486	 0.523825612162896 
1487	 0.524041170842906 
1488	 0.52422915551534 
1489	 0.524422089641142 
1490	 0.524581352766618 
1491	 0.524771018735901 
1492	 0.524976765340634 
1493	 0.525181834337944 
1494	 0.525407906782594 
1495	 0.525607406061137 
1496	 0.525805230516658 
1497	 0.525984204496257 
1498	 0.526124042540887 
1499	 0.526293440369268 
1500	 0.526462689708622 
1501	 0.526641964468722 
1502	 0.526847247261424 
1503	 0.527037225156234 
1504	 0.527220861338385 
1505	 0.527406384950412 
1506	 0.527579296619461 
1507	 0.527772390943208 
1508	 0.527985483078432 
1509	 0.52818477630739 
1510	 0.528382212107233 
1511	 0.528587160880032 
1512	 0.528787095231243 
1513	 0.528990934161728 
1514	 0.529193769005162 
1515	 0.529420599129953 
1516	 0.529661345977061 
1517	 0.529901165231609 
1518	 0.530184633836489 
1519	 0.530430567160637 
1520	 0.53066328576438 
1521	 0.530876153836175 
1522	 0.531018864412325 
1523	 0.531172741366394 
1524	 0.531307072583673 
1525	 0.531393227749039 
1526	 0.531542114210238 
1527	 0.531710614698348 
1528	 0.531883945890795 
1529	 0.532084204024105 
1530	 0.532270666652629 
1531	 0.532460948894024 
1532	 0.532639137172293 
1533	 0.532799203705462 
1534	 0.533006316810418 
1535	 0.533237467139689 
1536	 0.53343375755197 
1537	 0.533643787593735 
1538	 0.533850331428647 
1539	 0.534020387214794 
1540	 0.534222606962798 
1541	 0.534459378699303 
1542	 0.534681403559441 
1543	 0.534897208332501 
1544	 0.535107902284586 
1545	 0.535340482383975 
1546	 0.535526378739116 
1547	 0.535671388866621 
1548	 0.535841593559953 
1549	 0.535987664893888 
1550	 0.536170822914629 
1551	 0.536374183501499 
1552	 0.536589996628613 
1553	 0.536838613599173 
1554	 0.537058091219542 
1555	 0.537301032301949 
1556	 0.537487794757358 
1557	 0.537622703201709 
1558	 0.537782135090139 
1559	 0.537902249819138 
1560	 0.538075138371158 
1561	 0.538278344679029 
1562	 0.538488543823128 
1563	 0.538725836644839 
1564	 0.538960229804562 
1565	 0.539230555985601 
1566	 0.539444483998135 
1567	 0.53964392505196 
1568	 0.539821671318739 
1569	 0.539917775433503 
1570	 0.540094949325745 
1571	 0.540288077986575 
1572	 0.540514143587512 
1573	 0.540813742430455 
1574	 0.541071234867514 
1575	 0.541342425127295 
1576	 0.541582919418456 
1577	 0.541779379160068 
1578	 0.542008426121335 
1579	 0.542250189519602 
1580	 0.542469794072909 
1581	 0.542697411459891 
1582	 0.542913518333368 
1583	 0.5430951124014 
1584	 0.543295850281791 
1585	 0.543520177788598 
1586	 0.543718621119996 
1587	 0.543889818187726 
1588	 0.544089218561102 
1589	 0.544281903178674 
1590	 0.544495752640716 
1591	 0.544749098962281 
1592	 0.544982568655524 
1593	 0.545191162114912 
1594	 0.545443503270019 
1595	 0.545737826005493 
1596	 0.545994511401991 
1597	 0.546281976800445 
1598	 0.546520488573867 
1599	 0.546695680658651 
1600	 0.54688675508401 
1601	 0.547067294885026 
1602	 0.547249942679219 
1603	 0.547412569140794 
1604	 0.547604575596518 
1605	 0.54779625743567 
1606	 0.548018088524274 
1607	 0.548300717124651 
1608	 0.548541253492706 
1609	 0.548804262610766 
1610	 0.549014524244396 
1611	 0.549170595074277 
1612	 0.549327066576253 
1613	 0.549412496875778 
1614	 0.549573636088755 
1615	 0.549769340322757 
1616	 0.549970350398291 
1617	 0.550239663321767 
1618	 0.550470966051793 
1619	 0.550679864142475 
1620	 0.550891168237463 
1621	 0.551089357329551 
1622	 0.551293789842546 
1623	 0.551527192061654 
1624	 0.551711964003614 
1625	 0.551866151875171 
1626	 0.552024320788049 
1627	 0.552131227291901 
1628	 0.552272220798187 
1629	 0.552468462550709 
1630	 0.55261255065716 
1631	 0.552710527705937 
1632	 0.552850799902101 
1633	 0.55297039018948 
1634	 0.553121793398255 
1635	 0.553362647960624 
1636	 0.553536455376829 
1637	 0.553649833528681 
1638	 0.553812963361236 
1639	 0.553993727879139 
1640	 0.554138912597505 
1641	 0.554303949531391 
1642	 0.554451697766525 
1643	 0.554497828393346 
1644	 0.554652101610759 
1645	 0.554895037589048 
1646	 0.555107983473263 
1647	 0.555366982777745 
1648	 0.555601921918767 
1649	 0.555840702522146 
1650	 0.556022592165884 
1651	 0.556187111368972 
1652	 0.556318402197256 
1653	 0.556357903438685 
1654	 0.556442565440723 
1655	 0.556548043575847 
1656	 0.55663557807627 
1657	 0.556733241832235 
1658	 0.55680618069431 
1659	 0.55687261975513 
1660	 0.556896072457719 
1661	 0.556906934610965 
1662	 0.556869730082713 
1663	 0.556783318183222 
1664	 0.556662655332292 
1665	 0.556462784307977 
1666	 0.556320962331002 
1667	 0.556164334531121 
1668	 0.55603522261906 
1669	 0.55599789025854 
1670	 0.555854472432747 
1671	 0.55566499562451 
1672	 0.555462071140981 
1673	 0.555182608975405 
1674	 0.554935940127906 
1675	 0.554722359028425 
1676	 0.554448832079572 
1677	 0.554177324944807 
1678	 0.553837679381989 
1679	 0.553402227396863 
1680	 0.553016084361044 
1681	 0.552634185069439 
1682	 0.552203875044571 
1683	 0.551782860390262 
1684	 0.551305899328667 
1685	 0.550750240072312 
1686	 0.550219094843125 
1687	 0.54967829058602 
1688	 0.549127970091042 
1689	 0.548583503401589 
1690	 0.547980702045123 
1691	 0.547374894139102 
1692	 0.546695539961995 
1693	 0.54595556610532 
1694	 0.545189501859285 
1695	 0.544321626802932 
1696	 0.543532667314165 
1697	 0.54277065139947 
1698	 0.541960516984732 
1699	 0.541165961270521 
1700	 0.540378161157871 
1701	 0.539526770319347 
1702	 0.538754478478837 
1703	 0.538016164869618 
1704	 0.537316522405859 
1705	 0.536644820702027 
1706	 0.535975043399101 
1707	 0.535437234200233 
1708	 0.534895622474007 
1709	 0.534390420577491 
1710	 0.53401172554865 
1711	 0.533593205612159 
1712	 0.533198569731139 
1713	 0.532898214102706 
1714	 0.5325965755525 
1715	 0.532382129069368 
1716	 0.532233181764121 
1717	 0.532000794612061 
1718	 0.531736469378475 
1719	 0.531501025588072 
1720	 0.531280268933655 
1721	 0.53112360877344 
1722	 0.530989428453143 
1723	 0.53086587962454 
1724	 0.530779294660611 
1725	 0.530748694548298 
1726	 0.530844188665449 
1727	 0.53106484794503 
1728	 0.531358335483003 
1729	 0.531764968253262 
1730	 0.532265762366296 
1731	 0.532749520009835 
1732	 0.533294019604536 
1733	 0.533882452356619 
1734	 0.534560955695306 
1735	 0.535284209282852 
1736	 0.535956998222973 
1737	 0.536663354426807 
1738	 0.537237442932545 
1739	 0.537707870346123 
1740	 0.538133231043898 
1741	 0.53841870510932 
1742	 0.538548446106092 
1743	 0.538669307020925 
1744	 0.538713211944012 
1745	 0.538709939807998 
1746	 0.538598366867767 
1747	 0.538557516933182 
1748	 0.538467474107758 
1749	 0.538452764776234 
1750	 0.538507605883159 
1751	 0.538596454670103 
1752	 0.53872004501004 
1753	 0.538882477993008 
1754	 0.539090463777792 
1755	 0.539307905299286 
1756	 0.539518024771479 
1757	 0.53981205409179 
1758	 0.540226577571508 
1759	 0.54069554661692 
1760	 0.541260574191386 
1761	 0.541913020041109 
1762	 0.542580205135471 
1763	 0.543353572671389 
1764	 0.544103485847369 
1765	 0.544890622934647 
1766	 0.545732206717542 
1767	 0.546487514073289 
1768	 0.547272887641686 
1769	 0.548019452121565 
1770	 0.548680393886251 
1771	 0.549346408250172 
1772	 0.549981363307536 
1773	 0.550562684265341 
1774	 0.551169633623143 
1775	 0.551778457847962 
1776	 0.552398935753488 
1777	 0.553018218062158 
1778	 0.55353453087361 
1779	 0.554001820224116 
1780	 0.554424990751537 
1781	 0.554793723955383 
1782	 0.555151205760679 
1783	 0.555491827979905 
1784	 0.555782219725714 
1785	 0.556066338241173 
1786	 0.556360663264177 
1787	 0.556636511801826 
1788	 0.556946653419571 
1789	 0.557307609277821 
1790	 0.557566899589661 
1791	 0.557802211399876 
1792	 0.557997670966582 
1793	 0.558093613723081 
1794	 0.558271321728118 
1795	 0.558423205139279 
1796	 0.558586117242245 
1797	 0.558770158807762 
1798	 0.558924004672246 
1799	 0.55910652700489 
1800	 0.559295820403299 
1801	 0.561189288498695 
1802	 0.561548212171574 
1803	 0.561882002627929 
1804	 0.562165573160203 
1805	 0.562465562290667 
1806	 0.562752566033922 
1807	 0.562987223995973 
1808	 0.563295631901936 
1809	 0.56362885212212 
1810	 0.563966000740354 
1811	 0.564404680885896 
1812	 0.564737633997012 
1813	 0.565052901332699 
1814	 0.565319323077125 
1815	 0.565486294631609 
1816	 0.565611464445852 
1817	 0.565763220577511 
1818	 0.565854126966203 
1819	 0.566023548764313 
1820	 0.56622516864156 
1821	 0.566442580548906 
1822	 0.566674774995003 
1823	 0.566955197440719 
1824	 0.567266657178335 
1825	 0.567570164228346 
1826	 0.567873911208891 
1827	 0.568212948961443 
1828	 0.568509045202987 
1829	 0.568759823635625 
1830	 0.56905086998151 
1831	 0.56935041830399 
1832	 0.569658914276574 
1833	 0.569941121138194 
1834	 0.57024213559558 
1835	 0.570591996351315 
1836	 0.570895490132899 
1837	 0.571197079630586 
1838	 0.571542171174526 
1839	 0.571841101736948 
1840	 0.572079781510946 
1841	 0.572336207064478 
1842	 0.572590781370211 
1843	 0.572839188595794 
1844	 0.573083899420847 
1845	 0.573350492544647 
1846	 0.573615045920999 
1847	 0.573878636273202 
1848	 0.574151753680497 
1849	 0.57442549901212 
1850	 0.574688575773941 
1851	 0.574947265666314 
1852	 0.575232417113903 
1853	 0.575515544430663 
1854	 0.575814331678058 
1855	 0.57618239288766 
1856	 0.576499973803022 
1857	 0.576766636593129 
1858	 0.577051210448621 
1859	 0.577263637455613 
1860	 0.577429705597145 
1861	 0.577555773234529 
1862	 0.57764031932242 
1863	 0.577664339675804 
1864	 0.577682822325178 
1865	 0.577668334283399 
1866	 0.577665820721283 
1867	 0.577643715149377 
1868	 0.577557283559643 
1869	 0.57748972350833 
1870	 0.577421555537268 
1871	 0.577293907969042 
1872	 0.577266043439035 
1873	 0.577308017098953 
1874	 0.577293565224226 
1875	 0.577367414253369 
1876	 0.577456128564547 
1877	 0.577485905397378 
1878	 0.577508393145034 
1879	 0.577468636511195 
1880	 0.577341647451447 
1881	 0.577117854257451 
1882	 0.576803320420282 
1883	 0.576430488130939 
1884	 0.57593855825149 
1885	 0.575357279484822 
1886	 0.574751438836426 
1887	 0.574075549730276 
1888	 0.573350717920088 
1889	 0.572618732079573 
1890	 0.571757620282334 
1891	 0.570875491960574 
1892	 0.569980184722774 
1893	 0.569056516411097 
1894	 0.56806663488879 
1895	 0.567161978049607 
1896	 0.566232142909234 
1897	 0.565322497161215 
1898	 0.564496652453054 
1899	 0.563646332060726 
1900	 0.5628186162647 
1901	 0.562021594232889 
1902	 0.561243028928774 
1903	 0.5605491716944 
1904	 0.559864901359748 
1905	 0.559219341033299 
1906	 0.558606252539661 
1907	 0.558032533459193 
1908	 0.557427328564978 
1909	 0.556910732017911 
1910	 0.556464664954292 
1911	 0.556019544988235 
1912	 0.555658139741911 
1913	 0.55536216428888 
1914	 0.555117043015865 
1915	 0.554901221208995 
1916	 0.554737176070407 
1917	 0.554623707442317 
1918	 0.554550014303216 
1919	 0.554477219661451 
1920	 0.554448234452244 
1921	 0.554415226754983 
1922	 0.554370175405114 
1923	 0.554346759253034 
1924	 0.554338522333304 
1925	 0.5543990433113 
1926	 0.554467662134191 
1927	 0.554562646503793 
1928	 0.554669304447577 
1929	 0.554815812318836 
1930	 0.554921722173355 
1931	 0.555048581517283 
1932	 0.555202320851003 
1933	 0.555353128006047 
1934	 0.555527514489073 
1935	 0.555776360282116 
1936	 0.556098793664038 
1937	 0.556419226486864 
1938	 0.556810383624251 
1939	 0.557182602067494 
1940	 0.557585548677409 
1941	 0.557902814293886 
1942	 0.558229217821732 
1943	 0.558584732232194 
1944	 0.558912321089922 
1945	 0.559227011237328 
1946	 0.559587220875219 
1947	 0.559927335830826 
1948	 0.560287640637119 
1949	 0.560701370800482 
1950	 0.561084609237064 
1951	 0.56148427796718 
1952	 0.561871203481696 
1953	 0.562245492132248 
1954	 0.562595896674066 
1955	 0.56298014152062 
1956	 0.563314881841362 
1957	 0.563643639588223 
1958	 0.563993383649775 
1959	 0.564288482737723 
1960	 0.564560739460277 
1961	 0.564854563734361 
1962	 0.56513097730444 
1963	 0.565409761046319 
1964	 0.565694933063914 
1965	 0.56600098254172 
1966	 0.566296232585571 
1967	 0.566631650239703 
1968	 0.566966363870325 
1969	 0.567343859756711 
1970	 0.567755541900032 
1971	 0.568118055628114 
1972	 0.568480283121466 
1973	 0.568814386156603 
1974	 0.569119400180045 
1975	 0.56936997366179 
1976	 0.569629941042116 
1977	 0.569873041316447 
1978	 0.570118002050752 
1979	 0.570348926680962 
1980	 0.570569566196246 
1981	 0.570815692670878 
1982	 0.571084002442797 
1983	 0.571361484661158 
1984	 0.571654850535341 
1985	 0.571935653257957 
1986	 0.572143324554627 
1987	 0.572335769954615 
1988	 0.572470275264458 
1989	 0.572638182217674 
1990	 0.572787713400632 
1991	 0.572953086788662 
1992	 0.573137432118639 
1993	 0.573311150065647 
1994	 0.573483540140692 
1995	 0.573670673268758 
1996	 0.573865822801793 
1997	 0.574035713340131 
1998	 0.574201745532838 
1999	 0.574355214255142 
2000	 0.574516040957716 
2001	 0.57466301874549 
2002	 0.574826010456071 
2003	 0.575023426533283 
2004	 0.575164175872614 
2005	 0.575314570660387 
2006	 0.575417473595772 
2007	 0.575503457930061 
2008	 0.57549256969265 
2009	 0.575435012483339 
2010	 0.575376903312623 
2011	 0.575304127565466 
2012	 0.575205252525755 
2013	 0.575111886363273 
2014	 0.575045529838983 
2015	 0.574932736766545 
2016	 0.574759585957779 
2017	 0.574635877281144 
2018	 0.574526820371125 
2019	 0.574401617621015 
2020	 0.57426122083114 
2021	 0.574172029129335 
2022	 0.574098979675777 
2023	 0.574005367184262 
2024	 0.573870167398394 
2025	 0.573703010277818 
2026	 0.573474615764653 
2027	 0.573107659594244 
2028	 0.572832748839054 
2029	 0.572578028215168 
2030	 0.572297296565893 
2031	 0.572004522955971 
2032	 0.571750452057093 
2033	 0.571506032570672 
2034	 0.571257357483797 
2035	 0.571049852161031 
2036	 0.57081004000364 
2037	 0.570571222511244 
2038	 0.570256417065268 
2039	 0.570014138963446 
2040	 0.569778788239298 
2041	 0.569596199810118 
2042	 0.569440520980628 
2043	 0.569343854489929 
2044	 0.569317710637946 
2045	 0.569282915161117 
2046	 0.569308523034655 
2047	 0.569289096362984 
2048	 0.569277734309202 
2049	 0.569228331466239 
2050	 0.569159631795502 
2051	 0.56904392032656 
2052	 0.568941029102308 
2053	 0.568870103280273 
2054	 0.568837802583219 
2055	 0.568864847400483 
2056	 0.568867132029274 
2057	 0.568884406782356 
2058	 0.568892459272837 
2059	 0.568918006564147 
2060	 0.568902937458489 
2061	 0.568873880342937 
2062	 0.568836175283882 
2063	 0.568762395923078 
2064	 0.568684644030914 
2065	 0.568567294190262 
2066	 0.568518073540933 
2067	 0.568489000521943 
2068	 0.568446699518418 
2069	 0.568405951328022 
2070	 0.568398216022513 
2071	 0.568381264536509 
2072	 0.568372536053728 
2073	 0.568304959927165 
2074	 0.568252941813165 
2075	 0.568130319221297 
2076	 0.567888330382058 
2077	 0.567707523931961 
2078	 0.567517712089151 
2079	 0.567349917255298 
2080	 0.567181621630589 
2081	 0.567049667305998 
2082	 0.566934857437513 
2083	 0.566863362533141 
2084	 0.566769985147781 
2085	 0.566716161639939 
2086	 0.566672113129638 
2087	 0.566660582112637 
2088	 0.566590332082493 
2089	 0.566533901703249 
2090	 0.566440407422155 
2091	 0.566299083456804 
2092	 0.566127568976159 
2093	 0.565925171906859 
2094	 0.565735749806163 
2095	 0.565467344008883 
2096	 0.565281741772709 
2097	 0.565155218510965 
2098	 0.565029891351021 
2099	 0.564931581260357 
2100	 0.564831425282706 
2101	 0.564726578156 
2102	 0.564643559574493 
2103	 0.564502776075737 
2104	 0.564339484528063 
2105	 0.564159350736016 
2106	 0.56391369210089 
2107	 0.563713658873781 
2108	 0.563527755144024 
2109	 0.563346229546343 
2110	 0.563168928099993 
2111	 0.563008805739038 
2112	 0.562910008846848 
2113	 0.562725405071261 
2114	 0.562498459722578 
2115	 0.562276472241827 
2116	 0.562047398983709 
2117	 0.561722875145819 
2118	 0.561423804025301 
2119	 0.561142050526379 
2120	 0.560840477679021 
2121	 0.560478561886984 
2122	 0.560188320501898 
2123	 0.559918754070844 
2124	 0.559668858442327 
2125	 0.559482496828609 
2126	 0.559234577379939 
2127	 0.558970773701019 
2128	 0.558724314554528 
2129	 0.55846169724331 
2130	 0.558179571972765 
2131	 0.557904547957229 
2132	 0.55763249328253 
2133	 0.557334070179683 
2134	 0.557028314480158 
2135	 0.55675431192569 
2136	 0.556533431547686 
2137	 0.556333342338088 
2138	 0.556161544947926 
2139	 0.556004669502191 
2140	 0.555903551235493 
2141	 0.555752093093166 
2142	 0.555571820319438 
2143	 0.555434626337693 
2144	 0.555294483036667 
2145	 0.55518206392361 
2146	 0.555087381326065 
2147	 0.555041150439011 
2148	 0.555059664934929 
2149	 0.555032203903176 
2150	 0.555035952441005 
2151	 0.555014434704475 
2152	 0.554974602775803 
2153	 0.554894687965386 
2154	 0.554784614374843 
2155	 0.554642615177482 
2156	 0.554506962051249 
2157	 0.554315808356563 
2158	 0.554142387205628 
2159	 0.554004240145289 
2160	 0.553825641850325 
2161	 0.553582242641227 
2162	 0.55341086672709 
2163	 0.553275813450367 
2164	 0.553110181302189 
2165	 0.552954484692358 
2166	 0.552796947934087 
2167	 0.552642150457258 
2168	 0.552454617532829 
2169	 0.552239830668573 
2170	 0.552061853184145 
2171	 0.551844627137229 
2172	 0.551677489404014 
2173	 0.551575909442788 
2174	 0.551468960243914 
2175	 0.551386712191728 
2176	 0.551269255966423 
2177	 0.551138372860778 
2178	 0.551003144479525 
2179	 0.550858626412415 
2180	 0.550667412963799 
2181	 0.55053011104734 
2182	 0.550431424309724 
2183	 0.550277398054909 
2184	 0.550123925068858 
2185	 0.549965672330547 
2186	 0.549750612203466 
2187	 0.549593060526434 
2188	 0.549453667238833 
2189	 0.549339591432257 
2190	 0.549246192964051 
2191	 0.549178297738565 
2192	 0.54919856961672 
2193	 0.549132983957845 
2194	 0.549064226295886 
2195	 0.548953016763342 
2196	 0.548770717912057 
2197	 0.548570985765662 
2198	 0.548412835538322 
2199	 0.54814873373768 
2200	 0.547953245783746 
2201	 0.547750766335967 
2202	 0.54759269106979 
2203	 0.547475606200192 
2204	 0.547355621292121 
2205	 0.547235823866833 
2206	 0.547154990221068 
2207	 0.54709664650489 
2208	 0.547045372758759 
2209	 0.547045987221141 
2210	 0.547017596355198 
2211	 0.547015717891637 
2212	 0.546942218972936 
2213	 0.546866238671719 
2214	 0.546712534835405 
2215	 0.546456470422437 
2216	 0.546204992986116 
2217	 0.54592834621968 
2218	 0.545610577745331 
2219	 0.545245634403034 
2220	 0.544894705877789 
2221	 0.544486724959814 
2222	 0.544113119099651 
2223	 0.543812148245091 
2224	 0.54348630992368 
2225	 0.543130340593619 
2226	 0.54273156768028 
2227	 0.542269815452009 
2228	 0.541719393096971 
2229	 0.541171643100973 
2230	 0.540597948741295 
2231	 0.539991223589276 
2232	 0.539355836658134 
2233	 0.538674076521512 
2234	 0.538024209925166 
2235	 0.537161225005718 
2236	 0.536197467549002 
2237	 0.535135694324397 
2238	 0.533866455820808 
2239	 0.532621804445065 
2240	 0.531328876170672 
2241	 0.529969209208891 
2242	 0.528625384152983 
2243	 0.527107753394193 
2244	 0.525432919022069 
2245	 0.523751050230749 
2246	 0.521873437352121 
2247	 0.520073624586187 
2248	 0.51832132086032 
2249	 0.516530118738274 
2250	 0.51473179600637 
2251	 0.512945127887954 
2252	 0.511050806981341 
2253	 0.509180162078757 
2254	 0.507197387311922 
2255	 0.505181313562193 
2256	 0.503267625758954 
2257	 0.501271964220854 
2258	 0.499389554510318 
2259	 0.497611710445881 
2260	 0.495758718063131 
2261	 0.493892750846919 
2262	 0.492115491442825 
2263	 0.490328939701437 
2264	 0.488649873489635 
2265	 0.487069967212489 
2266	 0.485469398806689 
2267	 0.48393105326001 
2268	 0.482368723878559 
2269	 0.480819010887121 
2270	 0.479294157882216 
2271	 0.477776149990865 
2272	 0.476259380473714 
2273	 0.474779252562854 
2274	 0.473263809281473 
2275	 0.471778656282321 
2276	 0.470198331290249 
2277	 0.468564392612306 
2278	 0.466902878619953 
2279	 0.465152777999527 
2280	 0.463397512482901 
2281	 0.46163970413705 
2282	 0.4598331007717 
2283	 0.457983919142944 
2284	 0.456113487711734 
2285	 0.45418119507542 
2286	 0.452251604876711 
2287	 0.450260636959085 
2288	 0.44821659662686 
2289	 0.446315298420865 
2290	 0.444395433118979 
2291	 0.44254488021192 
2292	 0.440801892063985 
2293	 0.43893620950785 
2294	 0.437137806923712 
2295	 0.435407827222231 
2296	 0.433784371537258 
2297	 0.432486858687509 
2298	 0.431370558043582 
2299	 0.430588672761709 
2300	 0.430118513561243 
2301	 0.429909679582842 
2302	 0.429954125503755 
2303	 0.430362984628184 
2304	 0.431198106177845 
2305	 0.432141360551766 
2306	 0.433452330190901 
2307	 0.434806169537956 
2308	 0.436266169761152 
2309	 0.43792235185211 
2310	 0.439804247622798 
2311	 0.441743718599245 
2312	 0.44398840407249 
2313	 0.446013193418893 
2314	 0.448074878859484 
2315	 0.450054295127558 
2316	 0.451947861800888 
2317	 0.453730483166206 
2318	 0.455564520719835 
2319	 0.457063148044049 
2320	 0.458432429198079 
2321	 0.45945703303543 
2322	 0.46011602446557 
2323	 0.460613777111483 
2324	 0.460750801298896 
2325	 0.460833268528669 
2326	 0.460724261427551 
2327	 0.460573199799444 
2328	 0.460271045308857 
2329	 0.459915460339666 
2330	 0.459501856209448 
2331	 0.459021367545604 
2332	 0.458333935184161 
2333	 0.457495829234949 
2334	 0.45639423617134 
2335	 0.455131914647858 
2336	 0.453764598310756 
2337	 0.452322583732099 
2338	 0.451031094013555 
2339	 0.449635787493103 
2340	 0.448350925345204 
2341	 0.447214617181005 
2342	 0.445959878320135 
2343	 0.445088931111552 
2344	 0.444475211265285 
2345	 0.44408688630821 
2346	 0.444193197494581 
2347	 0.444518811556438 
2348	 0.445039404807548 
2349	 0.446054884744561 
2350	 0.447378377238389 
2351	 0.448864400264165 
2352	 0.45056499925951 
2353	 0.452143669936268 
2354	 0.453444557940727 
2355	 0.454818891754755 
2356	 0.456122148887644 
2357	 0.457217518835139 
2358	 0.45823194795019 
2359	 0.45888468038678 
2360	 0.459307263718922 
2361	 0.459586562743577 
2362	 0.459774065794606 
2363	 0.459938163430776 
2364	 0.459915359144609 
2365	 0.459732965316984 
2366	 0.459562902571166 
2367	 0.459455072531155 
2368	 0.459400798154105 
2369	 0.459487945710423 
2370	 0.459541358933137 
2371	 0.459483958993077 
2372	 0.459496846927694 
2373	 0.459452898738774 
2374	 0.459303296191918 
2375	 0.459264585754353 
2376	 0.45928912241717 
2377	 0.45925214468716 
2378	 0.459302239074534 
2379	 0.459510683932343 
2380	 0.459762909563966 
2381	 0.459983740191586 
2382	 0.460104246669753 
2383	 0.460152863150211 
2384	 0.460367685780043 
2385	 0.460522808112643 
2386	 0.460783126853198 
2387	 0.461355831222219 
2388	 0.461597668257994 
2389	 0.46160949259104 
2390	 0.46171487352775 
2391	 0.461787422717236 
2392	 0.461867988730087 
2393	 0.461965548085479 
2394	 0.462071798429143 
2395	 0.462107523770811 
2396	 0.4622043134662 
2397	 0.462370259785792 
2398	 0.462552758841154 
2399	 0.462789215010921 
2400	 0.462971800146628 
2401	 0.463165840310668 
2402	 0.463214103892719 
2403	 0.463237179008 
2404	 0.463230946942628 
2405	 0.463270909473254 
2406	 0.463412905794001 
2407	 0.463426927500456 
2408	 0.463362210159835 
2409	 0.463387878099325 
2410	 0.463322653741657 
2411	 0.46334632692248 
2412	 0.463382809213339 
2413	 0.463467301860325 
2414	 0.463691451119201 
2415	 0.463753805164214 
2416	 0.463906239991119 
2417	 0.464046732349908 
2418	 0.463861093682623 
2419	 0.463848653866076 
2420	 0.463966593506649 
2421	 0.463973542112732 
2422	 0.464223837487441 
2423	 0.464235394387961 
2424	 0.464008768013439 
2425	 0.464093458068533 
2426	 0.463957557651924 
2427	 0.463601679121779 
2428	 0.463485989054498 
2429	 0.463260867865143 
2430	 0.462798491972777 
2431	 0.462648201475359 
2432	 0.462636797248499 
2433	 0.462574403133834 
2434	 0.46260608685639 
2435	 0.46245397424227 
2436	 0.462154216699383 
2437	 0.461845604692945 
2438	 0.461673689105992 
2439	 0.461572664781424 
2440	 0.46156166113362 
2441	 0.461606667225622 
2442	 0.461305680136928 
2443	 0.461036425048763 
2444	 0.460818176931256 
2445	 0.460426619507891 
2446	 0.460024515588281 
2447	 0.459533105302816 
2448	 0.459234739019611 
2449	 0.458673179831832 
2450	 0.457940026861738 
2451	 0.457680977356829 
2452	 0.456956390260661 
2453	 0.456180062573739 
2454	 0.456107262384657 
2455	 0.455780073043831 
2456	 0.455623881752412 
2457	 0.455868966382422 
2458	 0.455652208018055 
2459	 0.455312545131883 
2460	 0.455074843090046 
2461	 0.454582179044378 
2462	 0.453945713302627 
2463	 0.453475944303135 
2464	 0.452910792030584 
2465	 0.452257738921681 
2466	 0.452020126364683 
2467	 0.452145043426451 
2468	 0.452304485617664 
2469	 0.452594130281015 
2470	 0.452811437917787 
2471	 0.452528469369809 
2472	 0.451944932078179 
2473	 0.45134105245311 
2474	 0.450883792577814 
2475	 0.450544013476258 
2476	 0.450613652062871 
2477	 0.45097272935005 
2478	 0.45110172943196 
2479	 0.451237875396039 
2480	 0.451048587967705 
2481	 0.451092179097299 
2482	 0.451127534488584 
2483	 0.451310100798049 
2484	 0.451596263136246 
2485	 0.451637608347928 
2486	 0.451837927678915 
2487	 0.451830655456507 
2488	 0.451931766621119 
2489	 0.452438700375265 
2490	 0.452838816591482 
2491	 0.453478516829205 
2492	 0.453929006420541 
2493	 0.453758786475164 
2494	 0.453420013091556 
2495	 0.452934620221149 
2496	 0.452873909421437 
2497	 0.453239990054393 
2498	 0.453768267828349 
2499	 0.454757813924117 
2500	 0.455806343101568 
