Wavelength	spectrum00018.asd
350	 7.93193631421386E-02 
351	 7.68729701834687E-02 
352	 7.46883064320631E-02 
353	 7.25893419027721E-02 
354	 7.03040904138871E-02 
355	 0.068549801744297 
356	 6.70711778569619E-02 
357	 6.59056572330486E-02 
358	 6.69897552645965E-02 
359	 6.47889887510246E-02 
360	 6.17844248962939E-02 
361	 0.063285761302231 
362	 6.31495809858899E-02 
363	 5.98018735220117E-02 
364	 5.51652567190996E-02 
365	 5.47886559777715E-02 
366	 5.50877359993596E-02 
367	 5.45995459145398E-02 
368	 5.34490578322299E-02 
369	 5.54292468922973E-02 
370	 5.51781481933768E-02 
371	 5.40237956974863E-02 
372	 5.62996055975204E-02 
373	 5.62562211668405E-02 
374	 5.43805327311245E-02 
375	 5.24961670162807E-02 
376	 5.32594348920845E-02 
377	 5.32999485683357E-02 
378	 5.34926153765098E-02 
379	 5.47600756875087E-02 
380	 5.42036475035226E-02 
381	 5.39762382993784E-02 
382	 5.36429246836358E-02 
383	 5.16865500950469E-02 
384	 5.26341310080946E-02 
385	 5.29057475630345E-02 
386	 5.16565585281226E-02 
387	 5.36751157207769E-02 
388	 5.25023053564956E-02 
389	 5.08662456258355E-02 
390	 5.20713489454974E-02 
391	 5.18643829278139E-02 
392	 5.22258904104933E-02 
393	 5.31179206846419E-02 
394	 0.053137604180544 
395	 5.19361175974044E-02 
396	 0.051709148927684 
397	 5.29452546219072E-02 
398	 5.28984338543482E-02 
399	 5.25347584582111E-02 
400	 5.27251680077961E-02 
401	 5.38026623077418E-02 
402	 5.39807583311123E-02 
403	 5.40075822203545E-02 
404	 0.054336306586349 
405	 5.50616667691038E-02 
406	 0.055607376461967 
407	 5.61409033770697E-02 
408	 0.056695028943478 
409	 0.056793390337498 
410	 5.68097612554835E-02 
411	 5.73963408161851E-02 
412	 5.88372472422802E-02 
413	 5.92365822973433E-02 
414	 0.060013763432615 
415	 6.12908533302784E-02 
416	 6.19468692298683E-02 
417	 0.062869677824683 
418	 6.39568871873082E-02 
419	 6.50343064230144E-02 
420	 6.62016155570917E-02 
421	 6.71181966313208E-02 
422	 6.81732971314212E-02 
423	 6.98683388785748E-02 
424	 7.13900407874262E-02 
425	 7.29535749073415E-02 
426	 7.44555392803214E-02 
427	 7.53487353918524E-02 
428	 7.71102076358357E-02 
429	 7.91578225161148E-02 
430	 8.08251689200764E-02 
431	 8.26595372447292E-02 
432	 8.45406192549795E-02 
433	 8.66691183704393E-02 
434	 8.92684516751426E-02 
435	 0.091043260977781 
436	 9.32460027004729E-02 
437	 9.61406466679049E-02 
438	 9.80119025796103E-02 
439	 0.100425115778606 
440	 0.103083199725446 
441	 0.105422860102846 
442	 0.108104715502191 
443	 0.111053234005996 
444	 0.113972339148499 
445	 0.11648549514413 
446	 0.119355843289144 
447	 0.12242454572739 
448	 0.125486249781236 
449	 0.128574394544511 
450	 0.131795316550935 
451	 0.135024480275586 
452	 0.138126993183671 
453	 0.141523230190257 
454	 0.144895752347958 
455	 0.148177474575023 
456	 0.151639586823348 
457	 0.15491528969876 
458	 0.158264356820116 
459	 0.161938267528465 
460	 0.165800158957375 
461	 0.169260427138552 
462	 0.172634705364708 
463	 0.176640291671058 
464	 0.180517276965851 
465	 0.184177797213176 
466	 0.187801894411625 
467	 0.191856233452678 
468	 0.195750452367127 
469	 0.199697429692007 
470	 0.203950090144307 
471	 0.207902667707316 
472	 0.211923806486505 
473	 0.215954609188075 
474	 0.219651907833426 
475	 0.223998052225457 
476	 0.228505329735703 
477	 0.232760124753055 
478	 0.237043834822631 
479	 0.241224093899582 
480	 0.24542606540335 
481	 0.249840555098404 
482	 0.254399796432121 
483	 0.258957164468847 
484	 0.263462444750912 
485	 0.267979205654528 
486	 0.272522524484944 
487	 0.277142425130795 
488	 0.281827359958397 
489	 0.286384135284304 
490	 0.290997485334163 
491	 0.295698471042602 
492	 0.300437290207361 
493	 0.305263969178163 
494	 0.310187931855577 
495	 0.315115121458825 
496	 0.319780423887533 
497	 0.324393864222103 
498	 0.329058655651108 
499	 0.333817505955291 
500	 0.338651724837655 
501	 0.343501666344012 
502	 0.348326621330575 
503	 0.353104352362292 
504	 0.357731780620704 
505	 0.362397330406608 
506	 0.367186949467721 
507	 0.371831584828679 
508	 0.376400622978084 
509	 0.380974321924372 
510	 0.385588317635372 
511	 0.38993620690551 
512	 0.394219761914141 
513	 0.398591186338309 
514	 0.403096200928617 
515	 0.407355305355613 
516	 0.411513749514075 
517	 0.415729034306956 
518	 0.419654245248458 
519	 0.423505200433315 
520	 0.427340011165969 
521	 0.431096256067364 
522	 0.434842634679425 
523	 0.438532557315047 
524	 0.442109431633761 
525	 0.445530465444795 
526	 0.448935716697242 
527	 0.452247901728624 
528	 0.455365873368731 
529	 0.458532285482998 
530	 0.461461589392773 
531	 0.464232301679346 
532	 0.467312459821368 
533	 0.469971001957426 
534	 0.472417410894059 
535	 0.47493519095216 
536	 0.477386187891899 
537	 0.479758660134127 
538	 0.482042972615987 
539	 0.484238415104691 
540	 0.48638743133175 
541	 0.488339031754037 
542	 0.490073205038251 
543	 0.491790990042531 
544	 0.493786727570432 
545	 0.495641914898398 
546	 0.496937439996887 
547	 0.498337512952069 
548	 0.499767491066267 
549	 0.501250555103472 
550	 0.502898671852916 
551	 0.504389867720297 
552	 0.505780005998615 
553	 0.507115609890085 
554	 0.508242082809221 
555	 0.508975476880532 
556	 0.509541712386128 
557	 0.510327156493661 
558	 0.511227755035697 
559	 0.512140266512751 
560	 0.513052512596024 
561	 0.51409156373253 
562	 0.514955610255906 
563	 0.515306693687165 
564	 0.51504458983764 
565	 0.514916691768521 
566	 0.514505185867533 
567	 0.513751571515678 
568	 0.512948323077883 
569	 0.512885950929464 
570	 0.513791868842767 
571	 0.515684170704015 
572	 0.51846049156454 
573	 0.52183091371978 
574	 0.525244731665866 
575	 0.527926626199763 
576	 0.52856062855537 
577	 0.527338123081346 
578	 0.524953388226199 
579	 0.522504936336432 
580	 0.520942422249812 
581	 0.520615094996583 
582	 0.521517839884567 
583	 0.523453188584661 
584	 0.525231139439261 
585	 0.526784303066532 
586	 0.528671595696076 
587	 0.530106967980116 
588	 0.531017724262075 
589	 0.531584708546897 
590	 0.532142632779999 
591	 0.534203226449323 
592	 0.536792001409292 
593	 0.538414516213208 
594	 0.539337800851233 
595	 0.539669031980162 
596	 0.539090714698282 
597	 0.537030415005556 
598	 0.534747901089802 
599	 0.533504891180723 
600	 0.533791409717508 
601	 0.534516886004726 
602	 0.535436460629234 
603	 0.536561665174154 
604	 0.537996688727847 
605	 0.539382176317094 
606	 0.540420686250033 
607	 0.54115952103605 
608	 0.542049284803267 
609	 0.542764182004387 
610	 0.543246356943227 
611	 0.543594831094361 
612	 0.54418470202723 
613	 0.544755610912381 
614	 0.54524574685458 
615	 0.545735615762683 
616	 0.546289080201746 
617	 0.546821789840262 
618	 0.547285469024095 
619	 0.547732019037844 
620	 0.548197785823867 
621	 0.548643868030616 
622	 0.549040555369465 
623	 0.549540227493814 
624	 0.550051891505887 
625	 0.550524778520085 
626	 0.550957514124308 
627	 0.551411843427084 
628	 0.551761440457246 
629	 0.552015001114029 
630	 0.55263494401583 
631	 0.553083650480539 
632	 0.5533723734736 
633	 0.553757556594201 
634	 0.554305491578165 
635	 0.554921271535288 
636	 0.55547209831762 
637	 0.555804717050128 
638	 0.556173390718539 
639	 0.556616725868649 
640	 0.557087397855061 
641	 0.557446835397559 
642	 0.557885549131191 
643	 0.558355921058163 
644	 0.558694503347951 
645	 0.559132346926265 
646	 0.559659192287557 
647	 0.560166763915388 
648	 0.560428512879302 
649	 0.560827151772439 
650	 0.561301411408539 
651	 0.561709696835916 
652	 0.562212851342732 
653	 0.562684796371095 
654	 0.563052279821112 
655	 0.563314753137319 
656	 0.563747407322904 
657	 0.564145181466474 
658	 0.564414505787456 
659	 0.564882614450942 
660	 0.565213723760696 
661	 0.565597641334311 
662	 0.566260075131649 
663	 0.566517492776874 
664	 0.566761287672416 
665	 0.567132491818456 
666	 0.567461658676079 
667	 0.567939340031493 
668	 0.568384064411488 
669	 0.568660848302191 
670	 0.568933754564864 
671	 0.569212025581912 
672	 0.569541596598859 
673	 0.569955789254837 
674	 0.570334615456459 
675	 0.570685522171653 
676	 0.570944680800202 
677	 0.570958094343893 
678	 0.571482328283563 
679	 0.572080470527153 
680	 0.572329736804387 
681	 0.572768414902313 
682	 0.573207323244829 
683	 0.573440579858137 
684	 0.573366614675929 
685	 0.573764103931406 
686	 0.574249797502167 
687	 0.574588404436144 
688	 0.57493706487382 
689	 0.575182431983038 
690	 0.57531996792824 
691	 0.57541267565873 
692	 0.575607668562009 
693	 0.576087816302574 
694	 0.576667719984263 
695	 0.576963523894129 
696	 0.57710127056934 
697	 0.577390599675369 
698	 0.57782183144168 
699	 0.57785043942843 
700	 0.57807502838803 
701	 0.578469670999524 
702	 0.578815082949144 
703	 0.57886795115812 
704	 0.579146891922781 
705	 0.579601570295486 
706	 0.579805854888748 
707	 0.579914555289977 
708	 0.580210368262112 
709	 0.580687102984288 
710	 0.580828150375772 
711	 0.581136111147589 
712	 0.581414235590108 
713	 0.581436839691517 
714	 0.581709426905243 
715	 0.582000354410727 
716	 0.58224616013931 
717	 0.582510821936148 
718	 0.582727254329741 
719	 0.582999569467565 
720	 0.583302210607862 
721	 0.583342493131947 
722	 0.583582565029952 
723	 0.583869453634979 
724	 0.583975988378948 
725	 0.584171497196709 
726	 0.58436800015059 
727	 0.584504232956648 
728	 0.584577563388719 
729	 0.584931913331678 
730	 0.585243437012251 
731	 0.585309591128189 
732	 0.585248680140358 
733	 0.585722275947466 
734	 0.586122494872577 
735	 0.585865506312008 
736	 0.585910416289749 
737	 0.586336677361796 
738	 0.586799972706116 
739	 0.586772349781515 
740	 0.58678516616972 
741	 0.586859349288732 
742	 0.586996243441391 
743	 0.587258507720254 
744	 0.587722697343048 
745	 0.588093518544679 
746	 0.588128702440606 
747	 0.588058288822992 
748	 0.588272794579663 
749	 0.588715558879995 
750	 0.58905757293764 
751	 0.58919958144467 
752	 0.589218634962437 
753	 0.58923488217104 
754	 0.589383420485876 
755	 0.589569397219524 
756	 0.589758440330714 
757	 0.589901168420218 
758	 0.589806824244566 
759	 0.590203550025013 
760	 0.590647102592261 
761	 0.590410521909137 
762	 0.590877250350246 
763	 0.591060627723305 
764	 0.590812016211455 
765	 0.591015992346303 
766	 0.591152672560966 
767	 0.591306717293259 
768	 0.591519431067131 
769	 0.591456303610112 
770	 0.591530787045325 
771	 0.59183093506531 
772	 0.592238616935339 
773	 0.592345954782272 
774	 0.592187649567715 
775	 0.5921271484263 
776	 0.592664944068789 
777	 0.592971051198032 
778	 0.592999968940949 
779	 0.592957058214968 
780	 0.593252067361716 
781	 0.593456213692518 
782	 0.593497455457991 
783	 0.593458825889542 
784	 0.593570515343268 
785	 0.593666388658398 
786	 0.593708925691935 
787	 0.593779622093045 
788	 0.594225958709453 
789	 0.594657057961583 
790	 0.594755006816229 
791	 0.59442342540968 
792	 0.594660982510163 
793	 0.594888826508423 
794	 0.594712119987081 
795	 0.59505780736924 
796	 0.595102518064249 
797	 0.595101088079509 
798	 0.595448283941364 
799	 0.595161432955091 
800	 0.595183618932212 
801	 0.595593048944468 
802	 0.59574297680688 
803	 0.595456307621911 
804	 0.595406135399113 
805	 0.595819992569948 
806	 0.596095558576358 
807	 0.596156298778732 
808	 0.596035150214693 
809	 0.595876400581929 
810	 0.596004417186079 
811	 0.59602859464522 
812	 0.596006956514133 
813	 0.596165795156972 
814	 0.596422774941065 
815	 0.596759395576557 
816	 0.596944544246862 
817	 0.596649031019848 
818	 0.596591662574578 
819	 0.596833981039499 
820	 0.59718030862895 
821	 0.597218783253061 
822	 0.596965418839249 
823	 0.596901179269371 
824	 0.597285503320712 
825	 0.597298889409549 
826	 0.597374661179163 
827	 0.597602472412802 
828	 0.597818276388634 
829	 0.597377737387608 
830	 0.597241022433746 
831	 0.597554587212303 
832	 0.597702871374747 
833	 0.598002606964723 
834	 0.598264608485954 
835	 0.598367267148612 
836	 0.598396862411761 
837	 0.598351447568552 
838	 0.598389862258889 
839	 0.59861910731347 
840	 0.598980467163588 
841	 0.598710616965114 
842	 0.598269384659478 
843	 0.598452035450356 
844	 0.598999005017687 
845	 0.598926918825007 
846	 0.59844321434303 
847	 0.59853635566754 
848	 0.598533055878385 
849	 0.598668749285837 
850	 0.598892631959988 
851	 0.598714601187385 
852	 0.598494731561033 
853	 0.598441383951342 
854	 0.598638145107738 
855	 0.599019442311449 
856	 0.59887476298853 
857	 0.598503062306163 
858	 0.598403428708054 
859	 0.598463284519366 
860	 0.598615548216819 
861	 0.598742339088342 
862	 0.598729243983602 
863	 0.598588894162825 
864	 0.598596445094032 
865	 0.598708755887699 
866	 0.598639765376498 
867	 0.598717319311825 
868	 0.599014510213779 
869	 0.599250722645366 
870	 0.598778074959767 
871	 0.598712327651631 
872	 0.598828030323976 
873	 0.598810476230681 
874	 0.598814539093038 
875	 0.59924113417327 
876	 0.599444818252615 
877	 0.598965790099663 
878	 0.599210785098928 
879	 0.599350324566595 
880	 0.599317044600624 
881	 0.599410616214954 
882	 0.599760613611876 
883	 0.59946756355887 
884	 0.598942130559344 
885	 0.59939310113236 
886	 0.599498139464856 
887	 0.599445856470835 
888	 0.599517745077999 
889	 0.599844644276594 
890	 0.599606582503862 
891	 0.599300555845215 
892	 0.599387627357069 
893	 0.599830698573295 
894	 0.599861969802617 
895	 0.599716495030882 
896	 0.599700211317112 
897	 0.59958068662555 
898	 0.599191842336676 
899	 0.598852249290988 
900	 0.598865187074207 
901	 0.598806459426712 
902	 0.598674591967046 
903	 0.598620656657398 
904	 0.598795814178999 
905	 0.598964285338596 
906	 0.598827495064697 
907	 0.598466610334822 
908	 0.5982360827517 
909	 0.598279961224439 
910	 0.598324592063464 
911	 0.59806706473242 
912	 0.597360216727733 
913	 0.597397850365904 
914	 0.59803126361335 
915	 0.598575647194228 
916	 0.598043048207291 
917	 0.597291277550699 
918	 0.596973691714484 
919	 0.597232170984816 
920	 0.597387952216159 
921	 0.597487891338709 
922	 0.597568507777551 
923	 0.59767462178133 
924	 0.597845036240251 
925	 0.597780995686295 
926	 0.597751737879956 
927	 0.597962691905534 
928	 0.597753173199087 
929	 0.597500284602884 
930	 0.597438682028995 
931	 0.597656126057501 
932	 0.597927134849158 
933	 0.598321676560443 
934	 0.598709376139757 
935	 0.598861819032247 
936	 0.598634881872579 
937	 0.598427206803927 
938	 0.598463473974504 
939	 0.598789234279334 
940	 0.599470909433879 
941	 0.599675326364492 
942	 0.599424258698945 
943	 0.599463062240319 
944	 0.599454800525169 
945	 0.599375569902818 
946	 0.599249034470768 
947	 0.599172683662553 
948	 0.599896438725468 
949	 0.600657729640261 
950	 0.600765596056208 
951	 0.600068070170147 
952	 0.600126909909134 
953	 0.600320629620723 
954	 0.600182200096273 
955	 0.600093931737732 
956	 0.600073675748396 
957	 0.600201976653405 
958	 0.600393326101561 
959	 0.600299784314937 
960	 0.599678855737663 
961	 0.599295642662796 
962	 0.59943738723061 
963	 0.599007872524564 
964	 0.598804475751687 
965	 0.598881831043784 
966	 0.599121138965446 
967	 0.599482734877735 
968	 0.599486265793667 
969	 0.599214879877565 
970	 0.59891850137038 
971	 0.598773693766446 
972	 0.598591337274736 
973	 0.598321289681873 
974	 0.598031425330841 
975	 0.597983078416459 
976	 0.597784387966759 
977	 0.597954493942785 
978	 0.598652885435534 
979	 0.598090354766695 
980	 0.597822406354661 
981	 0.597661449656225 
982	 0.597166209889707 
983	 0.597003039950935 
984	 0.597281920013822 
985	 0.597619726599774 
986	 0.597641272939346 
987	 0.597680585386678 
988	 0.597573928541099 
989	 0.597304648222662 
990	 0.597034182116559 
991	 0.597329673313804 
992	 0.597316614081392 
993	 0.597137923054989 
994	 0.59720025099793 
995	 0.597408546491548 
996	 0.597530308159483 
997	 0.597596594963325 
998	 0.597669059903347 
999	 0.597533123274919 
1000	 0.59745116343507 
1001	 0.607081824436297 
1002	 0.607150505331366 
1003	 0.607218877665326 
1004	 0.607319176576684 
1005	 0.607522561241697 
1006	 0.607652491766667 
1007	 0.6077313159592 
1008	 0.60786643224262 
1009	 0.608071079613685 
1010	 0.608179635783508 
1011	 0.608265624010896 
1012	 0.608346682539036 
1013	 0.608292411125784 
1014	 0.608384255305184 
1015	 0.608606287361714 
1016	 0.608736367387035 
1017	 0.608831085219742 
1018	 0.609034259062255 
1019	 0.609059083548565 
1020	 0.609057482723031 
1021	 0.60914795562044 
1022	 0.609306687443224 
1023	 0.609379108138323 
1024	 0.609541124155262 
1025	 0.609533750017286 
1026	 0.60935066534293 
1027	 0.609264363436364 
1028	 0.609175655905396 
1029	 0.609021236658682 
1030	 0.608897398351856 
1031	 0.608815218333753 
1032	 0.60861263945335 
1033	 0.60836318474423 
1034	 0.608127141951946 
1035	 0.60790577459842 
1036	 0.607722698900456 
1037	 0.607589513886055 
1038	 0.607395785453549 
1039	 0.607237049716313 
1040	 0.606999048255338 
1041	 0.606663851018666 
1042	 0.60638686475005 
1043	 0.606114693412587 
1044	 0.60581778298181 
1045	 0.605570309555891 
1046	 0.605302227632982 
1047	 0.604989265450309 
1048	 0.604646632585104 
1049	 0.604371154564138 
1050	 0.604086879324806 
1051	 0.603714519495447 
1052	 0.603422408395812 
1053	 0.603177761878353 
1054	 0.602887711331724 
1055	 0.60269759273806 
1056	 0.602659160573011 
1057	 0.602571064075648 
1058	 0.602479190038674 
1059	 0.602386178275709 
1060	 0.602376650237338 
1061	 0.602403929024751 
1062	 0.602444281199257 
1063	 0.602573001530365 
1064	 0.602805247115927 
1065	 0.603045232907671 
1066	 0.603268309822527 
1067	 0.603586599129663 
1068	 0.604004435892676 
1069	 0.604452558897832 
1070	 0.604958061943181 
1071	 0.605586359014354 
1072	 0.606233068729176 
1073	 0.606798137041532 
1074	 0.607402169818356 
1075	 0.608007446948731 
1076	 0.608670967203088 
1077	 0.609438480892592 
1078	 0.610199079600565 
1079	 0.611019083349186 
1080	 0.611836851838142 
1081	 0.612661024521195 
1082	 0.613532864437197 
1083	 0.614319298489974 
1084	 0.615154268749047 
1085	 0.615991420954846 
1086	 0.61677344412037 
1087	 0.617478478534847 
1088	 0.618321792184734 
1089	 0.619120877931427 
1090	 0.619747888800674 
1091	 0.620354063457481 
1092	 0.620908433337782 
1093	 0.621449753747028 
1094	 0.622043974876942 
1095	 0.622626295873144 
1096	 0.623138069714082 
1097	 0.623512079628395 
1098	 0.62378611618274 
1099	 0.624101509956645 
1100	 0.624382101166494 
1101	 0.624588998421045 
1102	 0.624775548798441 
1103	 0.624851443332895 
1104	 0.624807112645169 
1105	 0.62472929478463 
1106	 0.624678248726744 
1107	 0.624529306263537 
1108	 0.624385019315144 
1109	 0.624198446902639 
1110	 0.623864765203473 
1111	 0.623494062021854 
1112	 0.623117617434361 
1113	 0.622643039522286 
1114	 0.622142105593529 
1115	 0.621662324134878 
1116	 0.621127704646005 
1117	 0.620610173242048 
1118	 0.620069876165952 
1119	 0.619546385736002 
1120	 0.618960330640268 
1121	 0.618357004597444 
1122	 0.617650818174855 
1123	 0.616996571765294 
1124	 0.616331970136739 
1125	 0.615618904485722 
1126	 0.615017016456116 
1127	 0.614356038653127 
1128	 0.613625979276424 
1129	 0.612964027430741 
1130	 0.612276060218561 
1131	 0.611605021612476 
1132	 0.610970389205388 
1133	 0.610375463606095 
1134	 0.609819898462367 
1135	 0.609248917422959 
1136	 0.608693686233123 
1137	 0.608167437821967 
1138	 0.607624255952978 
1139	 0.607097823397051 
1140	 0.606608511403913 
1141	 0.606127486123491 
1142	 0.605618815713745 
1143	 0.605165010707156 
1144	 0.604671479592296 
1145	 0.604123957601734 
1146	 0.603595401569867 
1147	 0.603015294481847 
1148	 0.602464607989096 
1149	 0.601998408215537 
1150	 0.601535988023585 
1151	 0.601124596345049 
1152	 0.600693999808533 
1153	 0.600278955294807 
1154	 0.599848135524849 
1155	 0.59939630173147 
1156	 0.59897589421825 
1157	 0.598605216303174 
1158	 0.598198051632212 
1159	 0.597803197131899 
1160	 0.597335434554052 
1161	 0.596877453721656 
1162	 0.596400074983323 
1163	 0.595904627205507 
1164	 0.595426924401686 
1165	 0.59493898895785 
1166	 0.594439308927356 
1167	 0.593944783240064 
1168	 0.593456008379875 
1169	 0.59301384251324 
1170	 0.592598914146441 
1171	 0.592189513165055 
1172	 0.591850281488614 
1173	 0.591447826615851 
1174	 0.591008178104377 
1175	 0.590586591376838 
1176	 0.590173710973656 
1177	 0.58971020809421 
1178	 0.589230959924518 
1179	 0.588736582190769 
1180	 0.588207348322964 
1181	 0.587683136719643 
1182	 0.587190346453553 
1183	 0.586736512864668 
1184	 0.586304724973293 
1185	 0.585950967367889 
1186	 0.585593729601013 
1187	 0.585283536523045 
1188	 0.58495804438775 
1189	 0.5846320846775 
1190	 0.584314448184571 
1191	 0.584015134447201 
1192	 0.583718493297051 
1193	 0.583394544169269 
1194	 0.583137289000396 
1195	 0.582914463723836 
1196	 0.58270987094814 
1197	 0.58254544449702 
1198	 0.582406122608584 
1199	 0.582266369904041 
1200	 0.582130152568213 
1201	 0.581997543574497 
1202	 0.581893340311078 
1203	 0.581804934140513 
1204	 0.581739486796022 
1205	 0.581775740241223 
1206	 0.581884016328569 
1207	 0.582040285789682 
1208	 0.582277147557054 
1209	 0.582543895904537 
1210	 0.582828989310734 
1211	 0.58320375303257 
1212	 0.58364487206103 
1213	 0.584155129275816 
1214	 0.584720757750513 
1215	 0.585388985585602 
1216	 0.58615685923742 
1217	 0.586958339525479 
1218	 0.587886855804613 
1219	 0.588799274585785 
1220	 0.589706312242232 
1221	 0.590609863713079 
1222	 0.591438289328326 
1223	 0.592342285762263 
1224	 0.593199409026506 
1225	 0.594044717657123 
1226	 0.594866999356844 
1227	 0.595681426121883 
1228	 0.59645652470419 
1229	 0.597199592863884 
1230	 0.597944656581789 
1231	 0.59870396989827 
1232	 0.599381807407157 
1233	 0.600049219880416 
1234	 0.600626526981626 
1235	 0.601076459384014 
1236	 0.601557394046275 
1237	 0.602000255926841 
1238	 0.60244084098363 
1239	 0.602868423293121 
1240	 0.603306662051216 
1241	 0.603756044484202 
1242	 0.60413468210919 
1243	 0.604506551033644 
1244	 0.604867387998785 
1245	 0.605212010619742 
1246	 0.605523528383004 
1247	 0.605824664610306 
1248	 0.606149283237594 
1249	 0.606383083978582 
1250	 0.606551894303683 
1251	 0.606711741364241 
1252	 0.606818463010312 
1253	 0.606924424714743 
1254	 0.607056956957551 
1255	 0.607094199310886 
1256	 0.607077672777171 
1257	 0.607023771605947 
1258	 0.606855841947225 
1259	 0.606738039463712 
1260	 0.606625721347524 
1261	 0.606495944351345 
1262	 0.606376436529584 
1263	 0.606235303715694 
1264	 0.606098116109513 
1265	 0.605923914834426 
1266	 0.605820202900788 
1267	 0.605744201280282 
1268	 0.605679570705482 
1269	 0.605662758325475 
1270	 0.605614706627961 
1271	 0.605574623989155 
1272	 0.605510136494008 
1273	 0.605423851376105 
1274	 0.605348746412181 
1275	 0.605245709166354 
1276	 0.605181544287373 
1277	 0.605119333525603 
1278	 0.60510301126905 
1279	 0.605149863547523 
1280	 0.605164033355529 
1281	 0.605152907922263 
1282	 0.605208701012216 
1283	 0.605270696175442 
1284	 0.605367694692706 
1285	 0.605507495557293 
1286	 0.605723498099322 
1287	 0.605931752729735 
1288	 0.606124684702361 
1289	 0.606423615786284 
1290	 0.606769701451943 
1291	 0.607193652521154 
1292	 0.60771727669276 
1293	 0.6082337030931 
1294	 0.608758808186733 
1295	 0.609403619325314 
1296	 0.610131668247078 
1297	 0.610862367616207 
1298	 0.611698700268607 
1299	 0.612515985020534 
1300	 0.613323767107212 
1301	 0.614146093538568 
1302	 0.615020814077078 
1303	 0.615868681370761 
1304	 0.61667877651577 
1305	 0.617519424477244 
1306	 0.618398086292915 
1307	 0.619240074289451 
1308	 0.620080667766723 
1309	 0.620911813149294 
1310	 0.621691965229575 
1311	 0.622437123128747 
1312	 0.623139659400022 
1313	 0.623829024061337 
1314	 0.624411816878516 
1315	 0.624922288211464 
1316	 0.625391758627358 
1317	 0.625787025748163 
1318	 0.626140537802091 
1319	 0.626478077206064 
1320	 0.626707633172057 
1321	 0.626887292064927 
1322	 0.626941804180871 
1323	 0.626872156243719 
1324	 0.626773574484218 
1325	 0.626585788924075 
1326	 0.626352576020408 
1327	 0.626095972431084 
1328	 0.625756860750581 
1329	 0.625317865694707 
1330	 0.624865493591776 
1331	 0.624404174157944 
1332	 0.623851369690024 
1333	 0.623278688723801 
1334	 0.622589133197241 
1335	 0.621859964783305 
1336	 0.621048985309061 
1337	 0.620199281060488 
1338	 0.619296153164362 
1339	 0.618376594982019 
1340	 0.617406450410273 
1341	 0.616419590689722 
1342	 0.615434502269741 
1343	 0.614371477304555 
1344	 0.613265422814801 
1345	 0.612107656756134 
1346	 0.610875439426129 
1347	 0.609662797621656 
1348	 0.60841896480223 
1349	 0.607169331116803 
1350	 0.605883709951142 
1351	 0.604643191634721 
1352	 0.603393633416794 
1353	 0.602172107253109 
1354	 0.600968956138655 
1355	 0.599813255224221 
1356	 0.598686681100641 
1357	 0.597573592772786 
1358	 0.596476343986576 
1359	 0.595430958980926 
1360	 0.594438345162294 
1361	 0.59341347683273 
1362	 0.592417232995728 
1363	 0.591539727595782 
1364	 0.590659986412847 
1365	 0.589799766884805 
1366	 0.588974377171385 
1367	 0.588202133704585 
1368	 0.587429511499367 
1369	 0.586674452072012 
1370	 0.585912997895745 
1371	 0.585164152920684 
1372	 0.584435105293481 
1373	 0.583734808419921 
1374	 0.582979256697752 
1375	 0.582262632868249 
1376	 0.581431873207078 
1377	 0.580488416638912 
1378	 0.579571858400298 
1379	 0.578567396740422 
1380	 0.577649184304831 
1381	 0.576722780330255 
1382	 0.575884327578613 
1383	 0.575087036081329 
1384	 0.574368599871767 
1385	 0.573726101366145 
1386	 0.573141076800919 
1387	 0.572655817159519 
1388	 0.572179790181492 
1389	 0.571766315506833 
1390	 0.571352162107567 
1391	 0.570964629526356 
1392	 0.570565690015723 
1393	 0.570166013333549 
1394	 0.569756581605843 
1395	 0.569360228173518 
1396	 0.568980880589765 
1397	 0.568530939333102 
1398	 0.568101135829014 
1399	 0.567555092917146 
1400	 0.566941475985568 
1401	 0.566241941131369 
1402	 0.565488524817507 
1403	 0.564616597049795 
1404	 0.563597885163497 
1405	 0.562622175692706 
1406	 0.561560508635532 
1407	 0.560538377600666 
1408	 0.559501682240289 
1409	 0.558514562846292 
1410	 0.557494919133935 
1411	 0.5565809677528 
1412	 0.555721944162062 
1413	 0.554946903073338 
1414	 0.554246993551791 
1415	 0.553607327849243 
1416	 0.553062295494325 
1417	 0.552537060917417 
1418	 0.552086531524458 
1419	 0.551629233618198 
1420	 0.551198928626272 
1421	 0.5507792617701 
1422	 0.550374541331816 
1423	 0.54997073020796 
1424	 0.549572760483866 
1425	 0.54919025165443 
1426	 0.548824504513299 
1427	 0.548469475502371 
1428	 0.548113581618916 
1429	 0.547829277989843 
1430	 0.547553439220616 
1431	 0.547286518991795 
1432	 0.547069394564019 
1433	 0.546895764035993 
1434	 0.546739545162012 
1435	 0.546621830226906 
1436	 0.546510265335201 
1437	 0.546415499944578 
1438	 0.546351453882904 
1439	 0.546308267611447 
1440	 0.54628076918042 
1441	 0.546286749745238 
1442	 0.546295834465289 
1443	 0.546294400787719 
1444	 0.546351512376233 
1445	 0.546436947611288 
1446	 0.546554914097992 
1447	 0.546735261809394 
1448	 0.54690227145548 
1449	 0.547096008598913 
1450	 0.547278010372693 
1451	 0.547438779341247 
1452	 0.547638793521391 
1453	 0.547863211888201 
1454	 0.54808038550853 
1455	 0.548338998452746 
1456	 0.548565745539194 
1457	 0.548750818915924 
1458	 0.548968500258511 
1459	 0.549202003860281 
1460	 0.549421249389403 
1461	 0.549663771265308 
1462	 0.549880269333127 
1463	 0.55006588880379 
1464	 0.55025391719179 
1465	 0.550427855468338 
1466	 0.550602322425665 
1467	 0.550800260969329 
1468	 0.551013153692913 
1469	 0.551227617477057 
1470	 0.551444146104041 
1471	 0.551645670035546 
1472	 0.551842837704355 
1473	 0.552003785976947 
1474	 0.552153016850448 
1475	 0.552279963453043 
1476	 0.552355895137125 
1477	 0.55247360751344 
1478	 0.552593357419208 
1479	 0.552722788687499 
1480	 0.55288094238751 
1481	 0.552998871279565 
1482	 0.55310613733204 
1483	 0.553208978135864 
1484	 0.553272358217932 
1485	 0.553381044120125 
1486	 0.553510614485493 
1487	 0.553636463749332 
1488	 0.55377675906664 
1489	 0.553920629873242 
1490	 0.554070862384356 
1491	 0.554215740855798 
1492	 0.554371071488633 
1493	 0.55451610228053 
1494	 0.554662332376624 
1495	 0.554781910344295 
1496	 0.554896430609559 
1497	 0.55498963071828 
1498	 0.555046927249209 
1499	 0.55510999921784 
1500	 0.555165157246832 
1501	 0.555216577185904 
1502	 0.555259559777338 
1503	 0.55530383155711 
1504	 0.555326173447229 
1505	 0.55537989064791 
1506	 0.555453564152421 
1507	 0.555525865519829 
1508	 0.555617514708202 
1509	 0.555707865074242 
1510	 0.555794446886522 
1511	 0.555882953323527 
1512	 0.555989769098483 
1513	 0.556081532685895 
1514	 0.556181509067012 
1515	 0.556249169364065 
1516	 0.556299401375704 
1517	 0.55632823019317 
1518	 0.556300396025491 
1519	 0.556300516766221 
1520	 0.556308936841722 
1521	 0.556295833465792 
1522	 0.556336862766945 
1523	 0.556404460696827 
1524	 0.556454502065345 
1525	 0.55651239959334 
1526	 0.556586452090506 
1527	 0.556669527769865 
1528	 0.556724677393036 
1529	 0.556801340203635 
1530	 0.556823877535176 
1531	 0.556796230306703 
1532	 0.556787357951172 
1533	 0.556747151694865 
1534	 0.556772281749913 
1535	 0.556817112908225 
1536	 0.556870701739119 
1537	 0.556966978016349 
1538	 0.557050100162788 
1539	 0.557130070900864 
1540	 0.557211474886557 
1541	 0.557334774832369 
1542	 0.557374458759082 
1543	 0.557373528500246 
1544	 0.55736353120766 
1545	 0.557310476547039 
1546	 0.557252286902462 
1547	 0.557169811948092 
1548	 0.557114292859493 
1549	 0.557036031524463 
1550	 0.556994325573194 
1551	 0.557013420224996 
1552	 0.556967997881935 
1553	 0.556906050302553 
1554	 0.556833806621695 
1555	 0.556729183157388 
1556	 0.556628884131044 
1557	 0.556519322112606 
1558	 0.556420628544475 
1559	 0.556294077914352 
1560	 0.556222359469633 
1561	 0.556170337659016 
1562	 0.55615624247603 
1563	 0.556203863807661 
1564	 0.556221527798477 
1565	 0.556293456015467 
1566	 0.556276436838655 
1567	 0.556191756528851 
1568	 0.556135502356355 
1569	 0.55602116575252 
1570	 0.555965748904627 
1571	 0.555940942716811 
1572	 0.555939019671157 
1573	 0.555969755042187 
1574	 0.556000193252623 
1575	 0.556067908537961 
1576	 0.556111836135831 
1577	 0.556154258177754 
1578	 0.556181661456359 
1579	 0.556191920215851 
1580	 0.556208346004052 
1581	 0.556220217766519 
1582	 0.556226024035753 
1583	 0.556221782651443 
1584	 0.556233988821043 
1585	 0.556239703086218 
1586	 0.556261291598818 
1587	 0.556316561168986 
1588	 0.556349330097607 
1589	 0.556390620008342 
1590	 0.556402901083928 
1591	 0.556380343792726 
1592	 0.556376684788437 
1593	 0.556358913555082 
1594	 0.556353295406727 
1595	 0.556361250822345 
1596	 0.556372896943389 
1597	 0.556408460732359 
1598	 0.556406572771495 
1599	 0.556392321571911 
1600	 0.556375198064605 
1601	 0.556315069455015 
1602	 0.556283319984445 
1603	 0.556285123340434 
1604	 0.556258284624549 
1605	 0.556217541544269 
1606	 0.556184144523519 
1607	 0.556153319225215 
1608	 0.556099617951529 
1609	 0.556074968959053 
1610	 0.555982807857495 
1611	 0.555823177741985 
1612	 0.555670625423077 
1613	 0.555457960178877 
1614	 0.55528722849324 
1615	 0.555108363168778 
1616	 0.554982493590152 
1617	 0.554907971640977 
1618	 0.554829703679182 
1619	 0.55482094633604 
1620	 0.554754155176803 
1621	 0.554664152101018 
1622	 0.554552451150844 
1623	 0.554412319932544 
1624	 0.554248184842285 
1625	 0.554036894437293 
1626	 0.553854114770837 
1627	 0.553673389163094 
1628	 0.553474937354302 
1629	 0.553281684604863 
1630	 0.55308696495111 
1631	 0.552846528265506 
1632	 0.552650341087579 
1633	 0.552502451677857 
1634	 0.552332128016212 
1635	 0.552204639820541 
1636	 0.552010162804485 
1637	 0.551749153058234 
1638	 0.551509081918911 
1639	 0.551251479338598 
1640	 0.550984962003607 
1641	 0.550730895030158 
1642	 0.550458596061765 
1643	 0.550132788729373 
1644	 0.549842650601838 
1645	 0.549577093254237 
1646	 0.549305682838341 
1647	 0.549073952952087 
1648	 0.548785300174856 
1649	 0.548475110043907 
1650	 0.548133131882428 
1651	 0.547733737676648 
1652	 0.547346351203525 
1653	 0.546955929148764 
1654	 0.546541301403548 
1655	 0.546143246908763 
1656	 0.545669476483631 
1657	 0.545163173788042 
1658	 0.544576064395452 
1659	 0.543895330135134 
1660	 0.54323043498571 
1661	 0.542548136827802 
1662	 0.541796566955591 
1663	 0.54101317971516 
1664	 0.540162019947032 
1665	 0.539244276277382 
1666	 0.53825856761002 
1667	 0.537230010887103 
1668	 0.536146833586689 
1669	 0.534994755065189 
1670	 0.533778052174171 
1671	 0.532491361166989 
1672	 0.531156206045933 
1673	 0.529761768940743 
1674	 0.528284133510151 
1675	 0.526765635304083 
1676	 0.525192200448523 
1677	 0.523503097715549 
1678	 0.521824220730435 
1679	 0.520092977497214 
1680	 0.518364811433098 
1681	 0.516637505172799 
1682	 0.514860216069553 
1683	 0.513054885643133 
1684	 0.51126855813892 
1685	 0.50945094552659 
1686	 0.507628576637919 
1687	 0.50583728744134 
1688	 0.503949119753577 
1689	 0.502029494692204 
1690	 0.500027903396891 
1691	 0.497947612618564 
1692	 0.495883624248783 
1693	 0.493763459286532 
1694	 0.491626174981075 
1695	 0.489455794511328 
1696	 0.48729171702869 
1697	 0.485119859403641 
1698	 0.482900343227183 
1699	 0.480689421950596 
1700	 0.478462384024139 
1701	 0.4761196208247 
1702	 0.47393934701958 
1703	 0.471778243180671 
1704	 0.469770651856087 
1705	 0.467861812477295 
1706	 0.466018002238539 
1707	 0.464386579739289 
1708	 0.462861667732357 
1709	 0.461468307884494 
1710	 0.460229897238485 
1711	 0.458995292931891 
1712	 0.45781314525162 
1713	 0.456654097469654 
1714	 0.455476354184125 
1715	 0.45439940719787 
1716	 0.453348124946786 
1717	 0.452355229623262 
1718	 0.451479207961096 
1719	 0.450650113675667 
1720	 0.449866734346287 
1721	 0.449181147839621 
1722	 0.448604796262157 
1723	 0.448102782780905 
1724	 0.447725549285526 
1725	 0.447468879700876 
1726	 0.447286914179622 
1727	 0.447290130756421 
1728	 0.44748265886337 
1729	 0.447848747481893 
1730	 0.448469099712393 
1731	 0.449243345372726 
1732	 0.450164200570885 
1733	 0.45117714528296 
1734	 0.452243820395225 
1735	 0.453330301647215 
1736	 0.454398205175752 
1737	 0.455433093261417 
1738	 0.45633961299098 
1739	 0.457043621117157 
1740	 0.457565549830409 
1741	 0.457940976814865 
1742	 0.45815161494443 
1743	 0.458234482305346 
1744	 0.458145646969149 
1745	 0.457963381780967 
1746	 0.457600213366632 
1747	 0.457249553391024 
1748	 0.456784809880036 
1749	 0.456380989769598 
1750	 0.455937460323418 
1751	 0.455595049618476 
1752	 0.455303368377996 
1753	 0.455041487723527 
1754	 0.454825134257925 
1755	 0.454700888423041 
1756	 0.454578271032173 
1757	 0.454634715961556 
1758	 0.454804107448184 
1759	 0.455071318219087 
1760	 0.455537860930292 
1761	 0.456162160809984 
1762	 0.456862376066855 
1763	 0.457771377058359 
1764	 0.458731111459248 
1765	 0.459752668547449 
1766	 0.460977272800335 
1767	 0.462146143336235 
1768	 0.46330917486345 
1769	 0.464524187079009 
1770	 0.465603354777414 
1771	 0.466651092493527 
1772	 0.467691373833034 
1773	 0.468661339997021 
1774	 0.469611974259028 
1775	 0.470497834209377 
1776	 0.471359035859397 
1777	 0.472079112635313 
1778	 0.472617229584522 
1779	 0.47314936199526 
1780	 0.473628934069808 
1781	 0.474054929121428 
1782	 0.474490739824559 
1783	 0.47483904973883 
1784	 0.475103258291173 
1785	 0.475372156274351 
1786	 0.475652261180227 
1787	 0.475991635794159 
1788	 0.476213277019684 
1789	 0.476347036169532 
1790	 0.476490695733235 
1791	 0.476558204294973 
1792	 0.476619041151635 
1793	 0.47671938892081 
1794	 0.476705648812486 
1795	 0.47668897272423 
1796	 0.47664800691695 
1797	 0.476590482820354 
1798	 0.476605812561163 
1799	 0.476626761990723 
1800	 0.476668593034366 
1801	 0.479670180175011 
1802	 0.479875334736621 
1803	 0.480111267906292 
1804	 0.480364975039701 
1805	 0.480621726544426 
1806	 0.480840666109416 
1807	 0.481035407722889 
1808	 0.481246905202238 
1809	 0.481437865751768 
1810	 0.481636927727745 
1811	 0.48187275947306 
1812	 0.48207812717146 
1813	 0.482257136656736 
1814	 0.482433284821277 
1815	 0.482631759014742 
1816	 0.482790427829973 
1817	 0.482978748359768 
1818	 0.483164934380873 
1819	 0.483381035690939 
1820	 0.483646861483909 
1821	 0.483861734098991 
1822	 0.484040547601906 
1823	 0.484286279477411 
1824	 0.484541684743063 
1825	 0.484710252904227 
1826	 0.484886952049796 
1827	 0.485096363188341 
1828	 0.485234982197573 
1829	 0.485309737518897 
1830	 0.485404504546817 
1831	 0.485460989220985 
1832	 0.485560611757031 
1833	 0.485678672821247 
1834	 0.485779788425673 
1835	 0.486019668167798 
1836	 0.486260202316049 
1837	 0.486517761969631 
1838	 0.486840753073211 
1839	 0.487125681262007 
1840	 0.487420810801301 
1841	 0.487689685349711 
1842	 0.487938950421955 
1843	 0.48818005402353 
1844	 0.488419611049643 
1845	 0.488644979881623 
1846	 0.488910759071226 
1847	 0.489178453564974 
1848	 0.489424555169104 
1849	 0.489677425543 
1850	 0.489906110951219 
1851	 0.490123811024832 
1852	 0.490304551095425 
1853	 0.490476831203278 
1854	 0.490633400371323 
1855	 0.490739019382497 
1856	 0.490847640544337 
1857	 0.490912881227571 
1858	 0.490939774427061 
1859	 0.490956490209634 
1860	 0.490945679758987 
1861	 0.490899200069773 
1862	 0.490838878998661 
1863	 0.490757987304926 
1864	 0.490601489803541 
1865	 0.490423245791543 
1866	 0.490132032733332 
1867	 0.489779957085168 
1868	 0.48938137535498 
1869	 0.488971647002064 
1870	 0.48862023893877 
1871	 0.488293859465877 
1872	 0.487989681097415 
1873	 0.487732844142328 
1874	 0.487491770081508 
1875	 0.487242115302574 
1876	 0.486946780209206 
1877	 0.486642361250991 
1878	 0.48622412914706 
1879	 0.485694704599918 
1880	 0.485149543934905 
1881	 0.484462053837695 
1882	 0.483657066865858 
1883	 0.482770992362591 
1884	 0.481750373534576 
1885	 0.480535987356246 
1886	 0.479244684097328 
1887	 0.477814273297924 
1888	 0.476275467776643 
1889	 0.474799499198847 
1890	 0.473190122381533 
1891	 0.471561733725081 
1892	 0.469989964353222 
1893	 0.468339942502476 
1894	 0.466589824122767 
1895	 0.464921365329668 
1896	 0.463243913838899 
1897	 0.461512727457407 
1898	 0.459937467027513 
1899	 0.458401195710671 
1900	 0.456914531864462 
1901	 0.455530790592 
1902	 0.454118317198995 
1903	 0.452803000830712 
1904	 0.451558459482273 
1905	 0.450369560786661 
1906	 0.449249483780772 
1907	 0.448283570473432 
1908	 0.447309343780052 
1909	 0.446401344682907 
1910	 0.445588176223449 
1911	 0.444723175716325 
1912	 0.443927725025255 
1913	 0.443160746278994 
1914	 0.442366325018439 
1915	 0.441684273654279 
1916	 0.44108819867859 
1917	 0.440521292588871 
1918	 0.440002494566696 
1919	 0.439572574584012 
1920	 0.43913513446933 
1921	 0.438731656403834 
1922	 0.438348563322273 
1923	 0.437954672296522 
1924	 0.437561446871248 
1925	 0.437189266519512 
1926	 0.43687802679149 
1927	 0.436616428564726 
1928	 0.43637061325275 
1929	 0.436170608732292 
1930	 0.435998024862493 
1931	 0.435827270570043 
1932	 0.435647083750957 
1933	 0.435493482886923 
1934	 0.435414956542641 
1935	 0.435375912601725 
1936	 0.435363763404263 
1937	 0.435416026783355 
1938	 0.435582967988679 
1939	 0.435677217024365 
1940	 0.435756815979 
1941	 0.435904137883077 
1942	 0.436040085141496 
1943	 0.436150801667245 
1944	 0.436343128402588 
1945	 0.436581363140531 
1946	 0.436816288441544 
1947	 0.437049753144177 
1948	 0.437314960017383 
1949	 0.437595467850836 
1950	 0.437873690820998 
1951	 0.438184056211802 
1952	 0.438480923930554 
1953	 0.438780508212789 
1954	 0.439044334232558 
1955	 0.439331266237013 
1956	 0.439592526992162 
1957	 0.439865215223795 
1958	 0.440162179268662 
1959	 0.440458689698419 
1960	 0.440699414032916 
1961	 0.440952166628205 
1962	 0.441187774272841 
1963	 0.44144037527609 
1964	 0.44168994902557 
1965	 0.441966013256738 
1966	 0.442275484059899 
1967	 0.442554274301825 
1968	 0.442804897705064 
1969	 0.443081757194198 
1970	 0.4433424515456 
1971	 0.443600784467747 
1972	 0.443938001929291 
1973	 0.444247320462931 
1974	 0.444523747904864 
1975	 0.444804147876637 
1976	 0.445045323107754 
1977	 0.445195448314155 
1978	 0.445422612442826 
1979	 0.445675813489014 
1980	 0.44592554569805 
1981	 0.446154586733653 
1982	 0.446390896021295 
1983	 0.446607702554109 
1984	 0.446759997221873 
1985	 0.446926480854787 
1986	 0.447061425073792 
1987	 0.447170548427161 
1988	 0.447208851041525 
1989	 0.447289212651053 
1990	 0.447380109345136 
1991	 0.447460176624728 
1992	 0.447512422545693 
1993	 0.447631231525722 
1994	 0.447741805072366 
1995	 0.447810705764135 
1996	 0.447918961088781 
1997	 0.447936345961841 
1998	 0.447937218704931 
1999	 0.447863195103527 
2000	 0.447867547028851 
2001	 0.447872206924236 
2002	 0.44788934802676 
2003	 0.447946267134314 
2004	 0.448000510356514 
2005	 0.448068086594252 
2006	 0.448109862643928 
2007	 0.448187249195868 
2008	 0.448206266220256 
2009	 0.448144257206239 
2010	 0.448059605160186 
2011	 0.4479632923935 
2012	 0.44778547347102 
2013	 0.447553519593729 
2014	 0.447265268981239 
2015	 0.446940987175767 
2016	 0.446506098715472 
2017	 0.446132644502052 
2018	 0.445751955035046 
2019	 0.445388663091709 
2020	 0.445049073567352 
2021	 0.444688862765529 
2022	 0.444345366595396 
2023	 0.443998945498431 
2024	 0.443591387834449 
2025	 0.443136094266913 
2026	 0.442642725160014 
2027	 0.44204854024353 
2028	 0.441513076195447 
2029	 0.440976523169092 
2030	 0.440438634429136 
2031	 0.439921376164555 
2032	 0.439386391126256 
2033	 0.43882680899047 
2034	 0.438279682838417 
2035	 0.437716858891433 
2036	 0.437167762467128 
2037	 0.436696739376967 
2038	 0.436199896797224 
2039	 0.435765320539444 
2040	 0.435382528736128 
2041	 0.435041440093657 
2042	 0.434733088135565 
2043	 0.434464362396564 
2044	 0.434257106055775 
2045	 0.434054616010654 
2046	 0.433887700435106 
2047	 0.433721161732223 
2048	 0.433588675494968 
2049	 0.433447893450651 
2050	 0.433324077179999 
2051	 0.433165354834281 
2052	 0.433004978361554 
2053	 0.43287326642437 
2054	 0.432740366204824 
2055	 0.432617873163124 
2056	 0.432480693692995 
2057	 0.432351529393129 
2058	 0.432198819239787 
2059	 0.432028655200546 
2060	 0.431856471633656 
2061	 0.431667156689294 
2062	 0.431489244309853 
2063	 0.431279908332132 
2064	 0.431111535560671 
2065	 0.430952310010956 
2066	 0.430845242046203 
2067	 0.430711505596819 
2068	 0.430646587268327 
2069	 0.430583607306772 
2070	 0.430537350446084 
2071	 0.430488584519656 
2072	 0.430499346529532 
2073	 0.430426343347194 
2074	 0.430304475956325 
2075	 0.430199776329665 
2076	 0.430073821837517 
2077	 0.429936488729987 
2078	 0.4297943144762 
2079	 0.429647489612018 
2080	 0.429469162400249 
2081	 0.429305311380901 
2082	 0.429123821352374 
2083	 0.42900903231399 
2084	 0.428858311554891 
2085	 0.428721892274631 
2086	 0.42860068563346 
2087	 0.428510366638088 
2088	 0.428380337623018 
2089	 0.428271265374239 
2090	 0.428101419023412 
2091	 0.427890570247292 
2092	 0.4276563729738 
2093	 0.427351761202764 
2094	 0.427101232291525 
2095	 0.426826098814365 
2096	 0.426599947853766 
2097	 0.426437308366227 
2098	 0.426258214918899 
2099	 0.426082389525793 
2100	 0.42590732708115 
2101	 0.42567325678855 
2102	 0.425399590997812 
2103	 0.425125389265356 
2104	 0.424808101826436 
2105	 0.424507482291046 
2106	 0.424212811084952 
2107	 0.423898277505433 
2108	 0.42358585961196 
2109	 0.423241014110998 
2110	 0.422875908975856 
2111	 0.422496922845575 
2112	 0.42208423072725 
2113	 0.42166480815638 
2114	 0.421211529146859 
2115	 0.420785896035465 
2116	 0.420380277008888 
2117	 0.41995274521289 
2118	 0.419515547623142 
2119	 0.419061265230888 
2120	 0.418677090814628 
2121	 0.418271932620282 
2122	 0.417964648584557 
2123	 0.417799138982488 
2124	 0.417522802080631 
2125	 0.417248801680409 
2126	 0.416943088040065 
2127	 0.416575798119221 
2128	 0.41624152089117 
2129	 0.415875121303158 
2130	 0.415576410711687 
2131	 0.415291924434855 
2132	 0.415053283910266 
2133	 0.414860380972675 
2134	 0.414724067663869 
2135	 0.414606239762028 
2136	 0.414553624668745 
2137	 0.414445608981484 
2138	 0.414370958013069 
2139	 0.414222028903735 
2140	 0.413998692807546 
2141	 0.413826878299089 
2142	 0.4136650049926 
2143	 0.413479280669499 
2144	 0.413288384344575 
2145	 0.41310380197667 
2146	 0.412891749870838 
2147	 0.412696698011397 
2148	 0.412504730115691 
2149	 0.412350934711635 
2150	 0.41219352958322 
2151	 0.412075081230608 
2152	 0.411997011984745 
2153	 0.411962041332664 
2154	 0.411939747902478 
2155	 0.411903306038729 
2156	 0.411827907121384 
2157	 0.411748777863046 
2158	 0.411629320063723 
2159	 0.411449835571525 
2160	 0.411303312847634 
2161	 0.411161345546687 
2162	 0.410993655122143 
2163	 0.410818948249718 
2164	 0.410636693850721 
2165	 0.410428068181085 
2166	 0.41022632866037 
2167	 0.41004182025564 
2168	 0.409824982295185 
2169	 0.409559406475099 
2170	 0.409333666975309 
2171	 0.409119864524032 
2172	 0.408894692499777 
2173	 0.408672162977134 
2174	 0.408479021943309 
2175	 0.408267303650894 
2176	 0.408033503351776 
2177	 0.407844432198785 
2178	 0.407693718075241 
2179	 0.407523045187743 
2180	 0.407359258618026 
2181	 0.407190168156091 
2182	 0.40700507877488 
2183	 0.406846545372561 
2184	 0.406698468296749 
2185	 0.406557910367189 
2186	 0.406441208554437 
2187	 0.406312882273968 
2188	 0.406162967703078 
2189	 0.406058373171389 
2190	 0.405978583046697 
2191	 0.405895939307033 
2192	 0.405881397898246 
2193	 0.405800988764556 
2194	 0.40569397676463 
2195	 0.40555708145304 
2196	 0.405413215777982 
2197	 0.405179423457759 
2198	 0.404893324831928 
2199	 0.404634837521065 
2200	 0.404384608351105 
2201	 0.404091785858834 
2202	 0.403874474095748 
2203	 0.403727608583832 
2204	 0.403534714771358 
2205	 0.403349519353523 
2206	 0.403147688369217 
2207	 0.402935604459167 
2208	 0.402707194027944 
2209	 0.402477459036423 
2210	 0.402227121717131 
2211	 0.401952716141423 
2212	 0.401667470119375 
2213	 0.401372281894575 
2214	 0.401058672196723 
2215	 0.400753907998984 
2216	 0.400390058301039 
2217	 0.400009566259417 
2218	 0.399560397337706 
2219	 0.399019305329336 
2220	 0.398492218771525 
2221	 0.397930187766321 
2222	 0.397341615882783 
2223	 0.396842593181484 
2224	 0.396243572195001 
2225	 0.39556638755722 
2226	 0.394958832361455 
2227	 0.394206279517779 
2228	 0.393368930758323 
2229	 0.39245076092647 
2230	 0.391442286942293 
2231	 0.390386348375734 
2232	 0.389241701210876 
2233	 0.388055556309143 
2234	 0.386859803550997 
2235	 0.385519178737215 
2236	 0.384084866601884 
2237	 0.382564639013949 
2238	 0.380887255619486 
2239	 0.379219042703498 
2240	 0.377505003448625 
2241	 0.375705608137399 
2242	 0.373938670631183 
2243	 0.371968644684445 
2244	 0.369832459538638 
2245	 0.367633049964818 
2246	 0.365199580343937 
2247	 0.362836578716887 
2248	 0.360478916153555 
2249	 0.358048104122516 
2250	 0.355566529058379 
2251	 0.353128642019238 
2252	 0.35049011343118 
2253	 0.347983658890057 
2254	 0.345501771862686 
2255	 0.342946337531393 
2256	 0.340603231444689 
2257	 0.338229427726522 
2258	 0.335960566816851 
2259	 0.333832922397225 
2260	 0.331640281556143 
2261	 0.329421647821083 
2262	 0.327359228330127 
2263	 0.32533856969412 
2264	 0.323373958836954 
2265	 0.32155940519622 
2266	 0.319683935055822 
2267	 0.317817752220675 
2268	 0.315950586954781 
2269	 0.314083892168021 
2270	 0.312275630130761 
2271	 0.310451729035592 
2272	 0.308704547468316 
2273	 0.307042336869135 
2274	 0.305374818413898 
2275	 0.303760473386712 
2276	 0.302137062127641 
2277	 0.300580669416683 
2278	 0.298954813717022 
2279	 0.297287949685373 
2280	 0.295588297813235 
2281	 0.293875825465499 
2282	 0.292057441604154 
2283	 0.290176178115206 
2284	 0.288293233918677 
2285	 0.286141762336099 
2286	 0.28407554544256 
2287	 0.281882593198694 
2288	 0.279581372919907 
2289	 0.277442937604636 
2290	 0.275125965252002 
2291	 0.272892523538632 
2292	 0.270746815225268 
2293	 0.268452342952182 
2294	 0.266248073387104 
2295	 0.264020728274532 
2296	 0.261902203091636 
2297	 0.260055049042605 
2298	 0.258343213304287 
2299	 0.256948362764801 
2300	 0.25582744764763 
2301	 0.254943623040175 
2302	 0.254287236304131 
2303	 0.254011313740706 
2304	 0.254052567198824 
2305	 0.254381592491976 
2306	 0.255129223976943 
2307	 0.256028457268516 
2308	 0.257193931564102 
2309	 0.258547429430733 
2310	 0.260220188313464 
2311	 0.261945492243073 
2312	 0.263996336381922 
2313	 0.265865229320875 
2314	 0.26781357309305 
2315	 0.269627143809476 
2316	 0.271353128648634 
2317	 0.273005675865477 
2318	 0.274715447724762 
2319	 0.276095372485494 
2320	 0.277308324042853 
2321	 0.27829507117099 
2322	 0.278986142672015 
2323	 0.279527503792846 
2324	 0.27987118561291 
2325	 0.280050642948308 
2326	 0.279976499203086 
2327	 0.279814375263488 
2328	 0.279508050774963 
2329	 0.279055198567811 
2330	 0.278482043875106 
2331	 0.277724104950255 
2332	 0.276768393594457 
2333	 0.275659333040194 
2334	 0.27437175916589 
2335	 0.273120607400456 
2336	 0.271779869832032 
2337	 0.270322352247095 
2338	 0.268922340509028 
2339	 0.26736145104221 
2340	 0.265868624391694 
2341	 0.2645683097195 
2342	 0.263277963519984 
2343	 0.262138078180487 
2344	 0.261171968864263 
2345	 0.260454142952884 
2346	 0.260126019656465 
2347	 0.260144560366072 
2348	 0.260421156322489 
2349	 0.261120934920014 
2350	 0.262062731165369 
2351	 0.263160651621207 
2352	 0.264626181015631 
2353	 0.266186684127067 
2354	 0.267556944427465 
2355	 0.268956069275255 
2356	 0.270130548355008 
2357	 0.27096058595015 
2358	 0.27177923961831 
2359	 0.272414418735456 
2360	 0.272867771075723 
2361	 0.273111391191634 
2362	 0.273154189786678 
2363	 0.273160624275446 
2364	 0.273205528884676 
2365	 0.273239380868894 
2366	 0.273254128851297 
2367	 0.273220132527921 
2368	 0.273075475464337 
2369	 0.272999685715965 
2370	 0.272872653937312 
2371	 0.272698051834307 
2372	 0.272571330720353 
2373	 0.272323351144027 
2374	 0.272212498741125 
2375	 0.272237038811888 
2376	 0.272086542710333 
2377	 0.271991998386812 
2378	 0.271852646897236 
2379	 0.27157509760293 
2380	 0.271523755353737 
2381	 0.271520139201295 
2382	 0.271583664262414 
2383	 0.271768039791419 
2384	 0.271999000261846 
2385	 0.272358690612525 
2386	 0.272579304362623 
2387	 0.272816084602232 
2388	 0.272943219236002 
2389	 0.272896520816834 
2390	 0.27291823068858 
2391	 0.272999366804298 
2392	 0.272981939726692 
2393	 0.272817262852122 
2394	 0.272931379443325 
2395	 0.273122424380428 
2396	 0.273189410629631 
2397	 0.273451820345389 
2398	 0.273579829951102 
2399	 0.273505386871791 
2400	 0.273520494509257 
2401	 0.273635176574375 
2402	 0.2734756675181 
2403	 0.273290169815458 
2404	 0.273180920815403 
2405	 0.273074472079333 
2406	 0.273095342669497 
2407	 0.273178271429224 
2408	 0.273186451403967 
2409	 0.273280560267063 
2410	 0.27330690413461 
2411	 0.27323822189439 
2412	 0.27332320077871 
2413	 0.273430026352768 
2414	 0.273513239713753 
2415	 0.273727689967219 
2416	 0.27389340404669 
2417	 0.273809477259464 
2418	 0.273855458677383 
2419	 0.274001160345496 
2420	 0.273895478615193 
2421	 0.273961312297519 
2422	 0.273897028929284 
2423	 0.273708644361822 
2424	 0.273772153201969 
2425	 0.273731821027321 
2426	 0.273712646432752 
2427	 0.273502678301928 
2428	 0.273180209679906 
2429	 0.272999590539463 
2430	 0.272711510706039 
2431	 0.272675336447357 
2432	 0.272836431448342 
2433	 0.272865547528774 
2434	 0.272873740495949 
2435	 0.272762249452311 
2436	 0.272443650663837 
2437	 0.272210986800661 
2438	 0.27193265218477 
2439	 0.271551567408943 
2440	 0.271459638235139 
2441	 0.271204288092761 
2442	 0.271003552672839 
2443	 0.270982029429711 
2444	 0.270685271317305 
2445	 0.270321954186696 
2446	 0.269700001428082 
2447	 0.269326059074656 
2448	 0.269219236705295 
2449	 0.268872269735721 
2450	 0.268845402077106 
2451	 0.268811390101326 
2452	 0.268609992122739 
2453	 0.268311586321495 
2454	 0.267664410286736 
2455	 0.267001803081017 
2456	 0.266151069776342 
2457	 0.265548426429076 
2458	 0.265580989744539 
2459	 0.265484938613054 
2460	 0.265274263581417 
2461	 0.265157949020785 
2462	 0.264770035482644 
2463	 0.26427723813395 
2464	 0.263866346846316 
2465	 0.263172026866459 
2466	 0.262714703399191 
2467	 0.262581330067853 
2468	 0.26224426233036 
2469	 0.262049115169669 
2470	 0.261856666756176 
2471	 0.261700322403073 
2472	 0.261702779713399 
2473	 0.261938727809024 
2474	 0.262176073198263 
2475	 0.261945432041219 
2476	 0.261747889838496 
2477	 0.261793505076584 
2478	 0.261678042948059 
2479	 0.261275623237669 
2480	 0.260898746061115 
2481	 0.260610436293712 
2482	 0.260313284620335 
2483	 0.260432982865759 
2484	 0.260588209556008 
2485	 0.26059937394034 
2486	 0.260697666787479 
2487	 0.260846475682963 
2488	 0.260949835108546 
2489	 0.261168031028568 
2490	 0.261281976775713 
2491	 0.261488407777351 
2492	 0.261676376901983 
2493	 0.261920019208314 
2494	 0.262308456826738 
2495	 0.262855452228722 
2496	 0.263574488353134 
2497	 0.263578593062498 
2498	 0.263757440130436 
2499	 0.263679284512969 
2500	 0.263056368714909 
