Wavelength	spectrum00006.asd
350	 4.84483858974459E-02 
351	 0.049343789411504 
352	 4.98514810849981E-02 
353	 4.68555135313502E-02 
354	 4.22593906225616E-02 
355	 4.29807173782234E-02 
356	 0.043517633906268 
357	 3.95630305305833E-02 
358	 3.80912032406272E-02 
359	 3.74486533197331E-02 
360	 3.78760575076662E-02 
361	 3.97228797866452E-02 
362	 3.67758108220475E-02 
363	 3.32605454668624E-02 
364	 3.20757752063494E-02 
365	 3.30958794507918E-02 
366	 3.16891175335702E-02 
367	 3.01001180202687E-02 
368	 3.08126310311971E-02 
369	 3.14179552223109E-02 
370	 3.09606710042038E-02 
371	 3.04142644317007E-02 
372	 3.13997332510383E-02 
373	 3.05269620911583E-02 
374	 2.94750082329341E-02 
375	 2.88234494059078E-02 
376	 0.026694977507529 
377	 2.89344922313505E-02 
378	 3.13675015817746E-02 
379	 2.95782448742671E-02 
380	 0.027434312382183 
381	 2.77875633100243E-02 
382	 2.86997358998694E-02 
383	 2.61345511049106E-02 
384	 2.60692166663932E-02 
385	 2.67106267673659E-02 
386	 2.67398886554636E-02 
387	 2.70236078730992E-02 
388	 2.60187754465778E-02 
389	 0.024920539955783 
390	 2.51022855023491E-02 
391	 2.58333571867733E-02 
392	 2.60824099317455E-02 
393	 2.52006095031553E-02 
394	 2.31624736228991E-02 
395	 2.31870456226172E-02 
396	 2.33644795140357E-02 
397	 2.23241892981304E-02 
398	 2.05024796930296E-02 
399	 2.13124239246286E-02 
400	 2.25012594567934E-02 
401	 2.14473274077265E-02 
402	 2.14955029511539E-02 
403	 2.14301844094698E-02 
404	 2.11458658212273E-02 
405	 2.13998674592184E-02 
406	 2.16440905621867E-02 
407	 2.05871565340381E-02 
408	 1.85094291680838E-02 
409	 1.88318510826466E-02 
410	 1.95910221809629E-02 
411	 1.97318681833923E-02 
412	 1.88535000141882E-02 
413	 1.81601652197472E-02 
414	 1.82910729911291E-02 
415	 1.87686352791703E-02 
416	 1.82707598857639E-02 
417	 1.81046815382044E-02 
418	 1.80655574968851E-02 
419	 1.79569364310444E-02 
420	 1.83596280226861E-02 
421	 1.79023848561857E-02 
422	 1.71381517757113E-02 
423	 1.71752245389314E-02 
424	 1.70900340184996E-02 
425	 0.017110197531868 
426	 1.71729293818329E-02 
427	 1.68028810619552E-02 
428	 0.016698436039616 
429	 1.66644399968788E-02 
430	 1.64794332240404E-02 
431	 1.64963721738377E-02 
432	 1.63252884627485E-02 
433	 1.61417536100431E-02 
434	 1.63299297283149E-02 
435	 1.60272505774196E-02 
436	 1.60429804068405E-02 
437	 1.65397929404906E-02 
438	 1.64080047307964E-02 
439	 1.63840883994252E-02 
440	 1.61980721074061E-02 
441	 1.56357320830405E-02 
442	 1.58991467995809E-02 
443	 1.60790941146114E-02 
444	 1.58732632195777E-02 
445	 1.55483217138035E-02 
446	 1.54635300428946E-02 
447	 1.56260716411884E-02 
448	 1.58907456356138E-02 
449	 1.59668230250719E-02 
450	 1.57643426076101E-02 
451	 1.54888072146426E-02 
452	 1.54270900736885E-02 
453	 1.55021321497283E-02 
454	 1.54912894315297E-02 
455	 1.53653301298284E-02 
456	 1.53172186965225E-02 
457	 1.51900219893283E-02 
458	 1.52376403387944E-02 
459	 1.55468147761783E-02 
460	 1.54478959910719E-02 
461	 1.54105237814877E-02 
462	 1.54728911340897E-02 
463	 1.54363546151195E-02 
464	 1.53054920970587E-02 
465	 1.51635587337972E-02 
466	 0.015054112245952 
467	 1.49377936454418E-02 
468	 1.49880305927456E-02 
469	 0.014983265581042 
470	 1.47682980297149E-02 
471	 1.49919365565451E-02 
472	 0.015024446287687 
473	 1.48301554657333E-02 
474	 1.48557577058389E-02 
475	 1.48487050192812E-02 
476	 1.48682403101483E-02 
477	 1.49426026816909E-02 
478	 1.49277805706835E-02 
479	 1.48867231339678E-02 
480	 0.014915481443877 
481	 1.50614162898823E-02 
482	 1.49805764886147E-02 
483	 1.49257451512326E-02 
484	 1.49604540919875E-02 
485	 1.48850034947094E-02 
486	 1.48384505035926E-02 
487	 1.47589232131857E-02 
488	 1.46168675907438E-02 
489	 1.46056369640345E-02 
490	 1.47431368408576E-02 
491	 1.48835213867114E-02 
492	 0.014814357584253 
493	 1.46798086272679E-02 
494	 1.46452654538352E-02 
495	 1.47068567342868E-02 
496	 1.45688168212113E-02 
497	 1.46356646105825E-02 
498	 1.47273217083832E-02 
499	 1.45758046049641E-02 
500	 1.43651158660671E-02 
501	 1.43641687495788E-02 
502	 1.45149843642036E-02 
503	 1.44854583735951E-02 
504	 1.44392858533374E-02 
505	 1.44213759087869E-02 
506	 0.014451665058915 
507	 1.45623371849308E-02 
508	 1.45118214102119E-02 
509	 1.44024588699049E-02 
510	 1.44500114627264E-02 
511	 1.44506887585231E-02 
512	 0.014452996279163 
513	 1.44754877511202E-02 
514	 1.44729988162409E-02 
515	 1.43301872712168E-02 
516	 1.42274669919624E-02 
517	 1.42946333707227E-02 
518	 1.41921806786995E-02 
519	 1.41974649707717E-02 
520	 1.42834744433556E-02 
521	 1.42264909298001E-02 
522	 1.42199480123575E-02 
523	 0.014177396434192 
524	 1.40965637778662E-02 
525	 1.42392254155771E-02 
526	 1.42649509433205E-02 
527	 1.41983063799157E-02 
528	 1.41812042617794E-02 
529	 1.42220651244337E-02 
530	 1.41582801181688E-02 
531	 1.40276938643995E-02 
532	 1.40821938663682E-02 
533	 1.41585645851274E-02 
534	 1.41710976366502E-02 
535	 0.014104234255046 
536	 1.40862508170299E-02 
537	 1.41073251660073E-02 
538	 0.01410067912112 
539	 1.39975126185131E-02 
540	 1.40299677296865E-02 
541	 1.40685536398451E-02 
542	 1.40437466163717E-02 
543	 0.014052293288461 
544	 1.40186364733543E-02 
545	 0.013993542545344 
546	 1.40267077398653E-02 
547	 1.39873709119614E-02 
548	 1.39307878515628E-02 
549	 1.39079057343046E-02 
550	 1.39527648604891E-02 
551	 1.39737040854952E-02 
552	 1.39865265882931E-02 
553	 1.40095497928098E-02 
554	 1.40186694895054E-02 
555	 1.39613700028716E-02 
556	 1.39225623959699E-02 
557	 1.40147276546786E-02 
558	 1.40242755401387E-02 
559	 0.013998077245221 
560	 1.39894761533349E-02 
561	 1.40261983718581E-02 
562	 1.39861572096486E-02 
563	 1.39220451787071E-02 
564	 1.39155126256671E-02 
565	 1.39628991980122E-02 
566	 1.39637345540862E-02 
567	 1.39200464953407E-02 
568	 1.39129721066329E-02 
569	 1.39622010519733E-02 
570	 1.40136880019381E-02 
571	 1.40367829258837E-02 
572	 1.40690885707193E-02 
573	 1.41613622944417E-02 
574	 0.014290474267301 
575	 1.43989893478589E-02 
576	 1.44332886569269E-02 
577	 1.44713221577401E-02 
578	 1.45093617000405E-02 
579	 1.44452824237688E-02 
580	 1.44381210155933E-02 
581	 1.45112213221315E-02 
582	 1.46299232184761E-02 
583	 0.014684239426808 
584	 1.48138756364333E-02 
585	 1.49993881009463E-02 
586	 1.51364995960729E-02 
587	 1.53010665474309E-02 
588	 0.015447088784498 
589	 0.015567298883988 
590	 1.57367507866184E-02 
591	 1.59515705028631E-02 
592	 1.62254734740301E-02 
593	 0.016547414058351 
594	 1.68010308993554E-02 
595	 1.70262639214291E-02 
596	 1.72554522626303E-02 
597	 0.01750612556248 
598	 1.77679345600724E-02 
599	 1.80910254868458E-02 
600	 1.84886177280749E-02 
601	 1.88506849538641E-02 
602	 1.92969006522151E-02 
603	 1.98152949226016E-02 
604	 2.03457194612775E-02 
605	 2.09325295038206E-02 
606	 2.15242153230065E-02 
607	 2.21209268425175E-02 
608	 2.27947073693042E-02 
609	 2.34413452649401E-02 
610	 2.41252834284676E-02 
611	 2.49085921572627E-02 
612	 2.56940431714578E-02 
613	 2.64835960567558E-02 
614	 2.73035007973549E-02 
615	 2.81916640089212E-02 
616	 2.90796468430232E-02 
617	 2.99729799709547E-02 
618	 3.08910392561816E-02 
619	 3.18616033740381E-02 
620	 3.29175027062895E-02 
621	 3.40098876631087E-02 
622	 3.50826854358412E-02 
623	 3.61926331603533E-02 
624	 0.037394305098122 
625	 3.86559916662244E-02 
626	 3.98678941437484E-02 
627	 4.11251005816256E-02 
628	 4.23856134587412E-02 
629	 4.36356210791719E-02 
630	 4.49987933336181E-02 
631	 4.64153941394958E-02 
632	 4.78331871729047E-02 
633	 4.92193646854325E-02 
634	 5.06648486817108E-02 
635	 5.21898644200608E-02 
636	 5.37634637361367E-02 
637	 5.52972863728096E-02 
638	 5.67981566054624E-02 
639	 5.83279875975262E-02 
640	 5.99369397053095E-02 
641	 6.15926782327495E-02 
642	 6.32510670525872E-02 
643	 6.48968501998482E-02 
644	 6.65410183785838E-02 
645	 6.81880430969545E-02 
646	 6.98639560683107E-02 
647	 7.15794072017473E-02 
648	 7.33191165975729E-02 
649	 7.50151380854629E-02 
650	 7.67265795563111E-02 
651	 7.85191711817406E-02 
652	 8.03124506964165E-02 
653	 8.20702661177986E-02 
654	 0.083802749688354 
655	 0.0855580780136 
656	 8.73363563931149E-02 
657	 8.91513091344294E-02 
658	 9.09939945446627E-02 
659	 9.28117638363763E-02 
660	 9.46251495488948E-02 
661	 9.64175709304261E-02 
662	 9.81890443945019E-02 
663	 0.100103515508676 
664	 0.101996787254074 
665	 0.103802891207847 
666	 0.1055797898227 
667	 0.107429288073978 
668	 0.109320979476172 
669	 0.111202021183578 
670	 0.113047008439411 
671	 0.114906852972145 
672	 0.116800879908961 
673	 0.118727038703254 
674	 0.120624409025265 
675	 0.122495055278644 
676	 0.124363527866639 
677	 0.12627125780171 
678	 0.12826658144077 
679	 0.130219265963789 
680	 0.132056216590109 
681	 0.134010374094033 
682	 0.136013024421147 
683	 0.138002268607063 
684	 0.139935742958512 
685	 0.141874610454893 
686	 0.143847489164996 
687	 0.145862388401914 
688	 0.147914794608195 
689	 0.149870788908663 
690	 0.151813550933197 
691	 0.153825993725539 
692	 0.155760467047585 
693	 0.157757042506535 
694	 0.159832495066112 
695	 0.161913568185083 
696	 0.163951950559547 
697	 0.165910130011704 
698	 0.167809684483973 
699	 0.169758113490078 
700	 0.171749110994401 
701	 0.17376742873045 
702	 0.175778398604549 
703	 0.177706795783396 
704	 0.179655864475037 
705	 0.181624845483996 
706	 0.18354580897215 
707	 0.185540745028101 
708	 0.187499152255685 
709	 0.189385783172299 
710	 0.191340869693931 
711	 0.193257105903645 
712	 0.195150286279122 
713	 0.197067063446722 
714	 0.199021642376801 
715	 0.20095342304474 
716	 0.202856963645716 
717	 0.204762266615703 
718	 0.206631492607054 
719	 0.208542640113183 
720	 0.210498443110225 
721	 0.212342825164445 
722	 0.21424548957111 
723	 0.216194436403387 
724	 0.218142617787993 
725	 0.220154633637186 
726	 0.222004799058111 
727	 0.223807496599896 
728	 0.225870755435912 
729	 0.227761662032196 
730	 0.229631422405807 
731	 0.231592463073995 
732	 0.23355973596297 
733	 0.23560700726614 
734	 0.237619795061355 
735	 0.239504451155923 
736	 0.241457183840555 
737	 0.243446044129696 
738	 0.245482714805795 
739	 0.247581251753715 
740	 0.249551321855361 
741	 0.251531370140237 
742	 0.253554688476042 
743	 0.255437785300597 
744	 0.257586217629428 
745	 0.259725566782737 
746	 0.261592641120762 
747	 0.2636228257573 
748	 0.265654142154457 
749	 0.267701616053202 
750	 0.269843771448003 
751	 0.271857431322934 
752	 0.273789433567368 
753	 0.275727372160872 
754	 0.277769846771643 
755	 0.27985045463749 
756	 0.281922463608975 
757	 0.283954629802431 
758	 0.285934895131506 
759	 0.287911701147552 
760	 0.289860684438285 
761	 0.291766805359597 
762	 0.293934572391393 
763	 0.296048073448718 
764	 0.297972624956449 
765	 0.29983756870138 
766	 0.301797060217371 
767	 0.303811408509044 
768	 0.305813154916406 
769	 0.307773279061601 
770	 0.309643341592264 
771	 0.311514656485913 
772	 0.313501348845606 
773	 0.315563574348565 
774	 0.317531878721674 
775	 0.319374388361189 
776	 0.3211978330421 
777	 0.323155170803249 
778	 0.325113794402392 
779	 0.32701288367504 
780	 0.328987681659728 
781	 0.330812020988481 
782	 0.3326132338382 
783	 0.334528103753632 
784	 0.336352123406433 
785	 0.338144267122815 
786	 0.339981685898494 
787	 0.341921467651644 
788	 0.343852746529495 
789	 0.345652064703313 
790	 0.347289030553149 
791	 0.348861572167715 
792	 0.350779995980332 
793	 0.352684564008914 
794	 0.354344195987395 
795	 0.356283399025285 
796	 0.358054752201586 
797	 0.359743901426389 
798	 0.361528857269437 
799	 0.36300109222738 
800	 0.364654317982561 
801	 0.366540614747811 
802	 0.368339283776444 
803	 0.37000472033745 
804	 0.371664342913045 
805	 0.373377680612551 
806	 0.375059055550125 
807	 0.376651688121763 
808	 0.378278698424229 
809	 0.380005617847202 
810	 0.381578504785193 
811	 0.383130077928623 
812	 0.38481616400832 
813	 0.38670478099496 
814	 0.388338968556067 
815	 0.389857294234007 
816	 0.391327887511387 
817	 0.39274268447754 
818	 0.394379397458299 
819	 0.396138514019693 
820	 0.397852148191001 
821	 0.399357725993653 
822	 0.400812448127522 
823	 0.402366434427783 
824	 0.404035699688149 
825	 0.405404389735363 
826	 0.407101694510229 
827	 0.408905779381285 
828	 0.410296722236144 
829	 0.41153407665263 
830	 0.413153919559103 
831	 0.41499249035141 
832	 0.416325562585655 
833	 0.41756446569024 
834	 0.418994379346096 
835	 0.420690807612538 
836	 0.422442187757471 
837	 0.423840664479242 
838	 0.42516441647736 
839	 0.426657146164202 
840	 0.427916003915088 
841	 0.429192922383788 
842	 0.430601082445284 
843	 0.432126465031716 
844	 0.433418987522253 
845	 0.434950192928132 
846	 0.436484826031855 
847	 0.437400342147564 
848	 0.438609494750494 
849	 0.440091224205133 
850	 0.441518287354755 
851	 0.442385097415258 
852	 0.443719887727791 
853	 0.445166576980114 
854	 0.446365218937334 
855	 0.447571085539845 
856	 0.44886426027508 
857	 0.450076296804687 
858	 0.451078607230987 
859	 0.452169783688416 
860	 0.453473437606667 
861	 0.454868130189589 
862	 0.456099855415175 
863	 0.456992910862973 
864	 0.458123080841621 
865	 0.4594116000593 
866	 0.460278127710133 
867	 0.46154754051626 
868	 0.462982616684009 
869	 0.464207253244695 
870	 0.464906404898375 
871	 0.465833794112626 
872	 0.467026228225082 
873	 0.468300205589241 
874	 0.469392313319205 
875	 0.470487510833446 
876	 0.471472702326876 
877	 0.4723166042778 
878	 0.473592444930005 
879	 0.474870716851207 
880	 0.47593117921436 
881	 0.476763466223403 
882	 0.477829997831857 
883	 0.478588383725563 
884	 0.479241297186101 
885	 0.480465850249681 
886	 0.481527288867593 
887	 0.482532422704862 
888	 0.48349060531818 
889	 0.484218699271375 
890	 0.485052237860803 
891	 0.485982775309326 
892	 0.486963387015297 
893	 0.4879969967255 
894	 0.488881252318139 
895	 0.489668115060623 
896	 0.490432024058646 
897	 0.491088910545308 
898	 0.49197001438911 
899	 0.492806867164231 
900	 0.493322672165772 
901	 0.494020998426698 
902	 0.494791984008784 
903	 0.495576211442623 
904	 0.496342750754819 
905	 0.497087972727013 
906	 0.497782521824262 
907	 0.498395143610125 
908	 0.498923589959685 
909	 0.499517546700317 
910	 0.500423789482148 
911	 0.501358667538724 
912	 0.501650853734359 
913	 0.502398431436331 
914	 0.50327373228371 
915	 0.50396390192094 
916	 0.504491259969213 
917	 0.504802523337527 
918	 0.505532066995957 
919	 0.506818519925876 
920	 0.507688414028481 
921	 0.508415564186746 
922	 0.509167192908775 
923	 0.5100146416382 
924	 0.510834032667147 
925	 0.51151083691791 
926	 0.512116021008476 
927	 0.512775417785288 
928	 0.513548137468699 
929	 0.514323064806471 
930	 0.515079764197384 
931	 0.515919513897085 
932	 0.517281252593043 
933	 0.518483237407472 
934	 0.519506634558078 
935	 0.520590274856098 
936	 0.5210503209493 
937	 0.521672252222067 
938	 0.52272318249456 
939	 0.523965104509194 
940	 0.52496119031383 
941	 0.525769370630885 
942	 0.526558592416967 
943	 0.527495004604927 
944	 0.528258982642492 
945	 0.528953079059111 
946	 0.529664344375877 
947	 0.530422051923247 
948	 0.531467878764958 
949	 0.532401531000426 
950	 0.533014769975725 
951	 0.533491211333015 
952	 0.534227886444308 
953	 0.53480650064451 
954	 0.535097983959612 
955	 0.5356060253452 
956	 0.536202604060614 
957	 0.537143870790334 
958	 0.538147179573517 
959	 0.537995252142227 
960	 0.537545504185125 
961	 0.537555795860584 
962	 0.538160661510529 
963	 0.538367508395654 
964	 0.538904639056781 
965	 0.539530267030553 
966	 0.539947090383009 
967	 0.540298640651342 
968	 0.540819674226286 
969	 0.54117008617479 
970	 0.541185924996918 
971	 0.541559321070594 
972	 0.54184216041116 
973	 0.542043307522938 
974	 0.542256993778158 
975	 0.542398804061788 
976	 0.542839859080461 
977	 0.543314453884956 
978	 0.54358548331113 
979	 0.544171929267683 
980	 0.544725212420541 
981	 0.544931270257459 
982	 0.544775469330174 
983	 0.545066579466382 
984	 0.545519465747331 
985	 0.546029711541956 
986	 0.546529294691536 
987	 0.546895073220566 
988	 0.547498904035805 
989	 0.547882787325967 
990	 0.54775380678177 
991	 0.54840851093592 
992	 0.548658532910651 
993	 0.54880336877778 
994	 0.549450419106434 
995	 0.550300259221576 
996	 0.55106877190159 
997	 0.551561003224876 
998	 0.551727415613241 
999	 0.551733558667598 
1000	 0.552011077298287 
1001	 0.562074581037854 
1002	 0.562415917212851 
1003	 0.562816898177027 
1004	 0.563247351485749 
1005	 0.563720013594153 
1006	 0.564148980725042 
1007	 0.564566862716846 
1008	 0.56503064702231 
1009	 0.565499649046657 
1010	 0.565965591101808 
1011	 0.566518169681579 
1012	 0.566984695758451 
1013	 0.567291292504396 
1014	 0.567759841913845 
1015	 0.568309225533853 
1016	 0.568868277165523 
1017	 0.569391270934062 
1018	 0.56985533169714 
1019	 0.570223055449864 
1020	 0.570566688529806 
1021	 0.570951783255199 
1022	 0.571421725736836 
1023	 0.571802365895856 
1024	 0.572130139913965 
1025	 0.572461736016924 
1026	 0.572793296245314 
1027	 0.573079395861695 
1028	 0.573345876671656 
1029	 0.573599471735762 
1030	 0.573744574388912 
1031	 0.573829246366434 
1032	 0.573987334980181 
1033	 0.574165436365373 
1034	 0.574341708549022 
1035	 0.574521374727139 
1036	 0.574671666957395 
1037	 0.574725577630513 
1038	 0.574862805057606 
1039	 0.575099249020208 
1040	 0.575239591102039 
1041	 0.57535285886664 
1042	 0.575457452419741 
1043	 0.575551407340274 
1044	 0.575527782793563 
1045	 0.575563481053777 
1046	 0.575633173760583 
1047	 0.575616303789775 
1048	 0.57565293777592 
1049	 0.575706322319847 
1050	 0.575685879928155 
1051	 0.575710427462141 
1052	 0.575799343642663 
1053	 0.575915140911245 
1054	 0.576080165367628 
1055	 0.576244456076122 
1056	 0.576430140327565 
1057	 0.576635412151025 
1058	 0.576828805673407 
1059	 0.577053504053868 
1060	 0.577423334749973 
1061	 0.577833723866711 
1062	 0.578249645323904 
1063	 0.578737826828082 
1064	 0.579210496499334 
1065	 0.579667328225947 
1066	 0.580141443854514 
1067	 0.580704234308723 
1068	 0.581422230299459 
1069	 0.582161395791547 
1070	 0.582908427376366 
1071	 0.583743560976398 
1072	 0.584576310110978 
1073	 0.585240094984534 
1074	 0.586023606553497 
1075	 0.586936501690375 
1076	 0.587829865520836 
1077	 0.588866355658758 
1078	 0.58989310173629 
1079	 0.590836637587583 
1080	 0.591829328544801 
1081	 0.592796720845432 
1082	 0.593731252659427 
1083	 0.594739176269229 
1084	 0.595777646858404 
1085	 0.596782883128268 
1086	 0.597744258424971 
1087	 0.598695482971576 
1088	 0.599610858974179 
1089	 0.60051027601417 
1090	 0.601406334814999 
1091	 0.60229090301986 
1092	 0.603089372243582 
1093	 0.603817810064015 
1094	 0.604510596928983 
1095	 0.605152383314431 
1096	 0.605792558451056 
1097	 0.606347519610124 
1098	 0.606811327451832 
1099	 0.60728071182003 
1100	 0.607683178051981 
1101	 0.608016611847575 
1102	 0.608352610971748 
1103	 0.608591770817708 
1104	 0.60876102101217 
1105	 0.608829538226542 
1106	 0.608881187931075 
1107	 0.608862012153956 
1108	 0.608788365786487 
1109	 0.608703480524164 
1110	 0.608539345619422 
1111	 0.608316488966348 
1112	 0.608056885010641 
1113	 0.607706605911273 
1114	 0.607379133205942 
1115	 0.607058514220656 
1116	 0.606616542122306 
1117	 0.60616617492964 
1118	 0.605671950170312 
1119	 0.605095990638656 
1120	 0.604496025334735 
1121	 0.603855314187868 
1122	 0.603245158891193 
1123	 0.602634946031351 
1124	 0.602030827428258 
1125	 0.601413128833893 
1126	 0.600786022604131 
1127	 0.600069856611342 
1128	 0.599274363989886 
1129	 0.598504598909348 
1130	 0.597684788858639 
1131	 0.596798289854217 
1132	 0.595922025013371 
1133	 0.595043765285539 
1134	 0.594133999133401 
1135	 0.593212242099962 
1136	 0.59228004871701 
1137	 0.591357501386425 
1138	 0.590424537269738 
1139	 0.589469726294068 
1140	 0.588509416669609 
1141	 0.587586956005676 
1142	 0.586564728344064 
1143	 0.585532400254453 
1144	 0.584497849435274 
1145	 0.583325463024278 
1146	 0.582194087116495 
1147	 0.58107060576434 
1148	 0.57991356468359 
1149	 0.57887006482703 
1150	 0.577839319188643 
1151	 0.576749067462322 
1152	 0.575587107569138 
1153	 0.574360461569418 
1154	 0.573138039854526 
1155	 0.571835732683497 
1156	 0.570560728937783 
1157	 0.56933612408365 
1158	 0.568065221795526 
1159	 0.566732666917888 
1160	 0.565440095883916 
1161	 0.564151163110133 
1162	 0.562760268271762 
1163	 0.56144122183614 
1164	 0.560096969987038 
1165	 0.558754616641434 
1166	 0.557565618016797 
1167	 0.556349015464861 
1168	 0.555159431301745 
1169	 0.553964361010694 
1170	 0.552757993305908 
1171	 0.551563472694755 
1172	 0.5504159131531 
1173	 0.549196537447465 
1174	 0.547951718111548 
1175	 0.546733160187847 
1176	 0.545513442599812 
1177	 0.544235751020516 
1178	 0.542976914282728 
1179	 0.541624593524735 
1180	 0.540239093345345 
1181	 0.538805761130968 
1182	 0.537376828834452 
1183	 0.536072712284403 
1184	 0.534733940865176 
1185	 0.533427640047989 
1186	 0.532239384061978 
1187	 0.531112097164058 
1188	 0.530057186208128 
1189	 0.529109419493512 
1190	 0.528194041942455 
1191	 0.527317483940085 
1192	 0.526531743641933 
1193	 0.525835673515193 
1194	 0.525169335734022 
1195	 0.524563882205768 
1196	 0.524000284020275 
1197	 0.523474388744923 
1198	 0.523013108291576 
1199	 0.522540322135804 
1200	 0.522119084252343 
1201	 0.521769000301676 
1202	 0.521439707887947 
1203	 0.521220542436789 
1204	 0.521137501142376 
1205	 0.521182033003713 
1206	 0.521303981159865 
1207	 0.52162144590543 
1208	 0.522085189803727 
1209	 0.522718844591849 
1210	 0.523443898693139 
1211	 0.524457966959971 
1212	 0.525701019124954 
1213	 0.527137969407428 
1214	 0.528829444181435 
1215	 0.530688535578197 
1216	 0.532784361913217 
1217	 0.534941048839268 
1218	 0.537303354255414 
1219	 0.539726370248504 
1220	 0.542157110451087 
1221	 0.544786506088368 
1222	 0.547337780298693 
1223	 0.54992346914018 
1224	 0.552398871515576 
1225	 0.554839495899859 
1226	 0.557144774043486 
1227	 0.55936825354539 
1228	 0.561507739286593 
1229	 0.563559686425887 
1230	 0.565527701394345 
1231	 0.56746300145232 
1232	 0.569226330668564 
1233	 0.570817292264299 
1234	 0.572354814980302 
1235	 0.57374156779493 
1236	 0.575113514640145 
1237	 0.576466215285429 
1238	 0.577727562278504 
1239	 0.578904137644228 
1240	 0.580036007848214 
1241	 0.581121218896206 
1242	 0.582029117426489 
1243	 0.582946534935221 
1244	 0.583805457331033 
1245	 0.584623156422144 
1246	 0.585388662856105 
1247	 0.586122460989398 
1248	 0.586827024428126 
1249	 0.587455291501465 
1250	 0.58802270424862 
1251	 0.588548729242096 
1252	 0.589017609234667 
1253	 0.589432057183389 
1254	 0.589813668395116 
1255	 0.590123809326303 
1256	 0.590332477240439 
1257	 0.590547912950016 
1258	 0.590735021904118 
1259	 0.590875288164562 
1260	 0.590964382469895 
1261	 0.591057346647847 
1262	 0.591098729294586 
1263	 0.591146565153032 
1264	 0.591212064671987 
1265	 0.591293720473059 
1266	 0.591372520743778 
1267	 0.591450065370788 
1268	 0.591539771454605 
1269	 0.591659374083275 
1270	 0.591732639015389 
1271	 0.591785173596394 
1272	 0.591851231078859 
1273	 0.591883154441715 
1274	 0.591952026192833 
1275	 0.592054271955178 
1276	 0.592144674981005 
1277	 0.592208003992298 
1278	 0.592331925026224 
1279	 0.592477553277802 
1280	 0.592650865323129 
1281	 0.592872626531103 
1282	 0.593111424551937 
1283	 0.593384417663575 
1284	 0.593652814325203 
1285	 0.593932390928992 
1286	 0.59422401969991 
1287	 0.594557697803214 
1288	 0.594886488041051 
1289	 0.595288970707916 
1290	 0.595753906861515 
1291	 0.596239381219597 
1292	 0.596770280714201 
1293	 0.597308642475164 
1294	 0.597840217279716 
1295	 0.598478284784845 
1296	 0.599160912634411 
1297	 0.599901622738921 
1298	 0.60076756840561 
1299	 0.601600087409287 
1300	 0.602475069082877 
1301	 0.603314681073043 
1302	 0.60415328121867 
1303	 0.604982037714334 
1304	 0.605778161060271 
1305	 0.606586651824512 
1306	 0.607449857429444 
1307	 0.608228342631197 
1308	 0.608964593051353 
1309	 0.609672731923738 
1310	 0.610348886414631 
1311	 0.610967543723059 
1312	 0.611554631560234 
1313	 0.6121519304704 
1314	 0.612620315052416 
1315	 0.612993898370826 
1316	 0.613339109677521 
1317	 0.613621724803362 
1318	 0.61384654671584 
1319	 0.614066066744616 
1320	 0.61413357501097 
1321	 0.614102554560909 
1322	 0.613991291593597 
1323	 0.613755808326128 
1324	 0.613484510565643 
1325	 0.61316628430713 
1326	 0.612760240104155 
1327	 0.612323942872833 
1328	 0.611749913369713 
1329	 0.611075103131243 
1330	 0.610315281478815 
1331	 0.609453984003851 
1332	 0.608506103217347 
1333	 0.607500368500617 
1334	 0.60635943258045 
1335	 0.605204316318409 
1336	 0.603969014422861 
1337	 0.602701963724531 
1338	 0.601425571261427 
1339	 0.600026136859005 
1340	 0.598567055176726 
1341	 0.59700547193654 
1342	 0.595324439816749 
1343	 0.593646151828543 
1344	 0.59191865490969 
1345	 0.590131470489827 
1346	 0.588304184894755 
1347	 0.586448781501125 
1348	 0.584531204850372 
1349	 0.58259337560734 
1350	 0.580614571131213 
1351	 0.578641214866959 
1352	 0.576618986235401 
1353	 0.574618573482042 
1354	 0.572594158723255 
1355	 0.570642553560008 
1356	 0.56872318509312 
1357	 0.566810259128422 
1358	 0.56492828259121 
1359	 0.563075671543169 
1360	 0.561233506230067 
1361	 0.55940103927755 
1362	 0.557601709758954 
1363	 0.555923617976645 
1364	 0.554188985530557 
1365	 0.55248213831151 
1366	 0.550738026414821 
1367	 0.548993770188979 
1368	 0.547204354835292 
1369	 0.545420705074476 
1370	 0.543531871661486 
1371	 0.541562527721728 
1372	 0.539621634242781 
1373	 0.537653413819574 
1374	 0.535615694875549 
1375	 0.533581998770359 
1376	 0.531435397917345 
1377	 0.529178735513051 
1378	 0.526860746818793 
1379	 0.524440318230973 
1380	 0.522035224616559 
1381	 0.519550840143677 
1382	 0.517081591919304 
1383	 0.514564148466235 
1384	 0.512131415152808 
1385	 0.509702339668551 
1386	 0.507339584975419 
1387	 0.505031817877638 
1388	 0.502827615325404 
1389	 0.500681039434591 
1390	 0.498597878486257 
1391	 0.496690756427663 
1392	 0.494683462694561 
1393	 0.492773298778433 
1394	 0.490809471435601 
1395	 0.488758922108978 
1396	 0.48673611874626 
1397	 0.484464119310026 
1398	 0.482145422935346 
1399	 0.479452515234347 
1400	 0.476519731524091 
1401	 0.473379183518395 
1402	 0.469988286585654 
1403	 0.466343168916051 
1404	 0.462442363479148 
1405	 0.458454607729167 
1406	 0.454139165302627 
1407	 0.449894439907196 
1408	 0.445472459791657 
1409	 0.441243945026946 
1410	 0.43688480201052 
1411	 0.43287799828757 
1412	 0.428993104474872 
1413	 0.425472557867213 
1414	 0.422243932519384 
1415	 0.419210369868363 
1416	 0.416511324649342 
1417	 0.413911369885974 
1418	 0.411551215467936 
1419	 0.40921756859252 
1420	 0.407038803037533 
1421	 0.40491453221986 
1422	 0.402827351535171 
1423	 0.400831686650487 
1424	 0.398960684979351 
1425	 0.397074194369971 
1426	 0.395355796814886 
1427	 0.393729749324099 
1428	 0.392244151661862 
1429	 0.390982586185214 
1430	 0.389803793807418 
1431	 0.388763247972646 
1432	 0.387838505565495 
1433	 0.387029585131191 
1434	 0.3863616577905 
1435	 0.385841868369912 
1436	 0.385395116053341 
1437	 0.385070865455333 
1438	 0.384845628579769 
1439	 0.384730327567368 
1440	 0.384672927401191 
1441	 0.384731501268009 
1442	 0.384833462775254 
1443	 0.384976436220974 
1444	 0.385216004068483 
1445	 0.385568015805389 
1446	 0.385930276637126 
1447	 0.386349921620986 
1448	 0.386815407715216 
1449	 0.38734094358277 
1450	 0.387874348365397 
1451	 0.388478195903506 
1452	 0.389053579068015 
1453	 0.389624024075322 
1454	 0.390195722403769 
1455	 0.390792488991742 
1456	 0.391346367990724 
1457	 0.391853753067808 
1458	 0.392402880512669 
1459	 0.392930946141099 
1460	 0.393493454822861 
1461	 0.394121161210668 
1462	 0.394716129944436 
1463	 0.395284612951854 
1464	 0.39588582990158 
1465	 0.396469313917545 
1466	 0.397115521235119 
1467	 0.397760904901619 
1468	 0.398417453375806 
1469	 0.39913677240206 
1470	 0.399811454642774 
1471	 0.400503633468618 
1472	 0.401231016129088 
1473	 0.401918868760194 
1474	 0.402581300676232 
1475	 0.403244414036069 
1476	 0.403909856645977 
1477	 0.404547446854918 
1478	 0.405161349233305 
1479	 0.405771258713795 
1480	 0.406358930328772 
1481	 0.406964523723163 
1482	 0.407582606723928 
1483	 0.408170310241482 
1484	 0.408763944729351 
1485	 0.409319044930386 
1486	 0.409835440723682 
1487	 0.410346693785065 
1488	 0.41083701758261 
1489	 0.411323655877423 
1490	 0.41178059099757 
1491	 0.412271962232384 
1492	 0.412744571015886 
1493	 0.41328258084472 
1494	 0.413882392102956 
1495	 0.414452735020428 
1496	 0.415055370283056 
1497	 0.415638791429965 
1498	 0.416189664181158 
1499	 0.416769310154104 
1500	 0.417375310593191 
1501	 0.417966716555829 
1502	 0.418559051002199 
1503	 0.419145644742601 
1504	 0.419718396213515 
1505	 0.420300620729916 
1506	 0.420875535602673 
1507	 0.421474137415208 
1508	 0.422101169772445 
1509	 0.42270988776041 
1510	 0.423334506447989 
1511	 0.423936638591655 
1512	 0.424488710050921 
1513	 0.425083899539522 
1514	 0.425728187712695 
1515	 0.426321015521446 
1516	 0.426916866205221 
1517	 0.427492538278404 
1518	 0.428030644670199 
1519	 0.428540956749515 
1520	 0.429048587717914 
1521	 0.429513113857932 
1522	 0.429944035971048 
1523	 0.430397881219397 
1524	 0.430864213913512 
1525	 0.431357955287802 
1526	 0.43181047477176 
1527	 0.432253319264869 
1528	 0.432697357327781 
1529	 0.433127287288354 
1530	 0.433544079061875 
1531	 0.433964257328947 
1532	 0.434369715365882 
1533	 0.434733515359068 
1534	 0.435152490228795 
1535	 0.435610103291085 
1536	 0.436015560500319 
1537	 0.43642024630252 
1538	 0.436814953103816 
1539	 0.437180583730016 
1540	 0.437544166568842 
1541	 0.437928392116255 
1542	 0.438260116853377 
1543	 0.438551342987125 
1544	 0.438836990199056 
1545	 0.439107587040946 
1546	 0.439351511163605 
1547	 0.439578825056936 
1548	 0.43977526959117 
1549	 0.439939297833231 
1550	 0.440091467131186 
1551	 0.440234947384638 
1552	 0.440325854967232 
1553	 0.440387729395177 
1554	 0.440417588913437 
1555	 0.440374722298322 
1556	 0.440372495220013 
1557	 0.440351880800647 
1558	 0.44036471767212 
1559	 0.440382040052969 
1560	 0.440444134742651 
1561	 0.440509016068468 
1562	 0.440655779162738 
1563	 0.440880941656539 
1564	 0.441100405199537 
1565	 0.441398851968061 
1566	 0.44164011463575 
1567	 0.441865131581777 
1568	 0.44208278265847 
1569	 0.442266437307287 
1570	 0.442482794938108 
1571	 0.442689851670717 
1572	 0.442936902925119 
1573	 0.443209431102061 
1574	 0.443505699780911 
1575	 0.443838831003425 
1576	 0.444174385419381 
1577	 0.444541291545328 
1578	 0.444892481127175 
1579	 0.445277324894069 
1580	 0.445594738480512 
1581	 0.445865792503445 
1582	 0.446146440154424 
1583	 0.446368045420818 
1584	 0.446636313658258 
1585	 0.446922148212137 
1586	 0.447233564512398 
1587	 0.447571955714023 
1588	 0.447913323694939 
1589	 0.448296743941777 
1590	 0.448648099991555 
1591	 0.448994771595745 
1592	 0.449325006832305 
1593	 0.449635479863841 
1594	 0.449942883882737 
1595	 0.450223595243832 
1596	 0.450528021738977 
1597	 0.450852244780699 
1598	 0.451152056787327 
1599	 0.451453895280915 
1600	 0.451745840192312 
1601	 0.452025177171672 
1602	 0.452288277325824 
1603	 0.452553421348053 
1604	 0.452793829211259 
1605	 0.452982742578756 
1606	 0.45319871193143 
1607	 0.453429813925288 
1608	 0.453637959474951 
1609	 0.453883005492908 
1610	 0.454054242767427 
1611	 0.454158254471207 
1612	 0.454265828829951 
1613	 0.45432344537169 
1614	 0.45439391729475 
1615	 0.454478204664818 
1616	 0.454540993777658 
1617	 0.454599941868668 
1618	 0.45463259336545 
1619	 0.454644303511333 
1620	 0.454639844119227 
1621	 0.454622613163801 
1622	 0.454570583029455 
1623	 0.454500769963219 
1624	 0.454397899871268 
1625	 0.454246478138784 
1626	 0.45409576627898 
1627	 0.45390253635934 
1628	 0.45373426112495 
1629	 0.453576593081911 
1630	 0.45341001894534 
1631	 0.453242584041065 
1632	 0.453089634269123 
1633	 0.452972268762145 
1634	 0.452787287159369 
1635	 0.452586558193843 
1636	 0.452368614112755 
1637	 0.452077772811698 
1638	 0.451811201986661 
1639	 0.451585639354916 
1640	 0.451295836613581 
1641	 0.450975489966538 
1642	 0.450629693102435 
1643	 0.450247350959421 
1644	 0.449833963512842 
1645	 0.449408783917137 
1646	 0.448932088687818 
1647	 0.448418690833437 
1648	 0.447842451261182 
1649	 0.447212205950529 
1650	 0.446540075840863 
1651	 0.445820377719566 
1652	 0.445048457114602 
1653	 0.444217282166325 
1654	 0.443359610804038 
1655	 0.442451503551112 
1656	 0.441501050737859 
1657	 0.44054379215708 
1658	 0.439488711768464 
1659	 0.43836982700362 
1660	 0.437190885543816 
1661	 0.435981414475453 
1662	 0.434623154502752 
1663	 0.433156493225312 
1664	 0.431583489559843 
1665	 0.429893336342244 
1666	 0.428070785517641 
1667	 0.426170293684933 
1668	 0.424129030330904 
1669	 0.421950497615859 
1670	 0.419620369638593 
1671	 0.417143569381932 
1672	 0.414524584812244 
1673	 0.411751297219834 
1674	 0.408831592068594 
1675	 0.405765317734465 
1676	 0.402635106741622 
1677	 0.399394151048591 
1678	 0.396006333386656 
1679	 0.392490139154622 
1680	 0.388864070354519 
1681	 0.385062956268927 
1682	 0.381183634269506 
1683	 0.377160181884253 
1684	 0.373244469686936 
1685	 0.369272225827246 
1686	 0.365311445740811 
1687	 0.361380076576384 
1688	 0.357410347264771 
1689	 0.353352460333462 
1690	 0.34938360459627 
1691	 0.345496049617848 
1692	 0.34166607417612 
1693	 0.337922246137731 
1694	 0.334087048393121 
1695	 0.330226760709333 
1696	 0.326357888242948 
1697	 0.322453284939932 
1698	 0.31848975238162 
1699	 0.314555019893461 
1700	 0.310632553612604 
1701	 0.306570440397109 
1702	 0.302724129997816 
1703	 0.298896272037348 
1704	 0.295285753263105 
1705	 0.291806505866838 
1706	 0.288369263565033 
1707	 0.285374059311351 
1708	 0.282496753644673 
1709	 0.279813509969451 
1710	 0.277446757378422 
1711	 0.275094866252182 
1712	 0.272948226880613 
1713	 0.270866595999042 
1714	 0.268804084133314 
1715	 0.267001145097652 
1716	 0.265157773897486 
1717	 0.263399777494879 
1718	 0.261796481770735 
1719	 0.260173028479217 
1720	 0.258773928505536 
1721	 0.257524574578862 
1722	 0.256375192258074 
1723	 0.25554034917225 
1724	 0.254875151985276 
1725	 0.254440128032464 
1726	 0.254402559580473 
1727	 0.254707479865572 
1728	 0.25537166408352 
1729	 0.256473908504874 
1730	 0.257971392819407 
1731	 0.259678623897207 
1732	 0.261706211296151 
1733	 0.263884275379557 
1734	 0.266207459178042 
1735	 0.268683464297903 
1736	 0.271047249268457 
1737	 0.273293085318606 
1738	 0.275294826222165 
1739	 0.276924754851594 
1740	 0.278291835191947 
1741	 0.27935592316803 
1742	 0.280065820126916 
1743	 0.280576906909387 
1744	 0.280784005469172 
1745	 0.280801835538587 
1746	 0.280501607718832 
1747	 0.280157895526127 
1748	 0.279586243282353 
1749	 0.279089078405086 
1750	 0.27847899979765 
1751	 0.278024285680698 
1752	 0.277579267122879 
1753	 0.277249172424336 
1754	 0.277020086188627 
1755	 0.276921196336718 
1756	 0.276886486285067 
1757	 0.277066624072692 
1758	 0.27738331515557 
1759	 0.277882683615444 
1760	 0.278626405647907 
1761	 0.279640527705404 
1762	 0.280846781099496 
1763	 0.2823867224412 
1764	 0.284171327200528 
1765	 0.286157751144783 
1766	 0.288437573216051 
1767	 0.29073343699448 
1768	 0.29310395114274 
1769	 0.295560156039636 
1770	 0.297877592928037 
1771	 0.300203867887235 
1772	 0.302448537577343 
1773	 0.304530025160214 
1774	 0.306572026122421 
1775	 0.308413960040515 
1776	 0.310174483856014 
1777	 0.311831038337331 
1778	 0.313220310233424 
1779	 0.314532085118298 
1780	 0.31569814191212 
1781	 0.316712845647668 
1782	 0.317713976135597 
1783	 0.318579297855114 
1784	 0.319388770798949 
1785	 0.320093901253416 
1786	 0.320742501124769 
1787	 0.321366475169843 
1788	 0.321892998830442 
1789	 0.322331628157286 
1790	 0.322700810127821 
1791	 0.322977637291775 
1792	 0.323209502087173 
1793	 0.323337098611909 
1794	 0.323490046007111 
1795	 0.323622756540414 
1796	 0.323804916045696 
1797	 0.324054824655164 
1798	 0.324328226579583 
1799	 0.324692539818999 
1800	 0.325121198984847 
1801	 0.327619618011464 
1802	 0.32812346651299 
1803	 0.328591051916161 
1804	 0.329024092138845 
1805	 0.329507318210557 
1806	 0.32992666380118 
1807	 0.330316346449121 
1808	 0.330707508973278 
1809	 0.33105352917294 
1810	 0.331424621974715 
1811	 0.331793330688712 
1812	 0.33218565131191 
1813	 0.332583004281143 
1814	 0.333016215048231 
1815	 0.333425726147939 
1816	 0.333854712242469 
1817	 0.334292760253394 
1818	 0.334723402636613 
1819	 0.335172716055621 
1820	 0.335648606745379 
1821	 0.336117732950034 
1822	 0.336563484941112 
1823	 0.337071105041783 
1824	 0.337609896693969 
1825	 0.338101229098942 
1826	 0.33857203970265 
1827	 0.339045887102716 
1828	 0.339480203920927 
1829	 0.339839596470067 
1830	 0.340269479604076 
1831	 0.340715349974948 
1832	 0.341165188847162 
1833	 0.3416171907743 
1834	 0.342082674164604 
1835	 0.342570113220734 
1836	 0.343007600246735 
1837	 0.34346519012334 
1838	 0.343955712554393 
1839	 0.344411999140799 
1840	 0.344845185927476 
1841	 0.345283184196561 
1842	 0.345717845512819 
1843	 0.346132675405824 
1844	 0.346574108235254 
1845	 0.346973232879658 
1846	 0.347376784110032 
1847	 0.347784877033883 
1848	 0.348119844630303 
1849	 0.348429172404423 
1850	 0.348675336749793 
1851	 0.348870693785107 
1852	 0.349005585180834 
1853	 0.349104263300046 
1854	 0.349161014796542 
1855	 0.349251018351661 
1856	 0.349277696709697 
1857	 0.34922519929145 
1858	 0.349167404579376 
1859	 0.348998444202331 
1860	 0.348734584291355 
1861	 0.348387016574447 
1862	 0.34797369520372 
1863	 0.347480538638731 
1864	 0.346824427798215 
1865	 0.346131833360494 
1866	 0.345381709841586 
1867	 0.344468650965785 
1868	 0.343554013345982 
1869	 0.342517011111504 
1870	 0.341329209103881 
1871	 0.340013491493207 
1872	 0.338637050196867 
1873	 0.337136526213865 
1874	 0.335584030158985 
1875	 0.333978698497363 
1876	 0.332106129110976 
1877	 0.330163267771417 
1878	 0.327965585193913 
1879	 0.32553504125707 
1880	 0.323110769853642 
1881	 0.320384221828049 
1882	 0.317398983745631 
1883	 0.314293798592088 
1884	 0.310930552511844 
1885	 0.307042294904677 
1886	 0.303052676991511 
1887	 0.298723956648515 
1888	 0.294030373186431 
1889	 0.289540932058994 
1890	 0.284784972819664 
1891	 0.279966321672372 
1892	 0.275213354306754 
1893	 0.270288171306799 
1894	 0.26512034330025 
1895	 0.260164668977492 
1896	 0.255150166932743 
1897	 0.250097230439113 
1898	 0.245480570647644 
1899	 0.240828064619666 
1900	 0.236310000562741 
1901	 0.232044820235849 
1902	 0.22763327428669 
1903	 0.223495340489897 
1904	 0.219538448359246 
1905	 0.215703173615898 
1906	 0.212025928525077 
1907	 0.208810490409112 
1908	 0.205662560202062 
1909	 0.202707789551911 
1910	 0.200006857554753 
1911	 0.197284553564361 
1912	 0.19477195392315 
1913	 0.192412356597867 
1914	 0.190157282220893 
1915	 0.188130867051524 
1916	 0.186356816048523 
1917	 0.18467643943819 
1918	 0.18310291672508 
1919	 0.18167149430903 
1920	 0.180242408037158 
1921	 0.178942597419381 
1922	 0.177764738871716 
1923	 0.176665442573679 
1924	 0.175762241310256 
1925	 0.174933494304322 
1926	 0.174203636889397 
1927	 0.173599742277581 
1928	 0.173056505920294 
1929	 0.172586884698385 
1930	 0.172220671274132 
1931	 0.171945847744782 
1932	 0.171750870471674 
1933	 0.17166322702507 
1934	 0.171661614540297 
1935	 0.171718202278788 
1936	 0.171848422443169 
1937	 0.172070207668153 
1938	 0.172387979703089 
1939	 0.172765861005014 
1940	 0.173241757541773 
1941	 0.173753703278963 
1942	 0.174275589536925 
1943	 0.174845079519161 
1944	 0.175427857546745 
1945	 0.176028547154758 
1946	 0.176727871085934 
1947	 0.177500305258025 
1948	 0.178317478269913 
1949	 0.179190055317627 
1950	 0.180051663159746 
1951	 0.180939794750471 
1952	 0.181821891665322 
1953	 0.182687836278374 
1954	 0.183597551064686 
1955	 0.184587799723972 
1956	 0.185501332901975 
1957	 0.186455334365748 
1958	 0.187459819526068 
1959	 0.188337251324487 
1960	 0.18924405247175 
1961	 0.1901472743324 
1962	 0.191016744270088 
1963	 0.191903207893282 
1964	 0.192801848780648 
1965	 0.193698838730205 
1966	 0.194604660691745 
1967	 0.19551695152931 
1968	 0.196386663830001 
1969	 0.197272745940434 
1970	 0.198126483290159 
1971	 0.198966536241303 
1972	 0.199881511923394 
1973	 0.200781575626655 
1974	 0.201683795021413 
1975	 0.202655950754025 
1976	 0.203533216882139 
1977	 0.204336615426473 
1978	 0.205177089259877 
1979	 0.206015768497438 
1980	 0.206791805742055 
1981	 0.207622825220498 
1982	 0.208435165176177 
1983	 0.209167010877835 
1984	 0.209909194516947 
1985	 0.210639354681663 
1986	 0.211335691001797 
1987	 0.212008802571524 
1988	 0.212658572255842 
1989	 0.213310777597333 
1990	 0.213927244801679 
1991	 0.214550172071479 
1992	 0.215194912518138 
1993	 0.215830401819881 
1994	 0.216385823208373 
1995	 0.216915263401957 
1996	 0.217403767028651 
1997	 0.217868310950918 
1998	 0.21833415385331 
1999	 0.218807986958019 
2000	 0.219209321305873 
2001	 0.219589715164671 
2002	 0.219926242610469 
2003	 0.220184393063469 
2004	 0.220457621908445 
2005	 0.220748224349733 
2006	 0.220957891525421 
2007	 0.22111109963562 
2008	 0.221266779919995 
2009	 0.221369512732388 
2010	 0.221399181964417 
2011	 0.221385503985635 
2012	 0.221293970576538 
2013	 0.221146556842618 
2014	 0.22090735991604 
2015	 0.220645545034225 
2016	 0.220353549118881 
2017	 0.219985773277134 
2018	 0.219542975972977 
2019	 0.219069081137231 
2020	 0.218544787897351 
2021	 0.217972041947951 
2022	 0.21734613829257 
2023	 0.216652240934972 
2024	 0.215877189429959 
2025	 0.215037974451053 
2026	 0.214149919504432 
2027	 0.213161383938747 
2028	 0.212221011224826 
2029	 0.211239472047162 
2030	 0.210271335797508 
2031	 0.209330280143395 
2032	 0.208365421520317 
2033	 0.207336546634272 
2034	 0.206384495875884 
2035	 0.205457343077512 
2036	 0.204521780201781 
2037	 0.203713397940536 
2038	 0.202943012547456 
2039	 0.202237194753439 
2040	 0.201615734512875 
2041	 0.20101920257478 
2042	 0.200472570813158 
2043	 0.199962470012343 
2044	 0.199483779403954 
2045	 0.199062463729612 
2046	 0.198718960078552 
2047	 0.198366859122301 
2048	 0.198022122708923 
2049	 0.197746161482829 
2050	 0.197510260766127 
2051	 0.197290400280463 
2052	 0.197144267461848 
2053	 0.19706593545433 
2054	 0.196959750995448 
2055	 0.196848527685105 
2056	 0.196792165469697 
2057	 0.196775946305821 
2058	 0.196744035547588 
2059	 0.196759403172042 
2060	 0.1967364670992 
2061	 0.196685634600725 
2062	 0.196641207094353 
2063	 0.196566462495225 
2064	 0.196541813426182 
2065	 0.196540903067854 
2066	 0.196560131223339 
2067	 0.196569663996677 
2068	 0.196544039004504 
2069	 0.196474501669873 
2070	 0.19633272347938 
2071	 0.196212697880273 
2072	 0.196069205838656 
2073	 0.195933133757042 
2074	 0.19578241987874 
2075	 0.195660287531977 
2076	 0.195567093562367 
2077	 0.195441357663573 
2078	 0.195313888740996 
2079	 0.195171657338157 
2080	 0.194988798641505 
2081	 0.194833879678111 
2082	 0.194700227310311 
2083	 0.194561936689902 
2084	 0.194408619901415 
2085	 0.194231921548699 
2086	 0.19405754886186 
2087	 0.193860896841529 
2088	 0.19367340249348 
2089	 0.193499832584103 
2090	 0.193306399344021 
2091	 0.193074219467332 
2092	 0.192886353689081 
2093	 0.19271465751171 
2094	 0.192540405473721 
2095	 0.192407902431403 
2096	 0.192248037986012 
2097	 0.192091264456513 
2098	 0.191883494224695 
2099	 0.191688821364173 
2100	 0.191480297019278 
2101	 0.191264480716242 
2102	 0.191039962554665 
2103	 0.190804534459131 
2104	 0.19055122589095 
2105	 0.190308530404168 
2106	 0.190080139637799 
2107	 0.189804819629829 
2108	 0.18950966513808 
2109	 0.189211574849732 
2110	 0.188878198327519 
2111	 0.18854624663135 
2112	 0.188209558522512 
2113	 0.187882559604798 
2114	 0.187551851196801 
2115	 0.187208867248928 
2116	 0.186865349903411 
2117	 0.186533407641624 
2118	 0.186191270798473 
2119	 0.185823221590107 
2120	 0.18549172382332 
2121	 0.185177416779972 
2122	 0.184859520098443 
2123	 0.184543746286155 
2124	 0.184242976968223 
2125	 0.183953605452169 
2126	 0.1836702394347 
2127	 0.183402517849797 
2128	 0.183139122403852 
2129	 0.18286764383244 
2130	 0.182620312163075 
2131	 0.182399517185168 
2132	 0.182168835138293 
2133	 0.181932028419227 
2134	 0.181736638587039 
2135	 0.181499547054659 
2136	 0.181291372441995 
2137	 0.181098723512037 
2138	 0.18093056732168 
2139	 0.180740209279077 
2140	 0.180565196430467 
2141	 0.180366988332128 
2142	 0.180128976719965 
2143	 0.179930938145718 
2144	 0.179721447432463 
2145	 0.179572689625108 
2146	 0.179450017025359 
2147	 0.179371549941572 
2148	 0.179329437093202 
2149	 0.179338646670084 
2150	 0.179452508329924 
2151	 0.179501050357717 
2152	 0.179567439205607 
2153	 0.179625353153583 
2154	 0.179630769852659 
2155	 0.179596173953768 
2156	 0.179594287319486 
2157	 0.179609595919643 
2158	 0.179591679175677 
2159	 0.179579219056039 
2160	 0.179521684993452 
2161	 0.179415403533647 
2162	 0.179339436035955 
2163	 0.179217580201998 
2164	 0.179161759470303 
2165	 0.179148956990878 
2166	 0.179140470452556 
2167	 0.179146945747699 
2168	 0.179190064481733 
2169	 0.179265003628657 
2170	 0.17933848390816 
2171	 0.179458996764008 
2172	 0.179558512046197 
2173	 0.179622637025899 
2174	 0.179733837315325 
2175	 0.179850474689688 
2176	 0.179956585990519 
2177	 0.180119613355723 
2178	 0.180320770049723 
2179	 0.180518738550089 
2180	 0.180740126092848 
2181	 0.180988339750417 
2182	 0.181256557238545 
2183	 0.18152324361292 
2184	 0.181816697937913 
2185	 0.182114311022355 
2186	 0.18240698928423 
2187	 0.182716834478679 
2188	 0.183073863201554 
2189	 0.18338526673606 
2190	 0.183661744804277 
2191	 0.183965635771571 
2192	 0.184268143428279 
2193	 0.184577843400197 
2194	 0.184928242918278 
2195	 0.185240650835482 
2196	 0.185571682264986 
2197	 0.185822800828522 
2198	 0.186020535679367 
2199	 0.186199724854131 
2200	 0.186358927859925 
2201	 0.186457996955553 
2202	 0.186582563864717 
2203	 0.186713635151862 
2204	 0.186825162049484 
2205	 0.186914891306432 
2206	 0.187010967585963 
2207	 0.187124221292444 
2208	 0.187181321945759 
2209	 0.187215249316188 
2210	 0.187235405843347 
2211	 0.187237038526267 
2212	 0.187184504882328 
2213	 0.187088742816189 
2214	 0.186991942148744 
2215	 0.186856126155853 
2216	 0.186701038002325 
2217	 0.186558919386607 
2218	 0.186373761660541 
2219	 0.186167986369043 
2220	 0.185889818974242 
2221	 0.185581833800843 
2222	 0.185186469084583 
2223	 0.184796870455417 
2224	 0.18431877837593 
2225	 0.183835242391632 
2226	 0.183323798184304 
2227	 0.18264665196646 
2228	 0.181845215365655 
2229	 0.181000648556251 
2230	 0.180021679603595 
2231	 0.179058882500222 
2232	 0.178090020628743 
2233	 0.176985420398518 
2234	 0.175867322139539 
2235	 0.174530462189839 
2236	 0.173038141406179 
2237	 0.171437444164551 
2238	 0.169632258005697 
2239	 0.167805640412863 
2240	 0.165900452222741 
2241	 0.163891118664373 
2242	 0.161840380075391 
2243	 0.159621024030566 
2244	 0.157231072196104 
2245	 0.154792162364529 
2246	 0.152115747292335 
2247	 0.149547715509606 
2248	 0.146985220942965 
2249	 0.144388965688956 
2250	 0.141778047612406 
2251	 0.139270514069287 
2252	 0.136520067520158 
2253	 0.133896388482431 
2254	 0.131294572964888 
2255	 0.12861732767198 
2256	 0.126219154342659 
2257	 0.123820155582862 
2258	 0.121521088759341 
2259	 0.119363138533047 
2260	 0.117176912351179 
2261	 0.114992357175557 
2262	 0.112969393843398 
2263	 0.110974711922752 
2264	 0.109150827493694 
2265	 0.107513392137541 
2266	 0.105873349112752 
2267	 0.104375881165526 
2268	 0.102838877756557 
2269	 0.101318614241701 
2270	 9.98541691601562E-02 
2271	 9.83837048718588E-02 
2272	 0.096992952368403 
2273	 9.57121281437819E-02 
2274	 9.43958239751214E-02 
2275	 9.31223281643967E-02 
2276	 9.18427800609201E-02 
2277	 9.05520455401469E-02 
2278	 8.92822424364628E-02 
2279	 8.80134250271307E-02 
2280	 8.67736699926386E-02 
2281	 8.56005376887172E-02 
2282	 8.43529469859301E-02 
2283	 8.31121863358406E-02 
2284	 8.18413903009636E-02 
2285	 8.03848759465131E-02 
2286	 7.89840161036438E-02 
2287	 7.76198266206392E-02 
2288	 7.61921479292878E-02 
2289	 7.48159134635381E-02 
2290	 7.34189104855665E-02 
2291	 7.19965710561739E-02 
2292	 7.05539051270526E-02 
2293	 6.90780699301002E-02 
2294	 6.76695284111867E-02 
2295	 0.066317791585071 
2296	 6.50272106422676E-02 
2297	 6.39010441510528E-02 
2298	 6.29364144608911E-02 
2299	 6.20626365938406E-02 
2300	 6.12622759887384E-02 
2301	 6.06955234072538E-02 
2302	 6.02837454898239E-02 
2303	 6.00644088169954E-02 
2304	 6.00716891677801E-02 
2305	 6.01922646076251E-02 
2306	 6.04661221696284E-02 
2307	 6.09485998940793E-02 
2308	 6.16140154469106E-02 
2309	 6.24589383035611E-02 
2310	 6.36147385933885E-02 
2311	 6.46917628924317E-02 
2312	 6.59285498303515E-02 
2313	 6.71040902555708E-02 
2314	 0.068283089644944 
2315	 6.94576024522347E-02 
2316	 7.07178430986468E-02 
2317	 7.18183123673214E-02 
2318	 7.28990497697765E-02 
2319	 7.37947384919232E-02 
2320	 7.45793507526168E-02 
2321	 7.51685069257344E-02 
2322	 7.55196544882997E-02 
2323	 0.07585115116184 
2324	 7.60405181898575E-02 
2325	 7.61497083084532E-02 
2326	 7.62123707275347E-02 
2327	 7.61426367613221E-02 
2328	 7.59336147261817E-02 
2329	 7.56295117026453E-02 
2330	 7.52100652891066E-02 
2331	 7.46964903475951E-02 
2332	 7.40773757342048E-02 
2333	 7.33284021878055E-02 
2334	 7.25213787229468E-02 
2335	 7.16953365112114E-02 
2336	 7.08319921155756E-02 
2337	 6.99304356332997E-02 
2338	 0.068946180784604 
2339	 6.78290104931595E-02 
2340	 6.67828180511033E-02 
2341	 6.58244060845429E-02 
2342	 6.49946198172983E-02 
2343	 6.43389018048476E-02 
2344	 6.37857069410335E-02 
2345	 6.34047802432224E-02 
2346	 6.31468758849661E-02 
2347	 6.31931756261542E-02 
2348	 6.34384088508583E-02 
2349	 6.37894626302033E-02 
2350	 6.43987477002711E-02 
2351	 6.51974256886825E-02 
2352	 6.61442626796602E-02 
2353	 6.71729993462245E-02 
2354	 6.81662515168854E-02 
2355	 6.91695434004936E-02 
2356	 6.99602673627606E-02 
2357	 0.070584367281022 
2358	 7.12445146686778E-02 
2359	 7.16753322448895E-02 
2360	 0.072054781021876 
2361	 7.23301246143454E-02 
2362	 7.23690591620239E-02 
2363	 0.072465062418448 
2364	 7.25437308982709E-02 
2365	 7.26245605065347E-02 
2366	 7.27640663969201E-02 
2367	 7.27876947877764E-02 
2368	 7.28514254167882E-02 
2369	 7.29692107143745E-02 
2370	 7.28918826244799E-02 
2371	 7.27125703539391E-02 
2372	 7.26061218845581E-02 
2373	 7.25195868200745E-02 
2374	 7.26326219012952E-02 
2375	 0.072915575528377 
2376	 7.31159567222411E-02 
2377	 7.32800192081117E-02 
2378	 7.32383055850878E-02 
2379	 7.32151820573504E-02 
2380	 7.32736986432783E-02 
2381	 7.32312659155721E-02 
2382	 7.32785184989342E-02 
2383	 7.34619664556287E-02 
2384	 7.35334060059638E-02 
2385	 7.35680711905026E-02 
2386	 7.35718445514579E-02 
2387	 7.35540532906752E-02 
2388	 7.36214158967529E-02 
2389	 7.36637181902154E-02 
2390	 7.37641058456315E-02 
2391	 7.39952061363965E-02 
2392	 7.40125166720839E-02 
2393	 7.38967188611449E-02 
2394	 7.39220993337611E-02 
2395	 7.38983180384258E-02 
2396	 7.39423679071238E-02 
2397	 7.41687481029254E-02 
2398	 7.41868244940957E-02 
2399	 7.40805081724458E-02 
2400	 7.40751543315781E-02 
2401	 7.40065845568979E-02 
2402	 7.40822863542731E-02 
2403	 7.41349220000395E-02 
2404	 7.41968239751082E-02 
2405	 7.42384248985072E-02 
2406	 7.41083403655007E-02 
2407	 7.40096510094402E-02 
2408	 7.40624224526412E-02 
2409	 7.41298787762877E-02 
2410	 7.41308512195924E-02 
2411	 7.42477613611076E-02 
2412	 7.43115605752186E-02 
2413	 7.42516041256938E-02 
2414	 7.42036150513097E-02 
2415	 7.41883948579673E-02 
2416	 7.41045707673638E-02 
2417	 7.38842293636726E-02 
2418	 7.38653965868792E-02 
2419	 7.38753017716655E-02 
2420	 7.38968293908478E-02 
2421	 7.40215542893521E-02 
2422	 7.40225631944127E-02 
2423	 7.39509951739953E-02 
2424	 7.36201052194872E-02 
2425	 7.30928249968987E-02 
2426	 7.26421962239381E-02 
2427	 7.23514244478089E-02 
2428	 7.22530638152942E-02 
2429	 7.22893765560303E-02 
2430	 7.21753322147753E-02 
2431	 0.071762278129984 
2432	 0.071214862695365 
2433	 7.08275139673498E-02 
2434	 7.07705286213814E-02 
2435	 7.08031161895493E-02 
2436	 7.09164456362762E-02 
2437	 7.08815452161049E-02 
2438	 0.070679287217827 
2439	 7.05488611545354E-02 
2440	 0.070111386754439 
2441	 6.96558033365217E-02 
2442	 6.94494809536658E-02 
2443	 6.89821870036699E-02 
2444	 6.87481233589437E-02 
2445	 6.86246154314596E-02 
2446	 6.81291034942313E-02 
2447	 6.79260514984723E-02 
2448	 6.76273367185877E-02 
2449	 6.72862248990191E-02 
2450	 0.067148742072093 
2451	 6.68320256419531E-02 
2452	 6.67681981242593E-02 
2453	 6.66591065611661E-02 
2454	 6.61480339762622E-02 
2455	 6.56005128325613E-02 
2456	 6.50390478781469E-02 
2457	 6.44398401032871E-02 
2458	 6.41884101703236E-02 
2459	 6.40682307055704E-02 
2460	 6.37746326983117E-02 
2461	 6.39105977170797E-02 
2462	 6.40112957452484E-02 
2463	 6.37582889964538E-02 
2464	 6.34718200237808E-02 
2465	 6.27126907925451E-02 
2466	 6.21276260721125E-02 
2467	 6.20240314005819E-02 
2468	 6.17069999159578E-02 
2469	 6.15811423101228E-02 
2470	 6.14313609884601E-02 
2471	 6.11087914997084E-02 
2472	 6.10794466952658E-02 
2473	 6.09893732138318E-02 
2474	 0.060796282140457 
2475	 0.060455658218042 
2476	 6.01135619991083E-02 
2477	 5.99217772822723E-02 
2478	 5.99292515121496E-02 
2479	 6.00123582807693E-02 
2480	 6.00408242694366E-02 
2481	 6.01598484364848E-02 
2482	 6.02746179151364E-02 
2483	 6.05337980963077E-02 
2484	 6.04383055674634E-02 
2485	 5.99823614850608E-02 
2486	 5.96325775907891E-02 
2487	 5.93890295299663E-02 
2488	 5.95356960760188E-02 
2489	 5.95542598036624E-02 
2490	 5.94091563929544E-02 
2491	 5.95636625626081E-02 
2492	 5.95450734308782E-02 
2493	 5.99436698650519E-02 
2494	 6.04381337484038E-02 
2495	 6.01614445917112E-02 
2496	 5.99187743630015E-02 
2497	 5.98001937059293E-02 
2498	 5.93898670757828E-02 
2499	 5.94579876853195E-02 
2500	 5.95889509676168E-02 
