Wavelength	spectrum00019.asd
350	 8.53089343529356E-02 
351	 8.46291154736062E-02 
352	 8.03762528580907E-02 
353	 7.34299783623332E-02 
354	 7.13448566165025E-02 
355	 7.32196898987764E-02 
356	 7.35615083688781E-02 
357	 6.94012716360318E-02 
358	 6.76622627697017E-02 
359	 6.45811786758489E-02 
360	 0.062704712774947 
361	 6.59390444744213E-02 
362	 6.30060252632931E-02 
363	 0.060529133865312 
364	 6.07115483911875E-02 
365	 5.78801156323242E-02 
366	 0.056685711932841 
367	 0.057519022150908 
368	 0.058993315824881 
369	 5.77654093407326E-02 
370	 5.47653202360493E-02 
371	 5.32761473195531E-02 
372	 5.67093224400373E-02 
373	 0.057338230000354 
374	 5.70597789461456E-02 
375	 5.69170719208725E-02 
376	 5.51340750306771E-02 
377	 0.054237416129805 
378	 5.51663478613762E-02 
379	 5.73717599618411E-02 
380	 5.72684530411321E-02 
381	 5.62388912248051E-02 
382	 5.55695869838457E-02 
383	 5.59268361828956E-02 
384	 0.053001294626249 
385	 5.25698383295319E-02 
386	 5.61285437239464E-02 
387	 5.71971087201038E-02 
388	 5.70281147455877E-02 
389	 0.056876001895877 
390	 5.73357831562502E-02 
391	 5.59313473970663E-02 
392	 5.56663337138052E-02 
393	 5.65700545729564E-02 
394	 5.67091528296175E-02 
395	 5.65778416526569E-02 
396	 5.59333830478164E-02 
397	 5.52349005113546E-02 
398	 5.62320049716037E-02 
399	 5.71392387685456E-02 
400	 5.79272017661403E-02 
401	 5.87522827475203E-02 
402	 5.81780649716333E-02 
403	 5.78566914522684E-02 
404	 5.84994314782214E-02 
405	 5.98638765417744E-02 
406	 6.01356997852528E-02 
407	 6.03321198027206E-02 
408	 6.10766041386065E-02 
409	 6.14093865873058E-02 
410	 6.15564362079549E-02 
411	 6.21658208882465E-02 
412	 6.36001461726176E-02 
413	 6.41504862532894E-02 
414	 6.44492214093649E-02 
415	 6.53589955071227E-02 
416	 6.76471044598897E-02 
417	 6.78564052780655E-02 
418	 6.77837173270889E-02 
419	 6.90070925185065E-02 
420	 7.04837177226044E-02 
421	 7.14060478237724E-02 
422	 7.24077327038182E-02 
423	 7.44134232778389E-02 
424	 7.59464750069926E-02 
425	 7.73658049621997E-02 
426	 7.89367331141745E-02 
427	 8.06429384950911E-02 
428	 8.23255771405939E-02 
429	 8.40969544989134E-02 
430	 0.085987933157422 
431	 8.75501597511646E-02 
432	 8.94480464279056E-02 
433	 9.17785453022043E-02 
434	 0.094243792023777 
435	 9.61915720051268E-02 
436	 0.098206897955235 
437	 0.100569534629785 
438	 0.102863708246857 
439	 0.105356177842722 
440	 0.107922774604421 
441	 0.110426447218734 
442	 0.113178511823087 
443	 0.115908438913139 
444	 0.118510504361804 
445	 0.121051444748887 
446	 0.123756111127077 
447	 0.126731005313084 
448	 0.129925886245793 
449	 0.133025384564628 
450	 0.136134609120802 
451	 0.139268065941142 
452	 0.142401257446195 
453	 0.145450195051864 
454	 0.148579338919402 
455	 0.151900885688619 
456	 0.155450635143989 
457	 0.158665244479655 
458	 0.161925465834519 
459	 0.165562159655342 
460	 0.169073813772295 
461	 0.172756285281112 
462	 0.17643872762525 
463	 0.179786324574211 
464	 0.183309513934563 
465	 0.187065263891162 
466	 0.190929806734248 
467	 0.194573327062292 
468	 0.198457227155503 
469	 0.202416393021331 
470	 0.206184859878881 
471	 0.209876856960559 
472	 0.213700537560777 
473	 0.217612553992017 
474	 0.221401031449639 
475	 0.225462804018746 
476	 0.229664472818744 
477	 0.233820233976945 
478	 0.237797924491925 
479	 0.241745754254455 
480	 0.245858265178017 
481	 0.250266535683 
482	 0.254614888336919 
483	 0.258848516993104 
484	 0.263069981392583 
485	 0.267520868470046 
486	 0.272028289504488 
487	 0.27644175246912 
488	 0.280732083678204 
489	 0.285254284207657 
490	 0.289695775140805 
491	 0.294080894079482 
492	 0.298626804283845 
493	 0.303247753985805 
494	 0.3078676488684 
495	 0.312428739315619 
496	 0.31688330752327 
497	 0.321477087676762 
498	 0.326173113565659 
499	 0.330822633300501 
500	 0.335281068272407 
501	 0.339801783572255 
502	 0.344419660396588 
503	 0.348967026651219 
504	 0.353485416490285 
505	 0.357943583660114 
506	 0.362360016069782 
507	 0.366911795536155 
508	 0.371460852177659 
509	 0.375931172604004 
510	 0.380267055475539 
511	 0.384376993745525 
512	 0.388487635836183 
513	 0.39271771569412 
514	 0.397029097789962 
515	 0.401178270824104 
516	 0.405171407903233 
517	 0.409070283148119 
518	 0.412808671527485 
519	 0.416669722565314 
520	 0.420545966267263 
521	 0.424093430232219 
522	 0.427742462803938 
523	 0.43140592158425 
524	 0.434939077518504 
525	 0.438230078639842 
526	 0.441526370915677 
527	 0.444722823677822 
528	 0.447672695340657 
529	 0.450753906102058 
530	 0.453644218093573 
531	 0.456374676521723 
532	 0.459371488142721 
533	 0.462112292985755 
534	 0.464646329280437 
535	 0.467105865237624 
536	 0.469455071790532 
537	 0.471810324533222 
538	 0.474101888706471 
539	 0.476199664175072 
540	 0.478466136667489 
541	 0.480517334194507 
542	 0.482211153232872 
543	 0.483910014268824 
544	 0.485712178738817 
545	 0.487526502906534 
546	 0.489186762833407 
547	 0.490552169230012 
548	 0.491958375571032 
549	 0.493506996512258 
550	 0.495068602994598 
551	 0.496589342970005 
552	 0.498088230180689 
553	 0.4994826487404 
554	 0.50036471874191 
555	 0.501065407079335 
556	 0.501770919117427 
557	 0.50257653396776 
558	 0.503395575132111 
559	 0.504290439313042 
560	 0.505286090976601 
561	 0.506344584338213 
562	 0.507329814545369 
563	 0.507868964984458 
564	 0.507731979050343 
565	 0.507371381056377 
566	 0.506928352638395 
567	 0.50634952646655 
568	 0.505528147183899 
569	 0.505491388286731 
570	 0.506534731016916 
571	 0.508647258433049 
572	 0.511564348097806 
573	 0.514909940718348 
574	 0.518234044320723 
575	 0.520927117497207 
576	 0.521698661702883 
577	 0.520520579318377 
578	 0.518103200138127 
579	 0.515838506457982 
580	 0.514579971100723 
581	 0.514372326680628 
582	 0.515114586583343 
583	 0.517328030242496 
584	 0.519135854511828 
585	 0.520580794210122 
586	 0.522733522062426 
587	 0.52423528812437 
588	 0.52516637637818 
589	 0.525850852738057 
590	 0.526611820948017 
591	 0.528734688308448 
592	 0.531347892052002 
593	 0.533107431737914 
594	 0.534151514656693 
595	 0.534441349514432 
596	 0.533730440035756 
597	 0.531688967689333 
598	 0.529515767055841 
599	 0.528247050727453 
600	 0.52833567538127 
601	 0.529183450373076 
602	 0.530181143969183 
603	 0.531286986127003 
604	 0.532711570880551 
605	 0.53432178481569 
606	 0.535503223916495 
607	 0.536222186219044 
608	 0.537198860167541 
609	 0.537720615136715 
610	 0.538146739973796 
611	 0.538875831458815 
612	 0.539549286804277 
613	 0.539983427614394 
614	 0.540370022693145 
615	 0.541080122510222 
616	 0.541551035490146 
617	 0.542042954647563 
618	 0.542669787500557 
619	 0.543091786205018 
620	 0.543529602279213 
621	 0.544027667873888 
622	 0.544543675386576 
623	 0.54489034571424 
624	 0.545382946144112 
625	 0.545994234769857 
626	 0.546378956009334 
627	 0.546875917530031 
628	 0.547244358983139 
629	 0.547418696922372 
630	 0.548059494002315 
631	 0.548569038175518 
632	 0.548987699786186 
633	 0.549568554107752 
634	 0.549919226964385 
635	 0.550394899527074 
636	 0.550993144264847 
637	 0.551200432386027 
638	 0.551653372143771 
639	 0.552146401966777 
640	 0.552441991629243 
641	 0.552899460580924 
642	 0.553402505199152 
643	 0.553887857824345 
644	 0.554330472901365 
645	 0.554725893699945 
646	 0.55518864087404 
647	 0.555688595705986 
648	 0.555925445663492 
649	 0.556367108138422 
650	 0.556863778582147 
651	 0.557196376887763 
652	 0.557731508514213 
653	 0.558183656421826 
654	 0.558561618743297 
655	 0.559097857277742 
656	 0.559453919008022 
657	 0.559683185760138 
658	 0.559927783181298 
659	 0.560385558789943 
660	 0.560853253356294 
661	 0.561276457236716 
662	 0.561646395291253 
663	 0.561866757839976 
664	 0.562244144940993 
665	 0.562728680360556 
666	 0.562920858675799 
667	 0.563447285261112 
668	 0.563908571068048 
669	 0.564012053760924 
670	 0.564244110641361 
671	 0.564648416535721 
672	 0.565111701363754 
673	 0.565464471102171 
674	 0.565813259319497 
675	 0.566110699541656 
676	 0.566366895078176 
677	 0.56667185410919 
678	 0.567095389979498 
679	 0.567458211837308 
680	 0.567666031664797 
681	 0.568079640584745 
682	 0.568389878769121 
683	 0.568591354780059 
684	 0.568856212168252 
685	 0.569316357979447 
686	 0.569672890175804 
687	 0.569876565553206 
688	 0.570292661694108 
689	 0.570427596749274 
690	 0.570559774982324 
691	 0.570947957130478 
692	 0.571026945610292 
693	 0.571297779253977 
694	 0.571778496601303 
695	 0.572170981534955 
696	 0.572393712614621 
697	 0.572646101828962 
698	 0.572991393945115 
699	 0.573224449394892 
700	 0.573423082545795 
701	 0.573659775816517 
702	 0.573944365501393 
703	 0.574015584862578 
704	 0.57436319066877 
705	 0.574874468139215 
706	 0.575042006122589 
707	 0.574948586824096 
708	 0.5751802701004 
709	 0.5758228448422 
710	 0.576037512295102 
711	 0.576192111734026 
712	 0.57636773534793 
713	 0.576574505291334 
714	 0.576825899385514 
715	 0.577186474677913 
716	 0.577501103282936 
717	 0.577514051818652 
718	 0.577654733428241 
719	 0.577848098994851 
720	 0.578049793312438 
721	 0.578402551009317 
722	 0.578518758517967 
723	 0.578664929635204 
724	 0.579117807253561 
725	 0.579402648899032 
726	 0.579350237374212 
727	 0.579224450505058 
728	 0.579530540417688 
729	 0.57997602244465 
730	 0.580190048563858 
731	 0.580108764357644 
732	 0.580154218553451 
733	 0.580685723175508 
734	 0.581058048068366 
735	 0.580764611259418 
736	 0.581001506067172 
737	 0.581243709674849 
738	 0.581420734701063 
739	 0.581731371274782 
740	 0.581797458204764 
741	 0.581731437651233 
742	 0.581752187894533 
743	 0.582136821261949 
744	 0.5825403345055 
745	 0.582760388363681 
746	 0.582759466903755 
747	 0.582859654845238 
748	 0.583120223256995 
749	 0.583440506536047 
750	 0.583640726972498 
751	 0.583783163027736 
752	 0.58376447614087 
753	 0.583659057874835 
754	 0.583774729782693 
755	 0.584141938789352 
756	 0.584433371233928 
757	 0.584435942336244 
758	 0.584467699200509 
759	 0.58483632150129 
760	 0.585208452161762 
761	 0.585097865251055 
762	 0.585209801406266 
763	 0.585378358109674 
764	 0.585442872033044 
765	 0.585344021941837 
766	 0.585508483170857 
767	 0.585854419979099 
768	 0.586118054812201 
769	 0.58581091935204 
770	 0.585856636251716 
771	 0.586243388986156 
772	 0.586572612502776 
773	 0.586470949975935 
774	 0.586482628350248 
775	 0.586726089658568 
776	 0.586935103371579 
777	 0.587104077467977 
778	 0.587200752908497 
779	 0.587267144288187 
780	 0.587461198662466 
781	 0.587715300086628 
782	 0.587903460758153 
783	 0.587955193895375 
784	 0.588066884908531 
785	 0.588014896334805 
786	 0.587864364430036 
787	 0.587891540260001 
788	 0.588602881941963 
789	 0.589055817027812 
790	 0.588879059825924 
791	 0.588564731843547 
792	 0.588735766972542 
793	 0.589009691345094 
794	 0.589039700443602 
795	 0.589146362788539 
796	 0.589159545083731 
797	 0.589223259619877 
798	 0.589448384215634 
799	 0.589210945711113 
800	 0.589200240586171 
801	 0.589501688395742 
802	 0.589696095413913 
803	 0.589777324555595 
804	 0.589726532626538 
805	 0.589648723889519 
806	 0.589811210095641 
807	 0.589824307139349 
808	 0.589659962105511 
809	 0.589497666315138 
810	 0.58984361385283 
811	 0.590078603638051 
812	 0.590141242949679 
813	 0.590220613434378 
814	 0.590303529125162 
815	 0.590524037130295 
816	 0.59066302995773 
817	 0.590273224787457 
818	 0.589996304327599 
819	 0.590245342245415 
820	 0.590855672560093 
821	 0.590826089889615 
822	 0.590971808072015 
823	 0.591188657320452 
824	 0.591207894777678 
825	 0.590995777888092 
826	 0.590935802379676 
827	 0.591106729080851 
828	 0.591353256773459 
829	 0.591190889461709 
830	 0.591107001443198 
831	 0.591299382674248 
832	 0.591625089536737 
833	 0.591822280777131 
834	 0.591905922166307 
835	 0.591923157721036 
836	 0.591892893627865 
837	 0.591874136793113 
838	 0.591971311105885 
839	 0.592170651851832 
840	 0.59212091628432 
841	 0.592033183764999 
842	 0.591989465079146 
843	 0.592033234080266 
844	 0.59230629198123 
845	 0.592376577676886 
846	 0.592195561399978 
847	 0.59203327356696 
848	 0.592050482253641 
849	 0.592215341766287 
850	 0.592411795775218 
851	 0.592460011458786 
852	 0.592033184695934 
853	 0.591769653448845 
854	 0.592083773233331 
855	 0.592545358994279 
856	 0.592326736150194 
857	 0.591815715947949 
858	 0.591631332356761 
859	 0.591549950148062 
860	 0.591864134839795 
861	 0.59229446901026 
862	 0.592348381239807 
863	 0.592188846977299 
864	 0.592034658500388 
865	 0.591998181613924 
866	 0.592063086530301 
867	 0.592004858891085 
868	 0.592202152210701 
869	 0.592489998954409 
870	 0.591923942826893 
871	 0.591774534984201 
872	 0.592018914858899 
873	 0.592294345564512 
874	 0.592157934521794 
875	 0.592220005690368 
876	 0.592381400752492 
877	 0.59240244497943 
878	 0.592383592953125 
879	 0.592573622461285 
880	 0.592760812966525 
881	 0.59262735874333 
882	 0.592614777404272 
883	 0.592576369087311 
884	 0.592495312846727 
885	 0.592473126865408 
886	 0.592539626088353 
887	 0.592521862165059 
888	 0.592459634261858 
889	 0.592629151192201 
890	 0.592659127232552 
891	 0.59273651035094 
892	 0.5929061717675 
893	 0.592813526254012 
894	 0.592588951479398 
895	 0.592399006815302 
896	 0.592384635713975 
897	 0.592627018516581 
898	 0.592594532881526 
899	 0.592233342363296 
900	 0.591801561350016 
901	 0.591974106083789 
902	 0.591851261990388 
903	 0.591488442951793 
904	 0.591396369228822 
905	 0.591636551261569 
906	 0.591601515577429 
907	 0.591277368142493 
908	 0.591094733297428 
909	 0.591088424352391 
910	 0.591058739267607 
911	 0.590815302450355 
912	 0.590290814594928 
913	 0.590232710424047 
914	 0.590472075101327 
915	 0.590662840500136 
916	 0.590469200788817 
917	 0.590135818274624 
918	 0.589873867766284 
919	 0.589837881256028 
920	 0.590082556545354 
921	 0.590406076923271 
922	 0.590562366078934 
923	 0.590459362722047 
924	 0.590380256110608 
925	 0.590269809422101 
926	 0.590296357251187 
927	 0.590534310420325 
928	 0.590601699745659 
929	 0.5901571978093 
930	 0.589686645591176 
931	 0.589888907985404 
932	 0.590762397808689 
933	 0.591220842969304 
934	 0.591295328675264 
935	 0.591528062180952 
936	 0.591359136224086 
937	 0.591108360724652 
938	 0.591142113959665 
939	 0.591664873257143 
940	 0.592027229991598 
941	 0.591769318522709 
942	 0.59137759682182 
943	 0.591904334344908 
944	 0.592277410036819 
945	 0.59240677016444 
946	 0.592256654068821 
947	 0.591848756572177 
948	 0.592470916352086 
949	 0.593100996814829 
950	 0.59307946167572 
951	 0.59272735257515 
952	 0.592819123746218 
953	 0.593023432082535 
954	 0.59297029740337 
955	 0.592602376279148 
956	 0.592428267948391 
957	 0.592679986987693 
958	 0.593123255691074 
959	 0.592919622318096 
960	 0.592372975162075 
961	 0.591973482241474 
962	 0.591878606408746 
963	 0.591505897597577 
964	 0.591501027052412 
965	 0.591495603545685 
966	 0.591240542713801 
967	 0.591334884067997 
968	 0.591643950283493 
969	 0.591757998387878 
970	 0.591424152182661 
971	 0.590960120496054 
972	 0.59082695800046 
973	 0.59074472614424 
974	 0.59040450083318 
975	 0.590106816703795 
976	 0.590160349506093 
977	 0.59028164159454 
978	 0.590205303160658 
979	 0.590414559931679 
980	 0.590139966796089 
981	 0.589683748302391 
982	 0.589492294507531 
983	 0.589152915329235 
984	 0.589442363361449 
985	 0.589859805466277 
986	 0.58973480646473 
987	 0.589434353508161 
988	 0.589298175313092 
989	 0.589235212425788 
990	 0.589092511969229 
991	 0.589132264372135 
992	 0.589225252678102 
993	 0.589440404218898 
994	 0.589774945363664 
995	 0.589784262099836 
996	 0.589654569410792 
997	 0.589488923569558 
998	 0.589336039100719 
999	 0.589157425486542 
1000	 0.588900412676668 
1001	 0.599691831556162 
1002	 0.59981967626919 
1003	 0.600043321495012 
1004	 0.60015608639448 
1005	 0.600296016631598 
1006	 0.600332792132129 
1007	 0.600197143553463 
1008	 0.600250976195869 
1009	 0.60035046846701 
1010	 0.600462521964519 
1011	 0.600734098219892 
1012	 0.600877263978427 
1013	 0.600909024007166 
1014	 0.600988080845044 
1015	 0.601052696562504 
1016	 0.60111159278776 
1017	 0.601218849176883 
1018	 0.601441158033963 
1019	 0.601560044156963 
1020	 0.601656406706205 
1021	 0.601748126529905 
1022	 0.601800445739309 
1023	 0.601825424356127 
1024	 0.60189584456801 
1025	 0.601860778259052 
1026	 0.601753509027123 
1027	 0.601624219704833 
1028	 0.601416468477945 
1029	 0.601204441788411 
1030	 0.601059431305178 
1031	 0.60095736103917 
1032	 0.600886589866733 
1033	 0.600772289211595 
1034	 0.600601864042912 
1035	 0.600393411450312 
1036	 0.60014085455702 
1037	 0.599790799006716 
1038	 0.599559740582903 
1039	 0.599387918572666 
1040	 0.599110326708162 
1041	 0.598814042922093 
1042	 0.598544011034774 
1043	 0.598216949429356 
1044	 0.597891694965609 
1045	 0.597662526926415 
1046	 0.597448767344003 
1047	 0.597132900420576 
1048	 0.596758157061199 
1049	 0.59638660580021 
1050	 0.596007513010265 
1051	 0.595653102761642 
1052	 0.595391459167243 
1053	 0.59513087826321 
1054	 0.594911257365923 
1055	 0.594662998488511 
1056	 0.594349151609891 
1057	 0.594191352863769 
1058	 0.594073707678309 
1059	 0.594037817207001 
1060	 0.594125024583206 
1061	 0.594240633764488 
1062	 0.594358041630398 
1063	 0.59445394448426 
1064	 0.594515200113044 
1065	 0.594687415990236 
1066	 0.594928773163802 
1067	 0.595298736946336 
1068	 0.595864004726956 
1069	 0.596409674124018 
1070	 0.59696128036785 
1071	 0.597516866466585 
1072	 0.598124411037984 
1073	 0.598730950772519 
1074	 0.59942273201693 
1075	 0.600125482372339 
1076	 0.600834534073396 
1077	 0.601647594893115 
1078	 0.602380321987042 
1079	 0.603128584311879 
1080	 0.603967858529525 
1081	 0.604770840917141 
1082	 0.605611896479773 
1083	 0.606433321248953 
1084	 0.607265944235048 
1085	 0.608084046718087 
1086	 0.608856156570916 
1087	 0.609577656886615 
1088	 0.610424010776804 
1089	 0.611215290258165 
1090	 0.611902080753537 
1091	 0.612646501255484 
1092	 0.613273335702743 
1093	 0.613822188196446 
1094	 0.614434992965073 
1095	 0.614969484871027 
1096	 0.615440144039801 
1097	 0.615898120566053 
1098	 0.616187040624059 
1099	 0.616470701586593 
1100	 0.616765916984705 
1101	 0.616915662172122 
1102	 0.617109465644404 
1103	 0.617202904128924 
1104	 0.617237755695299 
1105	 0.617121398211777 
1106	 0.616997187779803 
1107	 0.61679376661979 
1108	 0.616523242346411 
1109	 0.616270923159407 
1110	 0.615980154515839 
1111	 0.615594701965869 
1112	 0.615204005301111 
1113	 0.614768511364837 
1114	 0.614286784349438 
1115	 0.613803919387788 
1116	 0.613226845165847 
1117	 0.612623875423825 
1118	 0.612018578927558 
1119	 0.611406391009076 
1120	 0.610742288662267 
1121	 0.610061278744533 
1122	 0.609326138183884 
1123	 0.60860500813256 
1124	 0.607934517599871 
1125	 0.607270850181057 
1126	 0.606644154716569 
1127	 0.605973052082709 
1128	 0.605224045930812 
1129	 0.604485593866835 
1130	 0.603724061206263 
1131	 0.60298439710886 
1132	 0.602321786102157 
1133	 0.60167691448651 
1134	 0.601098616202034 
1135	 0.600506252438985 
1136	 0.59991680663467 
1137	 0.599349626304072 
1138	 0.598788392527694 
1139	 0.598228892151915 
1140	 0.597673877248461 
1141	 0.597205060294234 
1142	 0.596653519065423 
1143	 0.596128403118871 
1144	 0.595634093023173 
1145	 0.595038760140787 
1146	 0.594474985312246 
1147	 0.593923675276596 
1148	 0.593333799014717 
1149	 0.592798613192318 
1150	 0.592325994376804 
1151	 0.591878883531878 
1152	 0.591409562707936 
1153	 0.59095794900024 
1154	 0.590504323101557 
1155	 0.590015282260134 
1156	 0.589576092704815 
1157	 0.589224305925259 
1158	 0.588810726692779 
1159	 0.588408824792707 
1160	 0.587915953529734 
1161	 0.587389747095887 
1162	 0.586867011426957 
1163	 0.58635051802517 
1164	 0.585858098884598 
1165	 0.585402733492788 
1166	 0.584946196677416 
1167	 0.584522379040235 
1168	 0.584097723784353 
1169	 0.583659217847954 
1170	 0.583229781969616 
1171	 0.582785153732616 
1172	 0.582320533405008 
1173	 0.581867276329793 
1174	 0.581415095534097 
1175	 0.580954568944268 
1176	 0.580489439501277 
1177	 0.580009352789488 
1178	 0.579510701445556 
1179	 0.579038788183761 
1180	 0.578537194835008 
1181	 0.578027334303928 
1182	 0.577531059602535 
1183	 0.577069624302095 
1184	 0.576605723110198 
1185	 0.576152049881368 
1186	 0.575738871707066 
1187	 0.575335467362247 
1188	 0.574966382858207 
1189	 0.574650700183015 
1190	 0.574336225956229 
1191	 0.574026450865585 
1192	 0.573754824653902 
1193	 0.573512038317779 
1194	 0.573282701665979 
1195	 0.573090899936394 
1196	 0.572898617778631 
1197	 0.572709174451 
1198	 0.572531661958183 
1199	 0.572386315500591 
1200	 0.572281482623987 
1201	 0.572200076607038 
1202	 0.572124543447777 
1203	 0.572106401772268 
1204	 0.572103600851392 
1205	 0.572128133784663 
1206	 0.572181944081371 
1207	 0.572291331514567 
1208	 0.572394552914012 
1209	 0.572615716644082 
1210	 0.572910089590398 
1211	 0.573277889679594 
1212	 0.573722796091702 
1213	 0.574247825597621 
1214	 0.574841367151993 
1215	 0.575523989083463 
1216	 0.576333745740113 
1217	 0.577140159383431 
1218	 0.577993935110437 
1219	 0.57891750697483 
1220	 0.579865427398873 
1221	 0.580849681340054 
1222	 0.581803533731891 
1223	 0.582780146302593 
1224	 0.583686949748022 
1225	 0.584534459491937 
1226	 0.585373491972933 
1227	 0.586174719576069 
1228	 0.58697968863512 
1229	 0.587805597023282 
1230	 0.588539530166815 
1231	 0.589255571725355 
1232	 0.589909360441763 
1233	 0.590429449502224 
1234	 0.590996895332477 
1235	 0.591579243271969 
1236	 0.592112574027545 
1237	 0.592650360255049 
1238	 0.593138114717815 
1239	 0.593555342479972 
1240	 0.5939739136931 
1241	 0.594357809505661 
1242	 0.594718011715332 
1243	 0.595086674005196 
1244	 0.595453086140363 
1245	 0.595778591574146 
1246	 0.596087345136759 
1247	 0.596388759620263 
1248	 0.596678784669672 
1249	 0.596916673245806 
1250	 0.597164175897906 
1251	 0.597322437404819 
1252	 0.597397647983663 
1253	 0.597456215382939 
1254	 0.597453949196011 
1255	 0.597449877637339 
1256	 0.597419595134437 
1257	 0.597366525114773 
1258	 0.597306507719288 
1259	 0.597211246304911 
1260	 0.597061134724764 
1261	 0.596919446439405 
1262	 0.596745493143946 
1263	 0.596575905719588 
1264	 0.596450840252217 
1265	 0.596347486032837 
1266	 0.596251898406916 
1267	 0.596204106645277 
1268	 0.596103342377579 
1269	 0.595975799127356 
1270	 0.59587357216461 
1271	 0.595749725367464 
1272	 0.59566595058725 
1273	 0.595632069907082 
1274	 0.595558353514964 
1275	 0.595462395708807 
1276	 0.595405209996545 
1277	 0.595335235440322 
1278	 0.595300635328551 
1279	 0.595300295684418 
1280	 0.595325105470134 
1281	 0.595360074236718 
1282	 0.595431028784794 
1283	 0.595553670743292 
1284	 0.595682146379188 
1285	 0.595828552730609 
1286	 0.595978907657175 
1287	 0.596207154712239 
1288	 0.596474851096835 
1289	 0.596765960062298 
1290	 0.597098721481557 
1291	 0.597490842065229 
1292	 0.597885773889749 
1293	 0.598392765321418 
1294	 0.598987558580245 
1295	 0.599648236828009 
1296	 0.600412053909488 
1297	 0.601173585841438 
1298	 0.602026223143661 
1299	 0.602843171763506 
1300	 0.603650618866138 
1301	 0.60448005160432 
1302	 0.605307950690218 
1303	 0.606166678879334 
1304	 0.607063076561258 
1305	 0.607947476455689 
1306	 0.608865728978006 
1307	 0.609749994249857 
1308	 0.610602149127686 
1309	 0.61147895850786 
1310	 0.612267979702332 
1311	 0.613038626369166 
1312	 0.61370704752526 
1313	 0.614289804010071 
1314	 0.614853289159845 
1315	 0.61537356303475 
1316	 0.615804516685428 
1317	 0.616177470342107 
1318	 0.61650483135864 
1319	 0.616751219561774 
1320	 0.616954008486917 
1321	 0.6171487291571 
1322	 0.617234295109703 
1323	 0.617235223286661 
1324	 0.6171711325935 
1325	 0.617039315609786 
1326	 0.616837279940266 
1327	 0.616573003412866 
1328	 0.616230546341856 
1329	 0.61582728972552 
1330	 0.615341653925878 
1331	 0.614784203689338 
1332	 0.61415329121647 
1333	 0.613452715564844 
1334	 0.612659129009861 
1335	 0.611866628411865 
1336	 0.611017424861742 
1337	 0.610152620858669 
1338	 0.609286063068194 
1339	 0.608343450959202 
1340	 0.607369265859111 
1341	 0.606314459743139 
1342	 0.605178017700627 
1343	 0.604048754492592 
1344	 0.602882902565564 
1345	 0.601675791637534 
1346	 0.600423642661389 
1347	 0.599205465322261 
1348	 0.597951190707114 
1349	 0.596715476118893 
1350	 0.595523981009626 
1351	 0.594294115876872 
1352	 0.593036829113271 
1353	 0.591773771180264 
1354	 0.590452539086558 
1355	 0.589218068640431 
1356	 0.587976982341884 
1357	 0.586804958563733 
1358	 0.585721993366342 
1359	 0.584647152476659 
1360	 0.583596508269665 
1361	 0.582576954368552 
1362	 0.581576362552031 
1363	 0.580670307207264 
1364	 0.579784213471941 
1365	 0.578963002997832 
1366	 0.578125228314368 
1367	 0.577298800521564 
1368	 0.576520737472528 
1369	 0.575772283547143 
1370	 0.575017372629724 
1371	 0.574319417186365 
1372	 0.573568985938514 
1373	 0.572803903842272 
1374	 0.572004877797843 
1375	 0.571191055979845 
1376	 0.570334934077373 
1377	 0.569430910322381 
1378	 0.568508093964692 
1379	 0.567494678247419 
1380	 0.566583364194935 
1381	 0.565644811763411 
1382	 0.564811336507796 
1383	 0.564063381155039 
1384	 0.563367659344568 
1385	 0.562753495585451 
1386	 0.562161122787803 
1387	 0.561638323516324 
1388	 0.561125196489923 
1389	 0.560612738641381 
1390	 0.56015486556846 
1391	 0.559750179197013 
1392	 0.559339863619475 
1393	 0.559026284518064 
1394	 0.558722721336875 
1395	 0.558358280124423 
1396	 0.558008619342813 
1397	 0.557589578202458 
1398	 0.557125197996082 
1399	 0.55660145710057 
1400	 0.556061058160401 
1401	 0.555412579946516 
1402	 0.554699914118083 
1403	 0.553871637288988 
1404	 0.552932000069342 
1405	 0.551973814233929 
1406	 0.550893569468976 
1407	 0.549853233494046 
1408	 0.548751424988679 
1409	 0.547738398113639 
1410	 0.546699111500405 
1411	 0.545784071256921 
1412	 0.544940448356411 
1413	 0.544188975496054 
1414	 0.54355013506281 
1415	 0.542935051315505 
1416	 0.542417208622201 
1417	 0.541897523505995 
1418	 0.541414246601748 
1419	 0.540929990583066 
1420	 0.540468535365667 
1421	 0.540014966944416 
1422	 0.53957023018401 
1423	 0.539126249142176 
1424	 0.538687006427636 
1425	 0.538246791546044 
1426	 0.537852792944487 
1427	 0.537489239509722 
1428	 0.537126639582674 
1429	 0.536800983094746 
1430	 0.53648260631298 
1431	 0.536131710147336 
1432	 0.535895302324151 
1433	 0.535730442924767 
1434	 0.535572033003652 
1435	 0.535485033751177 
1436	 0.535369142010456 
1437	 0.535240065909377 
1438	 0.535164355685007 
1439	 0.535109423348555 
1440	 0.535083042990043 
1441	 0.535089695527247 
1442	 0.535126808829928 
1443	 0.535196361166839 
1444	 0.535274086047372 
1445	 0.53538460175135 
1446	 0.535505965006969 
1447	 0.535629174660671 
1448	 0.535782216264576 
1449	 0.535970726904603 
1450	 0.536161861275259 
1451	 0.536378935009309 
1452	 0.53658564604039 
1453	 0.536794258527204 
1454	 0.53700868158493 
1455	 0.537236289060182 
1456	 0.537441285235769 
1457	 0.537640107042794 
1458	 0.53784104281285 
1459	 0.538002162196199 
1460	 0.538204796811627 
1461	 0.538444299776215 
1462	 0.538672304986273 
1463	 0.538916553320075 
1464	 0.539160264271232 
1465	 0.539403791461003 
1466	 0.539635112963541 
1467	 0.539892036754748 
1468	 0.540131270502735 
1469	 0.540378290273626 
1470	 0.540603814038964 
1471	 0.540788348737404 
1472	 0.540953707219327 
1473	 0.541081811466587 
1474	 0.541135450685768 
1475	 0.541277654611628 
1476	 0.541437075817793 
1477	 0.541578913246834 
1478	 0.541756550869033 
1479	 0.541910173734377 
1480	 0.542024389492209 
1481	 0.542173731517044 
1482	 0.542353468761017 
1483	 0.54251301539722 
1484	 0.542667781409483 
1485	 0.542820493174916 
1486	 0.542980580045747 
1487	 0.543115332343588 
1488	 0.543226077907495 
1489	 0.543353839910761 
1490	 0.543469049581348 
1491	 0.54360149749301 
1492	 0.543761830498328 
1493	 0.54389637992161 
1494	 0.54404050282725 
1495	 0.544145124097882 
1496	 0.544224728342815 
1497	 0.544291622215433 
1498	 0.544314647281218 
1499	 0.544360315124682 
1500	 0.544410717775851 
1501	 0.544451635975072 
1502	 0.544487678163415 
1503	 0.544532403183005 
1504	 0.544549398854108 
1505	 0.54461142813894 
1506	 0.544733916932662 
1507	 0.544812112124087 
1508	 0.544876265985125 
1509	 0.544963723912908 
1510	 0.545040964718457 
1511	 0.54511730420445 
1512	 0.54523045557508 
1513	 0.545319541194964 
1514	 0.545374321355707 
1515	 0.545440373391497 
1516	 0.545521840631608 
1517	 0.545583794716754 
1518	 0.545640165368366 
1519	 0.545682401037949 
1520	 0.545718530454931 
1521	 0.545722352818043 
1522	 0.545697762658851 
1523	 0.545705230595988 
1524	 0.545713195288823 
1525	 0.545714249203121 
1526	 0.545731083549136 
1527	 0.54577170797957 
1528	 0.545794632449922 
1529	 0.545813114039899 
1530	 0.545830801182223 
1531	 0.545848473772588 
1532	 0.5458634062537 
1533	 0.545865145839773 
1534	 0.54589457041218 
1535	 0.545936554352108 
1536	 0.545974498224408 
1537	 0.546036652814194 
1538	 0.546065034304303 
1539	 0.546072567398306 
1540	 0.546090247524781 
1541	 0.546090281271896 
1542	 0.546116001430552 
1543	 0.546174503067477 
1544	 0.546182402969903 
1545	 0.546177259863156 
1546	 0.546171070126883 
1547	 0.54614558321517 
1548	 0.54610020001529 
1549	 0.546038088511332 
1550	 0.54600064927497 
1551	 0.545958060757678 
1552	 0.545893819559097 
1553	 0.545865635019541 
1554	 0.545774416885999 
1555	 0.545612552637558 
1556	 0.545477880347444 
1557	 0.545324614211669 
1558	 0.545195281343534 
1559	 0.545049591546085 
1560	 0.544960701096858 
1561	 0.544909112196024 
1562	 0.544866758124151 
1563	 0.544874273997303 
1564	 0.544857062929854 
1565	 0.544869224171789 
1566	 0.544815364505199 
1567	 0.544714943148614 
1568	 0.544634530598364 
1569	 0.544489475171007 
1570	 0.544420346448532 
1571	 0.544376812747235 
1572	 0.54438775904163 
1573	 0.544467792434909 
1574	 0.544530148843286 
1575	 0.544633094379691 
1576	 0.544727555085391 
1577	 0.544840904491574 
1578	 0.544903621839321 
1579	 0.544967389333473 
1580	 0.544991846389713 
1581	 0.544955431035186 
1582	 0.544919588966998 
1583	 0.544848817317243 
1584	 0.544809652049512 
1585	 0.544756892949564 
1586	 0.544731552542012 
1587	 0.544730668637528 
1588	 0.544750233019296 
1589	 0.544800571724186 
1590	 0.544835502528371 
1591	 0.54491814280017 
1592	 0.544936053440547 
1593	 0.544897137359045 
1594	 0.544876208931241 
1595	 0.544830761451747 
1596	 0.544790166855318 
1597	 0.544776716788794 
1598	 0.544726070807465 
1599	 0.544635557836426 
1600	 0.544562048802143 
1601	 0.544451433827046 
1602	 0.544393719045135 
1603	 0.544367137542119 
1604	 0.544356086116928 
1605	 0.544415818326542 
1606	 0.544415840487989 
1607	 0.544400544467344 
1608	 0.544373464776861 
1609	 0.544345672963978 
1610	 0.54425058146686 
1611	 0.544095797446322 
1612	 0.543961996335979 
1613	 0.543771728582435 
1614	 0.543604719067787 
1615	 0.543467770175622 
1616	 0.543330264165329 
1617	 0.543181214774901 
1618	 0.543040498850166 
1619	 0.542927823932765 
1620	 0.542797909203336 
1621	 0.542659204107724 
1622	 0.542515048922856 
1623	 0.542398832583478 
1624	 0.542214787804361 
1625	 0.541975521225919 
1626	 0.541749026045222 
1627	 0.541478340423699 
1628	 0.54121760638988 
1629	 0.540980348366512 
1630	 0.54072095461468 
1631	 0.540397238628852 
1632	 0.540151112240627 
1633	 0.539951839055386 
1634	 0.539739512166826 
1635	 0.539585548316935 
1636	 0.539396803610111 
1637	 0.539152711168532 
1638	 0.538955442245967 
1639	 0.538793556424749 
1640	 0.538602729108772 
1641	 0.538453794172791 
1642	 0.538236721108898 
1643	 0.537939132929683 
1644	 0.537685283768651 
1645	 0.53743026099194 
1646	 0.537156618712306 
1647	 0.536901497113923 
1648	 0.53661669913257 
1649	 0.536308246270183 
1650	 0.53596689696066 
1651	 0.53563760261486 
1652	 0.535232779267149 
1653	 0.534740224906565 
1654	 0.534263276194192 
1655	 0.533744645354501 
1656	 0.53322594633511 
1657	 0.532741317806421 
1658	 0.532170198614379 
1659	 0.531551965812952 
1660	 0.53091919826655 
1661	 0.530234882407238 
1662	 0.529527204290819 
1663	 0.52884490072243 
1664	 0.528016943082042 
1665	 0.527089149954929 
1666	 0.526123409879637 
1667	 0.525076565097381 
1668	 0.52398641695961 
1669	 0.522885765552971 
1670	 0.521670105786234 
1671	 0.520318663140694 
1672	 0.518961714907605 
1673	 0.517558881752859 
1674	 0.516086098753203 
1675	 0.514586530992556 
1676	 0.513022569411445 
1677	 0.511367030438696 
1678	 0.509680372047681 
1679	 0.507937510713585 
1680	 0.506172679107191 
1681	 0.504367321982099 
1682	 0.502509778972391 
1683	 0.500597514351083 
1684	 0.498714255009999 
1685	 0.496798860965067 
1686	 0.49487400123645 
1687	 0.492987431031674 
1688	 0.49099512033141 
1689	 0.488931282375186 
1690	 0.486829895737348 
1691	 0.48465677298503 
1692	 0.482547204630448 
1693	 0.480435023580451 
1694	 0.47830734753284 
1695	 0.476198600760073 
1696	 0.474024426693347 
1697	 0.471812477402967 
1698	 0.469557135816528 
1699	 0.467259940232268 
1700	 0.465014057099215 
1701	 0.462727686564169 
1702	 0.460499634365645 
1703	 0.45823934276957 
1704	 0.456180143509623 
1705	 0.454182512384282 
1706	 0.452295757614376 
1707	 0.45065769895714 
1708	 0.449080585397235 
1709	 0.44763560536277 
1710	 0.446381980206512 
1711	 0.445133116700002 
1712	 0.4439384589781 
1713	 0.442795526084725 
1714	 0.441662631745749 
1715	 0.440676004278931 
1716	 0.439712305210976 
1717	 0.438751810087785 
1718	 0.437838122155275 
1719	 0.43693463579299 
1720	 0.436148313702031 
1721	 0.435438240335748 
1722	 0.434837901330741 
1723	 0.434387079485251 
1724	 0.43399986977181 
1725	 0.43374774867965 
1726	 0.433649867713648 
1727	 0.433697123132056 
1728	 0.433923885748174 
1729	 0.434331448928002 
1730	 0.434900957516685 
1731	 0.435612395342638 
1732	 0.436514913295538 
1733	 0.43752132587955 
1734	 0.438646791745594 
1735	 0.43986037828741 
1736	 0.441032554151257 
1737	 0.442119202459895 
1738	 0.443076417417251 
1739	 0.443829840061698 
1740	 0.444409882287155 
1741	 0.444850632104872 
1742	 0.445159557930122 
1743	 0.445280857467483 
1744	 0.445201989854224 
1745	 0.444991460488872 
1746	 0.444524907770406 
1747	 0.444108534400205 
1748	 0.443569997344157 
1749	 0.443115736636409 
1750	 0.442621361208567 
1751	 0.442262713575274 
1752	 0.441973990564508 
1753	 0.441745163530439 
1754	 0.441608291314906 
1755	 0.441545866587525 
1756	 0.441512323096842 
1757	 0.441640761221789 
1758	 0.44187821365996 
1759	 0.442126910581777 
1760	 0.44248145865776 
1761	 0.443061131182255 
1762	 0.443715912757049 
1763	 0.444580464924845 
1764	 0.445606829748626 
1765	 0.446627179739945 
1766	 0.447796439275641 
1767	 0.449022925282236 
1768	 0.450254446885675 
1769	 0.451508257408167 
1770	 0.452692861306176 
1771	 0.453867807986737 
1772	 0.455002235242037 
1773	 0.456045385702561 
1774	 0.45707396195625 
1775	 0.458044115824815 
1776	 0.458929036713763 
1777	 0.459721212675359 
1778	 0.46036771475813 
1779	 0.460880003470556 
1780	 0.46129324602422 
1781	 0.461675610673939 
1782	 0.462093754172786 
1783	 0.462443224383039 
1784	 0.462749220191943 
1785	 0.463048532576759 
1786	 0.463309167344868 
1787	 0.463607905812117 
1788	 0.463807376321337 
1789	 0.463916575208773 
1790	 0.463998616565935 
1791	 0.463993569011428 
1792	 0.463993925740545 
1793	 0.463957575196361 
1794	 0.463943107126771 
1795	 0.463920069303472 
1796	 0.463901396013163 
1797	 0.463976301397062 
1798	 0.464076091127892 
1799	 0.464219754993998 
1800	 0.464420527831957 
1801	 0.467548686027377 
1802	 0.467885802193265 
1803	 0.468205031190428 
1804	 0.468509762525689 
1805	 0.46878449746163 
1806	 0.468993491830689 
1807	 0.469170581138753 
1808	 0.469322590631091 
1809	 0.469375195738443 
1810	 0.469488939067367 
1811	 0.46962571484147 
1812	 0.469739670621938 
1813	 0.469831452315058 
1814	 0.469950712979485 
1815	 0.470075624991018 
1816	 0.47019094919235 
1817	 0.470355072880622 
1818	 0.470555317091092 
1819	 0.470769419515723 
1820	 0.471009507774869 
1821	 0.471257257342676 
1822	 0.471526215778934 
1823	 0.47182519679421 
1824	 0.472081264979826 
1825	 0.472319277210563 
1826	 0.472524781209606 
1827	 0.472676350214708 
1828	 0.472840592748605 
1829	 0.47298527843582 
1830	 0.473146042320883 
1831	 0.473295776978142 
1832	 0.473489090179289 
1833	 0.473633787331346 
1834	 0.473797034288573 
1835	 0.474002290739894 
1836	 0.474160829995332 
1837	 0.474364215112839 
1838	 0.474590303058754 
1839	 0.474832980248914 
1840	 0.47511238187335 
1841	 0.475377676404282 
1842	 0.475646847782113 
1843	 0.475928072423686 
1844	 0.476233144030401 
1845	 0.476519176049809 
1846	 0.476802100216964 
1847	 0.477097524262491 
1848	 0.477366539789511 
1849	 0.477626004928149 
1850	 0.477839485753254 
1851	 0.478039833055312 
1852	 0.478206628211058 
1853	 0.478313829496242 
1854	 0.478350891611886 
1855	 0.478390451030318 
1856	 0.478474596204146 
1857	 0.478526364568873 
1858	 0.478590592643969 
1859	 0.478653568252806 
1860	 0.478715377382924 
1861	 0.478736353530669 
1862	 0.478759648574251 
1863	 0.478774151445861 
1864	 0.478699570296365 
1865	 0.478587579911016 
1866	 0.478386522369488 
1867	 0.478108983782592 
1868	 0.477737913235572 
1869	 0.477331417162216 
1870	 0.476965943091688 
1871	 0.476554116133289 
1872	 0.476228687205995 
1873	 0.475967128097933 
1874	 0.475712415490935 
1875	 0.475493027449034 
1876	 0.475217771118132 
1877	 0.474918381014775 
1878	 0.474544801162389 
1879	 0.474088897595093 
1880	 0.473569690687168 
1881	 0.472884944801731 
1882	 0.472048381923467 
1883	 0.471174458251426 
1884	 0.470160674445951 
1885	 0.468959067623981 
1886	 0.467735503539792 
1887	 0.466379914923531 
1888	 0.464908752741927 
1889	 0.463480575318026 
1890	 0.461954828137519 
1891	 0.4604182921771 
1892	 0.458859375209746 
1893	 0.457239126214349 
1894	 0.455525025805577 
1895	 0.453886505470288 
1896	 0.452220953661184 
1897	 0.450577601009136 
1898	 0.449101608753835 
1899	 0.447648086435697 
1900	 0.446250055188082 
1901	 0.444938801793988 
1902	 0.443623100295973 
1903	 0.442386280141893 
1904	 0.441199862200972 
1905	 0.440050625055534 
1906	 0.438993612638726 
1907	 0.438048168925576 
1908	 0.43708910348421 
1909	 0.436190711710844 
1910	 0.435297386099251 
1911	 0.434356713198124 
1912	 0.433501158965754 
1913	 0.432740368224481 
1914	 0.432021999169581 
1915	 0.431405348520261 
1916	 0.430894679954417 
1917	 0.430471133677143 
1918	 0.43005301908844 
1919	 0.429721153013365 
1920	 0.42941225880522 
1921	 0.4290867107858 
1922	 0.428786676850841 
1923	 0.428469704526052 
1924	 0.428179593388685 
1925	 0.42785372623946 
1926	 0.42754842932871 
1927	 0.4272464281874 
1928	 0.426977200558282 
1929	 0.426695192851848 
1930	 0.426477400774974 
1931	 0.426344171795663 
1932	 0.426221437359093 
1933	 0.426160431733716 
1934	 0.42615350366755 
1935	 0.426132120207918 
1936	 0.426138131864949 
1937	 0.426205265030337 
1938	 0.426341261579401 
1939	 0.426460357267338 
1940	 0.426602416322224 
1941	 0.426800348213036 
1942	 0.426964924123985 
1943	 0.427088275505327 
1944	 0.427290734040404 
1945	 0.4274832476407 
1946	 0.427674747363233 
1947	 0.427900011611604 
1948	 0.428158992578351 
1949	 0.428457072938728 
1950	 0.428757314649449 
1951	 0.429116809864929 
1952	 0.429456879079556 
1953	 0.42980946365014 
1954	 0.430097345128671 
1955	 0.430445471609289 
1956	 0.430754731439528 
1957	 0.431063307660481 
1958	 0.431414607534243 
1959	 0.431711408444913 
1960	 0.4319927396415 
1961	 0.43229769008074 
1962	 0.432593917755356 
1963	 0.432900168018844 
1964	 0.433229504172576 
1965	 0.433561783264096 
1966	 0.43390030972701 
1967	 0.434225075249396 
1968	 0.434566927542576 
1969	 0.434896217919417 
1970	 0.435172655456356 
1971	 0.435465185022102 
1972	 0.435785454601637 
1973	 0.436065801118916 
1974	 0.436317070235752 
1975	 0.436569023617176 
1976	 0.436773152675988 
1977	 0.436900291893821 
1978	 0.437058315688483 
1979	 0.437189005268473 
1980	 0.437354655433595 
1981	 0.437555804128875 
1982	 0.437782161993975 
1983	 0.438031687040566 
1984	 0.438253793152577 
1985	 0.438422666217928 
1986	 0.438538275795703 
1987	 0.438645229869428 
1988	 0.438693697227747 
1989	 0.438770982443496 
1990	 0.438810331725382 
1991	 0.438925914745339 
1992	 0.439066191323499 
1993	 0.439260215260461 
1994	 0.439463797035059 
1995	 0.439635555980542 
1996	 0.439805677342099 
1997	 0.439894644913222 
1998	 0.439945670241292 
1999	 0.439960934968538 
2000	 0.43996245205966 
2001	 0.439884616423379 
2002	 0.439844586130062 
2003	 0.439819941638828 
2004	 0.439772319046724 
2005	 0.439720206003666 
2006	 0.439652613018077 
2007	 0.439588324387498 
2008	 0.439489836227403 
2009	 0.439333007620392 
2010	 0.439141327484753 
2011	 0.438974068029906 
2012	 0.438717968909239 
2013	 0.438438629719855 
2014	 0.438133725347223 
2015	 0.437819970152916 
2016	 0.437422608770286 
2017	 0.437080769198725 
2018	 0.436799840969158 
2019	 0.436455667442887 
2020	 0.436078984247739 
2021	 0.435716194948437 
2022	 0.435338232953105 
2023	 0.434871069790218 
2024	 0.434342090026248 
2025	 0.433817066247444 
2026	 0.433298302055019 
2027	 0.432708780447945 
2028	 0.432192366773176 
2029	 0.431763358585763 
2030	 0.431260398734632 
2031	 0.430737071212441 
2032	 0.43021886899382 
2033	 0.42969036439149 
2034	 0.429136131397558 
2035	 0.428557812583267 
2036	 0.427978930272806 
2037	 0.427451397150603 
2038	 0.426896958261803 
2039	 0.426405204736087 
2040	 0.425962454198681 
2041	 0.4255673570888 
2042	 0.42518427952634 
2043	 0.42489195945474 
2044	 0.424732955648666 
2045	 0.424497489665068 
2046	 0.424278337953667 
2047	 0.424050408304844 
2048	 0.423773607485915 
2049	 0.423554003342927 
2050	 0.423380524467542 
2051	 0.423210749449963 
2052	 0.42303989492397 
2053	 0.422885073262626 
2054	 0.422710093725711 
2055	 0.422528275612869 
2056	 0.422341755224525 
2057	 0.422135902214396 
2058	 0.42194653800217 
2059	 0.421769758750204 
2060	 0.421575408208874 
2061	 0.421374276174753 
2062	 0.421181831120049 
2063	 0.420986171344003 
2064	 0.420784667845231 
2065	 0.42056632728887 
2066	 0.42037636833769 
2067	 0.420244137446351 
2068	 0.420112488724896 
2069	 0.419994413501148 
2070	 0.419935729925378 
2071	 0.419854087764894 
2072	 0.419768287281699 
2073	 0.419653359109948 
2074	 0.419574474846512 
2075	 0.419420834947922 
2076	 0.419170086604775 
2077	 0.41897777294478 
2078	 0.418766738822227 
2079	 0.4185812133461 
2080	 0.418439878540453 
2081	 0.418280358133068 
2082	 0.418123000843877 
2083	 0.417970232118219 
2084	 0.417786457944933 
2085	 0.417556328948283 
2086	 0.417337946224394 
2087	 0.417069234073157 
2088	 0.416867911031756 
2089	 0.416702329101993 
2090	 0.416524712887913 
2091	 0.41641721969117 
2092	 0.416202958530321 
2093	 0.415892204276399 
2094	 0.415655240336341 
2095	 0.415370401524818 
2096	 0.415151055912218 
2097	 0.415025538678099 
2098	 0.414877864705576 
2099	 0.414735299923596 
2100	 0.414543723196871 
2101	 0.414303364184191 
2102	 0.414019131433236 
2103	 0.41372769221779 
2104	 0.413377692629127 
2105	 0.41304940223869 
2106	 0.412711582363654 
2107	 0.412380718276224 
2108	 0.412058984686734 
2109	 0.411714230092008 
2110	 0.411380316682148 
2111	 0.411013698536644 
2112	 0.410599888597208 
2113	 0.410197092876357 
2114	 0.409746271696007 
2115	 0.409349506354642 
2116	 0.408970980627504 
2117	 0.408637929536819 
2118	 0.408285215833447 
2119	 0.407975240060364 
2120	 0.407624967390333 
2121	 0.407239036384137 
2122	 0.406887434914751 
2123	 0.406508613706923 
2124	 0.406212660640462 
2125	 0.406004712336783 
2126	 0.405716311011099 
2127	 0.405467812137354 
2128	 0.405164430530148 
2129	 0.404730893109483 
2130	 0.404395580366543 
2131	 0.404065040926384 
2132	 0.403802488384495 
2133	 0.403581952695329 
2134	 0.403449775818177 
2135	 0.403313602315731 
2136	 0.403211611053879 
2137	 0.403064438114 
2138	 0.402906502349809 
2139	 0.402740023821306 
2140	 0.402563047240972 
2141	 0.402355473515999 
2142	 0.402106931460526 
2143	 0.401905716381148 
2144	 0.401664977506903 
2145	 0.401513462264125 
2146	 0.401422855684052 
2147	 0.401359091201957 
2148	 0.401378743078013 
2149	 0.401356987255503 
2150	 0.4013567740929 
2151	 0.401335268122436 
2152	 0.401313873495238 
2153	 0.401237225670312 
2154	 0.401185580261775 
2155	 0.401130917939002 
2156	 0.401020423211454 
2157	 0.400876792118981 
2158	 0.400720226137144 
2159	 0.400507024512303 
2160	 0.400337424750304 
2161	 0.400173978709952 
2162	 0.400008829482917 
2163	 0.399854008739948 
2164	 0.399692310277613 
2165	 0.399519802762631 
2166	 0.399361822077655 
2167	 0.39923772576371 
2168	 0.399059779050489 
2169	 0.398843892039845 
2170	 0.398652149847813 
2171	 0.398408148596477 
2172	 0.398225443181735 
2173	 0.398079125364106 
2174	 0.397968373421971 
2175	 0.39789885531861 
2176	 0.397812903668069 
2177	 0.397723425831321 
2178	 0.397643264663805 
2179	 0.397569858924428 
2180	 0.397505563878024 
2181	 0.397397132866275 
2182	 0.397304949613777 
2183	 0.397144947844817 
2184	 0.396886800268115 
2185	 0.396706794336902 
2186	 0.39651749639172 
2187	 0.396366290651655 
2188	 0.396260651430332 
2189	 0.396155226728118 
2190	 0.396058199035295 
2191	 0.395977710570362 
2192	 0.395942520296455 
2193	 0.3958707105463 
2194	 0.395823544013717 
2195	 0.395721801820069 
2196	 0.395604663520998 
2197	 0.395408769441686 
2198	 0.395185446055671 
2199	 0.394950915538617 
2200	 0.394727565779727 
2201	 0.394493424935373 
2202	 0.394255443244479 
2203	 0.39402957001753 
2204	 0.393771926414627 
2205	 0.393495960178256 
2206	 0.393199280376983 
2207	 0.392871216311068 
2208	 0.392563730085701 
2209	 0.392252956561259 
2210	 0.391922243169597 
2211	 0.391612438044244 
2212	 0.391259434712016 
2213	 0.390842217928154 
2214	 0.390464079185182 
2215	 0.390093640161385 
2216	 0.389705461978621 
2217	 0.389367842813094 
2218	 0.388940973212822 
2219	 0.388469800259049 
2220	 0.387960266657695 
2221	 0.387384300376832 
2222	 0.386791995522095 
2223	 0.386165106627515 
2224	 0.385434064126257 
2225	 0.384699529485208 
2226	 0.383964861904022 
2227	 0.383137315084258 
2228	 0.382281304551284 
2229	 0.381360771127662 
2230	 0.380353914055981 
2231	 0.379292293987469 
2232	 0.378185688550209 
2233	 0.37702043996481 
2234	 0.37582596715257 
2235	 0.374464120513372 
2236	 0.373056537950881 
2237	 0.371474864799355 
2238	 0.369598052966206 
2239	 0.36784641999555 
2240	 0.3660727626107 
2241	 0.364221282627385 
2242	 0.362473171889738 
2243	 0.360476868669033 
2244	 0.358289185434864 
2245	 0.356048499532305 
2246	 0.353562356806875 
2247	 0.351158174222387 
2248	 0.348725529794407 
2249	 0.346283344780623 
2250	 0.343847440596287 
2251	 0.341463709038153 
2252	 0.338842103673995 
2253	 0.336308458518143 
2254	 0.333733245402471 
2255	 0.33107956542622 
2256	 0.328657323980191 
2257	 0.326174400284975 
2258	 0.323788830492437 
2259	 0.321472036965065 
2260	 0.319206168025469 
2261	 0.317017758536685 
2262	 0.314833079416938 
2263	 0.312634930155672 
2264	 0.310576992064477 
2265	 0.308583469723587 
2266	 0.306628973190926 
2267	 0.304847424421876 
2268	 0.302974219630075 
2269	 0.301039596315621 
2270	 0.299230224132653 
2271	 0.297417616861256 
2272	 0.295727175946348 
2273	 0.294222124660801 
2274	 0.292609603886286 
2275	 0.291092200494686 
2276	 0.289439733444956 
2277	 0.287690582644575 
2278	 0.285917505765577 
2279	 0.284053290721746 
2280	 0.282184480905407 
2281	 0.28028093007038 
2282	 0.278357166746501 
2283	 0.276428041955172 
2284	 0.274462363054256 
2285	 0.272371418338455 
2286	 0.27034177701197 
2287	 0.268212570477418 
2288	 0.266004157564917 
2289	 0.263938097308426 
2290	 0.261763124865685 
2291	 0.259587340993195 
2292	 0.257490773490159 
2293	 0.255248484702913 
2294	 0.252985828139671 
2295	 0.25073481521522 
2296	 0.248599208382038 
2297	 0.246766099523738 
2298	 0.245113789728568 
2299	 0.243705914587769 
2300	 0.242527511625872 
2301	 0.24166846344373 
2302	 0.241045652716367 
2303	 0.240762237777832 
2304	 0.240875213547551 
2305	 0.241185699298243 
2306	 0.241778292346785 
2307	 0.242607320306154 
2308	 0.243748388896716 
2309	 0.245065261771537 
2310	 0.246654413467838 
2311	 0.248365372909068 
2312	 0.250446171808909 
2313	 0.252366886102987 
2314	 0.254470840112068 
2315	 0.256373242492782 
2316	 0.25814297963668 
2317	 0.259834001182553 
2318	 0.2615286508462 
2319	 0.262938673394233 
2320	 0.264229330788379 
2321	 0.26527038959517 
2322	 0.266000360329132 
2323	 0.266642164511916 
2324	 0.267137989524661 
2325	 0.267415334924807 
2326	 0.267490567900776 
2327	 0.267391750485097 
2328	 0.267026972383459 
2329	 0.266561638022359 
2330	 0.265976993560151 
2331	 0.265162520816851 
2332	 0.264259446860974 
2333	 0.263217789204157 
2334	 0.261967008092073 
2335	 0.260708802464874 
2336	 0.259278024349414 
2337	 0.257703737713441 
2338	 0.256288879135944 
2339	 0.254793883682481 
2340	 0.253340993776464 
2341	 0.252083046973086 
2342	 0.250758608814416 
2343	 0.249713167542136 
2344	 0.248926431658279 
2345	 0.248308179872451 
2346	 0.248110683763329 
2347	 0.248144636565779 
2348	 0.248411698645661 
2349	 0.249040110443881 
2350	 0.249886769161762 
2351	 0.251011114016915 
2352	 0.252333629093578 
2353	 0.253806430431013 
2354	 0.255169675178723 
2355	 0.256396337646244 
2356	 0.257550962946464 
2357	 0.258468351791253 
2358	 0.259444923669647 
2359	 0.260239022136272 
2360	 0.260697071213988 
2361	 0.261055698295758 
2362	 0.261101830876482 
2363	 0.260996705695579 
2364	 0.260981096767683 
2365	 0.260851523800607 
2366	 0.260776016093609 
2367	 0.26080884507762 
2368	 0.260847703225178 
2369	 0.260872180262077 
2370	 0.260907467463456 
2371	 0.260993278582232 
2372	 0.260991079798178 
2373	 0.261092550980124 
2374	 0.261075651838269 
2375	 0.260895248718109 
2376	 0.260889751548353 
2377	 0.260778246090926 
2378	 0.260684207353494 
2379	 0.260792778345716 
2380	 0.260864719306294 
2381	 0.260951308299578 
2382	 0.261020570848356 
2383	 0.261126005562437 
2384	 0.261198944517037 
2385	 0.261182303380765 
2386	 0.261324766535436 
2387	 0.26163477525557 
2388	 0.261823659261993 
2389	 0.262055712825052 
2390	 0.262104633890183 
2391	 0.261955758835038 
2392	 0.261877441809996 
2393	 0.26174607317967 
2394	 0.261743459094898 
2395	 0.261772695802814 
2396	 0.261876806314137 
2397	 0.262147586602278 
2398	 0.262206695351234 
2399	 0.262193045605017 
2400	 0.262310009961824 
2401	 0.262341158381506 
2402	 0.262423944848507 
2403	 0.262540752355669 
2404	 0.262272938748662 
2405	 0.262189505123548 
2406	 0.262353146092509 
2407	 0.262460134039941 
2408	 0.262687370012157 
2409	 0.262773241973898 
2410	 0.262554849906067 
2411	 0.26221593960303 
2412	 0.261957188253083 
2413	 0.262001842868568 
2414	 0.262060188074197 
2415	 0.262176591649295 
2416	 0.262317547981646 
2417	 0.262208286580445 
2418	 0.26215965614124 
2419	 0.262158996273283 
2420	 0.26224189180428 
2421	 0.262409575808708 
2422	 0.262487686663659 
2423	 0.26252098912343 
2424	 0.262419099472695 
2425	 0.262482792422052 
2426	 0.262717427816093 
2427	 0.262967945283161 
2428	 0.263259442235718 
2429	 0.263247586741238 
2430	 0.262919115300642 
2431	 0.262520774564294 
2432	 0.262178388047522 
2433	 0.261836112950076 
2434	 0.261772468934368 
2435	 0.261867149763614 
2436	 0.261650153938834 
2437	 0.261404399930062 
2438	 0.261061828358069 
2439	 0.260635111101848 
2440	 0.260501931047335 
2441	 0.260528639665782 
2442	 0.260514615309116 
2443	 0.260532560658273 
2444	 0.260283371281273 
2445	 0.259710814565828 
2446	 0.259134403456911 
2447	 0.25845534829303 
2448	 0.258055985089271 
2449	 0.257896813413423 
2450	 0.257677105730678 
2451	 0.257446248515863 
2452	 0.257014153554113 
2453	 0.256547431444984 
2454	 0.25624694250678 
2455	 0.255861089741999 
2456	 0.255323303918309 
2457	 0.255043382624949 
2458	 0.25480011666445 
2459	 0.254380018923184 
2460	 0.254258141229738 
2461	 0.253969528279722 
2462	 0.253296215859999 
2463	 0.253238736502207 
2464	 0.253273098283188 
2465	 0.252984891817781 
2466	 0.252976851151343 
2467	 0.252612133723164 
2468	 0.252098325317303 
2469	 0.251880836548695 
2470	 0.251782824930583 
2471	 0.251870547643888 
2472	 0.251615112587989 
2473	 0.251476929693827 
2474	 0.251352607467905 
2475	 0.250891437209901 
2476	 0.250996609434645 
2477	 0.251029128759614 
2478	 0.25073417997456 
2479	 0.250415793601615 
2480	 0.250266746557413 
2481	 0.250128030506449 
2482	 0.25009302164831 
2483	 0.25046729024334 
2484	 0.250210475370767 
2485	 0.249676499154064 
2486	 0.249594898320164 
2487	 0.249913881165836 
2488	 0.250239545108549 
2489	 0.250686466172109 
2490	 0.251275566886544 
2491	 0.251255185252213 
2492	 0.251242558342425 
2493	 0.251582907072723 
2494	 0.251692198946759 
2495	 0.251759654013124 
2496	 0.252316367553663 
2497	 0.252771047043223 
2498	 0.253397094159377 
2499	 0.254821241034114 
2500	 0.255064134511989 
