Wavelength	spectrum00015.asd
350	 3.77218506614049E-02 
351	 3.51854146688846E-02 
352	 3.53391080156319E-02 
353	 3.88471105878558E-02 
354	 3.71632415867081E-02 
355	 3.76598752480561E-02 
356	 3.69642035507757E-02 
357	 3.25854310441595E-02 
358	 3.06446510756763E-02 
359	 0.031289531370761 
360	 3.35408191197219E-02 
361	 3.55052848162497E-02 
362	 3.35400828368214E-02 
363	 3.07684619870678E-02 
364	 2.95389442016102E-02 
365	 3.03018108182753E-02 
366	 2.95753306958757E-02 
367	 3.02692515441408E-02 
368	 3.39064737011115E-02 
369	 3.26328362010579E-02 
370	 3.00976303097304E-02 
371	 2.87753007379218E-02 
372	 0.029840512674071 
373	 2.95697999282864E-02 
374	 2.91458677159524E-02 
375	 2.90252437125596E-02 
376	 2.77964125644539E-02 
377	 2.84458261812217E-02 
378	 2.89777792751311E-02 
379	 0.027676624104966 
380	 2.86279353894771E-02 
381	 2.82589612013738E-02 
382	 2.65054756563018E-02 
383	 2.56553045118384E-02 
384	 2.79714489212822E-02 
385	 0.028907366444639 
386	 0.027766317992853 
387	 3.09196033602432E-02 
388	 3.00270464484583E-02 
389	 0.028357165237836 
390	 2.98498739009226E-02 
391	 2.85821348678261E-02 
392	 2.85704808497092E-02 
393	 2.98972867945645E-02 
394	 3.00736854091791E-02 
395	 3.00979850320197E-02 
396	 3.01645308815307E-02 
397	 3.01143768827267E-02 
398	 0.029256507241101 
399	 2.95328201057152E-02 
400	 3.03112079092441E-02 
401	 3.05208040484142E-02 
402	 3.07679507962014E-02 
403	 3.07031979479421E-02 
404	 0.030414268000941 
405	 3.03304709197977E-02 
406	 3.08218435779176E-02 
407	 3.05160000127673E-02 
408	 2.93376665629109E-02 
409	 3.02069273511534E-02 
410	 3.08905232499519E-02 
411	 3.10123287830091E-02 
412	 3.08764286369031E-02 
413	 3.09135929621297E-02 
414	 0.031123518537705 
415	 0.031342822819201 
416	 3.13176006632432E-02 
417	 3.14549624997107E-02 
418	 3.14844453834303E-02 
419	 0.031366556093822 
420	 0.031939643586059 
421	 3.20836154632354E-02 
422	 3.21105168366952E-02 
423	 3.26860369075768E-02 
424	 3.26325241087834E-02 
425	 3.27426623481823E-02 
426	 3.31821975815181E-02 
427	 3.32522632532141E-02 
428	 3.37787713963469E-02 
429	 3.41310523516313E-02 
430	 3.39017127533874E-02 
431	 3.43053937075278E-02 
432	 3.46974487335278E-02 
433	 3.49581987039578E-02 
434	 3.52446920905209E-02 
435	 3.52930174370149E-02 
436	 0.035563093902414 
437	 0.036094663767567 
438	 3.61571438597878E-02 
439	 3.64318983588027E-02 
440	 3.68628270314199E-02 
441	 3.72338751900109E-02 
442	 0.037620650051297 
443	 3.79279406442057E-02 
444	 3.81703639436103E-02 
445	 3.84551007935387E-02 
446	 3.88261322658805E-02 
447	 3.93425394280793E-02 
448	 3.99527067179547E-02 
449	 4.03891663727204E-02 
450	 4.05932630525487E-02 
451	 4.08134539319157E-02 
452	 0.041337313480649 
453	 4.18621489351061E-02 
454	 4.22048914919901E-02 
455	 4.25147899180566E-02 
456	 4.32735754364759E-02 
457	 4.35832366333682E-02 
458	 4.37012385265441E-02 
459	 4.39977349930217E-02 
460	 4.43421969142074E-02 
461	 4.47848725671668E-02 
462	 4.52644276675138E-02 
463	 0.045679284416769 
464	 4.61760563914288E-02 
465	 4.65090964565751E-02 
466	 0.046657100595724 
467	 4.69980751034598E-02 
468	 0.047475703250904 
469	 4.78323416825385E-02 
470	 4.79618129432131E-02 
471	 4.87019791600685E-02 
472	 4.91350708927222E-02 
473	 4.91267733501404E-02 
474	 4.92260493452964E-02 
475	 4.97077860720013E-02 
476	 5.02396882488996E-02 
477	 5.05823424028369E-02 
478	 5.09596157822143E-02 
479	 5.10974429056263E-02 
480	 5.13304285285495E-02 
481	 0.052013363546957 
482	 5.20384072108819E-02 
483	 5.22428534984992E-02 
484	 0.052797270000411 
485	 0.052962404547053 
486	 5.30707645013106E-02 
487	 5.33373349261986E-02 
488	 5.38011278408579E-02 
489	 5.40548387199687E-02 
490	 5.41863089058837E-02 
491	 5.43525694931364E-02 
492	 5.47002567874832E-02 
493	 5.48259568221256E-02 
494	 5.50108111767673E-02 
495	 5.53621649166336E-02 
496	 5.55649602208389E-02 
497	 5.57620998803324E-02 
498	 5.58530848641095E-02 
499	 5.57641496077253E-02 
500	 5.58385474653009E-02 
501	 0.05603019399246 
502	 0.056182065907818 
503	 5.60817341733098E-02 
504	 5.60642842258472E-02 
505	 0.056136891422501 
506	 5.62085236211029E-02 
507	 5.60968708269782E-02 
508	 5.60542493892692E-02 
509	 5.59798206553909E-02 
510	 5.56993209639636E-02 
511	 5.57131992159322E-02 
512	 5.57036787161893E-02 
513	 5.55211062958069E-02 
514	 0.055324269917741 
515	 5.51323172590973E-02 
516	 5.49878872368741E-02 
517	 5.48569682526804E-02 
518	 5.44223037304834E-02 
519	 5.40618670966268E-02 
520	 5.38609009189673E-02 
521	 5.36808077090415E-02 
522	 5.34114886584816E-02 
523	 5.31437690431388E-02 
524	 5.29208633789735E-02 
525	 5.26356087348542E-02 
526	 5.22569901574526E-02 
527	 5.18472110265344E-02 
528	 5.14855557649735E-02 
529	 5.11137270697207E-02 
530	 5.07552884227164E-02 
531	 5.04143573401419E-02 
532	 5.00708951745969E-02 
533	 4.97423704906476E-02 
534	 4.93972590749073E-02 
535	 0.049003353946762 
536	 4.85326102470145E-02 
537	 4.82265503444196E-02 
538	 4.79388897329914E-02 
539	 4.73703631213011E-02 
540	 4.69965229281565E-02 
541	 4.66211563065424E-02 
542	 4.61430050271741E-02 
543	 4.57359374516237E-02 
544	 4.53639681389199E-02 
545	 4.50152586967547E-02 
546	 4.46632473702772E-02 
547	 4.41895259709197E-02 
548	 4.37852952929305E-02 
549	 4.34722603423091E-02 
550	 4.31161772105305E-02 
551	 4.27687061405758E-02 
552	 4.24481751505735E-02 
553	 4.21467730806211E-02 
554	 4.18073950080279E-02 
555	 4.14570260019858E-02 
556	 4.10816929758703E-02 
557	 4.06695147715355E-02 
558	 4.03617616947707E-02 
559	 4.00427710012109E-02 
560	 0.039689113351166 
561	 3.94421566875548E-02 
562	 0.039062955790496 
563	 3.86434030566402E-02 
564	 3.83111841858787E-02 
565	 3.79585992532677E-02 
566	 3.75687970794906E-02 
567	 3.71550736447951E-02 
568	 3.67592489573843E-02 
569	 3.64848468638133E-02 
570	 3.62459400213368E-02 
571	 3.59932424051288E-02 
572	 3.58092195081859E-02 
573	 3.57641937308489E-02 
574	 0.035760221573946 
575	 3.56424393282902E-02 
576	 0.035398725091607 
577	 3.50256097466158E-02 
578	 3.45808444104008E-02 
579	 3.41844316525731E-02 
580	 3.38418297001388E-02 
581	 3.35358538873125E-02 
582	 3.32755259228137E-02 
583	 3.31970239864792E-02 
584	 3.31121996828858E-02 
585	 0.03297622258313 
586	 3.28336332421333E-02 
587	 3.26836475542579E-02 
588	 3.24955187103917E-02 
589	 3.22561050835412E-02 
590	 0.031976752684191 
591	 0.031902566269217 
592	 3.19144768387111E-02 
593	 3.18135954804965E-02 
594	 3.16299913119191E-02 
595	 3.14148964566771E-02 
596	 3.11661386460046E-02 
597	 3.08423403816144E-02 
598	 3.05356650472369E-02 
599	 3.02820845532771E-02 
600	 3.00978315724692E-02 
601	 2.99991617948153E-02 
602	 2.98765330572022E-02 
603	 2.97414461012136E-02 
604	 2.96507789077502E-02 
605	 2.95542910424174E-02 
606	 2.94645280157685E-02 
607	 2.93744537204863E-02 
608	 2.92472988430244E-02 
609	 2.91044683841173E-02 
610	 2.89810728598059E-02 
611	 2.88964318586394E-02 
612	 2.88117873195774E-02 
613	 2.87245225389198E-02 
614	 2.86269608782642E-02 
615	 2.85127100435459E-02 
616	 2.84201322535661E-02 
617	 2.83390681461514E-02 
618	 2.82562177599874E-02 
619	 2.81626101136489E-02 
620	 2.81016452877527E-02 
621	 2.80375608961364E-02 
622	 2.79323547375948E-02 
623	 2.78686131827235E-02 
624	 2.78512010233281E-02 
625	 2.78257896061085E-02 
626	 2.76995749369737E-02 
627	 2.76735305079719E-02 
628	 2.76355868976271E-02 
629	 2.75218193543656E-02 
630	 2.75491602883112E-02 
631	 2.75129524488973E-02 
632	 2.74274524224556E-02 
633	 2.73936939353002E-02 
634	 2.73753851594423E-02 
635	 2.73700663156049E-02 
636	 2.73630869085439E-02 
637	 2.73233929876593E-02 
638	 2.72950515669029E-02 
639	 2.72837975324871E-02 
640	 2.72816573689916E-02 
641	 2.72693235645966E-02 
642	 2.72704885573864E-02 
643	 2.72953993863051E-02 
644	 0.027335220437284 
645	 2.72897630123605E-02 
646	 2.72705915275814E-02 
647	 2.73160810224865E-02 
648	 2.73002089923081E-02 
649	 2.73373641516265E-02 
650	 2.73649797863203E-02 
651	 2.73206179611241E-02 
652	 2.73772705241261E-02 
653	 2.74360661724043E-02 
654	 2.74582203630177E-02 
655	 2.74641095929726E-02 
656	 2.74847976246664E-02 
657	 0.0275427520175 
658	 2.76232820538223E-02 
659	 2.76368703930272E-02 
660	 2.76696788915538E-02 
661	 2.77105263367712E-02 
662	 2.77251234351696E-02 
663	 2.77573861506459E-02 
664	 2.78071753222155E-02 
665	 2.78759932201995E-02 
666	 2.79679378386893E-02 
667	 2.80517094662546E-02 
668	 2.81176724768697E-02 
669	 2.81697415540354E-02 
670	 2.82336726298533E-02 
671	 2.82767906007063E-02 
672	 2.83224937484911E-02 
673	 0.028411326407615 
674	 2.85149226732478E-02 
675	 2.85983128768176E-02 
676	 2.86571358571414E-02 
677	 2.87236473011164E-02 
678	 2.87974885939755E-02 
679	 2.88654739868375E-02 
680	 2.89239186084051E-02 
681	 2.90066769693753E-02 
682	 2.91193586064843E-02 
683	 2.92304909800322E-02 
684	 2.93003178729581E-02 
685	 2.93980663102274E-02 
686	 2.95212710739681E-02 
687	 2.96431522302213E-02 
688	 2.97156952383667E-02 
689	 2.97883907944459E-02 
690	 0.029885163088716 
691	 3.00057115397049E-02 
692	 3.00944613775446E-02 
693	 3.01806369246476E-02 
694	 3.02925929733182E-02 
695	 3.04462848930802E-02 
696	 3.05652561838432E-02 
697	 0.030651682957983 
698	 3.07281143288539E-02 
699	 3.08298937531602E-02 
700	 3.09773690458209E-02 
701	 3.11120820960084E-02 
702	 3.11926625469522E-02 
703	 3.13351530770212E-02 
704	 0.031474060713338 
705	 3.16006734982073E-02 
706	 3.17426625083726E-02 
707	 3.18523291349425E-02 
708	 0.031965900780449 
709	 3.21038880521402E-02 
710	 3.22435558126079E-02 
711	 3.23682261697979E-02 
712	 3.24891033621815E-02 
713	 3.26206185547782E-02 
714	 3.27473212788609E-02 
715	 3.28943362325869E-02 
716	 0.033041251803783 
717	 3.31415603016571E-02 
718	 3.32412896022234E-02 
719	 3.33758178941924E-02 
720	 3.35338561913668E-02 
721	 3.36275038820442E-02 
722	 3.37607776991127E-02 
723	 3.39095559121823E-02 
724	 3.40329785264382E-02 
725	 3.41868149999654E-02 
726	 3.43404886499855E-02 
727	 3.44803144525119E-02 
728	 3.46070821325852E-02 
729	 3.47173198907476E-02 
730	 3.48302790756281E-02 
731	 0.03495885449379 
732	 0.035100540371984 
733	 3.52634965370245E-02 
734	 3.54047351078163E-02 
735	 3.55004522939094E-02 
736	 0.03565402228306 
737	 3.58022644596569E-02 
738	 3.59206041356258E-02 
739	 3.60180886016432E-02 
740	 3.61423867192261E-02 
741	 3.62696373766544E-02 
742	 3.63923068212688E-02 
743	 3.65414916785099E-02 
744	 0.036692975434467 
745	 3.68202071759955E-02 
746	 3.69157687920298E-02 
747	 3.70360698652671E-02 
748	 3.71492876501467E-02 
749	 3.72629640107752E-02 
750	 3.74013301439479E-02 
751	 3.75346627689939E-02 
752	 3.76392462242596E-02 
753	 3.77267322308169E-02 
754	 3.78509419332042E-02 
755	 3.79831322740385E-02 
756	 3.81105720554839E-02 
757	 3.82268559783607E-02 
758	 0.03833058303823 
759	 3.84507797604414E-02 
760	 3.85717332345868E-02 
761	 3.86662301331557E-02 
762	 0.038785169427183 
763	 3.88961467644239E-02 
764	 0.03899521015166 
765	 3.91139267284488E-02 
766	 3.92312312248097E-02 
767	 3.93293881217222E-02 
768	 3.94093766255491E-02 
769	 3.95130743089531E-02 
770	 3.96051611960081E-02 
771	 3.97051732717617E-02 
772	 3.98387383723153E-02 
773	 3.99632319894171E-02 
774	 4.00756048648712E-02 
775	 4.01807074759959E-02 
776	 4.02879584960085E-02 
777	 4.03871530261302E-02 
778	 4.04904686095961E-02 
779	 4.06030761774289E-02 
780	 4.07132999420009E-02 
781	 0.040814259812976 
782	 4.09277686405702E-02 
783	 4.10603989678142E-02 
784	 4.11334046199809E-02 
785	 0.041227683772284 
786	 0.041342434307892 
787	 4.14381713698907E-02 
788	 4.15771889693212E-02 
789	 4.17142753568341E-02 
790	 4.18162573356196E-02 
791	 4.18819195963219E-02 
792	 4.20395015253241E-02 
793	 4.21958892624534E-02 
794	 4.22815323600513E-02 
795	 4.24029210062575E-02 
796	 4.25076140780363E-02 
797	 4.26054227411728E-02 
798	 4.27209747316339E-02 
799	 4.28417547598764E-02 
800	 4.29486369334388E-02 
801	 0.043067886292768 
802	 4.32457941934706E-02 
803	 4.33634820514359E-02 
804	 4.34670257206115E-02 
805	 4.35989139469737E-02 
806	 4.37608079492646E-02 
807	 4.38696771961795E-02 
808	 4.39743038826259E-02 
809	 4.41207574432697E-02 
810	 4.42378656735796E-02 
811	 4.43852493009833E-02 
812	 4.45516880877725E-02 
813	 4.47019432038855E-02 
814	 4.48619285137975E-02 
815	 4.50101182299567E-02 
816	 4.51477971840581E-02 
817	 4.52966709856531E-02 
818	 4.54413088771122E-02 
819	 4.56103854343377E-02 
820	 4.58098500235533E-02 
821	 0.046000416708646 
822	 4.61754307785779E-02 
823	 4.63402683665564E-02 
824	 4.65056154565118E-02 
825	 4.66788226089919E-02 
826	 4.68785917506897E-02 
827	 4.70997159723449E-02 
828	 4.73158135029975E-02 
829	 4.74575796146963E-02 
830	 4.76554193735072E-02 
831	 4.79086180146386E-02 
832	 4.81007169852612E-02 
833	 4.83024511375794E-02 
834	 4.85168870980695E-02 
835	 4.87419206583918E-02 
836	 4.89818387304844E-02 
837	 4.92509914213404E-02 
838	 4.95020419692059E-02 
839	 0.049704562478407 
840	 4.99113973359656E-02 
841	 5.01545844498035E-02 
842	 5.04230462365768E-02 
843	 5.06921077139532E-02 
844	 5.09813222584928E-02 
845	 5.12612589138135E-02 
846	 5.15174901229637E-02 
847	 5.17598977044116E-02 
848	 5.20829320471598E-02 
849	 5.23949792312868E-02 
850	 5.26575181272486E-02 
851	 5.29260305719003E-02 
852	 5.32474653360185E-02 
853	 5.35636673779464E-02 
854	 5.38654970144069E-02 
855	 5.43034307799373E-02 
856	 5.46312958522595E-02 
857	 5.49064346633551E-02 
858	 5.52478052793327E-02 
859	 5.56167225336807E-02 
860	 5.59874966866816E-02 
861	 5.63531013469939E-02 
862	 5.67142828099776E-02 
863	 5.70407848898868E-02 
864	 0.057437872103387 
865	 5.78931201266505E-02 
866	 5.82981544304404E-02 
867	 5.87413143238598E-02 
868	 5.92015268609417E-02 
869	 5.96419047208049E-02 
870	 0.060029333196407 
871	 6.05098457212912E-02 
872	 6.10249017153819E-02 
873	 6.15049969432641E-02 
874	 6.19628678762796E-02 
875	 6.24765530029476E-02 
876	 6.29991775466499E-02 
877	 6.34747732536909E-02 
878	 0.06395908475016 
879	 6.45911956509925E-02 
880	 6.52169688842906E-02 
881	 0.065635367700851 
882	 6.62324577368332E-02 
883	 6.68121679161109E-02 
884	 6.73511214416425E-02 
885	 6.79704378858425E-02 
886	 6.86089349784364E-02 
887	 6.92572959764817E-02 
888	 6.99035496043703E-02 
889	 7.05297555407228E-02 
890	 7.11780047613706E-02 
891	 7.18890020948689E-02 
892	 7.26327284356521E-02 
893	 7.32656161891963E-02 
894	 7.39941307247929E-02 
895	 7.47326992066681E-02 
896	 7.54176085598911E-02 
897	 7.62443991991643E-02 
898	 7.70177937901699E-02 
899	 7.77268299390657E-02 
900	 7.84315352626809E-02 
901	 7.91809250095862E-02 
902	 7.99842825913027E-02 
903	 8.08206412259242E-02 
904	 8.16570805371164E-02 
905	 8.24904016742723E-02 
906	 0.083337905198337 
907	 8.42028855232355E-02 
908	 8.50778746876017E-02 
909	 0.085966323370265 
910	 8.68499213018645E-02 
911	 8.77315823211366E-02 
912	 8.86383266152936E-02 
913	 8.95570747000294E-02 
914	 9.05765791206388E-02 
915	 9.16729290489199E-02 
916	 9.26616957274578E-02 
917	 9.36174157759243E-02 
918	 9.45678490612392E-02 
919	 9.55287171351847E-02 
920	 9.65021445652716E-02 
921	 9.76743471501088E-02 
922	 9.88302189616611E-02 
923	 9.98351993750326E-02 
924	 0.101039331399912 
925	 0.102266263999061 
926	 0.103383445122301 
927	 0.104364090062273 
928	 0.10546338064237 
929	 0.106636890893559 
930	 0.107831632547108 
931	 0.109023517728547 
932	 0.110360074896723 
933	 0.111617568632157 
934	 0.112817205344233 
935	 0.114094952187358 
936	 0.115360634961097 
937	 0.116558262164984 
938	 0.117815045973009 
939	 0.119300844321392 
940	 0.120647233724021 
941	 0.121851761439104 
942	 0.123045148245963 
943	 0.124419586407692 
944	 0.125923187989739 
945	 0.127297985381495 
946	 0.128518411977038 
947	 0.129828913333356 
948	 0.131328684865358 
949	 0.132891146827771 
950	 0.134346383526401 
951	 0.135569641157061 
952	 0.137025465894019 
953	 0.138457570801896 
954	 0.13975409230148 
955	 0.141204489471308 
956	 0.142621022421416 
957	 0.144119010601556 
958	 0.145724026526188 
959	 0.147216834088184 
960	 0.148450758983883 
961	 0.14968517037331 
962	 0.151081795103926 
963	 0.152402768321063 
964	 0.153920385427085 
965	 0.15549825690381 
966	 0.156970995554367 
967	 0.158369301655378 
968	 0.159848487556401 
969	 0.161223254747084 
970	 0.162453350534965 
971	 0.16410633502626 
972	 0.16569640593487 
973	 0.167123661640389 
974	 0.168477061683162 
975	 0.170001383318707 
976	 0.17152578530756 
977	 0.17303799737251 
978	 0.174549453079217 
979	 0.175984060157475 
980	 0.177416584123295 
981	 0.178886239185324 
982	 0.180383442704893 
983	 0.181797971392547 
984	 0.183286774237895 
985	 0.184917658816155 
986	 0.186608800253532 
987	 0.187947081364561 
988	 0.189485109304549 
989	 0.191046022334252 
990	 0.192317299256133 
991	 0.193467257684016 
992	 0.194864715022519 
993	 0.196383012966406 
994	 0.197804519047582 
995	 0.199300752183582 
996	 0.200955791992586 
997	 0.202502513736292 
998	 0.203748789069263 
999	 0.205175035823125 
1000	 0.206573182108135 
1001	 0.214775204833964 
1002	 0.216146623273379 
1003	 0.217528649585365 
1004	 0.218925405024977 
1005	 0.220257663548221 
1006	 0.221721462883931 
1007	 0.223284566596687 
1008	 0.224760410712728 
1009	 0.22623415324625 
1010	 0.227719772589214 
1011	 0.229215196649407 
1012	 0.230648905168428 
1013	 0.232059671252195 
1014	 0.233501974752238 
1015	 0.234914368930508 
1016	 0.236294372914863 
1017	 0.237804383849443 
1018	 0.239190443223438 
1019	 0.240498208153717 
1020	 0.241896814397443 
1021	 0.243264693794667 
1022	 0.244649414065158 
1023	 0.245976666601319 
1024	 0.24729784020579 
1025	 0.248566681029577 
1026	 0.249724075928288 
1027	 0.25094562674773 
1028	 0.25219903863525 
1029	 0.253426342416614 
1030	 0.254571320558435 
1031	 0.255814044440345 
1032	 0.256985601888321 
1033	 0.258141183803937 
1034	 0.259446636539739 
1035	 0.260625471258607 
1036	 0.261770107279561 
1037	 0.262922796657861 
1038	 0.264004400488516 
1039	 0.264993078769387 
1040	 0.266027070439864 
1041	 0.267019457640617 
1042	 0.268024202330125 
1043	 0.269048541904621 
1044	 0.270057365221768 
1045	 0.271017644360306 
1046	 0.271929408856003 
1047	 0.272857310144187 
1048	 0.273785727478967 
1049	 0.274689516604715 
1050	 0.275638950989709 
1051	 0.276565475139746 
1052	 0.277431038430057 
1053	 0.278370161657312 
1054	 0.279411003487402 
1055	 0.280337713395025 
1056	 0.281228737647873 
1057	 0.282164824450003 
1058	 0.283051806154169 
1059	 0.283914348346293 
1060	 0.284971808230902 
1061	 0.286060043769212 
1062	 0.287151668610098 
1063	 0.288349330023347 
1064	 0.28947193083465 
1065	 0.290510972507349 
1066	 0.291553657453473 
1067	 0.292596910162695 
1068	 0.293692992387436 
1069	 0.29479931479632 
1070	 0.295963935792704 
1071	 0.297186970680394 
1072	 0.298413732633292 
1073	 0.299543222368397 
1074	 0.300772283531237 
1075	 0.302015373327873 
1076	 0.303172784990904 
1077	 0.30449485864132 
1078	 0.305830851232284 
1079	 0.307133390068849 
1080	 0.30847220571137 
1081	 0.30971930668785 
1082	 0.310977026467305 
1083	 0.312145881545133 
1084	 0.313283427940189 
1085	 0.314533337139144 
1086	 0.31573650089229 
1087	 0.316900251775082 
1088	 0.318139162468153 
1089	 0.319390152178573 
1090	 0.320505689671411 
1091	 0.321690276213948 
1092	 0.322825851421381 
1093	 0.323904657510241 
1094	 0.324950623400842 
1095	 0.325843475297788 
1096	 0.326780242184838 
1097	 0.327683217250198 
1098	 0.32853379828184 
1099	 0.329492863826043 
1100	 0.330330034703819 
1101	 0.331050485144482 
1102	 0.331794054092114 
1103	 0.332463276389641 
1104	 0.3330374391238 
1105	 0.333633514226293 
1106	 0.334245335099758 
1107	 0.334735787085321 
1108	 0.335235520244853 
1109	 0.335696510824527 
1110	 0.336093132938712 
1111	 0.336529448185042 
1112	 0.336953003492321 
1113	 0.33726712148887 
1114	 0.3375174931429 
1115	 0.337734405613149 
1116	 0.337878159979491 
1117	 0.338034851394229 
1118	 0.338202432304584 
1119	 0.338391514529253 
1120	 0.338534040248761 
1121	 0.338682417245712 
1122	 0.338767467386842 
1123	 0.338810862764905 
1124	 0.338843777822656 
1125	 0.338868776540925 
1126	 0.338893348979967 
1127	 0.338906586072499 
1128	 0.338900912368616 
1129	 0.33884851499138 
1130	 0.338808393862441 
1131	 0.338784060749103 
1132	 0.338737245618608 
1133	 0.338727506357171 
1134	 0.338731993233459 
1135	 0.338730024641621 
1136	 0.338737558987477 
1137	 0.338739698715361 
1138	 0.338749371021744 
1139	 0.338744761093087 
1140	 0.338740331792982 
1141	 0.338704395324753 
1142	 0.338683545288848 
1143	 0.338654702527253 
1144	 0.338614169894951 
1145	 0.338597996614458 
1146	 0.338548794524767 
1147	 0.338461138005236 
1148	 0.338380607401665 
1149	 0.338309203505977 
1150	 0.338305208274957 
1151	 0.338320386642318 
1152	 0.338274924906733 
1153	 0.338214670281456 
1154	 0.338156553148676 
1155	 0.338041340353439 
1156	 0.337956007082941 
1157	 0.337920901929518 
1158	 0.337836896717973 
1159	 0.337733137729098 
1160	 0.337606597027571 
1161	 0.337464354751148 
1162	 0.337313174575228 
1163	 0.337156072261514 
1164	 0.33702625364896 
1165	 0.33692138085165 
1166	 0.336832568025472 
1167	 0.33672923157303 
1168	 0.336563619381322 
1169	 0.336432411479384 
1170	 0.336285511159901 
1171	 0.336156400492985 
1172	 0.3360643099171 
1173	 0.335946076510114 
1174	 0.335800964685736 
1175	 0.335655839868866 
1176	 0.335514018838741 
1177	 0.335374699615945 
1178	 0.33524161974371 
1179	 0.335086338389421 
1180	 0.33492983143949 
1181	 0.334759258519322 
1182	 0.33457858422535 
1183	 0.334424742784623 
1184	 0.334284505003826 
1185	 0.334103303141216 
1186	 0.333937722659281 
1187	 0.333748770617827 
1188	 0.333611533930688 
1189	 0.333476817522787 
1190	 0.333402953767079 
1191	 0.333392662140384 
1192	 0.333369336418986 
1193	 0.333383358653258 
1194	 0.333381235245351 
1195	 0.333362389857332 
1196	 0.333367062556421 
1197	 0.333368014762065 
1198	 0.333408971260077 
1199	 0.333486304564719 
1200	 0.333570551729211 
1201	 0.333657368283807 
1202	 0.333769747061859 
1203	 0.333904134828721 
1204	 0.334059106858036 
1205	 0.334279387208569 
1206	 0.334558482251517 
1207	 0.334876531656238 
1208	 0.335236830571586 
1209	 0.335637900972124 
1210	 0.336066088321288 
1211	 0.33657653867255 
1212	 0.337146377594809 
1213	 0.337770689882321 
1214	 0.33844608469303 
1215	 0.339208171521985 
1216	 0.340060891553431 
1217	 0.34092303714102 
1218	 0.341860601841267 
1219	 0.342825330905129 
1220	 0.343813695978194 
1221	 0.344865746752141 
1222	 0.345850198835822 
1223	 0.346857412452908 
1224	 0.347796440993048 
1225	 0.348639429772509 
1226	 0.349517995881237 
1227	 0.35041700191846 
1228	 0.35125826268086 
1229	 0.35207592135181 
1230	 0.352871537278924 
1231	 0.353639606421798 
1232	 0.354371600247805 
1233	 0.355081625967399 
1234	 0.355744679380098 
1235	 0.356342282253395 
1236	 0.356945885049594 
1237	 0.357534015393486 
1238	 0.358098971964887 
1239	 0.358652768418923 
1240	 0.35918442904801 
1241	 0.359683187229141 
1242	 0.36014714985457 
1243	 0.360597976593567 
1244	 0.361032502828176 
1245	 0.361429453967895 
1246	 0.361789677184355 
1247	 0.362151379365169 
1248	 0.362500478870701 
1249	 0.362811746050721 
1250	 0.363095904028326 
1251	 0.363378917188866 
1252	 0.363635478934649 
1253	 0.363870777539454 
1254	 0.364132443864964 
1255	 0.364321877084891 
1256	 0.364446787202197 
1257	 0.364560143502876 
1258	 0.364622466571324 
1259	 0.364686753863644 
1260	 0.36473719640064 
1261	 0.364774250978815 
1262	 0.364776680280441 
1263	 0.364799745943645 
1264	 0.364845509488543 
1265	 0.364881366222561 
1266	 0.364962118495397 
1267	 0.365103767112433 
1268	 0.365191906564819 
1269	 0.365280931886146 
1270	 0.365356118379377 
1271	 0.365402653890098 
1272	 0.365467867294267 
1273	 0.365533999120407 
1274	 0.365606172038135 
1275	 0.365670549883941 
1276	 0.365760819257285 
1277	 0.365868905417189 
1278	 0.365979388996655 
1279	 0.366126698476788 
1280	 0.366242902694503 
1281	 0.36631646166757 
1282	 0.366437062008875 
1283	 0.366528497307122 
1284	 0.366690591577824 
1285	 0.366901475221837 
1286	 0.367172894532846 
1287	 0.367452850608647 
1288	 0.367770184796497 
1289	 0.368123438399143 
1290	 0.368504395550869 
1291	 0.368917163148976 
1292	 0.369370345204971 
1293	 0.369857422300453 
1294	 0.370383114077866 
1295	 0.37091570644163 
1296	 0.371482975217299 
1297	 0.372068128143351 
1298	 0.372661805397619 
1299	 0.373281128936973 
1300	 0.373961681957177 
1301	 0.374604842847943 
1302	 0.375246406528595 
1303	 0.375879355634244 
1304	 0.376493928555204 
1305	 0.377109267421688 
1306	 0.377723061243322 
1307	 0.378330155935148 
1308	 0.378921619851683 
1309	 0.37953517549148 
1310	 0.3800897032381 
1311	 0.380637505571645 
1312	 0.381118407035263 
1313	 0.381541735486788 
1314	 0.381956062486873 
1315	 0.382329647885012 
1316	 0.382691172989862 
1317	 0.383048554498317 
1318	 0.383344623545921 
1319	 0.38361050908505 
1320	 0.383825517073968 
1321	 0.383997130809269 
1322	 0.384118055474022 
1323	 0.384218317432503 
1324	 0.384226983504133 
1325	 0.384163433214618 
1326	 0.384053718368205 
1327	 0.383894268831936 
1328	 0.383655525691851 
1329	 0.383346800616406 
1330	 0.383002580982961 
1331	 0.382592419671783 
1332	 0.382138695913732 
1333	 0.38164853004323 
1334	 0.381122261128684 
1335	 0.380558203973813 
1336	 0.379936464392804 
1337	 0.379314245971006 
1338	 0.378667391794607 
1339	 0.37802016106083 
1340	 0.37735240076038 
1341	 0.37668985565149 
1342	 0.376040076315159 
1343	 0.375346693923082 
1344	 0.374660324289098 
1345	 0.373899746176463 
1346	 0.373090229412222 
1347	 0.372264150590956 
1348	 0.371374400526591 
1349	 0.370507449972647 
1350	 0.369620664030281 
1351	 0.368748693848835 
1352	 0.367873506222141 
1353	 0.367013152302491 
1354	 0.366149717770303 
1355	 0.365317422249763 
1356	 0.364505786036941 
1357	 0.363702439864487 
1358	 0.362900602127168 
1359	 0.362135662781436 
1360	 0.361390550735037 
1361	 0.36065659614932 
1362	 0.359979642329257 
1363	 0.35936709057208 
1364	 0.358726100426482 
1365	 0.358117370147664 
1366	 0.35748262142224 
1367	 0.356825501931161 
1368	 0.356198746524277 
1369	 0.355600655089245 
1370	 0.354955732031056 
1371	 0.354312613930675 
1372	 0.353640522745633 
1373	 0.352949007363927 
1374	 0.352212262240507 
1375	 0.35146355459115 
1376	 0.35065340956773 
1377	 0.34978161670665 
1378	 0.348877621740604 
1379	 0.347892568666343 
1380	 0.346954948246163 
1381	 0.345991175993689 
1382	 0.345047734184078 
1383	 0.344127497331432 
1384	 0.343216861667209 
1385	 0.342293489379672 
1386	 0.341410470804838 
1387	 0.340536993303169 
1388	 0.339725037224552 
1389	 0.338932766798452 
1390	 0.338209559578938 
1391	 0.337571543971141 
1392	 0.336931456557433 
1393	 0.336386730190727 
1394	 0.335862106479014 
1395	 0.33531904364777 
1396	 0.334821084016532 
1397	 0.334249667655475 
1398	 0.333694317451255 
1399	 0.33297904010037 
1400	 0.332213056173537 
1401	 0.331310755476209 
1402	 0.330278522134467 
1403	 0.329158738532691 
1404	 0.327936480666113 
1405	 0.326652165523599 
1406	 0.325234887944106 
1407	 0.323826263415807 
1408	 0.322279950939582 
1409	 0.320888286772333 
1410	 0.31944463426839 
1411	 0.318208804683742 
1412	 0.317061741780403 
1413	 0.316119010162532 
1414	 0.315340808340677 
1415	 0.314695061860706 
1416	 0.314284668876554 
1417	 0.313886545446455 
1418	 0.313636928515578 
1419	 0.313364830215201 
1420	 0.313158024682275 
1421	 0.312927490332827 
1422	 0.312675656936475 
1423	 0.312458822921579 
1424	 0.312258747118633 
1425	 0.312057670744141 
1426	 0.31191009983844 
1427	 0.311747121068007 
1428	 0.311571395474457 
1429	 0.311434128095524 
1430	 0.311312985275799 
1431	 0.311198157579559 
1432	 0.311126564373234 
1433	 0.311090301013729 
1434	 0.31106784055892 
1435	 0.311067892368511 
1436	 0.311101837930707 
1437	 0.31115967212812 
1438	 0.311241671645288 
1439	 0.311362085112187 
1440	 0.311485933022853 
1441	 0.311632315642901 
1442	 0.311781697004594 
1443	 0.311953046478854 
1444	 0.312112023278449 
1445	 0.312261786168347 
1446	 0.312433167508451 
1447	 0.312616836842471 
1448	 0.312794416645256 
1449	 0.3129969441576 
1450	 0.313171755228085 
1451	 0.313327684092191 
1452	 0.313482318459957 
1453	 0.313636201398462 
1454	 0.313766398971939 
1455	 0.3138811463712 
1456	 0.313989447758349 
1457	 0.314084555624756 
1458	 0.314166378369476 
1459	 0.314232723448886 
1460	 0.31429865608774 
1461	 0.314375093327982 
1462	 0.314407156305376 
1463	 0.314424206050184 
1464	 0.314417781958288 
1465	 0.314378679715779 
1466	 0.31430022684338 
1467	 0.314231695294802 
1468	 0.314132421736083 
1469	 0.31398463180342 
1470	 0.313816506365422 
1471	 0.313601637149654 
1472	 0.313352743970423 
1473	 0.313045826537525 
1474	 0.312692150923965 
1475	 0.312299509073268 
1476	 0.311850860556475 
1477	 0.311374626972139 
1478	 0.310853999528606 
1479	 0.310333001468054 
1480	 0.309786758550285 
1481	 0.309208004089949 
1482	 0.308616886326409 
1483	 0.307987470238743 
1484	 0.307296273457378 
1485	 0.306625816812591 
1486	 0.305932711433061 
1487	 0.305270143405507 
1488	 0.30458799744443 
1489	 0.303974030251899 
1490	 0.30336477987499 
1491	 0.302851628411539 
1492	 0.302384876261721 
1493	 0.30201266673718 
1494	 0.301713871350579 
1495	 0.301511889449567 
1496	 0.301399053152904 
1497	 0.301369277732724 
1498	 0.301422155784188 
1499	 0.301576407352 
1500	 0.30174775242863 
1501	 0.30215273392431 
1502	 0.302667829668862 
1503	 0.303410829463266 
1504	 0.304402676976818 
1505	 0.305510108403072 
1506	 0.3069050772342 
1507	 0.308245365488198 
1508	 0.309776940029096 
1509	 0.311154637699977 
1510	 0.31254279483273 
1511	 0.31376371060961 
1512	 0.31487646621147 
1513	 0.315870143036013 
1514	 0.316685809246962 
1515	 0.31746457226744 
1516	 0.318103154179778 
1517	 0.318754254323139 
1518	 0.319342396197726 
1519	 0.319947618053065 
1520	 0.320567919027412 
1521	 0.321160292971781 
1522	 0.321731547432637 
1523	 0.322338534272576 
1524	 0.322894713310194 
1525	 0.323421888295802 
1526	 0.32395960809327 
1527	 0.324488971432052 
1528	 0.324994665077888 
1529	 0.325500044905632 
1530	 0.325967407810367 
1531	 0.326393341671747 
1532	 0.326841397737814 
1533	 0.327276937892492 
1534	 0.327721323747712 
1535	 0.328187664454178 
1536	 0.328600039552492 
1537	 0.328988857144383 
1538	 0.3293753717146 
1539	 0.329730517429221 
1540	 0.330093243215169 
1541	 0.330461847426461 
1542	 0.330816838322491 
1543	 0.331165430973256 
1544	 0.331487552442258 
1545	 0.331806232027878 
1546	 0.332090404140911 
1547	 0.332347535086665 
1548	 0.332575522209862 
1549	 0.332774630725316 
1550	 0.332961205660287 
1551	 0.333114640665271 
1552	 0.333263516996884 
1553	 0.333409845404939 
1554	 0.333524790285472 
1555	 0.333601549087813 
1556	 0.333696605084781 
1557	 0.333770034855513 
1558	 0.333867426201596 
1559	 0.333970109631789 
1560	 0.334098034882187 
1561	 0.334254693455722 
1562	 0.334393355000911 
1563	 0.334530760588061 
1564	 0.334694659867018 
1565	 0.334874499847749 
1566	 0.335031722767177 
1567	 0.335211374587899 
1568	 0.335368642232321 
1569	 0.335477330646745 
1570	 0.335620709500105 
1571	 0.335777951219995 
1572	 0.335943422936828 
1573	 0.336114702318809 
1574	 0.336299424846208 
1575	 0.336511359003612 
1576	 0.336704491016774 
1577	 0.336904153540111 
1578	 0.337089049998678 
1579	 0.337273830036781 
1580	 0.337426429896525 
1581	 0.33754852723605 
1582	 0.337680814615284 
1583	 0.337775819016394 
1584	 0.337907377137057 
1585	 0.338074890377664 
1586	 0.338222689905091 
1587	 0.338374851628812 
1588	 0.338522377210371 
1589	 0.338670236195532 
1590	 0.33879962676909 
1591	 0.338922836962763 
1592	 0.339037359063302 
1593	 0.339097578239321 
1594	 0.339220932459804 
1595	 0.33937956000516 
1596	 0.339534710464115 
1597	 0.339757890583251 
1598	 0.339913246137308 
1599	 0.340031645094863 
1600	 0.340140940938814 
1601	 0.340209120834711 
1602	 0.340285909071217 
1603	 0.340347968213206 
1604	 0.340423735127395 
1605	 0.340497741137239 
1606	 0.340580248769367 
1607	 0.340701129601445 
1608	 0.340778455098083 
1609	 0.340843912764306 
1610	 0.340889451774645 
1611	 0.340873383970272 
1612	 0.340899131873392 
1613	 0.340938771639955 
1614	 0.340976603067793 
1615	 0.341044625008212 
1616	 0.341090236899958 
1617	 0.341111507929827 
1618	 0.341146539680574 
1619	 0.341211636249346 
1620	 0.341222384777539 
1621	 0.341224786348112 
1622	 0.341190599978585 
1623	 0.34107871157767 
1624	 0.340996228840962 
1625	 0.340903480819609 
1626	 0.340822089602947 
1627	 0.340768813680142 
1628	 0.340686062834891 
1629	 0.340575105564642 
1630	 0.340489534134242 
1631	 0.340391249966547 
1632	 0.340315000614388 
1633	 0.340279634016159 
1634	 0.34022493083107 
1635	 0.340172398018368 
1636	 0.340115179788513 
1637	 0.340045253354883 
1638	 0.339987714157516 
1639	 0.339964979785796 
1640	 0.339872480344307 
1641	 0.339760293069814 
1642	 0.33961794452964 
1643	 0.339397145153436 
1644	 0.339214306671162 
1645	 0.339044273093085 
1646	 0.338855321560229 
1647	 0.338657516792722 
1648	 0.338456685281476 
1649	 0.338269175369424 
1650	 0.338031686244836 
1651	 0.337805732549984 
1652	 0.337506646593625 
1653	 0.337118971357781 
1654	 0.336734724023023 
1655	 0.336287615463315 
1656	 0.335871920360852 
1657	 0.335506953650799 
1658	 0.335056010543366 
1659	 0.334600969635874 
1660	 0.334077605121482 
1661	 0.333463317784492 
1662	 0.33282382014935 
1663	 0.332160759193269 
1664	 0.331415942492361 
1665	 0.330604075291583 
1666	 0.329749349977632 
1667	 0.328848789444615 
1668	 0.32788967408093 
1669	 0.326899089811376 
1670	 0.325809095023166 
1671	 0.32462813954469 
1672	 0.323375107065589 
1673	 0.3220563763154 
1674	 0.320637620659741 
1675	 0.319115586856346 
1676	 0.317583394954531 
1677	 0.31594471248859 
1678	 0.314332301271115 
1679	 0.312723843107884 
1680	 0.311054947733487 
1681	 0.309356339630778 
1682	 0.30760879644321 
1683	 0.305793244175013 
1684	 0.304024443950545 
1685	 0.302260049013908 
1686	 0.300443004257222 
1687	 0.298603495707989 
1688	 0.296745380730287 
1689	 0.294834635362675 
1690	 0.292926255334679 
1691	 0.291033266229877 
1692	 0.289153771317708 
1693	 0.28726784980672 
1694	 0.28535618405207 
1695	 0.283446917358553 
1696	 0.281493006522367 
1697	 0.279503749018075 
1698	 0.277455874656508 
1699	 0.2753795917035 
1700	 0.273330891194116 
1701	 0.271200139671001 
1702	 0.269196745859351 
1703	 0.267223391753489 
1704	 0.26533662574301 
1705	 0.263490188753827 
1706	 0.261719836967185 
1707	 0.260174446526917 
1708	 0.258707186200801 
1709	 0.257352740280283 
1710	 0.25611798307925 
1711	 0.254852419606526 
1712	 0.253691505839807 
1713	 0.252599513336242 
1714	 0.251490180838916 
1715	 0.250526633286629 
1716	 0.249593972689914 
1717	 0.248652920802878 
1718	 0.247778781983831 
1719	 0.246897034473248 
1720	 0.246059268638227 
1721	 0.245320147640172 
1722	 0.244714134440772 
1723	 0.244297170253686 
1724	 0.243994679250435 
1725	 0.243792923819273 
1726	 0.243728058951537 
1727	 0.243846269762979 
1728	 0.244190162584592 
1729	 0.244793064851965 
1730	 0.245643022792644 
1731	 0.24656960666815 
1732	 0.247645454367756 
1733	 0.248795984117701 
1734	 0.249997589855888 
1735	 0.251309226222743 
1736	 0.252531147733526 
1737	 0.253662188247379 
1738	 0.254696348802822 
1739	 0.255545023604554 
1740	 0.256302569740763 
1741	 0.256847076890726 
1742	 0.257159862132444 
1743	 0.25739706571909 
1744	 0.257446043202845 
1745	 0.257460356059626 
1746	 0.257362290240602 
1747	 0.257236928957119 
1748	 0.257043884289171 
1749	 0.256816529141275 
1750	 0.256493140584895 
1751	 0.256256517550743 
1752	 0.255972773191297 
1753	 0.255808374227085 
1754	 0.255736256378221 
1755	 0.255712867533744 
1756	 0.255731511224851 
1757	 0.255832101863512 
1758	 0.256046793798778 
1759	 0.256391802125883 
1760	 0.256901955029987 
1761	 0.257615785319732 
1762	 0.258407883425466 
1763	 0.259344796907414 
1764	 0.260400816668036 
1765	 0.261522025852646 
1766	 0.262781518159021 
1767	 0.264039605142562 
1768	 0.265293968102584 
1769	 0.266549258537217 
1770	 0.267732348492895 
1771	 0.268978773835676 
1772	 0.2701920111099 
1773	 0.271340022288016 
1774	 0.272528555616356 
1775	 0.273596500465468 
1776	 0.274543597815894 
1777	 0.27538768876152 
1778	 0.276091748844491 
1779	 0.276716227816501 
1780	 0.27728190589086 
1781	 0.277803008347916 
1782	 0.278292507153489 
1783	 0.27870859580002 
1784	 0.279123189396657 
1785	 0.279540127501736 
1786	 0.279891686282215 
1787	 0.280236120383347 
1788	 0.280490415650612 
1789	 0.280636997059228 
1790	 0.280824665643872 
1791	 0.280978346758304 
1792	 0.281109869246716 
1793	 0.281250339453846 
1794	 0.281303836460372 
1795	 0.281355867938113 
1796	 0.281444821790935 
1797	 0.28155846623156 
1798	 0.281687043600182 
1799	 0.281848216098608 
1800	 0.281988011222428 
1801	 0.28441225211517 
1802	 0.284720882587926 
1803	 0.285011505212696 
1804	 0.28528574718225 
1805	 0.285559613639001 
1806	 0.285811862493862 
1807	 0.286055468676496 
1808	 0.286280263768806 
1809	 0.286481882096987 
1810	 0.286683066186666 
1811	 0.286850850254601 
1812	 0.287045439103039 
1813	 0.287225390716992 
1814	 0.287457478277481 
1815	 0.287700844116527 
1816	 0.287940939770419 
1817	 0.288149458870175 
1818	 0.288329891961054 
1819	 0.288522636733638 
1820	 0.288661141803923 
1821	 0.288881012704467 
1822	 0.289132049069997 
1823	 0.289428471163631 
1824	 0.289764013248464 
1825	 0.290069717019999 
1826	 0.290316505334246 
1827	 0.290524615943126 
1828	 0.290725445869522 
1829	 0.29085893487723 
1830	 0.29104614896883 
1831	 0.29123181823245 
1832	 0.291462594416662 
1833	 0.291704807883313 
1834	 0.291907263154199 
1835	 0.29211729771702 
1836	 0.292325554928077 
1837	 0.292546745546785 
1838	 0.292767484705164 
1839	 0.292995882607388 
1840	 0.293239792368852 
1841	 0.29348198247725 
1842	 0.293715887617129 
1843	 0.293978010776981 
1844	 0.294249507347981 
1845	 0.294458876902307 
1846	 0.294640247375619 
1847	 0.294828825895592 
1848	 0.294999004490219 
1849	 0.295117696122084 
1850	 0.295289875492107 
1851	 0.295496919647899 
1852	 0.295674816687601 
1853	 0.295828228433512 
1854	 0.295977739957757 
1855	 0.296038403357733 
1856	 0.296027658983486 
1857	 0.295997091557642 
1858	 0.295932045317392 
1859	 0.295848554322384 
1860	 0.295745038900283 
1861	 0.295610598138744 
1862	 0.29546018833308 
1863	 0.295269547059124 
1864	 0.295013626003462 
1865	 0.2947004490919 
1866	 0.294304673511677 
1867	 0.293832696504856 
1868	 0.293337604666688 
1869	 0.292778376209184 
1870	 0.29217445410695 
1871	 0.291510737525028 
1872	 0.290866923027548 
1873	 0.290194265765213 
1874	 0.289497534359499 
1875	 0.288859056898935 
1876	 0.288087141529291 
1877	 0.287279423529756 
1878	 0.286360575955628 
1879	 0.285277827917272 
1880	 0.284191149824924 
1881	 0.282922438175004 
1882	 0.281497853090647 
1883	 0.279984928494835 
1884	 0.278342122372947 
1885	 0.276456917158471 
1886	 0.274526907420859 
1887	 0.272515941842792 
1888	 0.270438909575646 
1889	 0.268436931035869 
1890	 0.266348359196732 
1891	 0.26428285110771 
1892	 0.262221198216342 
1893	 0.260079820142455 
1894	 0.257835757881448 
1895	 0.255698788678894 
1896	 0.253522789916301 
1897	 0.251330082162785 
1898	 0.249363763755534 
1899	 0.247393528338231 
1900	 0.245456049782182 
1901	 0.243653358925973 
1902	 0.241787480013939 
1903	 0.240040276462968 
1904	 0.23837796569993 
1905	 0.236793493749242 
1906	 0.235251501372449 
1907	 0.233901060882072 
1908	 0.232546757437927 
1909	 0.231233534247729 
1910	 0.230033242422838 
1911	 0.228812657877071 
1912	 0.22769446702413 
1913	 0.226664228727917 
1914	 0.22567291830318 
1915	 0.224777595579356 
1916	 0.223986884275505 
1917	 0.223233651644451 
1918	 0.222527496465747 
1919	 0.22185476581622 
1920	 0.221175394977147 
1921	 0.220507037863828 
1922	 0.219837680209366 
1923	 0.2192402222877 
1924	 0.218744573887281 
1925	 0.218318315521469 
1926	 0.217921977899484 
1927	 0.217604997060895 
1928	 0.217299975860782 
1929	 0.217023596207525 
1930	 0.216773485968468 
1931	 0.216530916726886 
1932	 0.21634980615903 
1933	 0.216224821300524 
1934	 0.216087674253533 
1935	 0.216019683224244 
1936	 0.216024145758023 
1937	 0.216065022837887 
1938	 0.216141486171284 
1939	 0.2162602451056 
1940	 0.21642703097004 
1941	 0.216657483310836 
1942	 0.216899236261418 
1943	 0.217179200672318 
1944	 0.217498232128635 
1945	 0.217809042987635 
1946	 0.218145189145363 
1947	 0.218447127902566 
1948	 0.218771763678181 
1949	 0.219120440876276 
1950	 0.219476054837823 
1951	 0.219837769154149 
1952	 0.220225481152257 
1953	 0.220627731351836 
1954	 0.221057234038561 
1955	 0.221513849871979 
1956	 0.221934843529313 
1957	 0.2223815798895 
1958	 0.222836174388035 
1959	 0.223220295633548 
1960	 0.223591135854964 
1961	 0.22396056340949 
1962	 0.224310720416934 
1963	 0.224635523196594 
1964	 0.224934310637699 
1965	 0.225253527959219 
1966	 0.225554592006581 
1967	 0.225861683710828 
1968	 0.226202190050113 
1969	 0.226592794192973 
1970	 0.226980655981503 
1971	 0.227352976931914 
1972	 0.227696633511338 
1973	 0.228014861969396 
1974	 0.228321540369807 
1975	 0.228593776648241 
1976	 0.228866267349609 
1977	 0.229109128348888 
1978	 0.229385775571466 
1979	 0.229659516839379 
1980	 0.22994808702848 
1981	 0.230266134773409 
1982	 0.230631285463211 
1983	 0.231000322982337 
1984	 0.231383841840925 
1985	 0.231780541088879 
1986	 0.232165631464367 
1987	 0.232527679132073 
1988	 0.232883194971487 
1989	 0.233207461446967 
1990	 0.23349711978292 
1991	 0.233782361106206 
1992	 0.234035794910891 
1993	 0.234309078001401 
1994	 0.23458603203766 
1995	 0.234841656519769 
1996	 0.235071955446246 
1997	 0.235252957540457 
1998	 0.235440275484109 
1999	 0.235592968374285 
2000	 0.23575643500144 
2001	 0.235931183832404 
2002	 0.236082645143678 
2003	 0.236220515869817 
2004	 0.236343305701 
2005	 0.236459759860078 
2006	 0.236557041344946 
2007	 0.236678367433739 
2008	 0.23670548716877 
2009	 0.236655624515458 
2010	 0.236571076291737 
2011	 0.236441904137062 
2012	 0.236272165813572 
2013	 0.236076192703614 
2014	 0.235899286152803 
2015	 0.235626711679134 
2016	 0.235258478245431 
2017	 0.234899979115014 
2018	 0.23449405149359 
2019	 0.234079627567068 
2020	 0.233647247215574 
2021	 0.233202275643746 
2022	 0.232739383314788 
2023	 0.232272121358263 
2024	 0.231721872061568 
2025	 0.231142174777018 
2026	 0.230560531481206 
2027	 0.22990437634488 
2028	 0.229302925361332 
2029	 0.228730346216037 
2030	 0.228141462590361 
2031	 0.227561591271262 
2032	 0.226977340689329 
2033	 0.226376655957519 
2034	 0.225802779550881 
2035	 0.225250986916012 
2036	 0.224656040250929 
2037	 0.224123785622706 
2038	 0.22358769340169 
2039	 0.223095391325794 
2040	 0.222592375940897 
2041	 0.222210025877125 
2042	 0.221835433662847 
2043	 0.221646101553539 
2044	 0.221589883474245 
2045	 0.221622682454608 
2046	 0.221831507460511 
2047	 0.222048073828534 
2048	 0.222384386277017 
2049	 0.222681623306612 
2050	 0.223036939887463 
2051	 0.223338832762361 
2052	 0.223636057588499 
2053	 0.223910633143024 
2054	 0.224174334840316 
2055	 0.224418663372823 
2056	 0.224666553101233 
2057	 0.224873434534862 
2058	 0.225138817826456 
2059	 0.225422350209919 
2060	 0.225725085347083 
2061	 0.22606753691318 
2062	 0.226415882720048 
2063	 0.22678282176486 
2064	 0.227146446919045 
2065	 0.227514539089609 
2066	 0.227893381334286 
2067	 0.228316598060681 
2068	 0.228698753962932 
2069	 0.229100940984418 
2070	 0.229557366132977 
2071	 0.229923246362827 
2072	 0.230264572969799 
2073	 0.230567310325353 
2074	 0.230798409664093 
2075	 0.231045112575735 
2076	 0.231294076034201 
2077	 0.231484386384957 
2078	 0.231663260568228 
2079	 0.231794589504321 
2080	 0.231833548421165 
2081	 0.231897072737913 
2082	 0.231936646184403 
2083	 0.231984886686735 
2084	 0.23200735977122 
2085	 0.232084258951623 
2086	 0.232161363427205 
2087	 0.232272826179397 
2088	 0.232314559593561 
2089	 0.232351090206854 
2090	 0.232366437875679 
2091	 0.232327393900886 
2092	 0.232297897206734 
2093	 0.232276503036614 
2094	 0.232240325391878 
2095	 0.232171530166867 
2096	 0.232109079912419 
2097	 0.232064694820244 
2098	 0.231994667898283 
2099	 0.231909737719508 
2100	 0.231776414934293 
2101	 0.23162045088431 
2102	 0.23143218180085 
2103	 0.231221476081222 
2104	 0.23095555224981 
2105	 0.23073678839654 
2106	 0.23052554278828 
2107	 0.230289345664236 
2108	 0.230067003501631 
2109	 0.229820204795195 
2110	 0.229557567983245 
2111	 0.22925635313379 
2112	 0.228939586426651 
2113	 0.228602935769807 
2114	 0.22819328929913 
2115	 0.227816623815472 
2116	 0.227453596246459 
2117	 0.227078107124953 
2118	 0.226716228914626 
2119	 0.226369810761068 
2120	 0.226006736729619 
2121	 0.225627506896193 
2122	 0.225288832781627 
2123	 0.224950929566087 
2124	 0.224638781281513 
2125	 0.224394141219816 
2126	 0.224082649132657 
2127	 0.223738634808366 
2128	 0.223420809434065 
2129	 0.223052640764139 
2130	 0.2227501948612 
2131	 0.222506081871437 
2132	 0.222257981301494 
2133	 0.22205951995594 
2134	 0.221844709952019 
2135	 0.22154246565587 
2136	 0.221257684928516 
2137	 0.220940273491478 
2138	 0.220539340569079 
2139	 0.220229489153507 
2140	 0.219963052292299 
2141	 0.219664201373483 
2142	 0.21939419497315 
2143	 0.219090568576746 
2144	 0.21872940618353 
2145	 0.218434850790252 
2146	 0.218142972269624 
2147	 0.217894625501883 
2148	 0.217726628326422 
2149	 0.217511856668336 
2150	 0.217303521842844 
2151	 0.21708555027273 
2152	 0.216825804596772 
2153	 0.216600077789757 
2154	 0.216413315152918 
2155	 0.216205653442759 
2156	 0.215991414503592 
2157	 0.215796933442694 
2158	 0.215551935173962 
2159	 0.21525235343888 
2160	 0.215006603184894 
2161	 0.214751585045603 
2162	 0.21453149648295 
2163	 0.214360946105118 
2164	 0.214162018987621 
2165	 0.213971671696141 
2166	 0.213759482049777 
2167	 0.213514733342051 
2168	 0.213306368103538 
2169	 0.213066312195144 
2170	 0.212898498431887 
2171	 0.212783147668861 
2172	 0.212689231737405 
2173	 0.212606365120689 
2174	 0.212619411797356 
2175	 0.212652072418576 
2176	 0.21265337537352 
2177	 0.212713876452713 
2178	 0.212830664200453 
2179	 0.212903641801757 
2180	 0.212993911590629 
2181	 0.213066217202112 
2182	 0.213111942820291 
2183	 0.213174527470159 
2184	 0.213238360746466 
2185	 0.213311849797727 
2186	 0.21340765122381 
2187	 0.213470636060001 
2188	 0.213514922594731 
2189	 0.213576351010165 
2190	 0.213612099010654 
2191	 0.213676628688797 
2192	 0.213808481996187 
2193	 0.21387391723348 
2194	 0.213929073667826 
2195	 0.213947575829953 
2196	 0.213896564250044 
2197	 0.213878771649964 
2198	 0.21381225908332 
2199	 0.213694932884009 
2200	 0.213603486987332 
2201	 0.213506795652087 
2202	 0.213355593858922 
2203	 0.213205871467244 
2204	 0.213005865842361 
2205	 0.212723935135325 
2206	 0.212481001609809 
2207	 0.212209740460854 
2208	 0.211986217508272 
2209	 0.211760751886472 
2210	 0.211590553726747 
2211	 0.211444872454893 
2212	 0.211364796488568 
2213	 0.211293827093105 
2214	 0.211352491877985 
2215	 0.211610266344854 
2216	 0.211738697227166 
2217	 0.211960341564447 
2218	 0.212044073973751 
2219	 0.211996654501009 
2220	 0.211918848857605 
2221	 0.21177578051583 
2222	 0.211607727854634 
2223	 0.211409251058317 
2224	 0.211119354480794 
2225	 0.210842066381146 
2226	 0.210484388276196 
2227	 0.20998930987013 
2228	 0.209393034970862 
2229	 0.208734860166944 
2230	 0.207916469889632 
2231	 0.207143684622263 
2232	 0.206375043050524 
2233	 0.205478856348746 
2234	 0.204556231654888 
2235	 0.203487146797265 
2236	 0.202302607650298 
2237	 0.201016246056331 
2238	 0.199563054261322 
2239	 0.198123788336946 
2240	 0.196639274278957 
2241	 0.195037895882157 
2242	 0.193448703415895 
2243	 0.191661787605936 
2244	 0.189623191724894 
2245	 0.187626111229227 
2246	 0.185483846644727 
2247	 0.183385826394991 
2248	 0.181327861575987 
2249	 0.179207835102604 
2250	 0.177012689438645 
2251	 0.174911192391644 
2252	 0.17265026598377 
2253	 0.17045771818466 
2254	 0.16826705581742 
2255	 0.1659874072186 
2256	 0.163845327199311 
2257	 0.161694231494879 
2258	 0.159618452881456 
2259	 0.157617747507267 
2260	 0.155606002640826 
2261	 0.15364652081349 
2262	 0.151684965186534 
2263	 0.149700106947652 
2264	 0.147799801450339 
2265	 0.146006296915461 
2266	 0.144065792864452 
2267	 0.142223385939635 
2268	 0.140108948429383 
2269	 0.137840126302582 
2270	 0.13543997807414 
2271	 0.132866112871454 
2272	 0.130152319516968 
2273	 0.127258482611001 
2274	 0.124278822622769 
2275	 0.121118893782 
2276	 0.117949943844513 
2277	 0.114537795133801 
2278	 0.111391939198361 
2279	 0.108122276476579 
2280	 0.105231733193636 
2281	 0.102542818367006 
2282	 0.100202706542051 
2283	 9.80967322699189E-02 
2284	 9.64523242947774E-02 
2285	 9.51449257889312E-02 
2286	 9.41996323700788E-02 
2287	 9.35309775381091E-02 
2288	 9.31514031159517E-02 
2289	 9.30234151751919E-02 
2290	 9.30920062568221E-02 
2291	 9.33783366408217E-02 
2292	 9.37574251645055E-02 
2293	 9.41741976512975E-02 
2294	 9.46394023581027E-02 
2295	 9.51294086524487E-02 
2296	 9.55700602335413E-02 
2297	 9.59400933394319E-02 
2298	 9.62685169015932E-02 
2299	 9.65791137494588E-02 
2300	 9.67682378353476E-02 
2301	 9.70829305428862E-02 
2302	 0.097397361280537 
2303	 9.78526116554257E-02 
2304	 9.84005860561355E-02 
2305	 9.89878553318286E-02 
2306	 0.099629222328101 
2307	 0.100443594888575 
2308	 0.101322092567441 
2309	 0.102367820022987 
2310	 0.10368456676246 
2311	 0.104923599822027 
2312	 0.10627159022265 
2313	 0.107542001830161 
2314	 0.108875501952983 
2315	 0.110061565343982 
2316	 0.111186481993072 
2317	 0.112196581470096 
2318	 0.113122583180694 
2319	 0.113868487873918 
2320	 0.114550380815485 
2321	 0.114985494941232 
2322	 0.115194875908119 
2323	 0.115238090992307 
2324	 0.115099983564832 
2325	 0.11471945662956 
2326	 0.114164052692911 
2327	 0.113353834362265 
2328	 0.112242701381918 
2329	 0.110944152052206 
2330	 0.109407879837847 
2331	 0.107606421419557 
2332	 0.105778266862508 
2333	 0.103683009944943 
2334	 0.101338063294072 
2335	 9.89838306756494E-02 
2336	 9.63606087468675E-02 
2337	 9.36522478650264E-02 
2338	 9.11527240163373E-02 
2339	 8.84627005250032E-02 
2340	 8.58208560102878E-02 
2341	 8.34096137988064E-02 
2342	 8.09997982329737E-02 
2343	 0.079043589769959 
2344	 7.75100536164078E-02 
2345	 7.63223703254459E-02 
2346	 7.55078587627887E-02 
2347	 7.50443551198297E-02 
2348	 7.47245970359201E-02 
2349	 7.44594051723907E-02 
2350	 0.074307906054694 
2351	 7.40182899463954E-02 
2352	 7.38263306618963E-02 
2353	 7.36956783685121E-02 
2354	 7.37739961401818E-02 
2355	 7.41781476767545E-02 
2356	 7.47306855615571E-02 
2357	 7.59091542769299E-02 
2358	 7.76200473666108E-02 
2359	 7.96950388411569E-02 
2360	 8.22650621781355E-02 
2361	 8.51165799010435E-02 
2362	 8.78492610109787E-02 
2363	 9.06595915106826E-02 
2364	 9.33289316073593E-02 
2365	 9.56303200615459E-02 
2366	 9.79536702465361E-02 
2367	 0.100037331025391 
2368	 0.101883365798197 
2369	 0.103558463617394 
2370	 0.104916291154404 
2371	 0.105905300192868 
2372	 0.106757983982471 
2373	 0.107574949503462 
2374	 0.108171037652482 
2375	 0.108661336524465 
2376	 0.109017253691485 
2377	 0.109188428859509 
2378	 0.109380879031714 
2379	 0.109659851611386 
2380	 0.10994562837081 
2381	 0.110304124043421 
2382	 0.110566121373877 
2383	 0.110734219469544 
2384	 0.110969297026594 
2385	 0.111141087993706 
2386	 0.111423371590101 
2387	 0.111834898542084 
2388	 0.112172425150851 
2389	 0.11255848670409 
2390	 0.112880643722511 
2391	 0.113137963342615 
2392	 0.113422404224231 
2393	 0.113698264487051 
2394	 0.113934287622321 
2395	 0.114149587816292 
2396	 0.11432862489665 
2397	 0.114517518265128 
2398	 0.114608812756791 
2399	 0.114558471377687 
2400	 0.114722777534255 
2401	 0.114845470657499 
2402	 0.115347045033127 
2403	 0.115754427669052 
2404	 0.115927606751328 
2405	 0.116229921223232 
2406	 0.116418317295259 
2407	 0.116491034645875 
2408	 0.116675327031569 
2409	 0.1168187336214 
2410	 0.116811500661511 
2411	 0.116859683147043 
2412	 0.117008464802871 
2413	 0.11715722493494 
2414	 0.117436034791663 
2415	 0.117740308799847 
2416	 0.11794634864548 
2417	 0.118066605415539 
2418	 0.117861799202135 
2419	 0.117709345382365 
2420	 0.117773689977356 
2421	 0.117757538677261 
2422	 0.117990835937706 
2423	 0.118284411803346 
2424	 0.118247375432646 
2425	 0.118129126540825 
2426	 0.118053390159372 
2427	 0.11787073019249 
2428	 0.117699232891568 
2429	 0.117782183085569 
2430	 0.11788748251216 
2431	 0.118003137547702 
2432	 0.118159202821079 
2433	 0.118095974950318 
2434	 0.118045381225036 
2435	 0.117915562729577 
2436	 0.117527275132861 
2437	 0.11722210021664 
2438	 0.116910750355351 
2439	 0.116631702430471 
2440	 0.116523127762261 
2441	 0.116576110603231 
2442	 0.116667304524473 
2443	 0.116638902543699 
2444	 0.11666131067323 
2445	 0.116267169399252 
2446	 0.115718701437676 
2447	 0.115458824406242 
2448	 0.115013854300811 
2449	 0.114930368987678 
2450	 0.115146042381835 
2451	 0.114815542735649 
2452	 0.114641495276003 
2453	 0.114633340327923 
2454	 0.114112253395206 
2455	 0.113698845892819 
2456	 0.113191769793286 
2457	 0.112463441322315 
2458	 0.112093403429681 
2459	 0.11190978150462 
2460	 0.111738285392568 
2461	 0.111604989430733 
2462	 0.111573464067455 
2463	 0.111382844347208 
2464	 0.111035034242117 
2465	 0.11084424554454 
2466	 0.11061800753854 
2467	 0.110435609481768 
2468	 0.110480182288124 
2469	 0.110225494825462 
2470	 0.109850481290564 
2471	 0.109759018671441 
2472	 0.109528727357375 
2473	 0.109606776712057 
2474	 0.10977536123348 
2475	 0.10938164432783 
2476	 0.108976480210757 
2477	 0.108550779938906 
2478	 0.108210258597104 
2479	 0.108067798378351 
2480	 0.108447383837029 
2481	 0.10858663788362 
2482	 0.108777150956619 
2483	 0.108410081676526 
2484	 0.107526742304509 
2485	 0.107092759413597 
2486	 0.107183841391008 
2487	 0.107626100250177 
2488	 0.108406639263512 
2489	 0.108517998873196 
2490	 0.108394308341312 
2491	 0.108189936716067 
2492	 0.108034098591558 
2493	 0.10861601075054 
2494	 0.108913198561491 
2495	 0.108844128814915 
2496	 0.108703332352218 
2497	 0.107960552742597 
2498	 0.10771990173918 
2499	 0.10783061622501 
2500	 0.107374113184185 
