Wavelength	spectrum00017.asd
350	 7.25194599168567E-02 
351	 7.04384556020546E-02 
352	 6.68552232032656E-02 
353	 6.23267204139662E-02 
354	 6.52865703125875E-02 
355	 0.062676860718198 
356	 5.83619228714803E-02 
357	 5.72959080381343E-02 
358	 5.63510245480047E-02 
359	 0.055866708640421 
360	 5.48759750728644E-02 
361	 5.21147328207283E-02 
362	 4.86578387444347E-02 
363	 4.72020482823045E-02 
364	 0.047955539494608 
365	 4.78792339097681E-02 
366	 4.80121706567669E-02 
367	 4.78265830845246E-02 
368	 4.68766623376627E-02 
369	 4.57806578208734E-02 
370	 4.57098488949262E-02 
371	 4.73347878846319E-02 
372	 5.03843399857101E-02 
373	 5.03514178776916E-02 
374	 4.84549901947633E-02 
375	 4.63193665027691E-02 
376	 0.045074142957371 
377	 4.45200811817587E-02 
378	 4.50863006588709E-02 
379	 0.046388849017091 
380	 4.48539264594595E-02 
381	 0.044103149118564 
382	 4.51853254667811E-02 
383	 4.70097236334511E-02 
384	 4.54537193991349E-02 
385	 4.44221376345726E-02 
386	 4.55457807930275E-02 
387	 4.56522531399086E-02 
388	 4.49411247184994E-02 
389	 4.46488841502922E-02 
390	 4.56748280854395E-02 
391	 0.046528940718943 
392	 4.69475430850182E-02 
393	 4.68033371552584E-02 
394	 4.61332600447731E-02 
395	 4.53895783136427E-02 
396	 4.58188489334993E-02 
397	 4.71346158637794E-02 
398	 4.64262102555387E-02 
399	 4.62526609621462E-02 
400	 0.046753358650179 
401	 4.72381922905035E-02 
402	 4.66134793009772E-02 
403	 4.68308071275894E-02 
404	 4.81220989577459E-02 
405	 4.93022282249773E-02 
406	 0.049390611300904 
407	 0.049238945639006 
408	 4.97456848598281E-02 
409	 5.15913691376748E-02 
410	 5.19031008827949E-02 
411	 5.17614414382573E-02 
412	 5.29597193070305E-02 
413	 5.36832718838448E-02 
414	 5.42284082802484E-02 
415	 5.50430405151308E-02 
416	 0.056557173574165 
417	 5.83495081849929E-02 
418	 5.91002757009427E-02 
419	 5.87925724572841E-02 
420	 6.07663367650241E-02 
421	 6.19759371443508E-02 
422	 6.29518721930369E-02 
423	 6.52203039753664E-02 
424	 6.66122241974258E-02 
425	 6.82451459569419E-02 
426	 7.03773541685189E-02 
427	 7.20287079174454E-02 
428	 7.38202067273888E-02 
429	 0.075380818317204 
430	 7.66497886102894E-02 
431	 7.91616553118091E-02 
432	 8.15324009023836E-02 
433	 0.083609365734296 
434	 8.58996244396573E-02 
435	 8.79483850800921E-02 
436	 9.02707656941832E-02 
437	 9.30359148291627E-02 
438	 9.57511955208829E-02 
439	 9.82510833295761E-02 
440	 0.100835405180147 
441	 0.103781176543005 
442	 0.106653665258391 
443	 0.109494484310085 
444	 0.112388158339765 
445	 0.1154202653729 
446	 0.1181171405021 
447	 0.12125181494032 
448	 0.125066923207265 
449	 0.12822127861643 
450	 0.13143314807354 
451	 0.134844461554194 
452	 0.138364746097973 
453	 0.141796958759153 
454	 0.145405634086908 
455	 0.149197506892219 
456	 0.152877736136107 
457	 0.156382942407682 
458	 0.159998286497777 
459	 0.163884823134328 
460	 0.16758268817162 
461	 0.171287583416366 
462	 0.175101738473804 
463	 0.179086748989231 
464	 0.183350561196474 
465	 0.187432878591538 
466	 0.191226701903451 
467	 0.195238189757135 
468	 0.199428758329706 
469	 0.203620203377812 
470	 0.207691506660554 
471	 0.211992640208671 
472	 0.216309664212723 
473	 0.220630937290838 
474	 0.225099663560655 
475	 0.229321281115415 
476	 0.23368626253131 
477	 0.23835919612503 
478	 0.242708744377142 
479	 0.247011212746932 
480	 0.251416021345098 
481	 0.256027089055145 
482	 0.260899992833861 
483	 0.265721954762999 
484	 0.270389430023912 
485	 0.275063338300009 
486	 0.279667221657753 
487	 0.284359837018015 
488	 0.289242593968443 
489	 0.294136664540765 
490	 0.29895072814706 
491	 0.303732892635354 
492	 0.308611307676408 
493	 0.313490859594828 
494	 0.318419680882725 
495	 0.323381680887462 
496	 0.328213793798837 
497	 0.333159909065366 
498	 0.338150507731306 
499	 0.343035136717088 
500	 0.347830057638236 
501	 0.352645043999853 
502	 0.357501556549679 
503	 0.362341028100062 
504	 0.367178056568858 
505	 0.372010588692096 
506	 0.376814381489407 
507	 0.381515737906615 
508	 0.386276923862016 
509	 0.390993569373706 
510	 0.395480863411054 
511	 0.399930065620293 
512	 0.4044005401094 
513	 0.40888291782022 
514	 0.413314243517709 
515	 0.417552446411192 
516	 0.421800615832193 
517	 0.426156173239992 
518	 0.429969541928259 
519	 0.433879794498957 
520	 0.437931504360871 
521	 0.441751137035875 
522	 0.445500977959543 
523	 0.44927975403544 
524	 0.453041840007753 
525	 0.456476813847214 
526	 0.45984960224355 
527	 0.463169935640497 
528	 0.466385896829398 
529	 0.469638186768614 
530	 0.47260935745631 
531	 0.475429560890039 
532	 0.478694777696762 
533	 0.48153059359038 
534	 0.484064111190057 
535	 0.486589724351337 
536	 0.489186925279514 
537	 0.491825656205206 
538	 0.494342771200165 
539	 0.496555118506764 
540	 0.498797378527458 
541	 0.500913952777267 
542	 0.502835361539661 
543	 0.504710090658144 
544	 0.506708286851199 
545	 0.508624751542746 
546	 0.510218795288611 
547	 0.511671654149267 
548	 0.513210362127165 
549	 0.51487057158066 
550	 0.516518010054335 
551	 0.51826572752738 
552	 0.519893054926776 
553	 0.52122266060575 
554	 0.522302500277623 
555	 0.523235741922884 
556	 0.523998305895771 
557	 0.524580398426246 
558	 0.52553345159703 
559	 0.526577780538447 
560	 0.527625082174721 
561	 0.528982917948823 
562	 0.530002831577634 
563	 0.530386355127298 
564	 0.530150648450313 
565	 0.529976115457396 
566	 0.529661431421943 
567	 0.528979817182767 
568	 0.527843810441218 
569	 0.527863862813556 
570	 0.529055815960768 
571	 0.531169157470124 
572	 0.534054174888266 
573	 0.537562625214028 
574	 0.541206972710417 
575	 0.544172615501863 
576	 0.544721388655085 
577	 0.543375766232134 
578	 0.540987664514689 
579	 0.538553922142845 
580	 0.536919915016767 
581	 0.536511447540173 
582	 0.537418884110323 
583	 0.539459234096424 
584	 0.541330226050145 
585	 0.543029712640952 
586	 0.54522953041858 
587	 0.546599069267028 
588	 0.547577678579418 
589	 0.548537788010715 
590	 0.549272916281501 
591	 0.551318380669482 
592	 0.553915702763875 
593	 0.555738548245943 
594	 0.556668929800966 
595	 0.557020978525994 
596	 0.556453389015115 
597	 0.554182364502686 
598	 0.551816484142057 
599	 0.550475291497153 
600	 0.55058828827612 
601	 0.55143033365264 
602	 0.552412265545581 
603	 0.553590205343093 
604	 0.555227103011245 
605	 0.556668122357017 
606	 0.557725570193144 
607	 0.558533027779623 
608	 0.559552567822041 
609	 0.560254441834418 
610	 0.560718555162494 
611	 0.561185441343083 
612	 0.561909191806557 
613	 0.562367406391903 
614	 0.562645104630991 
615	 0.563200227146842 
616	 0.56388343447502 
617	 0.564410199117167 
618	 0.564705307046738 
619	 0.565078577860244 
620	 0.565691285622366 
621	 0.566318309892385 
622	 0.566671162283323 
623	 0.566873449205998 
624	 0.567265038783488 
625	 0.567860879246863 
626	 0.568368128819532 
627	 0.568875758005269 
628	 0.569263776765803 
629	 0.569525009890551 
630	 0.570026094441945 
631	 0.570429194974043 
632	 0.570804532330188 
633	 0.571333325216297 
634	 0.571595867455007 
635	 0.572118880333973 
636	 0.572867056084754 
637	 0.573026629634915 
638	 0.573346421338428 
639	 0.573837935829352 
640	 0.574307185216511 
641	 0.57447864847121 
642	 0.574896414651908 
643	 0.575515080680374 
644	 0.575936918631449 
645	 0.576218248129515 
646	 0.576610189252786 
647	 0.577132362979249 
648	 0.577379247695151 
649	 0.577702746830356 
650	 0.578115601592814 
651	 0.578530493184069 
652	 0.578899293193321 
653	 0.579323857432799 
654	 0.57971975669931 
655	 0.579887698630389 
656	 0.580266437982646 
657	 0.580630707605164 
658	 0.580872471071025 
659	 0.581383073924271 
660	 0.581796206264058 
661	 0.582046950550721 
662	 0.582218414034285 
663	 0.582509771286305 
664	 0.582927837884768 
665	 0.583361092338457 
666	 0.583611023204663 
667	 0.583949674386509 
668	 0.584345236357445 
669	 0.58471679606096 
670	 0.585050529475524 
671	 0.585095514970986 
672	 0.585160805961739 
673	 0.585670665482296 
674	 0.585908873798638 
675	 0.586193256142213 
676	 0.586577094941629 
677	 0.586701418556513 
678	 0.587001904887937 
679	 0.587392950594258 
680	 0.587735227169738 
681	 0.588138530197544 
682	 0.588468689530524 
683	 0.588570389987672 
684	 0.588403671197314 
685	 0.588865929034923 
686	 0.589365882805972 
687	 0.589602068387923 
688	 0.589911071991773 
689	 0.590036258883933 
690	 0.590145696211932 
691	 0.590381231508262 
692	 0.590357013578978 
693	 0.590702412097104 
694	 0.591286349058142 
695	 0.591529737698445 
696	 0.591603713737915 
697	 0.591840563344856 
698	 0.592233055879563 
699	 0.59220650750879 
700	 0.592452954192323 
701	 0.592854089019219 
702	 0.593113838874306 
703	 0.593190458549529 
704	 0.593446821461975 
705	 0.59373374741142 
706	 0.593626908470394 
707	 0.593814640771792 
708	 0.594119634403784 
709	 0.59436533699114 
710	 0.594572720358925 
711	 0.594847099586907 
712	 0.595076636770743 
713	 0.595187222758306 
714	 0.595527282862221 
715	 0.595874790869927 
716	 0.596039560824039 
717	 0.59591382595074 
718	 0.595800190767224 
719	 0.596026889427108 
720	 0.596516256912991 
721	 0.596515119973505 
722	 0.596739777535627 
723	 0.597017904641573 
724	 0.597071923994219 
725	 0.597316026147744 
726	 0.597480383843899 
727	 0.597521608160006 
728	 0.597582264295766 
729	 0.59785537254948 
730	 0.59803966320755 
731	 0.598035008248279 
732	 0.598171903523221 
733	 0.598399139582064 
734	 0.598500096967104 
735	 0.598376008120706 
736	 0.59856564096765 
737	 0.598716407955826 
738	 0.598856535716109 
739	 0.599206807755683 
740	 0.599234412857434 
741	 0.599123881939741 
742	 0.599102492649714 
743	 0.599312890202212 
744	 0.599816918263128 
745	 0.600209093160577 
746	 0.600166568865253 
747	 0.60002047501246 
748	 0.600255633632475 
749	 0.600646035879068 
750	 0.600645029512881 
751	 0.600845348414895 
752	 0.600809503997332 
753	 0.60054748350408 
754	 0.600749651795502 
755	 0.601049421069396 
756	 0.601226240598863 
757	 0.601185353149974 
758	 0.601033052859092 
759	 0.601329135069613 
760	 0.60171237996376 
761	 0.601582360736618 
762	 0.601942606541149 
763	 0.602133731968395 
764	 0.601991288093881 
765	 0.601989483518027 
766	 0.601828158958306 
767	 0.601986378056988 
768	 0.602543368515963 
769	 0.602318933676833 
770	 0.602252874223918 
771	 0.602384168492919 
772	 0.602480498932123 
773	 0.602683905013352 
774	 0.602812425743087 
775	 0.602827354056321 
776	 0.602829112700651 
777	 0.602939748986922 
778	 0.603140148514243 
779	 0.603337990621545 
780	 0.603362867750861 
781	 0.603415524430518 
782	 0.603609260702134 
783	 0.603877325205274 
784	 0.603622715735653 
785	 0.603494047970361 
786	 0.60356189403793 
787	 0.60362531129743 
788	 0.604275619816375 
789	 0.604671731145367 
790	 0.60444482161095 
791	 0.603974139951867 
792	 0.604090275565436 
793	 0.604326192875931 
794	 0.604277817211117 
795	 0.604450906735964 
796	 0.60432063697593 
797	 0.60423885197234 
798	 0.604617347396662 
799	 0.604493529755859 
800	 0.604578421622962 
801	 0.604825782530445 
802	 0.60463904195191 
803	 0.604615267673148 
804	 0.604723924920274 
805	 0.604896246438806 
806	 0.605137090588371 
807	 0.604953577389756 
808	 0.604597202084881 
809	 0.604477575316755 
810	 0.60492768627179 
811	 0.604803209320524 
812	 0.604471159493682 
813	 0.604793497888299 
814	 0.605123556499942 
815	 0.605386302707401 
816	 0.605413307897645 
817	 0.605007686913149 
818	 0.604785613628178 
819	 0.604875256549962 
820	 0.605161222877747 
821	 0.605288641583698 
822	 0.605366216273831 
823	 0.60534081905111 
824	 0.605223937557859 
825	 0.60530545028171 
826	 0.605567538647317 
827	 0.605813001980668 
828	 0.605777650224694 
829	 0.605301932820273 
830	 0.605361839748267 
831	 0.605778517454033 
832	 0.605456031560313 
833	 0.605573731795252 
834	 0.605892765513362 
835	 0.606122301528464 
836	 0.606224882061521 
837	 0.606111318204739 
838	 0.60608634721592 
839	 0.606300256793326 
840	 0.606217605125099 
841	 0.605914939425525 
842	 0.605679058015086 
843	 0.605811651515058 
844	 0.606213103421096 
845	 0.606472075434008 
846	 0.606326536053858 
847	 0.605767207513718 
848	 0.605619849176726 
849	 0.605678550525126 
850	 0.605743613088412 
851	 0.605791536178994 
852	 0.605679569735838 
853	 0.605583183923709 
854	 0.60560005060294 
855	 0.605517132028177 
856	 0.60547701525243 
857	 0.605490969654673 
858	 0.605504923145361 
859	 0.605368093465542 
860	 0.605436786688147 
861	 0.605538748538957 
862	 0.605301800773926 
863	 0.60489216441826 
864	 0.604984890033226 
865	 0.605289442325973 
866	 0.604851632774074 
867	 0.605119645393526 
868	 0.60567484536387 
869	 0.605913363168798 
870	 0.605403108619771 
871	 0.604951301841652 
872	 0.604847182068572 
873	 0.605045877006687 
874	 0.605052462186941 
875	 0.605552026570969 
876	 0.605768149365885 
877	 0.605111287878592 
878	 0.605271202043357 
879	 0.605461659550639 
880	 0.605385363513135 
881	 0.605162893297719 
882	 0.605751387639048 
883	 0.605782353048052 
884	 0.605332351030077 
885	 0.605526981559997 
886	 0.605531467258946 
887	 0.605404619947934 
888	 0.60532209046653 
889	 0.605450735438034 
890	 0.605486611318414 
891	 0.60534453351972 
892	 0.605114070793171 
893	 0.605086843961651 
894	 0.605210725657523 
895	 0.605329826578653 
896	 0.605337122048049 
897	 0.605366627915011 
898	 0.60494474841434 
899	 0.604536748526471 
900	 0.604638534992418 
901	 0.604564409565073 
902	 0.604571298506913 
903	 0.604577214192224 
904	 0.604413447177806 
905	 0.604413475411175 
906	 0.604260929247208 
907	 0.603898608082016 
908	 0.603502554961813 
909	 0.603214393191165 
910	 0.603287829441159 
911	 0.60342370823114 
912	 0.602904571634692 
913	 0.60262753387416 
914	 0.603001092740117 
915	 0.603514858834474 
916	 0.602681660644635 
917	 0.602171975913323 
918	 0.602228868026261 
919	 0.602536657575368 
920	 0.602359405640612 
921	 0.602621188906381 
922	 0.602843047266777 
923	 0.602631994220629 
924	 0.602764313912332 
925	 0.602653346885482 
926	 0.602560009323197 
927	 0.602715395342305 
928	 0.60230229930937 
929	 0.60205122439191 
930	 0.602076373798551 
931	 0.602241803228062 
932	 0.602651376339735 
933	 0.602787780006005 
934	 0.602777860531291 
935	 0.60301220918429 
936	 0.603162547330876 
937	 0.603133353053073 
938	 0.603115875596683 
939	 0.603380040565921 
940	 0.603437816101862 
941	 0.603049340945425 
942	 0.60283927070356 
943	 0.60378897347029 
944	 0.603753563065384 
945	 0.603349665510613 
946	 0.603197340752855 
947	 0.60347777002637 
948	 0.603732214254792 
949	 0.604043655321291 
950	 0.604291546342248 
951	 0.604091628317664 
952	 0.604544341831659 
953	 0.604586780955111 
954	 0.603876946321641 
955	 0.603653398351062 
956	 0.603573195575619 
957	 0.603830258242608 
958	 0.604216528832132 
959	 0.603767616469209 
960	 0.603230899341625 
961	 0.603030832024702 
962	 0.603022791513901 
963	 0.602146890990825 
964	 0.602404073909478 
965	 0.602915722432912 
966	 0.602739528026592 
967	 0.602579249463889 
968	 0.602383162593292 
969	 0.602247840486646 
970	 0.602270194504622 
971	 0.602532828875636 
972	 0.602052003402683 
973	 0.601344045099368 
974	 0.601082692923279 
975	 0.6009520478984 
976	 0.601030160708563 
977	 0.600993346662457 
978	 0.600668547738639 
979	 0.600680384759628 
980	 0.600738912588697 
981	 0.600725714951309 
982	 0.60051365660296 
983	 0.599681654225021 
984	 0.599813936251655 
985	 0.600424819785162 
986	 0.600484567668026 
987	 0.599866498972847 
988	 0.599867038644547 
989	 0.599968433662335 
990	 0.599520042188298 
991	 0.599906690056704 
992	 0.599631220737041 
993	 0.59930355127232 
994	 0.599734233617693 
995	 0.599667387009777 
996	 0.599674716186713 
997	 0.599738229182865 
998	 0.59967723369676 
999	 0.599484680431033 
1000	 0.599257535822652 
1001	 0.610807412261211 
1002	 0.610876989650585 
1003	 0.610988972711566 
1004	 0.61103296880149 
1005	 0.610989804848901 
1006	 0.611017531187921 
1007	 0.611053989199887 
1008	 0.61110808338377 
1009	 0.611188854056657 
1010	 0.611270927929788 
1011	 0.611367687045752 
1012	 0.611450108268884 
1013	 0.611521566111028 
1014	 0.611609742171508 
1015	 0.611690641795392 
1016	 0.611823796173202 
1017	 0.611926930414069 
1018	 0.611988631324101 
1019	 0.61196582785445 
1020	 0.611943390471676 
1021	 0.61199033596214 
1022	 0.612054658797916 
1023	 0.612130109162795 
1024	 0.612326364387556 
1025	 0.612369647998875 
1026	 0.612395024491886 
1027	 0.612329168424941 
1028	 0.612184781044975 
1029	 0.611945981223222 
1030	 0.61168196490714 
1031	 0.611386329040288 
1032	 0.611181955852272 
1033	 0.611040564401513 
1034	 0.610848281590173 
1035	 0.610682371391266 
1036	 0.610455305284481 
1037	 0.610117578589436 
1038	 0.609820719907189 
1039	 0.609543353750198 
1040	 0.609248506939993 
1041	 0.608955743829064 
1042	 0.608654673309378 
1043	 0.608356110967014 
1044	 0.608021848598013 
1045	 0.60772486384592 
1046	 0.607296333417165 
1047	 0.606846105599877 
1048	 0.606398531519301 
1049	 0.605919020182711 
1050	 0.605468142862556 
1051	 0.605018172772663 
1052	 0.604632302351588 
1053	 0.604295568157063 
1054	 0.60394615211649 
1055	 0.603714372258435 
1056	 0.603616142241179 
1057	 0.603472847428874 
1058	 0.603354776157051 
1059	 0.60325197045874 
1060	 0.603177289893108 
1061	 0.603228289432307 
1062	 0.603353706935403 
1063	 0.603472878461312 
1064	 0.603620478403395 
1065	 0.603770772122897 
1066	 0.60391439745604 
1067	 0.604211232550683 
1068	 0.604618876147615 
1069	 0.605047337953819 
1070	 0.605531367662229 
1071	 0.606103646675789 
1072	 0.606660471013994 
1073	 0.607211075333204 
1074	 0.607815154560444 
1075	 0.608374531763495 
1076	 0.608984263123801 
1077	 0.609706291324625 
1078	 0.610486132669252 
1079	 0.611388093274579 
1080	 0.612301718715719 
1081	 0.613165161455449 
1082	 0.614037902662167 
1083	 0.614790235561802 
1084	 0.615580777283358 
1085	 0.616441901149638 
1086	 0.617216496473436 
1087	 0.617913661335 
1088	 0.618720197092311 
1089	 0.61949226831448 
1090	 0.62016309896502 
1091	 0.620928676714265 
1092	 0.621596987520038 
1093	 0.622209118616731 
1094	 0.622813832175633 
1095	 0.623304312118456 
1096	 0.623727542601909 
1097	 0.624064496782946 
1098	 0.624370846526741 
1099	 0.624683608135364 
1100	 0.624948100783123 
1101	 0.625192837471091 
1102	 0.625384532874792 
1103	 0.625463678912704 
1104	 0.62544961247189 
1105	 0.625345674886004 
1106	 0.62521703658271 
1107	 0.625026630466674 
1108	 0.624715631058747 
1109	 0.62444213159343 
1110	 0.624091417036243 
1111	 0.623598827627393 
1112	 0.623171501510222 
1113	 0.622690895718139 
1114	 0.622143454538921 
1115	 0.621612258899988 
1116	 0.621009210875565 
1117	 0.620397786074752 
1118	 0.619785082404414 
1119	 0.61916754332269 
1120	 0.618506715589298 
1121	 0.617833701247898 
1122	 0.61713791420502 
1123	 0.616423370963186 
1124	 0.615742842049887 
1125	 0.615098815713563 
1126	 0.614482821251783 
1127	 0.613831898049168 
1128	 0.613202929953237 
1129	 0.612594037660163 
1130	 0.611883854624357 
1131	 0.611177077880083 
1132	 0.610518504894256 
1133	 0.609869894113271 
1134	 0.609304018051124 
1135	 0.608749787177153 
1136	 0.608244722569184 
1137	 0.607738088711328 
1138	 0.607246245412767 
1139	 0.606767577211819 
1140	 0.60631505024817 
1141	 0.605876195996739 
1142	 0.605397239280636 
1143	 0.604930217177829 
1144	 0.604490589862691 
1145	 0.6040521798738 
1146	 0.603670243878069 
1147	 0.60329755541177 
1148	 0.602910979978756 
1149	 0.602535864254949 
1150	 0.602166003969424 
1151	 0.601794445505304 
1152	 0.601435153935689 
1153	 0.601091493844188 
1154	 0.600753036623167 
1155	 0.600419072815227 
1156	 0.600088776284345 
1157	 0.599749710289125 
1158	 0.599433329294228 
1159	 0.599151941680796 
1160	 0.598841676553504 
1161	 0.598499773954775 
1162	 0.598168677805422 
1163	 0.597765055117087 
1164	 0.597366556268105 
1165	 0.597021985543335 
1166	 0.596674982057063 
1167	 0.596351928599439 
1168	 0.596058765448885 
1169	 0.595715306097202 
1170	 0.59533515385714 
1171	 0.594986002803567 
1172	 0.594641554658904 
1173	 0.594249643318728 
1174	 0.593863377737263 
1175	 0.593458321388034 
1176	 0.59296995370754 
1177	 0.592554882298662 
1178	 0.592175002274309 
1179	 0.591800485142341 
1180	 0.591448103052472 
1181	 0.591058120946819 
1182	 0.590653239075003 
1183	 0.590263137030769 
1184	 0.589887181197942 
1185	 0.589525484530353 
1186	 0.589163689920844 
1187	 0.588820286380917 
1188	 0.588464044405294 
1189	 0.588070935346636 
1190	 0.587757115892636 
1191	 0.587458514156884 
1192	 0.587208477749823 
1193	 0.587027223883643 
1194	 0.586848260079452 
1195	 0.586720492996316 
1196	 0.586563573829731 
1197	 0.58640466612986 
1198	 0.586252611144717 
1199	 0.586103224457277 
1200	 0.585972296100452 
1201	 0.585837991426202 
1202	 0.585707740790561 
1203	 0.585635150466654 
1204	 0.585605219941551 
1205	 0.58561046786341 
1206	 0.585687592679935 
1207	 0.585789780233057 
1208	 0.585888451342419 
1209	 0.586059444147339 
1210	 0.586275267057558 
1211	 0.586580022739225 
1212	 0.586962901702837 
1213	 0.587386166205502 
1214	 0.587865371514907 
1215	 0.588427309767903 
1216	 0.589068008497747 
1217	 0.589711330541662 
1218	 0.590427815000243 
1219	 0.591179564893652 
1220	 0.591919188961599 
1221	 0.592717863812508 
1222	 0.59349307855748 
1223	 0.594291358116171 
1224	 0.595046265334699 
1225	 0.595769720231047 
1226	 0.596458385475877 
1227	 0.597136663429576 
1228	 0.597774708979623 
1229	 0.598357115659623 
1230	 0.598940772910948 
1231	 0.599534299843834 
1232	 0.600062540277699 
1233	 0.600539550724467 
1234	 0.60100419858348 
1235	 0.601397360842013 
1236	 0.601822249096509 
1237	 0.602290238799044 
1238	 0.602693334775492 
1239	 0.603071986873798 
1240	 0.60344683322958 
1241	 0.603740893337702 
1242	 0.603944963165704 
1243	 0.60415612852959 
1244	 0.604313530310412 
1245	 0.604497180198381 
1246	 0.604665398644849 
1247	 0.604844486441388 
1248	 0.605042519097086 
1249	 0.605202810568976 
1250	 0.605350546766979 
1251	 0.605480846435503 
1252	 0.605615141377971 
1253	 0.60568366974149 
1254	 0.605742316617339 
1255	 0.605729392928152 
1256	 0.605624180915191 
1257	 0.605518274886473 
1258	 0.605361365020806 
1259	 0.605205134875845 
1260	 0.605035683488312 
1261	 0.604853932659535 
1262	 0.604660460872318 
1263	 0.604434137639865 
1264	 0.604255880558633 
1265	 0.604075226953075 
1266	 0.603929653218304 
1267	 0.603830551922445 
1268	 0.603706420541784 
1269	 0.60358840042808 
1270	 0.603463618296845 
1271	 0.603327839203347 
1272	 0.603208336521534 
1273	 0.603098706105237 
1274	 0.60298264043762 
1275	 0.60286690327873 
1276	 0.602760679379196 
1277	 0.602631783207934 
1278	 0.602549017715803 
1279	 0.602515224957645 
1280	 0.602458199299729 
1281	 0.602371055747781 
1282	 0.602355548193163 
1283	 0.602329152042403 
1284	 0.602377945802668 
1285	 0.602490310815606 
1286	 0.602689626891547 
1287	 0.602904673135307 
1288	 0.603175305965323 
1289	 0.603448277954232 
1290	 0.603731608877976 
1291	 0.604105242659813 
1292	 0.604504099265136 
1293	 0.604986859506173 
1294	 0.605553598901268 
1295	 0.606180900406564 
1296	 0.60686806849966 
1297	 0.607612168068173 
1298	 0.608458473237079 
1299	 0.60930677975527 
1300	 0.610206894474807 
1301	 0.611107670290968 
1302	 0.612056725306391 
1303	 0.612974698286956 
1304	 0.613896080318178 
1305	 0.614798126388638 
1306	 0.615659375489692 
1307	 0.616543233396313 
1308	 0.617442509880858 
1309	 0.618341396544784 
1310	 0.619139500086848 
1311	 0.619923852475212 
1312	 0.620623848397091 
1313	 0.621218562890556 
1314	 0.621809235460155 
1315	 0.622391626779222 
1316	 0.622872756294428 
1317	 0.623272982363449 
1318	 0.623649645573981 
1319	 0.623990446398733 
1320	 0.62423596080086 
1321	 0.624444945652161 
1322	 0.624552923586564 
1323	 0.624561041994247 
1324	 0.624503548297589 
1325	 0.6244017563618 
1326	 0.624185692369103 
1327	 0.623834773325479 
1328	 0.623479787272272 
1329	 0.623039756723367 
1330	 0.622590397457707 
1331	 0.622182026200318 
1332	 0.621656671911505 
1333	 0.621047476717956 
1334	 0.620395664620643 
1335	 0.619733243495074 
1336	 0.619020845908108 
1337	 0.618244738408174 
1338	 0.617475374314768 
1339	 0.616589979604989 
1340	 0.615586958619188 
1341	 0.614601620312493 
1342	 0.613563967654172 
1343	 0.612541019670418 
1344	 0.611534388938772 
1345	 0.610439764689867 
1346	 0.609303318448198 
1347	 0.608164787798165 
1348	 0.60696255270573 
1349	 0.605772120298207 
1350	 0.60456080334396 
1351	 0.603392535004016 
1352	 0.602189259220654 
1353	 0.601055946089755 
1354	 0.599990097234807 
1355	 0.598935242629528 
1356	 0.59791137372767 
1357	 0.59689778628987 
1358	 0.595864673273346 
1359	 0.594907690826824 
1360	 0.594002582773412 
1361	 0.593106899005599 
1362	 0.592257023015503 
1363	 0.591505494426621 
1364	 0.590760530371338 
1365	 0.590050626323484 
1366	 0.589357957260905 
1367	 0.58871277399796 
1368	 0.58805276001133 
1369	 0.587404264605866 
1370	 0.5867444367233 
1371	 0.586079636082188 
1372	 0.585443301597556 
1373	 0.584821030700137 
1374	 0.584177444007935 
1375	 0.583584387698377 
1376	 0.582891807083268 
1377	 0.582111873676038 
1378	 0.581364166669174 
1379	 0.580533043749344 
1380	 0.579801044644668 
1381	 0.579114104155904 
1382	 0.578455662482751 
1383	 0.577809728984842 
1384	 0.577249007228873 
1385	 0.576719942979927 
1386	 0.576274015563828 
1387	 0.575927823597836 
1388	 0.575624347656441 
1389	 0.575404720172037 
1390	 0.575192113940004 
1391	 0.575026883667366 
1392	 0.574875449146441 
1393	 0.574744642828668 
1394	 0.57461005842413 
1395	 0.574464259996775 
1396	 0.574349029258384 
1397	 0.574147275983699 
1398	 0.573923520579311 
1399	 0.573630513089524 
1400	 0.573302626651889 
1401	 0.5728682807404 
1402	 0.572364373192194 
1403	 0.571786629834821 
1404	 0.571084771858225 
1405	 0.570408065950409 
1406	 0.569675455479819 
1407	 0.568961583694576 
1408	 0.56822928078534 
1409	 0.567506570328632 
1410	 0.566766925597531 
1411	 0.566061727818495 
1412	 0.565353744284574 
1413	 0.564696706219021 
1414	 0.564082773521109 
1415	 0.563477462762198 
1416	 0.562891638540651 
1417	 0.562338405877543 
1418	 0.561796329082226 
1419	 0.561293875716628 
1420	 0.560838977716785 
1421	 0.560400178616956 
1422	 0.55999122833178 
1423	 0.559599137376203 
1424	 0.559237598876415 
1425	 0.558875915053438 
1426	 0.558543292657412 
1427	 0.558212911370363 
1428	 0.557858434382993 
1429	 0.557543158812709 
1430	 0.557256020864641 
1431	 0.556965334351557 
1432	 0.556751890217051 
1433	 0.556603167997662 
1434	 0.5564552146708 
1435	 0.556350019314086 
1436	 0.556243102153398 
1437	 0.556130439555399 
1438	 0.556082974491357 
1439	 0.556082050177833 
1440	 0.556076862754663 
1441	 0.556103933993693 
1442	 0.556147653378933 
1443	 0.556185516120583 
1444	 0.556265924134177 
1445	 0.556391323269445 
1446	 0.55652743893573 
1447	 0.556673820728818 
1448	 0.556857163119992 
1449	 0.557085629157683 
1450	 0.557309147225639 
1451	 0.557557124802987 
1452	 0.55780387426212 
1453	 0.558057137697542 
1454	 0.558309146772008 
1455	 0.55857288921236 
1456	 0.558828293035077 
1457	 0.559076855810689 
1458	 0.559327279326343 
1459	 0.559558762388961 
1460	 0.559822645730539 
1461	 0.56010507115604 
1462	 0.560388285012002 
1463	 0.560706848126687 
1464	 0.561005098424276 
1465	 0.561288199773679 
1466	 0.561576310354298 
1467	 0.561859513740837 
1468	 0.56214178944133 
1469	 0.562403929880974 
1470	 0.562637157394346 
1471	 0.562861406768278 
1472	 0.563048763863079 
1473	 0.563264351385613 
1474	 0.563483099126835 
1475	 0.563705145537591 
1476	 0.563938201135074 
1477	 0.56415588969807 
1478	 0.56437176844359 
1479	 0.564573980093184 
1480	 0.564754986109241 
1481	 0.564961535519831 
1482	 0.565182445304052 
1483	 0.565374034354213 
1484	 0.565571936297336 
1485	 0.565752052683779 
1486	 0.565897401922292 
1487	 0.56605497035819 
1488	 0.566227155476471 
1489	 0.566369222572825 
1490	 0.566493206141445 
1491	 0.566614473018341 
1492	 0.56670052157427 
1493	 0.566824086527486 
1494	 0.566976101344783 
1495	 0.567097487936844 
1496	 0.567224494572235 
1497	 0.567342940643412 
1498	 0.567442221077585 
1499	 0.567532108814334 
1500	 0.56762204627407 
1501	 0.567705689589262 
1502	 0.567758522590059 
1503	 0.567829915926011 
1504	 0.567912818416025 
1505	 0.567993349211149 
1506	 0.568097559320359 
1507	 0.568165088758335 
1508	 0.568216876749465 
1509	 0.568259180551745 
1510	 0.568266528246632 
1511	 0.568279734850869 
1512	 0.568273176797109 
1513	 0.5682971174896 
1514	 0.568325771892025 
1515	 0.568373315519753 
1516	 0.568497735907963 
1517	 0.568553321905324 
1518	 0.56856551256281 
1519	 0.568587715885286 
1520	 0.568581695533611 
1521	 0.568560179184729 
1522	 0.568564972301423 
1523	 0.568570607020213 
1524	 0.568532024867776 
1525	 0.568462806785861 
1526	 0.568393246051451 
1527	 0.568290051860664 
1528	 0.568228997559912 
1529	 0.568177061888231 
1530	 0.568124637204078 
1531	 0.568100157690955 
1532	 0.568034348549268 
1533	 0.567949960473788 
1534	 0.567861850209713 
1535	 0.567757381419846 
1536	 0.567653495344547 
1537	 0.567536520664271 
1538	 0.567441129715308 
1539	 0.567344636856571 
1540	 0.567261546414289 
1541	 0.567198042781515 
1542	 0.567128949832793 
1543	 0.5670658009089 
1544	 0.566993789902767 
1545	 0.566922708263756 
1546	 0.566848333817981 
1547	 0.566745657598991 
1548	 0.56669869907464 
1549	 0.566696504124645 
1550	 0.566648433106371 
1551	 0.566620609174778 
1552	 0.566559209148083 
1553	 0.566457789111245 
1554	 0.566353522629382 
1555	 0.566259320608483 
1556	 0.566120676517281 
1557	 0.565909007787234 
1558	 0.565769833752637 
1559	 0.565634094932038 
1560	 0.565522260269671 
1561	 0.565455359006797 
1562	 0.565388097088374 
1563	 0.565318457842729 
1564	 0.565273741008865 
1565	 0.56527978406958 
1566	 0.565241751976524 
1567	 0.565205143908662 
1568	 0.565142016507791 
1569	 0.56503302330843 
1570	 0.564953241776365 
1571	 0.56484778466923 
1572	 0.56479939017284 
1573	 0.564782849242905 
1574	 0.564784764698173 
1575	 0.56485957730992 
1576	 0.564872624528115 
1577	 0.564866561438951 
1578	 0.564864520323981 
1579	 0.564853282614259 
1580	 0.564812330082504 
1581	 0.564768683801546 
1582	 0.564705035968088 
1583	 0.564571883312184 
1584	 0.564492793393709 
1585	 0.564431924869669 
1586	 0.564382911410634 
1587	 0.564367013077961 
1588	 0.564337844535619 
1589	 0.564345124990956 
1590	 0.564287441314332 
1591	 0.564182442120789 
1592	 0.564091854983627 
1593	 0.563935926062371 
1594	 0.56384454337788 
1595	 0.563806260599012 
1596	 0.563753254399573 
1597	 0.563720317353994 
1598	 0.563683613423844 
1599	 0.563651848431087 
1600	 0.563605341681097 
1601	 0.56356474061339 
1602	 0.563506900932841 
1603	 0.563434479786665 
1604	 0.563345506912286 
1605	 0.563231386033806 
1606	 0.56312694826979 
1607	 0.563011214004671 
1608	 0.562897155906167 
1609	 0.562803794150259 
1610	 0.562683688641582 
1611	 0.562556067427473 
1612	 0.562401006925858 
1613	 0.56220521818658 
1614	 0.562029282031176 
1615	 0.561810580363517 
1616	 0.561653511061248 
1617	 0.561532656094221 
1618	 0.561433159641292 
1619	 0.561438611240212 
1620	 0.561337931187285 
1621	 0.56122121760902 
1622	 0.561047288784034 
1623	 0.560770857424075 
1624	 0.560506905071764 
1625	 0.560201836833401 
1626	 0.559923895264753 
1627	 0.55962032467927 
1628	 0.559365700314082 
1629	 0.559180657224817 
1630	 0.558951139006094 
1631	 0.558704679635976 
1632	 0.558486876345028 
1633	 0.558259162016046 
1634	 0.558038998984404 
1635	 0.557862155903248 
1636	 0.557670291223848 
1637	 0.557461574496687 
1638	 0.557250504961895 
1639	 0.557064586558124 
1640	 0.556836323955239 
1641	 0.556580543452123 
1642	 0.556314206717398 
1643	 0.555984954023434 
1644	 0.555715733322691 
1645	 0.555495621341154 
1646	 0.555231392094042 
1647	 0.555002937285337 
1648	 0.554709957895996 
1649	 0.554364208820488 
1650	 0.553988388421042 
1651	 0.55357369144706 
1652	 0.553140547399614 
1653	 0.552644908120963 
1654	 0.552175036501952 
1655	 0.55171085888289 
1656	 0.5512340098524 
1657	 0.550817416043362 
1658	 0.550262406772178 
1659	 0.549616495388635 
1660	 0.548976502563873 
1661	 0.548248565998299 
1662	 0.547538480038286 
1663	 0.546874809520348 
1664	 0.546110243131714 
1665	 0.54527504828794 
1666	 0.54440174232882 
1667	 0.543478688134461 
1668	 0.542531912754591 
1669	 0.54160192200195 
1670	 0.54054094993677 
1671	 0.539408702275652 
1672	 0.538165526672456 
1673	 0.536767843785865 
1674	 0.535370061935124 
1675	 0.533928325685603 
1676	 0.532441260951648 
1677	 0.530905585306501 
1678	 0.529326306698832 
1679	 0.527652109162238 
1680	 0.526015402745321 
1681	 0.524406450133713 
1682	 0.522692542273168 
1683	 0.520950685898774 
1684	 0.519176529639406 
1685	 0.517320177802546 
1686	 0.515443301296701 
1687	 0.513547266066773 
1688	 0.511585168184032 
1689	 0.509573137938244 
1690	 0.507482155591272 
1691	 0.505334238480272 
1692	 0.503204333374549 
1693	 0.501033225393907 
1694	 0.498799064592637 
1695	 0.496528755298072 
1696	 0.494218257849148 
1697	 0.4918364295452 
1698	 0.489411194845343 
1699	 0.486979190313657 
1700	 0.484556135251714 
1701	 0.482004701030133 
1702	 0.479633347178683 
1703	 0.477292448950747 
1704	 0.475087669068258 
1705	 0.472986028183764 
1706	 0.470925439008088 
1707	 0.469138256673132 
1708	 0.467436557228452 
1709	 0.465823102049256 
1710	 0.464380046262029 
1711	 0.462917308346387 
1712	 0.461556497667797 
1713	 0.460278322642628 
1714	 0.459050782011221 
1715	 0.457994063219021 
1716	 0.456964410232391 
1717	 0.455998913250791 
1718	 0.455109288073564 
1719	 0.45423477131545 
1720	 0.453455071852308 
1721	 0.452700064296051 
1722	 0.45199611811507 
1723	 0.451466844446599 
1724	 0.451033464103348 
1725	 0.450738183640634 
1726	 0.450662935919057 
1727	 0.450769161307763 
1728	 0.451068648101325 
1729	 0.451638255421277 
1730	 0.45246506764186 
1731	 0.45337179480119 
1732	 0.454453234305817 
1733	 0.455646325287271 
1734	 0.456862611120228 
1735	 0.458114132049114 
1736	 0.459291225718109 
1737	 0.460390911654093 
1738	 0.461345910004079 
1739	 0.462127245834263 
1740	 0.462796542720599 
1741	 0.463269689074092 
1742	 0.463590324416989 
1743	 0.463711615798556 
1744	 0.46357924473002 
1745	 0.463383718973143 
1746	 0.4629580098281 
1747	 0.462566591868158 
1748	 0.46210887343597 
1749	 0.461677226258531 
1750	 0.461161981975892 
1751	 0.460784588597273 
1752	 0.460446083776385 
1753	 0.460195103138737 
1754	 0.460054947474846 
1755	 0.459963733749449 
1756	 0.459874875337065 
1757	 0.459967124296478 
1758	 0.460194328728302 
1759	 0.460498722196441 
1760	 0.460998543277825 
1761	 0.461685124950842 
1762	 0.462446828813171 
1763	 0.463463114475182 
1764	 0.464611900137117 
1765	 0.465756916661136 
1766	 0.467003123928255 
1767	 0.468222103528046 
1768	 0.469470650916222 
1769	 0.470785268472196 
1770	 0.472049937683688 
1771	 0.473288057697318 
1772	 0.474451283527251 
1773	 0.475527446093233 
1774	 0.476587807643664 
1775	 0.477586286021222 
1776	 0.478506935735843 
1777	 0.479329833645823 
1778	 0.480026475556082 
1779	 0.480631954775696 
1780	 0.48114523187374 
1781	 0.481596469937627 
1782	 0.481986930481403 
1783	 0.482330474714946 
1784	 0.482695963541336 
1785	 0.482999163245472 
1786	 0.483286590709262 
1787	 0.483546179247553 
1788	 0.483743886615832 
1789	 0.483909711517579 
1790	 0.484068318107508 
1791	 0.484182290315645 
1792	 0.48424014931449 
1793	 0.484277659969389 
1794	 0.484205702550985 
1795	 0.484146165735737 
1796	 0.484098096334947 
1797	 0.484056917043821 
1798	 0.484047614999302 
1799	 0.484103882068092 
1800	 0.484194291338549 
1801	 0.486846081980753 
1802	 0.487165711233698 
1803	 0.487427150443212 
1804	 0.487602457063289 
1805	 0.487811514151342 
1806	 0.48798137224429 
1807	 0.488078866167862 
1808	 0.488242212031576 
1809	 0.488425499610805 
1810	 0.488592002619185 
1811	 0.488770986500585 
1812	 0.488949768166351 
1813	 0.489123660461883 
1814	 0.48929639872121 
1815	 0.489437996700794 
1816	 0.489631960815196 
1817	 0.489811542931371 
1818	 0.489952575314652 
1819	 0.490148803833833 
1820	 0.490374639719655 
1821	 0.490614109002826 
1822	 0.490856794580846 
1823	 0.491169062730526 
1824	 0.491489459006682 
1825	 0.491778955217588 
1826	 0.492062748020873 
1827	 0.492357233874256 
1828	 0.492602505424265 
1829	 0.492806792908158 
1830	 0.493034742766858 
1831	 0.49324930708658 
1832	 0.493473363861168 
1833	 0.493656731730723 
1834	 0.493837945402637 
1835	 0.494006235241445 
1836	 0.494134916347663 
1837	 0.49432321835643 
1838	 0.49454032676229 
1839	 0.494776029612979 
1840	 0.495025922622205 
1841	 0.495321383903233 
1842	 0.495664872220994 
1843	 0.496000741342289 
1844	 0.496370474667685 
1845	 0.49670060975431 
1846	 0.496996114708647 
1847	 0.497318159440596 
1848	 0.497607530551703 
1849	 0.497892108972631 
1850	 0.49813078955218 
1851	 0.498346319903702 
1852	 0.498533188794921 
1853	 0.498663187190716 
1854	 0.498796282880947 
1855	 0.498971781862372 
1856	 0.49913028548202 
1857	 0.49925714093953 
1858	 0.499373374406866 
1859	 0.499480598991911 
1860	 0.499553499938575 
1861	 0.499610831400976 
1862	 0.499669937057623 
1863	 0.499725077177041 
1864	 0.499706125655377 
1865	 0.499653989391303 
1866	 0.499577347849517 
1867	 0.499455756200934 
1868	 0.499284560345364 
1869	 0.499102545995095 
1870	 0.498913803372221 
1871	 0.498643317047291 
1872	 0.498482553050919 
1873	 0.498363019042727 
1874	 0.498263463584733 
1875	 0.498262597696482 
1876	 0.498230415642525 
1877	 0.498163110664736 
1878	 0.498013150327961 
1879	 0.497727085357433 
1880	 0.497403815975691 
1881	 0.496927356880021 
1882	 0.496329822597799 
1883	 0.49563556179605 
1884	 0.494778577939671 
1885	 0.493732970188912 
1886	 0.492623698451901 
1887	 0.491384194650942 
1888	 0.490073835829736 
1889	 0.488824168581848 
1890	 0.487464864028627 
1891	 0.486106261350949 
1892	 0.484774725062864 
1893	 0.48339354615559 
1894	 0.481925425465356 
1895	 0.480569327004243 
1896	 0.479231752334204 
1897	 0.477883511702725 
1898	 0.476676664888944 
1899	 0.475467282771943 
1900	 0.474289064768083 
1901	 0.473161664233059 
1902	 0.472035790868891 
1903	 0.471064454963565 
1904	 0.470148038510183 
1905	 0.469278997727808 
1906	 0.468550127948293 
1907	 0.467929562011332 
1908	 0.467240542260278 
1909	 0.466645374741271 
1910	 0.466031800208425 
1911	 0.465390370740555 
1912	 0.464838778471804 
1913	 0.464334507582616 
1914	 0.463865446066699 
1915	 0.463430534469522 
1916	 0.463046578219095 
1917	 0.462727741396813 
1918	 0.462403082287221 
1919	 0.462097918446881 
1920	 0.461838234519822 
1921	 0.461531377616848 
1922	 0.46124351781449 
1923	 0.460986311559925 
1924	 0.460759071024325 
1925	 0.460598415572579 
1926	 0.460500745620043 
1927	 0.460475977323455 
1928	 0.460465511023736 
1929	 0.460511494608945 
1930	 0.460598602407823 
1931	 0.460657255913918 
1932	 0.460695418167974 
1933	 0.460797446082377 
1934	 0.4609059257055 
1935	 0.461026792809847 
1936	 0.461221864712443 
1937	 0.461442500105389 
1938	 0.461689223717278 
1939	 0.461962010590742 
1940	 0.462288659564226 
1941	 0.462621282755657 
1942	 0.462925327059023 
1943	 0.463251422000246 
1944	 0.463543050161755 
1945	 0.463793986756036 
1946	 0.464093306359837 
1947	 0.464379968959317 
1948	 0.464687506024672 
1949	 0.46502709436418 
1950	 0.465341665562228 
1951	 0.465650300687742 
1952	 0.46596264379075 
1953	 0.466271647503374 
1954	 0.46655796947854 
1955	 0.466879568773418 
1956	 0.467168616123133 
1957	 0.467488867935041 
1958	 0.46789657852508 
1959	 0.468281410761134 
1960	 0.46865932646321 
1961	 0.46899673251311 
1962	 0.469281884032889 
1963	 0.469572825681755 
1964	 0.469836445480585 
1965	 0.47010796517704 
1966	 0.470371534108874 
1967	 0.47066788316794 
1968	 0.470894996305275 
1969	 0.471199509870456 
1970	 0.471565835731271 
1971	 0.471949977693177 
1972	 0.472411416623721 
1973	 0.47288408945653 
1974	 0.473250340807294 
1975	 0.473559653620911 
1976	 0.473826765511314 
1977	 0.473998608224975 
1978	 0.474177072456008 
1979	 0.474318347532604 
1980	 0.474473066464301 
1981	 0.474608308401815 
1982	 0.474757738396331 
1983	 0.474910231573118 
1984	 0.475088394327191 
1985	 0.47526400475375 
1986	 0.475414344464235 
1987	 0.475524043115043 
1988	 0.475602022707917 
1989	 0.475662288400388 
1990	 0.475664457271035 
1991	 0.475685232675683 
1992	 0.475707786993623 
1993	 0.475725730374294 
1994	 0.475701797525763 
1995	 0.475670741655786 
1996	 0.475630824427698 
1997	 0.475597229912517 
1998	 0.475523388912466 
1999	 0.475437156774609 
2000	 0.475326190388929 
2001	 0.475156161922579 
2002	 0.475010521443255 
2003	 0.474868529682022 
2004	 0.474740382174849 
2005	 0.474626079759415 
2006	 0.474490123570857 
2007	 0.474355114171129 
2008	 0.474211821256924 
2009	 0.474028073479121 
2010	 0.473841141328785 
2011	 0.473659770351084 
2012	 0.47337960974919 
2013	 0.473037537421259 
2014	 0.472613999399262 
2015	 0.472177982454526 
2016	 0.471645832989246 
2017	 0.471162870216655 
2018	 0.470682153700683 
2019	 0.470203958315857 
2020	 0.469723330573577 
2021	 0.469247756359063 
2022	 0.468764009221079 
2023	 0.468264931203939 
2024	 0.467783057973989 
2025	 0.467260175885849 
2026	 0.466716754294303 
2027	 0.466129417416299 
2028	 0.465586942176481 
2029	 0.465048333749448 
2030	 0.464486358371251 
2031	 0.463937909325292 
2032	 0.463387595877098 
2033	 0.462816014824858 
2034	 0.462238764192757 
2035	 0.461668242540089 
2036	 0.461081540864655 
2037	 0.460513809236266 
2038	 0.459963319157329 
2039	 0.459450901825635 
2040	 0.458992963669347 
2041	 0.458536808621475 
2042	 0.45808944715183 
2043	 0.457671466053292 
2044	 0.457287283076782 
2045	 0.456908064229435 
2046	 0.456538505166634 
2047	 0.456188264331764 
2048	 0.455877323543512 
2049	 0.455556457005213 
2050	 0.455242549370903 
2051	 0.454940929196828 
2052	 0.454622980937865 
2053	 0.454276846704019 
2054	 0.45400791945973 
2055	 0.453795522108067 
2056	 0.453530608536887 
2057	 0.453311452510955 
2058	 0.453024911513741 
2059	 0.452651294168984 
2060	 0.452340917057421 
2061	 0.452047393926068 
2062	 0.451745801138246 
2063	 0.451441527314333 
2064	 0.451153002291598 
2065	 0.450861485573662 
2066	 0.45059894140838 
2067	 0.450311332795766 
2068	 0.450058703513238 
2069	 0.449755115951321 
2070	 0.449395480664415 
2071	 0.449075389152884 
2072	 0.448728500813681 
2073	 0.448456135369383 
2074	 0.448234050144684 
2075	 0.448014549745016 
2076	 0.447848343975157 
2077	 0.447659073882473 
2078	 0.447478379597044 
2079	 0.447278178830523 
2080	 0.447088037144981 
2081	 0.446861426026907 
2082	 0.446617386793821 
2083	 0.446338468321339 
2084	 0.445994206538354 
2085	 0.445698209266381 
2086	 0.445412477822516 
2087	 0.445117950374992 
2088	 0.444846145173212 
2089	 0.444642137774459 
2090	 0.444362971873029 
2091	 0.444025238348027 
2092	 0.443738929293147 
2093	 0.443440229862487 
2094	 0.443163053761 
2095	 0.442928455979504 
2096	 0.442692768925678 
2097	 0.442466888334005 
2098	 0.442221311882312 
2099	 0.44202896627046 
2100	 0.441813758166464 
2101	 0.441554165788682 
2102	 0.441279670201573 
2103	 0.440983099209915 
2104	 0.44062313965594 
2105	 0.440304181366247 
2106	 0.439991040766038 
2107	 0.439670208632816 
2108	 0.439371153877231 
2109	 0.439034106748659 
2110	 0.438722239675962 
2111	 0.438319511633745 
2112	 0.43784165798778 
2113	 0.437358519556853 
2114	 0.436796829103892 
2115	 0.436254435586569 
2116	 0.435688803801103 
2117	 0.435159803368336 
2118	 0.434646725024729 
2119	 0.434121667221586 
2120	 0.43366520652786 
2121	 0.433250043605733 
2122	 0.432876850063165 
2123	 0.432575562664923 
2124	 0.432231492807821 
2125	 0.431909118764887 
2126	 0.431582111357375 
2127	 0.431220255509165 
2128	 0.430905606678956 
2129	 0.430570130151667 
2130	 0.430339103959587 
2131	 0.430144748997464 
2132	 0.43003459227273 
2133	 0.430047291507084 
2134	 0.430093603117777 
2135	 0.430140724285221 
2136	 0.430185748471171 
2137	 0.430183091497731 
2138	 0.430155920849925 
2139	 0.430102977031572 
2140	 0.430001885445923 
2141	 0.429921011566633 
2142	 0.429792363419364 
2143	 0.429735664067829 
2144	 0.429716879457066 
2145	 0.429709474566897 
2146	 0.429739522302602 
2147	 0.429776953555428 
2148	 0.429793683257003 
2149	 0.429876994403061 
2150	 0.430032036814074 
2151	 0.43016464633481 
2152	 0.430336930538293 
2153	 0.430512288762239 
2154	 0.430625574739176 
2155	 0.430682685734305 
2156	 0.430761117844666 
2157	 0.430803883306592 
2158	 0.430871976537433 
2159	 0.430964177243744 
2160	 0.431030824202768 
2161	 0.431115001855453 
2162	 0.431135453715864 
2163	 0.431112900071091 
2164	 0.431087177712394 
2165	 0.431010262946795 
2166	 0.43094941438242 
2167	 0.430906072084528 
2168	 0.430831490540151 
2169	 0.430721468469824 
2170	 0.430633785055733 
2171	 0.430553140175562 
2172	 0.430448438605926 
2173	 0.430336735341071 
2174	 0.430219401531537 
2175	 0.43010043057712 
2176	 0.430025711941639 
2177	 0.429955014122739 
2178	 0.42994115081986 
2179	 0.429866641454026 
2180	 0.429763016400644 
2181	 0.42967725340945 
2182	 0.429603130053224 
2183	 0.429473790486848 
2184	 0.429339352860328 
2185	 0.429175682365907 
2186	 0.428915773438231 
2187	 0.428741523021965 
2188	 0.428600174971948 
2189	 0.428453447875516 
2190	 0.428348172637499 
2191	 0.428216226080522 
2192	 0.428089188907501 
2193	 0.427932888772788 
2194	 0.427772286542621 
2195	 0.427579750390641 
2196	 0.42738682522926 
2197	 0.427091084425318 
2198	 0.426788420375131 
2199	 0.426538096902653 
2200	 0.426326283476225 
2201	 0.426171312757288 
2202	 0.42592135876102 
2203	 0.425678377649401 
2204	 0.425411581016374 
2205	 0.425080042000707 
2206	 0.424761463779656 
2207	 0.424459327586711 
2208	 0.424136714389728 
2209	 0.42376842637475 
2210	 0.423402771207515 
2211	 0.423103233136985 
2212	 0.422688262571435 
2213	 0.422177434405978 
2214	 0.421696010400835 
2215	 0.421197454962492 
2216	 0.420633158938732 
2217	 0.42005518167493 
2218	 0.419439162776579 
2219	 0.418715925796945 
2220	 0.41803117606503 
2221	 0.417359514286372 
2222	 0.416678326147686 
2223	 0.416014956846957 
2224	 0.415246081821245 
2225	 0.414426220882418 
2226	 0.413569521139074 
2227	 0.41262743404133 
2228	 0.411622351656987 
2229	 0.410527917506695 
2230	 0.409322698781629 
2231	 0.408129045352076 
2232	 0.406883605476304 
2233	 0.405554113290964 
2234	 0.404286112389904 
2235	 0.402740086478694 
2236	 0.401005810908823 
2237	 0.399200288550378 
2238	 0.397174215844756 
2239	 0.395156382490144 
2240	 0.39314653738634 
2241	 0.390919453380996 
2242	 0.388609595689572 
2243	 0.386120550400323 
2244	 0.383372859680762 
2245	 0.380620337203454 
2246	 0.37762885050793 
2247	 0.374777266617712 
2248	 0.37196368774566 
2249	 0.369104853697359 
2250	 0.366264133195147 
2251	 0.363499315028548 
2252	 0.360490109665476 
2253	 0.357607621169516 
2254	 0.354724133351086 
2255	 0.351781356404797 
2256	 0.349026948036624 
2257	 0.346176786238697 
2258	 0.343442513221439 
2259	 0.340796769517508 
2260	 0.338118311611897 
2261	 0.335439478215279 
2262	 0.332890800797145 
2263	 0.330325696542827 
2264	 0.327945541226115 
2265	 0.325764585391664 
2266	 0.323527920745015 
2267	 0.321391081550098 
2268	 0.319224095265417 
2269	 0.317048002763443 
2270	 0.314914157254587 
2271	 0.312770008193171 
2272	 0.310708780200988 
2273	 0.308735898993865 
2274	 0.306729300558218 
2275	 0.304839717546015 
2276	 0.302819701462767 
2277	 0.300709560966418 
2278	 0.298611343422923 
2279	 0.296409387272952 
2280	 0.294255795561736 
2281	 0.292198691759745 
2282	 0.290006071864028 
2283	 0.287780324418923 
2284	 0.285525246681714 
2285	 0.282989090731612 
2286	 0.280502095486543 
2287	 0.277917428561989 
2288	 0.275251024018742 
2289	 0.272725252077146 
2290	 0.270059852004356 
2291	 0.267475381295638 
2292	 0.264902921105295 
2293	 0.262157758005972 
2294	 0.259602465556042 
2295	 0.257085057807736 
2296	 0.254557397670693 
2297	 0.252399848823871 
2298	 0.250456247077492 
2299	 0.248800414836703 
2300	 0.247399917103487 
2301	 0.246369334922675 
2302	 0.245602404538272 
2303	 0.245283129788673 
2304	 0.245401377148454 
2305	 0.245756641472583 
2306	 0.246523378805012 
2307	 0.24754794782375 
2308	 0.248846993492678 
2309	 0.250490427991854 
2310	 0.252633098678268 
2311	 0.254741076056651 
2312	 0.257258215176249 
2313	 0.259525431489676 
2314	 0.261810194384506 
2315	 0.26403527063827 
2316	 0.266228832496198 
2317	 0.268269107337633 
2318	 0.27036965524897 
2319	 0.272053774533208 
2320	 0.273512262602655 
2321	 0.274695369254796 
2322	 0.275523544329594 
2323	 0.276188939552019 
2324	 0.276548102127943 
2325	 0.276779245947231 
2326	 0.276811727082531 
2327	 0.276672704735254 
2328	 0.276392510776381 
2329	 0.275902395420241 
2330	 0.275221704702808 
2331	 0.274231384020273 
2332	 0.273161058791342 
2333	 0.271927200900259 
2334	 0.270499307168095 
2335	 0.269061455479662 
2336	 0.267456973067956 
2337	 0.265753868311926 
2338	 0.264038338570914 
2339	 0.262173806689738 
2340	 0.260389554840525 
2341	 0.258759463645879 
2342	 0.257306490930376 
2343	 0.256027581050705 
2344	 0.25484999534884 
2345	 0.254013767490008 
2346	 0.253548696166089 
2347	 0.253563846133366 
2348	 0.254038236800611 
2349	 0.254936211479711 
2350	 0.256200849024098 
2351	 0.25765907076114 
2352	 0.25935200791084 
2353	 0.261144250766306 
2354	 0.262732491505761 
2355	 0.264332653809685 
2356	 0.265801719996452 
2357	 0.266877954844417 
2358	 0.267888517002247 
2359	 0.26862390210211 
2360	 0.269041079712243 
2361	 0.269405037273034 
2362	 0.269589650499749 
2363	 0.269560186077776 
2364	 0.269606295312146 
2365	 0.269629948155782 
2366	 0.269486863107479 
2367	 0.269432213872626 
2368	 0.269391353740289 
2369	 0.269279768264581 
2370	 0.269277741985142 
2371	 0.269265565402457 
2372	 0.26913711394225 
2373	 0.269039535497478 
2374	 0.268963233031427 
2375	 0.268935398079338 
2376	 0.268900900481399 
2377	 0.268825815678179 
2378	 0.268884894809337 
2379	 0.268949583944389 
2380	 0.269069053047981 
2381	 0.269362817459529 
2382	 0.269492150290891 
2383	 0.269468607924568 
2384	 0.269524045525501 
2385	 0.269527324794017 
2386	 0.269705466925886 
2387	 0.270018093022531 
2388	 0.27032953020901 
2389	 0.270800602764675 
2390	 0.271019097224159 
2391	 0.271089392287045 
2392	 0.271198065432058 
2393	 0.271211830438921 
2394	 0.271296379636179 
2395	 0.271442834078906 
2396	 0.271530732926494 
2397	 0.271570617441483 
2398	 0.27165271235963 
2399	 0.27173104572028 
2400	 0.27190087158294 
2401	 0.272190888594988 
2402	 0.272253279594898 
2403	 0.272203378573164 
2404	 0.271980941626746 
2405	 0.271954966791212 
2406	 0.272037165110773 
2407	 0.271962320020001 
2408	 0.271919234582218 
2409	 0.271905281587783 
2410	 0.271886620966899 
2411	 0.272074702003829 
2412	 0.27232255114634 
2413	 0.272411317253773 
2414	 0.272506185614978 
2415	 0.272655198926163 
2416	 0.272756383048552 
2417	 0.272886285304855 
2418	 0.273057868162896 
2419	 0.273208487592716 
2420	 0.273546165103632 
2421	 0.273881516360367 
2422	 0.274025545591331 
2423	 0.274038093320059 
2424	 0.273894785545523 
2425	 0.273858750526313 
2426	 0.273654911465005 
2427	 0.273488169858441 
2428	 0.273601042149447 
2429	 0.273502918734915 
2430	 0.273477267281681 
2431	 0.273629170043673 
2432	 0.273527302521235 
2433	 0.273342121912782 
2434	 0.273290132610637 
2435	 0.2732647775018 
2436	 0.273283756483648 
2437	 0.273053678526862 
2438	 0.272747782303707 
2439	 0.272479274717018 
2440	 0.271977727067108 
2441	 0.272013095311572 
2442	 0.272111565527091 
2443	 0.271917451597047 
2444	 0.27201149434296 
2445	 0.27163922238667 
2446	 0.271252405480066 
2447	 0.271019244524391 
2448	 0.2702783240331 
2449	 0.269694261535694 
2450	 0.269268336387774 
2451	 0.268746818136216 
2452	 0.268315711737975 
2453	 0.2677645981078 
2454	 0.267286952941552 
2455	 0.266827431374931 
2456	 0.266331404475566 
2457	 0.266074857385416 
2458	 0.265508465361249 
2459	 0.264932983310163 
2460	 0.264817815726615 
2461	 0.264516096613172 
2462	 0.264202422318018 
2463	 0.264028818947756 
2464	 0.26377498822345 
2465	 0.263564401924171 
2466	 0.263213499868357 
2467	 0.262853065586075 
2468	 0.262657400193136 
2469	 0.262711975444528 
2470	 0.263002458053726 
2471	 0.263222647264083 
2472	 0.263055356961989 
2473	 0.262819078038676 
2474	 0.262975583999008 
2475	 0.263013661246813 
2476	 0.263024727233406 
2477	 0.262943794854408 
2478	 0.262454456994403 
2479	 0.262289383341656 
2480	 0.26268642555054 
2481	 0.2627637706531 
2482	 0.262874104116465 
2483	 0.262723685619753 
2484	 0.262404745048337 
2485	 0.262423715467492 
2486	 0.262971933221782 
2487	 0.263373992878567 
2488	 0.263886292736665 
2489	 0.264627223665531 
2490	 0.264820791515085 
2491	 0.264608376866132 
2492	 0.264511831643081 
2493	 0.264505659538611 
2494	 0.264482140347219 
2495	 0.264673061238809 
2496	 0.26547079685018 
2497	 0.266053450721375 
2498	 0.266663583152924 
2499	 0.267980508614774 
2500	 0.268692720948504 
