Wavelength	spectrum00004.asd
350	 0.133066325147794 
351	 0.128867212552422 
352	 0.123876412308986 
353	 0.120311073929433 
354	 0.119576397732629 
355	 0.117504616129374 
356	 0.115385217510741 
357	 0.114225763189899 
358	 0.109938555804735 
359	 0.10805007075136 
360	 0.107904297603516 
361	 0.106012553127347 
362	 0.104630427583559 
363	 0.103607175869109 
364	 0.102618572795746 
365	 0.101387850546265 
366	 0.102475844224322 
367	 0.103138186050677 
368	 0.10112626501876 
369	 9.98465267705992E-02 
370	 9.96808696522489E-02 
371	 9.97069427679495E-02 
372	 9.84848117209328E-02 
373	 9.71943977233919E-02 
374	 9.66143047046952E-02 
375	 9.67559873139901E-02 
376	 9.66620065585109E-02 
377	 9.62196081960896E-02 
378	 9.57740112336808E-02 
379	 9.54871239893172E-02 
380	 9.41825287768355E-02 
381	 9.43338630378867E-02 
382	 9.48559093204145E-02 
383	 9.29830483024498E-02 
384	 9.21246405788511E-02 
385	 9.21513283784275E-02 
386	 9.22382037301656E-02 
387	 9.11964745222299E-02 
388	 9.04026613562817E-02 
389	 9.01131040032755E-02 
390	 9.00278373886106E-02 
391	 8.90306722175667E-02 
392	 8.85432491851175E-02 
393	 8.86735383696342E-02 
394	 8.86066129580021E-02 
395	 8.80631582335962E-02 
396	 8.73856122952994E-02 
397	 8.68417948080152E-02 
398	 8.64099156776485E-02 
399	 8.63296509062069E-02 
400	 0.085952865693349 
401	 8.48077822413037E-02 
402	 8.41207076490273E-02 
403	 8.38718092009551E-02 
404	 0.083660621199187 
405	 8.29363706237761E-02 
406	 0.082635308770346 
407	 8.23893358954417E-02 
408	 0.081926371954795 
409	 8.15317528967495E-02 
410	 8.10922373181366E-02 
411	 8.07091566468404E-02 
412	 8.05003090442075E-02 
413	 8.03824164666284E-02 
414	 7.99433263601055E-02 
415	 0.079406154687814 
416	 7.95081602447539E-02 
417	 7.93353400894615E-02 
418	 0.078991384595971 
419	 7.87117742343719E-02 
420	 7.86150456843542E-02 
421	 7.83308618642258E-02 
422	 7.80478648150731E-02 
423	 7.80817439239318E-02 
424	 7.79739363186089E-02 
425	 0.077686449882512 
426	 7.73946202794987E-02 
427	 7.74619145493516E-02 
428	 7.73129710417387E-02 
429	 0.07714377523342 
430	 0.077164855620213 
431	 7.70890111761512E-02 
432	 7.69631497626106E-02 
433	 7.68685770972645E-02 
434	 7.68888143982049E-02 
435	 7.69629786037316E-02 
436	 7.68977248511353E-02 
437	 7.66617531524133E-02 
438	 7.64738552049221E-02 
439	 7.65263056866105E-02 
440	 7.66655467103017E-02 
441	 7.66944890872539E-02 
442	 7.67293046266102E-02 
443	 7.68596462996407E-02 
444	 7.69772486432576E-02 
445	 7.68527929763169E-02 
446	 7.69160670103627E-02 
447	 7.70174733623552E-02 
448	 7.70318082038619E-02 
449	 7.70886128449626E-02 
450	 7.72711455797109E-02 
451	 7.75192956788946E-02 
452	 7.77075301696276E-02 
453	 7.77381493590053E-02 
454	 7.78126836077948E-02 
455	 7.79638006370066E-02 
456	 0.07801915587587 
457	 7.82530216050997E-02 
458	 7.84828138848264E-02 
459	 7.85728382805761E-02 
460	 7.88464710321782E-02 
461	 0.079061716002179 
462	 7.92118286701904E-02 
463	 7.94239402853187E-02 
464	 7.97301193935855E-02 
465	 8.01317937767065E-02 
466	 8.05446559240276E-02 
467	 8.07563834827312E-02 
468	 8.11120560924561E-02 
469	 8.15372972503708E-02 
470	 0.081906952644998 
471	 8.24448660827186E-02 
472	 8.29666961593193E-02 
473	 8.34452916346806E-02 
474	 8.39873534662384E-02 
475	 8.46064354402898E-02 
476	 8.52102974856729E-02 
477	 8.57892444189433E-02 
478	 8.65618556968452E-02 
479	 8.73654565726835E-02 
480	 8.81897167371792E-02 
481	 8.90811378055716E-02 
482	 9.00500146093623E-02 
483	 9.10530419643543E-02 
484	 0.092104007928477 
485	 9.32811738951792E-02 
486	 9.45527937961364E-02 
487	 9.58783446762435E-02 
488	 0.097241946369472 
489	 9.87101618463795E-02 
490	 0.100252099846345 
491	 0.10189778876399 
492	 0.10370171416672 
493	 0.105592169204857 
494	 0.107518712570173 
495	 0.109502940327738 
496	 0.111673728524876 
497	 0.113939491933609 
498	 0.116333668049802 
499	 0.118899342931106 
500	 0.121578700604419 
501	 0.124316159192357 
502	 0.127147010880016 
503	 0.130182243711184 
504	 0.133374641749764 
505	 0.136718040827687 
506	 0.140200093672557 
507	 0.143763756435312 
508	 0.147555634026061 
509	 0.151548844997196 
510	 0.155648405605305 
511	 0.159922530065888 
512	 0.164345504898746 
513	 0.168917651752579 
514	 0.173693515570462 
515	 0.1786003449545 
516	 0.183659364571212 
517	 0.188914217167991 
518	 0.194392416952645 
519	 0.199984472788836 
520	 0.205704482884882 
521	 0.211646849789713 
522	 0.217739888095543 
523	 0.223927279104721 
524	 0.230219825929199 
525	 0.236785631513736 
526	 0.243373335377224 
527	 0.250076610036552 
528	 0.257052805982647 
529	 0.264049816119593 
530	 0.271127606476759 
531	 0.278340324371485 
532	 0.285696564130549 
533	 0.293111736154749 
534	 0.300666212954322 
535	 0.30838794554108 
536	 0.316091431237477 
537	 0.323854864827298 
538	 0.331653536332148 
539	 0.339421628661798 
540	 0.347176612464393 
541	 0.35492256987571 
542	 0.362647022561884 
543	 0.3703063777194 
544	 0.377923685102518 
545	 0.38541994642572 
546	 0.392743532631994 
547	 0.400139733493869 
548	 0.407472161736303 
549	 0.4146725426003 
550	 0.421747464809003 
551	 0.428714575224113 
552	 0.435620039806097 
553	 0.442461122278453 
554	 0.449066176912662 
555	 0.455605316255413 
556	 0.46209839514106 
557	 0.46847364386375 
558	 0.474625478126794 
559	 0.480716763890753 
560	 0.486722757493169 
561	 0.492327537235106 
562	 0.497688717587351 
563	 0.502896376044733 
564	 0.508011599597684 
565	 0.513036514482701 
566	 0.517965211715763 
567	 0.522817705195084 
568	 0.527631060787677 
569	 0.532409760294419 
570	 0.537020224902883 
571	 0.541449365702177 
572	 0.546007597559782 
573	 0.550257970135046 
574	 0.554212229126868 
575	 0.558034522690812 
576	 0.561599992074383 
577	 0.565032625644074 
578	 0.568410506011243 
579	 0.571732600286343 
580	 0.575096445033482 
581	 0.578360895979919 
582	 0.581428468691097 
583	 0.584505030875099 
584	 0.587503845347526 
585	 0.590409101130736 
586	 0.593268921141767 
587	 0.596236323682202 
588	 0.599195454537033 
589	 0.602045647861876 
590	 0.604772100110814 
591	 0.607373517482742 
592	 0.609846249955059 
593	 0.612193783415303 
594	 0.614462185873447 
595	 0.616619308373766 
596	 0.618688119291129 
597	 0.620730489914773 
598	 0.622725004343974 
599	 0.62466970525258 
600	 0.626573770803215 
601	 0.628454032804051 
602	 0.63031307051143 
603	 0.632154729514821 
604	 0.633971989029402 
605	 0.635714086723557 
606	 0.637402039885507 
607	 0.639082701343426 
608	 0.640822073947955 
609	 0.642372900315479 
610	 0.643834954637604 
611	 0.645326685279813 
612	 0.646689183768606 
613	 0.648048489084507 
614	 0.649424610892137 
615	 0.650767958448702 
616	 0.652078775314234 
617	 0.653314470686418 
618	 0.654494618945802 
619	 0.655764618071116 
620	 0.656996417915924 
621	 0.658130153275712 
622	 0.65916424164773 
623	 0.660242252413672 
624	 0.661362345310417 
625	 0.662476308508356 
626	 0.663509437541053 
627	 0.664598084730913 
628	 0.665631965644051 
629	 0.666548683937328 
630	 0.667511468192331 
631	 0.668532262810027 
632	 0.669506769928669 
633	 0.670331270341344 
634	 0.671345684133952 
635	 0.672289512836468 
636	 0.673102002722989 
637	 0.674027725055438 
638	 0.674913490216582 
639	 0.675748697247017 
640	 0.676552745565868 
641	 0.677315445828338 
642	 0.678140586970017 
643	 0.679000082998331 
644	 0.679792133357866 
645	 0.680564621641937 
646	 0.681365979912124 
647	 0.682188963742958 
648	 0.682935975185681 
649	 0.683697383832125 
650	 0.684418770095804 
651	 0.685057557504047 
652	 0.685818461482058 
653	 0.686517899450166 
654	 0.687176771589986 
655	 0.687971873242261 
656	 0.688731412753011 
657	 0.689349593026176 
658	 0.68986671536537 
659	 0.690610920117182 
660	 0.691321098037523 
661	 0.691986392665988 
662	 0.692668497350002 
663	 0.693298993183183 
664	 0.693970311408013 
665	 0.6946942327054 
666	 0.695388905619768 
667	 0.695942947272053 
668	 0.696450627053065 
669	 0.697023980216508 
670	 0.697716267125541 
671	 0.698378879857572 
672	 0.698994767428366 
673	 0.69961335023738 
674	 0.700260634803023 
675	 0.700886624007827 
676	 0.701490424100904 
677	 0.702136115764833 
678	 0.702671383273623 
679	 0.703134410721303 
680	 0.703641431457478 
681	 0.704421636675351 
682	 0.70503649170919 
683	 0.705515745704617 
684	 0.706119186038801 
685	 0.70662791343323 
686	 0.707181032387201 
687	 0.707801875692784 
688	 0.708305878267321 
689	 0.708753109308284 
690	 0.709293713565938 
691	 0.709993744142786 
692	 0.710556519003079 
693	 0.7110672006037 
694	 0.711532687423655 
695	 0.711936313423197 
696	 0.712539497687174 
697	 0.713130260691731 
698	 0.71357886488311 
699	 0.71396826323586 
700	 0.714531836345146 
701	 0.715200602915422 
702	 0.715817401477365 
703	 0.716280268798925 
704	 0.716768387352979 
705	 0.717296222835688 
706	 0.717768661430882 
707	 0.718273295013712 
708	 0.718789423245273 
709	 0.719279041026341 
710	 0.719693713276102 
711	 0.720196089754305 
712	 0.720716465343012 
713	 0.721167392093822 
714	 0.721707177473429 
715	 0.722184882045158 
716	 0.722540805690225 
717	 0.722810729051817 
718	 0.723207049885118 
719	 0.723754000518934 
720	 0.724359742366168 
721	 0.724798078324234 
722	 0.725121636577278 
723	 0.725449992659418 
724	 0.725890368298668 
725	 0.726405883189319 
726	 0.726885290777337 
727	 0.727270096053668 
728	 0.727559990752451 
729	 0.727872098832063 
730	 0.728231940258365 
731	 0.728636611804659 
732	 0.729065407158324 
733	 0.729459717563996 
734	 0.729818910463413 
735	 0.730171520223911 
736	 0.730578431413587 
737	 0.730931454404775 
738	 0.731249762900288 
739	 0.731628929894048 
740	 0.73202308980006 
741	 0.732348235566513 
742	 0.732597206896297 
743	 0.732878058687204 
744	 0.733363194096428 
745	 0.733800619302754 
746	 0.733972438814904 
747	 0.734168486779915 
748	 0.734450329941754 
749	 0.734833293032156 
750	 0.735265011441762 
751	 0.735479619008539 
752	 0.735563518214719 
753	 0.73572250337274 
754	 0.736245809296597 
755	 0.73672948342339 
756	 0.73705934916544 
757	 0.737243018617978 
758	 0.737392529295567 
759	 0.73757006676485 
760	 0.737815759744347 
761	 0.738141649914182 
762	 0.738530321856544 
763	 0.73875860356483 
764	 0.738874184587446 
765	 0.739205361279672 
766	 0.739460601510411 
767	 0.739701397811332 
768	 0.740010486648583 
769	 0.740380736093421 
770	 0.740615812776031 
771	 0.740743079006759 
772	 0.740878429781181 
773	 0.741071895086952 
774	 0.74135101897273 
775	 0.74166690323399 
776	 0.741916258684751 
777	 0.742093895043933 
778	 0.742312616952036 
779	 0.742598105635955 
780	 0.742801541671945 
781	 0.742967815879046 
782	 0.743193965838073 
783	 0.743529995696163 
784	 0.743816372868203 
785	 0.744051229463345 
786	 0.744219052553657 
787	 0.744314351274427 
788	 0.744423792235633 
789	 0.744594254955288 
790	 0.744822823069911 
791	 0.745052803012164 
792	 0.745176269937874 
793	 0.745276870693101 
794	 0.745439385659928 
795	 0.745651966944504 
796	 0.745823025371966 
797	 0.745993256665261 
798	 0.746225912865423 
799	 0.746439203187777 
800	 0.746529888788081 
801	 0.746604038647355 
802	 0.746886064436118 
803	 0.747070526290318 
804	 0.747200321850579 
805	 0.747343014592473 
806	 0.747528896402048 
807	 0.747653395071954 
808	 0.74773279645023 
809	 0.747843680786612 
810	 0.748143725041035 
811	 0.748435532602606 
812	 0.748665205884015 
813	 0.748848174561291 
814	 0.748968417309496 
815	 0.749105474958065 
816	 0.749256969913759 
817	 0.749357174520942 
818	 0.749568835002732 
819	 0.749756808582659 
820	 0.749869336112868 
821	 0.750062661538233 
822	 0.750298793702616 
823	 0.750486086809715 
824	 0.750565178827966 
825	 0.750593962208593 
826	 0.750878702121703 
827	 0.751218513140063 
828	 0.751283144380763 
829	 0.751518690153362 
830	 0.751699661595016 
831	 0.751760627553775 
832	 0.751815800739188 
833	 0.751937159999427 
834	 0.75210264526411 
835	 0.752294234427293 
836	 0.752527815117673 
837	 0.752732411193898 
838	 0.7528450100993 
839	 0.752872580852625 
840	 0.75299961933312 
841	 0.75307607422579 
842	 0.753151422884723 
843	 0.75332088873671 
844	 0.753485733322934 
845	 0.753661828895008 
846	 0.753815099397362 
847	 0.75389086390688 
848	 0.754001354272027 
849	 0.754110908560634 
850	 0.754199531535813 
851	 0.754289159270764 
852	 0.754382008729065 
853	 0.754568166810862 
854	 0.754832042188828 
855	 0.754901321489521 
856	 0.755031118403073 
857	 0.755204525228151 
858	 0.755349278485693 
859	 0.755517376548199 
860	 0.755745080783188 
861	 0.755950744867163 
862	 0.756025974191993 
863	 0.756088470291377 
864	 0.756148692799269 
865	 0.756271194365264 
866	 0.756533106078627 
867	 0.756616945986309 
868	 0.756692561139277 
869	 0.756894794744031 
870	 0.757203478580782 
871	 0.757369853749756 
872	 0.757445313919503 
873	 0.757511391248452 
874	 0.757540918827536 
875	 0.757664331225609 
876	 0.757888152161818 
877	 0.758133793101104 
878	 0.758198473862482 
879	 0.758282764615118 
880	 0.758395159306616 
881	 0.758450807267915 
882	 0.758417003583753 
883	 0.758499313190771 
884	 0.758706222395837 
885	 0.7588866733742 
886	 0.759018661293509 
887	 0.759164785417339 
888	 0.75928253058375 
889	 0.759226692529441 
890	 0.759423655608029 
891	 0.759591202529785 
892	 0.75955755815899 
893	 0.759560107287132 
894	 0.759581858831552 
895	 0.759714136424778 
896	 0.759947881284422 
897	 0.759974921361698 
898	 0.759957397275934 
899	 0.759982767777889 
900	 0.760066422014967 
901	 0.760036027426068 
902	 0.760125068707463 
903	 0.760259191771041 
904	 0.760252001792621 
905	 0.760218057935332 
906	 0.760313760960134 
907	 0.760539943143693 
908	 0.760774403261642 
909	 0.760945763441835 
910	 0.761067018443473 
911	 0.761161299848652 
912	 0.761257000673026 
913	 0.76147534573486 
914	 0.761608888263161 
915	 0.761653387795334 
916	 0.761923177761952 
917	 0.762035284593793 
918	 0.76214382835197 
919	 0.76235496428804 
920	 0.762484164756249 
921	 0.762577699007439 
922	 0.762751018005643 
923	 0.763017721663251 
924	 0.763088652416653 
925	 0.763214653354639 
926	 0.763385363434377 
927	 0.763533391279089 
928	 0.763697478755516 
929	 0.76392215674583 
930	 0.764148988608575 
931	 0.764295929940022 
932	 0.764379587288969 
933	 0.76451415764991 
934	 0.764721711436687 
935	 0.764942538341412 
936	 0.765016438487152 
937	 0.765112760803375 
938	 0.765289049209838 
939	 0.765503949271317 
940	 0.765750681224757 
941	 0.765889777097866 
942	 0.765965484721546 
943	 0.766154253003083 
944	 0.766265417397965 
945	 0.766373774354889 
946	 0.766491430983124 
947	 0.766544708255422 
948	 0.766610442857272 
949	 0.766724203463135 
950	 0.766859437133473 
951	 0.766930083508504 
952	 0.766998233150193 
953	 0.767034412413212 
954	 0.767024792859171 
955	 0.767002389490813 
956	 0.767041165019122 
957	 0.767107865404076 
958	 0.767140553617628 
959	 0.767080556285121 
960	 0.767171973691158 
961	 0.767254191340738 
962	 0.767200830166399 
963	 0.767150260913364 
964	 0.767138644142433 
965	 0.767201543618504 
966	 0.767328564513091 
967	 0.767429561328737 
968	 0.767466809197142 
969	 0.767506466889386 
970	 0.767630156751268 
971	 0.767883468494942 
972	 0.767916317200854 
973	 0.767843240060079 
974	 0.767880765043107 
975	 0.768084561800493 
976	 0.768179507021648 
977	 0.768280004606091 
978	 0.768510331188474 
979	 0.768615310218724 
980	 0.76868637324636 
981	 0.768783870876724 
982	 0.768920819739596 
983	 0.76897679145511 
984	 0.769154773322668 
985	 0.769425091077892 
986	 0.769651784556565 
987	 0.769654677718751 
988	 0.769761825230786 
989	 0.769900958206773 
990	 0.769907827656532 
991	 0.769835105550875 
992	 0.769904342190672 
993	 0.770028906668398 
994	 0.77011574433951 
995	 0.770507362608019 
996	 0.770616100573069 
997	 0.77049321304112 
998	 0.770402763789459 
999	 0.770408847165832 
1000	 0.770535495138285 
1001	 0.773403328146512 
1002	 0.773534770604722 
1003	 0.773636392257705 
1004	 0.773752840456635 
1005	 0.773876137087969 
1006	 0.773940544851386 
1007	 0.773980039792011 
1008	 0.774039925783527 
1009	 0.774043802337599 
1010	 0.774093710428084 
1011	 0.774182361538054 
1012	 0.774263368342168 
1013	 0.774363452286858 
1014	 0.774439732140185 
1015	 0.774509707557075 
1016	 0.774579981666484 
1017	 0.774642715417773 
1018	 0.774725762839289 
1019	 0.774801961966335 
1020	 0.774876499703156 
1021	 0.774989981706074 
1022	 0.775125449803268 
1023	 0.775234570607941 
1024	 0.775369095510624 
1025	 0.775499592596436 
1026	 0.775612416837069 
1027	 0.775696561449621 
1028	 0.775780244216866 
1029	 0.775881483570815 
1030	 0.775882367117745 
1031	 0.775940593208009 
1032	 0.77603595167807 
1033	 0.776075768250057 
1034	 0.776166543113714 
1035	 0.776247409988829 
1036	 0.776328649628513 
1037	 0.776418501350391 
1038	 0.776506437880036 
1039	 0.77658721746409 
1040	 0.776683130042995 
1041	 0.776770306858447 
1042	 0.77688418978667 
1043	 0.77703490037963 
1044	 0.77715755819194 
1045	 0.777249879992756 
1046	 0.777342699911783 
1047	 0.777429596024337 
1048	 0.777539400210269 
1049	 0.77767293326871 
1050	 0.777858129412906 
1051	 0.77804575403521 
1052	 0.778188794100186 
1053	 0.778356893431668 
1054	 0.778555345605142 
1055	 0.778710654228337 
1056	 0.778842751880405 
1057	 0.779007096595336 
1058	 0.779180982016242 
1059	 0.779323622494942 
1060	 0.779450635426481 
1061	 0.779587636928776 
1062	 0.779706053400917 
1063	 0.779812093804968 
1064	 0.779980288939992 
1065	 0.780151295815922 
1066	 0.780289311657907 
1067	 0.780465078061204 
1068	 0.780627507708677 
1069	 0.780754664704247 
1070	 0.780879720089995 
1071	 0.780995074364983 
1072	 0.781081154070943 
1073	 0.781209266584803 
1074	 0.781393440216172 
1075	 0.781569396690649 
1076	 0.781728701855677 
1077	 0.781878210494726 
1078	 0.78201514801892 
1079	 0.782153770551491 
1080	 0.782314730710754 
1081	 0.782465831552538 
1082	 0.78259473062902 
1083	 0.78269954909625 
1084	 0.782805473717386 
1085	 0.782933211131143 
1086	 0.783056319509733 
1087	 0.783174109730727 
1088	 0.783291744342893 
1089	 0.783407135133699 
1090	 0.783497430437323 
1091	 0.783567077062584 
1092	 0.783637919864623 
1093	 0.783702866283694 
1094	 0.783768094376807 
1095	 0.783841583117373 
1096	 0.78392602685844 
1097	 0.784007544215619 
1098	 0.78407499937993 
1099	 0.784154812932616 
1100	 0.784207675636231 
1101	 0.784235993555869 
1102	 0.784277870964198 
1103	 0.784323378675142 
1104	 0.784357136488521 
1105	 0.784412256592014 
1106	 0.784473718187892 
1107	 0.784512400918248 
1108	 0.784547343009308 
1109	 0.78457438490643 
1110	 0.784621019061488 
1111	 0.784686157504911 
1112	 0.784744848107391 
1113	 0.784767979779731 
1114	 0.784753050363539 
1115	 0.784749073791354 
1116	 0.784753949560007 
1117	 0.784765515371351 
1118	 0.784764845812501 
1119	 0.784767118848736 
1120	 0.784755633151683 
1121	 0.784738170920868 
1122	 0.784697685983187 
1123	 0.784641990523609 
1124	 0.784581373567541 
1125	 0.78448688848 
1126	 0.784385857253172 
1127	 0.784235075308447 
1128	 0.784055138617386 
1129	 0.783878413214274 
1130	 0.783648984775935 
1131	 0.783448575695393 
1132	 0.783276544052631 
1133	 0.783055188208118 
1134	 0.782851472210547 
1135	 0.782629443136654 
1136	 0.782389111844767 
1137	 0.782138996663297 
1138	 0.78189351559951 
1139	 0.781610137905501 
1140	 0.781293917822399 
1141	 0.780994571127088 
1142	 0.780674404839606 
1143	 0.780358324347856 
1144	 0.780045920498002 
1145	 0.779727787026479 
1146	 0.779411302298159 
1147	 0.779065217977828 
1148	 0.778717126741946 
1149	 0.778383889114169 
1150	 0.778021487286281 
1151	 0.777655237844064 
1152	 0.777266496099198 
1153	 0.776856562299893 
1154	 0.776436788171832 
1155	 0.776015626754982 
1156	 0.775542220004048 
1157	 0.775035838344366 
1158	 0.77453750553116 
1159	 0.773998349210699 
1160	 0.773470329268266 
1161	 0.772976393313198 
1162	 0.77243335414011 
1163	 0.771897830427966 
1164	 0.771384219324936 
1165	 0.770859883296227 
1166	 0.7703665297983 
1167	 0.769894175392341 
1168	 0.769453601801442 
1169	 0.769019999512269 
1170	 0.768610388105553 
1171	 0.768214576054485 
1172	 0.767823038757865 
1173	 0.767443679239105 
1174	 0.767090762554828 
1175	 0.766754950192166 
1176	 0.76641892753034 
1177	 0.766118409442615 
1178	 0.765860478700031 
1179	 0.765584168834786 
1180	 0.76532827364056 
1181	 0.76510584780145 
1182	 0.764882107092074 
1183	 0.764677046414876 
1184	 0.764494929556018 
1185	 0.764330426149898 
1186	 0.764202150449036 
1187	 0.764104700475177 
1188	 0.764026664503133 
1189	 0.763978749824772 
1190	 0.76394614942972 
1191	 0.763926458185622 
1192	 0.763940005832821 
1193	 0.763992495478641 
1194	 0.764045740862815 
1195	 0.764120546394018 
1196	 0.764202789132511 
1197	 0.764299164732517 
1198	 0.764392867853864 
1199	 0.764487756759258 
1200	 0.76460366838251 
1201	 0.764730314514152 
1202	 0.764860745379784 
1203	 0.764997620862758 
1204	 0.765156155828342 
1205	 0.765337702419548 
1206	 0.765513183371918 
1207	 0.765749332497383 
1208	 0.766042789343809 
1209	 0.766324845963384 
1210	 0.766624627708217 
1211	 0.766950319709839 
1212	 0.767280145130535 
1213	 0.767652247657232 
1214	 0.768053258814859 
1215	 0.768493101989787 
1216	 0.768990274088518 
1217	 0.769472905771109 
1218	 0.769987216791674 
1219	 0.7705022129555 
1220	 0.770990521042069 
1221	 0.771489261115092 
1222	 0.771987313604842 
1223	 0.772495319254698 
1224	 0.772974744811461 
1225	 0.773447423328425 
1226	 0.773894871831704 
1227	 0.774319453546902 
1228	 0.774731485845878 
1229	 0.775123229795771 
1230	 0.775514370458286 
1231	 0.775893497346896 
1232	 0.776266446296701 
1233	 0.776636655664068 
1234	 0.776988463261649 
1235	 0.777329561455685 
1236	 0.777654286666269 
1237	 0.777975992712439 
1238	 0.778269564300071 
1239	 0.778548989337087 
1240	 0.778782661664351 
1241	 0.779034052424096 
1242	 0.779265329352724 
1243	 0.779475021391707 
1244	 0.779677466873835 
1245	 0.779864607294451 
1246	 0.78001588845492 
1247	 0.780179738683999 
1248	 0.780354522926895 
1249	 0.780502215106409 
1250	 0.780630503330673 
1251	 0.780754712926754 
1252	 0.780880176018724 
1253	 0.780971977807615 
1254	 0.781043374359022 
1255	 0.781105822761789 
1256	 0.781142319128812 
1257	 0.781167296684618 
1258	 0.781176779876331 
1259	 0.781186828725688 
1260	 0.781183141670569 
1261	 0.781173388889444 
1262	 0.781155196224637 
1263	 0.781141148750065 
1264	 0.781136484053619 
1265	 0.781119858003484 
1266	 0.781128689572955 
1267	 0.781165098058792 
1268	 0.781185884724334 
1269	 0.781204244345177 
1270	 0.781233707514052 
1271	 0.781258941731011 
1272	 0.781304576828678 
1273	 0.7813715461259 
1274	 0.781431225733343 
1275	 0.781511117977335 
1276	 0.781567118319087 
1277	 0.781595807560453 
1278	 0.781649881961223 
1279	 0.781706678771749 
1280	 0.781764492490467 
1281	 0.781833610932862 
1282	 0.781909938747073 
1283	 0.781981229935418 
1284	 0.782062075616499 
1285	 0.782152306460241 
1286	 0.782262329686248 
1287	 0.782358242234707 
1288	 0.78244844331528 
1289	 0.782553420940621 
1290	 0.782664097091869 
1291	 0.782773084994395 
1292	 0.782898460739045 
1293	 0.78300020447841 
1294	 0.783096349330865 
1295	 0.783177003633325 
1296	 0.78323534189134 
1297	 0.783304682736433 
1298	 0.783384330568341 
1299	 0.783430740171519 
1300	 0.783462575140342 
1301	 0.783492960116545 
1302	 0.783489557930316 
1303	 0.783502016016941 
1304	 0.783551518950932 
1305	 0.783555297698401 
1306	 0.783535294249911 
1307	 0.783507631067326 
1308	 0.783449606943124 
1309	 0.783386068528134 
1310	 0.783326958334961 
1311	 0.783271220010393 
1312	 0.783201714033499 
1313	 0.783126492804398 
1314	 0.783044060218008 
1315	 0.782949377860585 
1316	 0.782860916115882 
1317	 0.782766943886474 
1318	 0.782680022014786 
1319	 0.782610026833314 
1320	 0.782509148566573 
1321	 0.7824031283631 
1322	 0.782281345658546 
1323	 0.782143934907107 
1324	 0.781987873039199 
1325	 0.781811066533735 
1326	 0.781637059377692 
1327	 0.781461581710133 
1328	 0.781256912368857 
1329	 0.781043503974669 
1330	 0.780816405652572 
1331	 0.780555976556813 
1332	 0.78029326003876 
1333	 0.780030423772216 
1334	 0.779758019542114 
1335	 0.779466593163893 
1336	 0.779165895620135 
1337	 0.778830326939392 
1338	 0.778472959563466 
1339	 0.778105542582344 
1340	 0.777708727192483 
1341	 0.77731242005765 
1342	 0.77691462289736 
1343	 0.776494349065847 
1344	 0.776057864514006 
1345	 0.775608731499137 
1346	 0.775143806883865 
1347	 0.774671031563834 
1348	 0.774192516922128 
1349	 0.773688867113171 
1350	 0.77315714455987 
1351	 0.77263412860958 
1352	 0.772085770978398 
1353	 0.771555516932232 
1354	 0.771031239960052 
1355	 0.770518910642768 
1356	 0.77001806317383 
1357	 0.769515914212214 
1358	 0.769020277759721 
1359	 0.768529020649475 
1360	 0.768042421501897 
1361	 0.76754895378493 
1362	 0.767071207190745 
1363	 0.766614839112028 
1364	 0.76613414990565 
1365	 0.765666339685842 
1366	 0.765149892403756 
1367	 0.764604453920037 
1368	 0.764059713807749 
1369	 0.763488493301699 
1370	 0.762921480559008 
1371	 0.762361292135761 
1372	 0.761778935832704 
1373	 0.76119514670422 
1374	 0.76056972849151 
1375	 0.759922186600775 
1376	 0.759244094073654 
1377	 0.758543653002038 
1378	 0.757786970767267 
1379	 0.757005416210353 
1380	 0.756165812816428 
1381	 0.755286657735267 
1382	 0.754330305213993 
1383	 0.753310873444664 
1384	 0.752245501295542 
1385	 0.751121792767758 
1386	 0.749941368564625 
1387	 0.748701967006346 
1388	 0.747444636554475 
1389	 0.746113734934056 
1390	 0.74478454426753 
1391	 0.743464783984183 
1392	 0.74207566774205 
1393	 0.740733892842003 
1394	 0.73933924406599 
1395	 0.7379110986515 
1396	 0.736470734746221 
1397	 0.734990875095469 
1398	 0.733484530302853 
1399	 0.731890807218081 
1400	 0.730271685283496 
1401	 0.72854612079327 
1402	 0.726727046857202 
1403	 0.724836321880617 
1404	 0.722874390308339 
1405	 0.72085996510889 
1406	 0.71873275075066 
1407	 0.716629188051669 
1408	 0.714401980887224 
1409	 0.712343942771522 
1410	 0.710266727938418 
1411	 0.708376398767609 
1412	 0.706595843507574 
1413	 0.704987123475562 
1414	 0.703529569752248 
1415	 0.702178937232886 
1416	 0.701028444601355 
1417	 0.699890601810731 
1418	 0.698883684426058 
1419	 0.697845475053828 
1420	 0.696836858839118 
1421	 0.695850086619745 
1422	 0.694864641197972 
1423	 0.693900916328535 
1424	 0.692977582558406 
1425	 0.692032515781479 
1426	 0.691173698551488 
1427	 0.690339659612128 
1428	 0.689539073030894 
1429	 0.688836100932918 
1430	 0.688135151309334 
1431	 0.687452483721542 
1432	 0.686815150203917 
1433	 0.686227402800179 
1434	 0.685654665120635 
1435	 0.685109489226851 
1436	 0.684582190210297 
1437	 0.684079582790608 
1438	 0.683610658503718 
1439	 0.683163721309211 
1440	 0.682745979952592 
1441	 0.682372091582387 
1442	 0.681996312407423 
1443	 0.681642840933741 
1444	 0.681286388346506 
1445	 0.680937856011385 
1446	 0.680598561908779 
1447	 0.680250865766062 
1448	 0.679939598998534 
1449	 0.679641561403751 
1450	 0.679374298374021 
1451	 0.679155768313143 
1452	 0.678920421383615 
1453	 0.678705384779745 
1454	 0.678481097987352 
1455	 0.678238514918274 
1456	 0.678015488782652 
1457	 0.67780050726263 
1458	 0.677592354098738 
1459	 0.677396074220206 
1460	 0.677203422551207 
1461	 0.67699970699752 
1462	 0.676830515048658 
1463	 0.676686608100281 
1464	 0.676548237900688 
1465	 0.676437291807856 
1466	 0.676329048525121 
1467	 0.676225614248101 
1468	 0.676123026011974 
1469	 0.676019384666391 
1470	 0.675918853280241 
1471	 0.675803493320382 
1472	 0.675680320275927 
1473	 0.675543138227028 
1474	 0.675402807831499 
1475	 0.675230947541654 
1476	 0.675047695748435 
1477	 0.674819645177397 
1478	 0.674560281342639 
1479	 0.674280956682135 
1480	 0.673970552584799 
1481	 0.673633263521844 
1482	 0.673258464921422 
1483	 0.672892232953541 
1484	 0.672501583832464 
1485	 0.672109173890437 
1486	 0.671721493983429 
1487	 0.671321541124597 
1488	 0.670887771125464 
1489	 0.670486089055193 
1490	 0.670064000552681 
1491	 0.669716187988647 
1492	 0.669392399307236 
1493	 0.669125581802708 
1494	 0.668920639987425 
1495	 0.668750844619164 
1496	 0.668627461053711 
1497	 0.668533554195364 
1498	 0.668477587268318 
1499	 0.66846576122256 
1500	 0.668490172110183 
1501	 0.668552854140313 
1502	 0.668661579118356 
1503	 0.668806329027604 
1504	 0.668993387844696 
1505	 0.669205027896171 
1506	 0.669472610592768 
1507	 0.669738275525748 
1508	 0.670022367688051 
1509	 0.670316546377464 
1510	 0.670614760657835 
1511	 0.670936108445896 
1512	 0.671268600329007 
1513	 0.671627512305906 
1514	 0.67202885968891 
1515	 0.672420303502512 
1516	 0.6728139503071 
1517	 0.673230417047991 
1518	 0.673658494192157 
1519	 0.67408807947407 
1520	 0.674544811649774 
1521	 0.67499184219025 
1522	 0.675427107665847 
1523	 0.675903138114696 
1524	 0.676390421793852 
1525	 0.676900689874433 
1526	 0.677418650263475 
1527	 0.677946103187917 
1528	 0.678504855525049 
1529	 0.679072095239504 
1530	 0.679693792842365 
1531	 0.680363411187285 
1532	 0.681030729667695 
1533	 0.68173397080086 
1534	 0.682431575599132 
1535	 0.683139514032648 
1536	 0.683834339215313 
1537	 0.684552754524523 
1538	 0.685216828940004 
1539	 0.685863302046651 
1540	 0.68646880310049 
1541	 0.6870393966829 
1542	 0.68758351367192 
1543	 0.688097736092904 
1544	 0.688574856894314 
1545	 0.689020937223238 
1546	 0.689433983372535 
1547	 0.689820494755223 
1548	 0.69014903217212 
1549	 0.69042503082393 
1550	 0.690690215094847 
1551	 0.690916144623279 
1552	 0.691107260609666 
1553	 0.691275587232829 
1554	 0.691417519195148 
1555	 0.691493607133507 
1556	 0.691597776686556 
1557	 0.691700885993669 
1558	 0.691800352846126 
1559	 0.691876533386085 
1560	 0.691995188957057 
1561	 0.692112776055382 
1562	 0.692277685814313 
1563	 0.692475681387729 
1564	 0.692710112811655 
1565	 0.69299311969427 
1566	 0.693276690861281 
1567	 0.693595234582919 
1568	 0.693914001338649 
1569	 0.69424453124221 
1570	 0.694572172434238 
1571	 0.694915882958547 
1572	 0.695248079405181 
1573	 0.695574247854059 
1574	 0.695896527943916 
1575	 0.696227058518205 
1576	 0.696532705917976 
1577	 0.696806818372974 
1578	 0.697105696702625 
1579	 0.697403224885267 
1580	 0.697699828644005 
1581	 0.698010133392411 
1582	 0.698317497915917 
1583	 0.698615350948074 
1584	 0.698918456907398 
1585	 0.699223509494245 
1586	 0.699541204803011 
1587	 0.69985746917002 
1588	 0.700186772123985 
1589	 0.700542170434472 
1590	 0.700886589466176 
1591	 0.701227524522629 
1592	 0.701576126246338 
1593	 0.701917747500307 
1594	 0.702278525117968 
1595	 0.702664074574226 
1596	 0.703034908339255 
1597	 0.703408790342903 
1598	 0.70378182189271 
1599	 0.704146548148489 
1600	 0.704513340567449 
1601	 0.704877167594878 
1602	 0.705256881546573 
1603	 0.705654075439106 
1604	 0.706029648044528 
1605	 0.706402575842464 
1606	 0.706778681700312 
1607	 0.707147352737761 
1608	 0.707505454156009 
1609	 0.707873400714966 
1610	 0.708226071317913 
1611	 0.708554654802278 
1612	 0.708880458017456 
1613	 0.709206943514595 
1614	 0.709518305869858 
1615	 0.70981227630958 
1616	 0.710105180616728 
1617	 0.710399848060841 
1618	 0.710673925940109 
1619	 0.71092119399825 
1620	 0.711181409520731 
1621	 0.711430224099747 
1622	 0.711684767754105 
1623	 0.71196688392773 
1624	 0.71222216202306 
1625	 0.712473377911851 
1626	 0.712699203170516 
1627	 0.712885340272789 
1628	 0.713086323329502 
1629	 0.713281719574251 
1630	 0.713466907027181 
1631	 0.7136624440471 
1632	 0.713841159234368 
1633	 0.713996403346346 
1634	 0.714152805234717 
1635	 0.714311931500292 
1636	 0.714451079532567 
1637	 0.714578434623846 
1638	 0.714693643058688 
1639	 0.714789495275521 
1640	 0.714881720685912 
1641	 0.714976440466949 
1642	 0.715041919286591 
1643	 0.715088426636879 
1644	 0.715122927515367 
1645	 0.715130577676206 
1646	 0.715133879146535 
1647	 0.715139436006352 
1648	 0.715116086336446 
1649	 0.715089979904787 
1650	 0.715012662667681 
1651	 0.714908068082595 
1652	 0.71475751862311 
1653	 0.714565065686842 
1654	 0.714328652603119 
1655	 0.714053194781123 
1656	 0.713722619515899 
1657	 0.713344789262699 
1658	 0.7129058949714 
1659	 0.712398166575007 
1660	 0.711868733133712 
1661	 0.711324572545257 
1662	 0.710678296680269 
1663	 0.709996837655242 
1664	 0.709190562927239 
1665	 0.708269945411782 
1666	 0.707256612126042 
1667	 0.706147500741531 
1668	 0.704960215752508 
1669	 0.703681468609417 
1670	 0.702309212808215 
1671	 0.700827010386924 
1672	 0.69928073471993 
1673	 0.697629027117973 
1674	 0.695931225191282 
1675	 0.694158593455236 
1676	 0.692390797045891 
1677	 0.690570364137219 
1678	 0.688739730596999 
1679	 0.68684584743275 
1680	 0.685014444282352 
1681	 0.683153367118217 
1682	 0.681379720886288 
1683	 0.679667706544709 
1684	 0.678051263047487 
1685	 0.676467000583759 
1686	 0.675019492209055 
1687	 0.673659039661018 
1688	 0.672427698567546 
1689	 0.671347751504112 
1690	 0.670310178729367 
1691	 0.669416073593946 
1692	 0.668522521175563 
1693	 0.667675896676069 
1694	 0.666850393189334 
1695	 0.666089887866389 
1696	 0.665282351100821 
1697	 0.664501970637516 
1698	 0.663644372672716 
1699	 0.662732990215764 
1700	 0.661848625568084 
1701	 0.660938821818432 
1702	 0.660038830551617 
1703	 0.65915063833196 
1704	 0.658233412962026 
1705	 0.657281713043218 
1706	 0.656316615723132 
1707	 0.655433040026112 
1708	 0.654514110490833 
1709	 0.653595119717883 
1710	 0.652636588902355 
1711	 0.651566719102624 
1712	 0.650478444176725 
1713	 0.649288198376352 
1714	 0.648017890706982 
1715	 0.646789071995144 
1716	 0.645460576861053 
1717	 0.644111591048439 
1718	 0.642773994129242 
1719	 0.641374677005627 
1720	 0.640070758084467 
1721	 0.6388652125881 
1722	 0.637768672991791 
1723	 0.63686096895835 
1724	 0.636071140806758 
1725	 0.635427425451405 
1726	 0.635007425329474 
1727	 0.634761384434853 
1728	 0.63472100715775 
1729	 0.634907706700723 
1730	 0.635252585362207 
1731	 0.635712919672763 
1732	 0.6363204678394 
1733	 0.636982180096039 
1734	 0.637709550308553 
1735	 0.63853419533526 
1736	 0.63934290546895 
1737	 0.640139832469993 
1738	 0.640907876650733 
1739	 0.641620338847115 
1740	 0.642317229083439 
1741	 0.642941742873891 
1742	 0.643505571980299 
1743	 0.644040705548757 
1744	 0.644492410564507 
1745	 0.644955475792329 
1746	 0.64541719917497 
1747	 0.645824721070955 
1748	 0.646197015775476 
1749	 0.646548013684793 
1750	 0.646841152970894 
1751	 0.647158879537657 
1752	 0.647482933370097 
1753	 0.647786000227679 
1754	 0.648071153489989 
1755	 0.648366396598092 
1756	 0.648606612640891 
1757	 0.648940349979641 
1758	 0.649359222553857 
1759	 0.649822138149998 
1760	 0.650369513860452 
1761	 0.650940748861901 
1762	 0.651502303666378 
1763	 0.652138285178392 
1764	 0.652838690101835 
1765	 0.653618406022479 
1766	 0.654493144850437 
1767	 0.655340317123019 
1768	 0.656180284451556 
1769	 0.657021593184541 
1770	 0.657758111624235 
1771	 0.658505285412491 
1772	 0.659247371449243 
1773	 0.65991113542909 
1774	 0.660563245477226 
1775	 0.66113893374427 
1776	 0.661639444130244 
1777	 0.662076046610967 
1778	 0.66245135888197 
1779	 0.662823103127377 
1780	 0.663177167030215 
1781	 0.663515510803822 
1782	 0.66384393773752 
1783	 0.664147462259375 
1784	 0.664404855145052 
1785	 0.664592923258314 
1786	 0.664765924623067 
1787	 0.664864516879579 
1788	 0.66499362906046 
1789	 0.665122214932735 
1790	 0.665235489677461 
1791	 0.665341275338795 
1792	 0.665459538220708 
1793	 0.665577513883918 
1794	 0.665700555301942 
1795	 0.66583798732514 
1796	 0.665983430048355 
1797	 0.666131193169877 
1798	 0.666283515683626 
1799	 0.666458519415704 
1800	 0.666647728428747 
1801	 0.669864747346332 
1802	 0.670094554150013 
1803	 0.670319818437442 
1804	 0.670551725606059 
1805	 0.670783273566179 
1806	 0.670994068118812 
1807	 0.671191121179236 
1808	 0.671410448967091 
1809	 0.671600155271237 
1810	 0.67183558553042 
1811	 0.672131845723059 
1812	 0.672391896429758 
1813	 0.672636234961402 
1814	 0.672921342371922 
1815	 0.673177098500372 
1816	 0.673420300265858 
1817	 0.673678433524556 
1818	 0.673956092809655 
1819	 0.674204131429366 
1820	 0.674448212710874 
1821	 0.674680316604437 
1822	 0.674880032999064 
1823	 0.675104582024918 
1824	 0.675344115955859 
1825	 0.675588273982347 
1826	 0.675805570535817 
1827	 0.676024929648236 
1828	 0.676220218031416 
1829	 0.676370649335141 
1830	 0.676555665048092 
1831	 0.676734563895381 
1832	 0.676944538015221 
1833	 0.677185189239462 
1834	 0.677414734859459 
1835	 0.677647951754287 
1836	 0.677887692068584 
1837	 0.678108807654579 
1838	 0.678325409953652 
1839	 0.678506662302573 
1840	 0.678673437360594 
1841	 0.678825735625604 
1842	 0.678945601816458 
1843	 0.679063716223404 
1844	 0.679183644964014 
1845	 0.67927347462595 
1846	 0.679329232661107 
1847	 0.679360482772301 
1848	 0.679366302616416 
1849	 0.679366639825812 
1850	 0.679292754447798 
1851	 0.679180639144119 
1852	 0.679021465786765 
1853	 0.6788060201104 
1854	 0.67858190748188 
1855	 0.678331159147445 
1856	 0.678053095945744 
1857	 0.67773576073647 
1858	 0.677336615412139 
1859	 0.676903335875419 
1860	 0.676436632279758 
1861	 0.675895722163001 
1862	 0.675295965037749 
1863	 0.674660822873683 
1864	 0.673933381051039 
1865	 0.673177446353506 
1866	 0.672341648864253 
1867	 0.671367359801819 
1868	 0.670370926265857 
1869	 0.6692305547879 
1870	 0.668007392557691 
1871	 0.666743170782277 
1872	 0.665356410873689 
1873	 0.663860719080006 
1874	 0.662287008096484 
1875	 0.660604307756473 
1876	 0.658673620180467 
1877	 0.656687854101121 
1878	 0.654542881640692 
1879	 0.652198339047932 
1880	 0.649826680517801 
1881	 0.647247796339748 
1882	 0.644483074714239 
1883	 0.641593433387708 
1884	 0.638495585552109 
1885	 0.635030172888762 
1886	 0.631497021819238 
1887	 0.627651142318794 
1888	 0.623523174715415 
1889	 0.619519288396081 
1890	 0.615207356468021 
1891	 0.61081562189456 
1892	 0.606388031159813 
1893	 0.601701444791468 
1894	 0.596718365072944 
1895	 0.591839313291754 
1896	 0.586781850486314 
1897	 0.581577375065495 
1898	 0.576757064493169 
1899	 0.571800530498762 
1900	 0.566903563148446 
1901	 0.562182000626246 
1902	 0.557170436948014 
1903	 0.55233773224301 
1904	 0.547586260019562 
1905	 0.542828610463941 
1906	 0.538153032443167 
1907	 0.533954006735728 
1908	 0.529728304361434 
1909	 0.525681045683885 
1910	 0.521891273370441 
1911	 0.517924022594399 
1912	 0.514199627596163 
1913	 0.510596744662517 
1914	 0.507015469365666 
1915	 0.503729147042747 
1916	 0.500744212540346 
1917	 0.497771456538601 
1918	 0.494917658167869 
1919	 0.492255189633969 
1920	 0.489489261845754 
1921	 0.486906127680315 
1922	 0.484440697228025 
1923	 0.481997875752848 
1924	 0.479843522504207 
1925	 0.47776596298643 
1926	 0.47579954732146 
1927	 0.473999530094281 
1928	 0.472274938133944 
1929	 0.470617960698275 
1930	 0.469099258300843 
1931	 0.467704476778049 
1932	 0.466387516092133 
1933	 0.465267273658451 
1934	 0.46426501530583 
1935	 0.463371046529727 
1936	 0.462612205734429 
1937	 0.46193944336178 
1938	 0.461352663604826 
1939	 0.460907143442932 
1940	 0.460579076469929 
1941	 0.460353752572888 
1942	 0.460265919061663 
1943	 0.460273866541841 
1944	 0.460345838595946 
1945	 0.460543766326473 
1946	 0.460859786186996 
1947	 0.461250886345369 
1948	 0.461733529211839 
1949	 0.462295342846721 
1950	 0.462900319314138 
1951	 0.463561036317952 
1952	 0.464283636515711 
1953	 0.465065127303221 
1954	 0.465906015223537 
1955	 0.466822514342574 
1956	 0.467739368672487 
1957	 0.468717934262561 
1958	 0.469724974062758 
1959	 0.470695039242984 
1960	 0.471711735440696 
1961	 0.472726815192917 
1962	 0.473722262811768 
1963	 0.474772186997355 
1964	 0.475870860359026 
1965	 0.476944603872681 
1966	 0.478044237475844 
1967	 0.479141211407206 
1968	 0.48018450156083 
1969	 0.481247013091881 
1970	 0.482296446457013 
1971	 0.483334479496151 
1972	 0.484427130246002 
1973	 0.485516615241203 
1974	 0.486625492524612 
1975	 0.487809285865441 
1976	 0.488904769455375 
1977	 0.489946562339712 
1978	 0.491030097412995 
1979	 0.49208325360409 
1980	 0.493139924168988 
1981	 0.494316011514222 
1982	 0.495478923333173 
1983	 0.496656163713338 
1984	 0.497851555264568 
1985	 0.498952763222905 
1986	 0.500077243671727 
1987	 0.501202497699553 
1988	 0.502303674055648 
1989	 0.503421773297346 
1990	 0.504582209854762 
1991	 0.50568626148565 
1992	 0.506771420443598 
1993	 0.507855026756816 
1994	 0.508854408656794 
1995	 0.509874381050182 
1996	 0.510888996326167 
1997	 0.511881274948891 
1998	 0.512907565613164 
1999	 0.513970877006966 
2000	 0.514987871716048 
2001	 0.516033737555897 
2002	 0.516997806267201 
2003	 0.517925925283012 
2004	 0.518819227521418 
2005	 0.519636915332149 
2006	 0.5204621183332 
2007	 0.521302489664882 
2008	 0.522049023230165 
2009	 0.522791127430419 
2010	 0.523476198934367 
2011	 0.5240408525853 
2012	 0.52457563071023 
2013	 0.525012687859637 
2014	 0.525362250699044 
2015	 0.525646256389978 
2016	 0.525877436759406 
2017	 0.525981931674931 
2018	 0.525999650472037 
2019	 0.525918520425199 
2020	 0.525728420377854 
2021	 0.525443090201515 
2022	 0.525073555599222 
2023	 0.52457668526124 
2024	 0.523922625589437 
2025	 0.523181876510809 
2026	 0.522356410151234 
2027	 0.521376094003642 
2028	 0.520409476586293 
2029	 0.519370589195889 
2030	 0.518303386150802 
2031	 0.517172766690589 
2032	 0.516059394835722 
2033	 0.51483853625502 
2034	 0.513763291794664 
2035	 0.51271842633309 
2036	 0.511731380974107 
2037	 0.510909436549735 
2038	 0.510189953312952 
2039	 0.50960743175333 
2040	 0.509151145544173 
2041	 0.508828405950251 
2042	 0.508627705316409 
2043	 0.508573765349501 
2044	 0.508700270336197 
2045	 0.508880869353851 
2046	 0.50920082140258 
2047	 0.50958126879064 
2048	 0.510010279629142 
2049	 0.510561095005029 
2050	 0.511238868196375 
2051	 0.511983708618845 
2052	 0.512823190458315 
2053	 0.51376843704772 
2054	 0.514694572760166 
2055	 0.515665918799451 
2056	 0.516673765329769 
2057	 0.517671120052707 
2058	 0.518780238339687 
2059	 0.519990025117963 
2060	 0.521188087252348 
2061	 0.522500579074615 
2062	 0.523737806759665 
2063	 0.524930698140448 
2064	 0.526164475761219 
2065	 0.527409214680962 
2066	 0.52861791048861 
2067	 0.529922031549852 
2068	 0.53117532848593 
2069	 0.532396713971439 
2070	 0.533630289869343 
2071	 0.534772936512484 
2072	 0.535843596384039 
2073	 0.536911021782551 
2074	 0.537921962782571 
2075	 0.538923505547131 
2076	 0.539938319503367 
2077	 0.540868079709329 
2078	 0.54176622134583 
2079	 0.542596247829642 
2080	 0.543353591125667 
2081	 0.544065672250365 
2082	 0.544724879469181 
2083	 0.545306211611063 
2084	 0.545898281724315 
2085	 0.54643597729605 
2086	 0.546914822098454 
2087	 0.547369986992357 
2088	 0.547744900633877 
2089	 0.548012158241772 
2090	 0.548297150933308 
2091	 0.548536958737454 
2092	 0.548771531400435 
2093	 0.549013914105894 
2094	 0.549188341179109 
2095	 0.549334440835734 
2096	 0.549433476235946 
2097	 0.549460534749703 
2098	 0.549468793042617 
2099	 0.549488758875836 
2100	 0.549467348067207 
2101	 0.549430420071826 
2102	 0.549396591868673 
2103	 0.549305806150213 
2104	 0.549144938650883 
2105	 0.549020009288637 
2106	 0.548887400776157 
2107	 0.548733462829152 
2108	 0.548580872262827 
2109	 0.548418261323399 
2110	 0.548240549722088 
2111	 0.54803633501932 
2112	 0.547810160865837 
2113	 0.547589963057385 
2114	 0.547352551908589 
2115	 0.547099057752128 
2116	 0.546858815436743 
2117	 0.546605086608118 
2118	 0.546292027977483 
2119	 0.545933791970848 
2120	 0.545557638035006 
2121	 0.545131006690608 
2122	 0.544717517741948 
2123	 0.544305086877108 
2124	 0.543842693641375 
2125	 0.543394751668111 
2126	 0.542846854556379 
2127	 0.542237357940899 
2128	 0.541574589251578 
2129	 0.540828306196727 
2130	 0.54005812742154 
2131	 0.539255239440436 
2132	 0.53838025528179 
2133	 0.537453718955855 
2134	 0.536493373193701 
2135	 0.535381137247675 
2136	 0.534266239612035 
2137	 0.533068447794761 
2138	 0.53176167480033 
2139	 0.530478345260196 
2140	 0.529159099646792 
2141	 0.527820228793504 
2142	 0.526481754840319 
2143	 0.525078164910894 
2144	 0.523620360514594 
2145	 0.522158454351377 
2146	 0.520620122868866 
2147	 0.51913100770669 
2148	 0.517671654471932 
2149	 0.516172892335466 
2150	 0.5147018603625 
2151	 0.513177801314084 
2152	 0.511582788601486 
2153	 0.510016086398358 
2154	 0.508410825593858 
2155	 0.506760927554354 
2156	 0.50519913982873 
2157	 0.503648996817757 
2158	 0.502140449927798 
2159	 0.500724126670351 
2160	 0.499225259999973 
2161	 0.497667385732938 
2162	 0.496234536184661 
2163	 0.494750781131771 
2164	 0.4934538152872 
2165	 0.492309162514175 
2166	 0.491198143513447 
2167	 0.49018630685145 
2168	 0.489233007423434 
2169	 0.488302991616314 
2170	 0.487520505564967 
2171	 0.486833642367793 
2172	 0.486248158852328 
2173	 0.485807294471326 
2174	 0.485436193586789 
2175	 0.485106938123021 
2176	 0.484919957766986 
2177	 0.484772515984091 
2178	 0.484697619317095 
2179	 0.48469263128215 
2180	 0.484774882653076 
2181	 0.48489379325312 
2182	 0.485072791237186 
2183	 0.48532735800733 
2184	 0.485642090111375 
2185	 0.486016697746989 
2186	 0.486487287794372 
2187	 0.486969446981308 
2188	 0.487514172702125 
2189	 0.488067241221731 
2190	 0.488660353683227 
2191	 0.489263494002238 
2192	 0.489879373277938 
2193	 0.490517915504426 
2194	 0.491202761899955 
2195	 0.491862769552406 
2196	 0.492532104846325 
2197	 0.493204593819731 
2198	 0.49382862632491 
2199	 0.494476485934942 
2200	 0.495088564340518 
2201	 0.495684769714153 
2202	 0.496267183474871 
2203	 0.496828618423741 
2204	 0.497373188992862 
2205	 0.497916639890223 
2206	 0.498416287712077 
2207	 0.498858802052785 
2208	 0.499347254243576 
2209	 0.499823607028034 
2210	 0.500305947010228 
2211	 0.50083286458675 
2212	 0.501308248931548 
2213	 0.501755485413323 
2214	 0.502195217434569 
2215	 0.502605414986874 
2216	 0.503020239182729 
2217	 0.503450562419802 
2218	 0.503831581368535 
2219	 0.504226927316586 
2220	 0.504542876349348 
2221	 0.504802854004845 
2222	 0.505005899264633 
2223	 0.505149869118772 
2224	 0.505252879280471 
2225	 0.505318905130633 
2226	 0.505279686225599 
2227	 0.505171413438049 
2228	 0.504996022628767 
2229	 0.504730631916108 
2230	 0.504399446130366 
2231	 0.503930670238456 
2232	 0.503352938423735 
2233	 0.502674581503404 
2234	 0.501896866304716 
2235	 0.500964119998236 
2236	 0.499926135932921 
2237	 0.498749777575107 
2238	 0.497365204614736 
2239	 0.495946474128163 
2240	 0.494446730022683 
2241	 0.492822264765642 
2242	 0.491149714564243 
2243	 0.489278262991398 
2244	 0.487201515041287 
2245	 0.485086384551268 
2246	 0.482741335890843 
2247	 0.480452382385715 
2248	 0.478161782533634 
2249	 0.475807890146385 
2250	 0.473420309418304 
2251	 0.471028518045374 
2252	 0.468448626950377 
2253	 0.465952775341673 
2254	 0.463450701276685 
2255	 0.460996636421189 
2256	 0.458803671343631 
2257	 0.456648237982451 
2258	 0.454661634582672 
2259	 0.452861495876328 
2260	 0.451079213381261 
2261	 0.449367102568313 
2262	 0.447837289464067 
2263	 0.446376202952272 
2264	 0.445124516278767 
2265	 0.444143074341091 
2266	 0.443105576219333 
2267	 0.44223528022239 
2268	 0.441272903531609 
2269	 0.440267928198855 
2270	 0.439345439700062 
2271	 0.438423652137795 
2272	 0.43755934336896 
2273	 0.436815935288931 
2274	 0.4360107301592 
2275	 0.435174662078603 
2276	 0.434391564693647 
2277	 0.433626893890451 
2278	 0.432861219381939 
2279	 0.432104339081895 
2280	 0.431405305861812 
2281	 0.430685791219259 
2282	 0.430048698021519 
2283	 0.4294876492723 
2284	 0.428996519299665 
2285	 0.42852071399201 
2286	 0.428143149840224 
2287	 0.42776942138166 
2288	 0.427437606206706 
2289	 0.427202712098259 
2290	 0.426974489467462 
2291	 0.426814094841354 
2292	 0.426738640019549 
2293	 0.426623166249503 
2294	 0.426492773982383 
2295	 0.426412842793392 
2296	 0.426314445272404 
2297	 0.4262741577151 
2298	 0.426269551455732 
2299	 0.426318567803303 
2300	 0.426406137344884 
2301	 0.426550997599386 
2302	 0.42674615969417 
2303	 0.426992439206062 
2304	 0.427263193402068 
2305	 0.427653032200434 
2306	 0.428132980454014 
2307	 0.428682814267714 
2308	 0.429287796276779 
2309	 0.430068121826647 
2310	 0.430992703922842 
2311	 0.431946608491948 
2312	 0.433114924848149 
2313	 0.434186103256548 
2314	 0.435256598362331 
2315	 0.436312808740529 
2316	 0.437399583786724 
2317	 0.438390866481174 
2318	 0.439370041537687 
2319	 0.440221868689389 
2320	 0.441022773331526 
2321	 0.44167135908978 
2322	 0.442182449250847 
2323	 0.442592714142746 
2324	 0.442842539036805 
2325	 0.443027083728861 
2326	 0.443087091168527 
2327	 0.443110100642624 
2328	 0.443034029245696 
2329	 0.442940683333216 
2330	 0.442823880991656 
2331	 0.442617805621968 
2332	 0.442345727149287 
2333	 0.442015434823219 
2334	 0.441570592726839 
2335	 0.441065498450056 
2336	 0.440520133215823 
2337	 0.439883049647854 
2338	 0.439225674401643 
2339	 0.438552457484078 
2340	 0.43788551328919 
2341	 0.437223342836 
2342	 0.436573585692358 
2343	 0.435993324045076 
2344	 0.435531839125958 
2345	 0.435280267765764 
2346	 0.435176468006 
2347	 0.435202128838998 
2348	 0.43537164466419 
2349	 0.435683339829361 
2350	 0.436172921184862 
2351	 0.436789137714717 
2352	 0.437431556400766 
2353	 0.438167210233423 
2354	 0.438900195104647 
2355	 0.439639874322057 
2356	 0.440412539819626 
2357	 0.441047240823806 
2358	 0.441671933984339 
2359	 0.442267732670745 
2360	 0.442759499194605 
2361	 0.443171557377205 
2362	 0.443455203840404 
2363	 0.443700212973524 
2364	 0.443940184898218 
2365	 0.44410250600172 
2366	 0.444270406215698 
2367	 0.444423003204098 
2368	 0.444515135035914 
2369	 0.4446649699722 
2370	 0.444769143887818 
2371	 0.444811413990648 
2372	 0.44490031799889 
2373	 0.444984270685023 
2374	 0.44502319347064 
2375	 0.445011859045106 
2376	 0.445080035583014 
2377	 0.445145028134605 
2378	 0.445148267988481 
2379	 0.445251442590479 
2380	 0.445265396795004 
2381	 0.445242081795798 
2382	 0.445336499636376 
2383	 0.445547110733524 
2384	 0.445697456803438 
2385	 0.445915113479853 
2386	 0.446050774223932 
2387	 0.446117053191178 
2388	 0.446253404338792 
2389	 0.446408041876035 
2390	 0.446479557046214 
2391	 0.446590889730988 
2392	 0.44659082222099 
2393	 0.446388544995516 
2394	 0.446405090791525 
2395	 0.446523662776949 
2396	 0.446530647847283 
2397	 0.446624530779383 
2398	 0.446573911540115 
2399	 0.446356076858217 
2400	 0.446210099001558 
2401	 0.445992521395857 
2402	 0.445958035031284 
2403	 0.445985319554124 
2404	 0.445941416869141 
2405	 0.445821848413476 
2406	 0.445617502813065 
2407	 0.445361817318302 
2408	 0.445186808760696 
2409	 0.44504235661921 
2410	 0.444810721694287 
2411	 0.444537453311351 
2412	 0.444294960706154 
2413	 0.444157348457456 
2414	 0.44396334741171 
2415	 0.443669387627684 
2416	 0.443281696647078 
2417	 0.442845320498192 
2418	 0.442626837633337 
2419	 0.442479635265916 
2420	 0.442267739853513 
2421	 0.442107365695651 
2422	 0.441840830765881 
2423	 0.441375199134229 
2424	 0.440870936057204 
2425	 0.440422819657227 
2426	 0.440047967568909 
2427	 0.439773271556295 
2428	 0.43947586686373 
2429	 0.438986383023307 
2430	 0.438402717602374 
2431	 0.43778769524227 
2432	 0.437091799240698 
2433	 0.436398895333817 
2434	 0.435684722997954 
2435	 0.434934603159645 
2436	 0.434193689900713 
2437	 0.433401687994547 
2438	 0.432507441370692 
2439	 0.431501323303103 
2440	 0.430433712935725 
2441	 0.429389280341887 
2442	 0.428490161067316 
2443	 0.427585146947946 
2444	 0.42669959353228 
2445	 0.425933560924764 
2446	 0.425072644461176 
2447	 0.424226129735181 
2448	 0.423395459565878 
2449	 0.422559816553591 
2450	 0.421759080182581 
2451	 0.42078982448831 
2452	 0.419897949419096 
2453	 0.419092437078869 
2454	 0.418233722018013 
2455	 0.417623507605109 
2456	 0.4168064257296 
2457	 0.415716169850685 
2458	 0.414879206062288 
2459	 0.414053670917126 
2460	 0.413384586123343 
2461	 0.413159983513651 
2462	 0.412855862702959 
2463	 0.412168716490092 
2464	 0.411422771695098 
2465	 0.410753075280929 
2466	 0.409883254236318 
2467	 0.409153192211264 
2468	 0.409008381334315 
2469	 0.408783204964165 
2470	 0.408294026861235 
2471	 0.407944859651024 
2472	 0.407288469663436 
2473	 0.406531506749399 
2474	 0.406263566252697 
2475	 0.405986088454761 
2476	 0.405747200522802 
2477	 0.405617303765855 
2478	 0.40521919337102 
2479	 0.404940686848204 
2480	 0.404805991686691 
2481	 0.404574077352897 
2482	 0.404542354731553 
2483	 0.404537555155612 
2484	 0.40418786212822 
2485	 0.403981593360183 
2486	 0.403597500648073 
2487	 0.4032408794185 
2488	 0.403053557301751 
2489	 0.402608536099498 
2490	 0.40238415518232 
2491	 0.402224753905394 
2492	 0.401991949821755 
2493	 0.401718819467658 
2494	 0.401469709891428 
2495	 0.401209014465078 
2496	 0.4008284512457 
2497	 0.40067558438446 
2498	 0.40040094394576 
2499	 0.40036659247193 
2500	 0.40045092211797 
