Wavelength	spectrum00001.asd
350	 9.74534557849611E-02 
351	 9.30493680915527E-02 
352	 8.89151370926623E-02 
353	 8.53421507468434E-02 
354	 8.24550302306548E-02 
355	 8.31037181418014E-02 
356	 8.30469958982088E-02 
357	 7.89011130056342E-02 
358	 7.37289621236123E-02 
359	 0.071924507553567 
360	 7.20945861123353E-02 
361	 7.03375655624647E-02 
362	 6.96202071018699E-02 
363	 6.92598194060016E-02 
364	 6.83552688625114E-02 
365	 0.066144529340277 
366	 6.61867487689429E-02 
367	 6.65525211027615E-02 
368	 6.51851660273095E-02 
369	 6.40494205429795E-02 
370	 6.40327595456121E-02 
371	 6.44000406845854E-02 
372	 6.36490870700291E-02 
373	 6.24752629631461E-02 
374	 6.19537992353145E-02 
375	 6.21564888537183E-02 
376	 6.17134470812972E-02 
377	 6.14042065054662E-02 
378	 6.08493584412163E-02 
379	 5.98424299497125E-02 
380	 5.97933924023769E-02 
381	 5.92426893945306E-02 
382	 5.83266249129729E-02 
383	 5.80811086074619E-02 
384	 5.80402535230981E-02 
385	 5.77229359361487E-02 
386	 5.68968101268562E-02 
387	 5.56381851037172E-02 
388	 5.53960631091877E-02 
389	 5.52906510146525E-02 
390	 5.44728079967105E-02 
391	 5.48203443949715E-02 
392	 5.48455272762487E-02 
393	 5.43842008198525E-02 
394	 5.41244002538305E-02 
395	 5.33575481568572E-02 
396	 5.24529987085227E-02 
397	 5.18119103357745E-02 
398	 5.16888295271592E-02 
399	 5.15672393564476E-02 
400	 5.10893073023437E-02 
401	 5.02256033633317E-02 
402	 4.99245224817711E-02 
403	 4.98815450881835E-02 
404	 4.98084513663989E-02 
405	 4.94935844235339E-02 
406	 4.90708452847263E-02 
407	 4.83331977321886E-02 
408	 4.75113305393967E-02 
409	 4.78617955835716E-02 
410	 4.77178945451957E-02 
411	 4.73135278783406E-02 
412	 4.73048380456784E-02 
413	 4.70940084385588E-02 
414	 4.67253298153298E-02 
415	 4.62972632264158E-02 
416	 4.59323037848762E-02 
417	 4.59654629957278E-02 
418	 4.61652884048061E-02 
419	 4.62020660228086E-02 
420	 4.56850940139879E-02 
421	 4.56058973430463E-02 
422	 4.58448547510901E-02 
423	 0.045859071154079 
424	 4.57201661871356E-02 
425	 4.56381192154656E-02 
426	 4.56173245483951E-02 
427	 4.54185876586106E-02 
428	 4.52639213506013E-02 
429	 4.53581886237439E-02 
430	 4.56944627618513E-02 
431	 4.56936941241684E-02 
432	 4.55490061542354E-02 
433	 4.54216363807433E-02 
434	 4.54346348449082E-02 
435	 4.55380530561655E-02 
436	 4.56824289859004E-02 
437	 4.57999068546018E-02 
438	 4.57847950508809E-02 
439	 4.58904388449116E-02 
440	 4.60493605539381E-02 
441	 4.61479517824174E-02 
442	 4.63205914767333E-02 
443	 4.64395365192619E-02 
444	 4.65644078018252E-02 
445	 4.68759034924928E-02 
446	 4.69200043840924E-02 
447	 4.69342344568646E-02 
448	 4.71319953438164E-02 
449	 4.74507925485452E-02 
450	 4.76106372713844E-02 
451	 4.76970445795489E-02 
452	 4.79215116623201E-02 
453	 4.82583142002825E-02 
454	 4.85113414247556E-02 
455	 4.86365640105414E-02 
456	 4.87761058405874E-02 
457	 4.92145699385766E-02 
458	 4.95950169506384E-02 
459	 4.96749449461832E-02 
460	 4.99898028153035E-02 
461	 5.03824170298785E-02 
462	 5.07708546591314E-02 
463	 5.11236686101065E-02 
464	 5.15086159056328E-02 
465	 5.19225793128612E-02 
466	 5.23313265904748E-02 
467	 0.05265898676569 
468	 5.31590950614161E-02 
469	 5.37171873759462E-02 
470	 5.41924720492253E-02 
471	 5.48428284585781E-02 
472	 5.53593893296135E-02 
473	 0.055866863354652 
474	 5.67916149243548E-02 
475	 5.74782804966052E-02 
476	 5.81623842748825E-02 
477	 5.90610239985177E-02 
478	 0.06003734706906 
479	 6.09923534663165E-02 
480	 6.19930083733438E-02 
481	 6.31395580267796E-02 
482	 6.42341760588723E-02 
483	 6.54697201960469E-02 
484	 6.68663677681367E-02 
485	 6.82178583331008E-02 
486	 6.98238923089344E-02 
487	 7.15329319713743E-02 
488	 7.31908149748993E-02 
489	 0.074955858338093 
490	 7.68976500890848E-02 
491	 7.89963666167161E-02 
492	 8.11799271217651E-02 
493	 0.083450081312479 
494	 8.58531496991981E-02 
495	 8.84197620519819E-02 
496	 9.11439483650622E-02 
497	 9.39575633866217E-02 
498	 0.096847769738948 
499	 9.98591523820702E-02 
500	 0.103220136113569 
501	 0.106698476800686 
502	 0.110228076524951 
503	 0.113913720252936 
504	 0.117864700381956 
505	 0.12195925023627 
506	 0.12612202657757 
507	 0.130495865076926 
508	 0.135015160082488 
509	 0.139672369867919 
510	 0.144480418850882 
511	 0.14942875990255 
512	 0.154637907639307 
513	 0.160079846446094 
514	 0.165539938409655 
515	 0.171098634891812 
516	 0.176841550157684 
517	 0.182817578399922 
518	 0.188933592359977 
519	 0.195128976607497 
520	 0.201398190792159 
521	 0.207775653952533 
522	 0.214241157948345 
523	 0.220867759124654 
524	 0.227654117948506 
525	 0.234452518646285 
526	 0.241285126958392 
527	 0.24822085645202 
528	 0.255312157131731 
529	 0.262386442265701 
530	 0.269425656606405 
531	 0.276498535116309 
532	 0.283731406538423 
533	 0.290953699614714 
534	 0.298237251088198 
535	 0.305625460676187 
536	 0.312969080088409 
537	 0.320297579641982 
538	 0.327599493102386 
539	 0.334852607106222 
540	 0.342062531251459 
541	 0.349163750418088 
542	 0.356157917240666 
543	 0.363162814146564 
544	 0.370050236724612 
545	 0.376769694972916 
546	 0.383335070892236 
547	 0.389966119863372 
548	 0.396452468851665 
549	 0.402748906614554 
550	 0.40896934331576 
551	 0.415089440430567 
552	 0.421135049480027 
553	 0.427101159862541 
554	 0.432850475599216 
555	 0.438576253307044 
556	 0.44428027245953 
557	 0.449863365054222 
558	 0.455296992843726 
559	 0.460630969006795 
560	 0.4658413803502 
561	 0.470790882852421 
562	 0.47558421854763 
563	 0.480300393930212 
564	 0.484981024258108 
565	 0.489561343778723 
566	 0.494023635762763 
567	 0.498389728017413 
568	 0.502706414142142 
569	 0.50693984571243 
570	 0.51102360819841 
571	 0.514974269593054 
572	 0.51900623264693 
573	 0.522841762713129 
574	 0.526515764547322 
575	 0.530157049494406 
576	 0.53361818385286 
577	 0.537053926105345 
578	 0.540499100268838 
579	 0.543823950434905 
580	 0.547091579382275 
581	 0.550247676080288 
582	 0.553254702464606 
583	 0.556187598780071 
584	 0.559059225265501 
585	 0.561889646186576 
586	 0.564720128063239 
587	 0.567691336714185 
588	 0.570681459647702 
589	 0.573583515066505 
590	 0.576374973149175 
591	 0.579035710326547 
592	 0.581612976614272 
593	 0.584154734608315 
594	 0.586621692865083 
595	 0.589040472450211 
596	 0.591412805374715 
597	 0.593712503166892 
598	 0.596025313766068 
599	 0.598313616170525 
600	 0.600556363195782 
601	 0.602827586483662 
602	 0.60498004637555 
603	 0.607070967685975 
604	 0.609219688900105 
605	 0.611310468343354 
606	 0.613408401883249 
607	 0.61550209728184 
608	 0.617467025217377 
609	 0.619335756561136 
610	 0.621197923160952 
611	 0.623105441945529 
612	 0.624911349202272 
613	 0.626711719964347 
614	 0.628498244638018 
615	 0.630206419302298 
616	 0.631922565297008 
617	 0.633576471912771 
618	 0.635170361197186 
619	 0.636879909562789 
620	 0.638591412751351 
621	 0.640180733460105 
622	 0.641596100166662 
623	 0.643133192367759 
624	 0.644706784921318 
625	 0.646244803063457 
626	 0.647711310981213 
627	 0.649185160268636 
628	 0.650588339738373 
629	 0.651902896487669 
630	 0.653332672304546 
631	 0.654773619987116 
632	 0.656152138139282 
633	 0.657437995434718 
634	 0.658841279525621 
635	 0.660167288144595 
636	 0.661371359400527 
637	 0.662631661638208 
638	 0.663884857373694 
639	 0.665137441216807 
640	 0.666383057845511 
641	 0.66751854928569 
642	 0.668675142256712 
643	 0.669872929612147 
644	 0.671060967539105 
645	 0.672242595493313 
646	 0.673370840801037 
647	 0.674444787121055 
648	 0.675549162603155 
649	 0.676604032239124 
650	 0.677627308804104 
651	 0.678666590091754 
652	 0.679776135657593 
653	 0.680789741217339 
654	 0.681745564185865 
655	 0.682834796062711 
656	 0.683904690715986 
657	 0.684859829923322 
658	 0.685725121929935 
659	 0.686762113224989 
660	 0.687788608979777 
661	 0.688759852607077 
662	 0.689683740310997 
663	 0.690570113215539 
664	 0.691515774938437 
665	 0.69249215943207 
666	 0.693347539888116 
667	 0.694211273433611 
668	 0.695055317189873 
669	 0.695868459562365 
670	 0.69676433126632 
671	 0.697714472530566 
672	 0.698594635911541 
673	 0.699295663596936 
674	 0.700117338846422 
675	 0.700949093851518 
676	 0.701764031301592 
677	 0.702675193760107 
678	 0.703422799220441 
679	 0.704058972887782 
680	 0.704734765319529 
681	 0.705677301510271 
682	 0.706458765804782 
683	 0.707119618500949 
684	 0.707917446504682 
685	 0.708530670367466 
686	 0.70920409550635 
687	 0.710017657780231 
688	 0.710745030630503 
689	 0.71137786712925 
690	 0.71200373525209 
691	 0.712715882271834 
692	 0.713529947008016 
693	 0.714236760164695 
694	 0.714832926545028 
695	 0.715449824220661 
696	 0.716121062026793 
697	 0.716799131351743 
698	 0.717432485172942 
699	 0.717976329603134 
700	 0.71868250653088 
701	 0.71943802772721 
702	 0.720078214703338 
703	 0.720676018584849 
704	 0.721320845532961 
705	 0.721976362187008 
706	 0.722538958436813 
707	 0.723195155988385 
708	 0.723820710567336 
709	 0.724351405541209 
710	 0.724886396233591 
711	 0.72546209659585 
712	 0.726065666269184 
713	 0.726660127508423 
714	 0.727194935837669 
715	 0.727770854245204 
716	 0.728317117090934 
717	 0.728677310757893 
718	 0.729184405599625 
719	 0.729800766276604 
720	 0.730426101703659 
721	 0.730950677322668 
722	 0.731426289662242 
723	 0.731887140023467 
724	 0.732362253356909 
725	 0.732873954630399 
726	 0.733387333470462 
727	 0.733867601064629 
728	 0.734290550221467 
729	 0.734703654567059 
730	 0.735185823290404 
731	 0.73569783530498 
732	 0.736000503410954 
733	 0.736412590140271 
734	 0.736917168373865 
735	 0.737401315610474 
736	 0.737802575290372 
737	 0.73814407763264 
738	 0.738503348687479 
739	 0.738970225362249 
740	 0.739430524300672 
741	 0.739824145035411 
742	 0.740139369911164 
743	 0.740418903940072 
744	 0.740959723525438 
745	 0.741439745802972 
746	 0.741585070141428 
747	 0.741862464249773 
748	 0.742219966921674 
749	 0.742642195689336 
750	 0.743104494277902 
751	 0.743412246205494 
752	 0.743548453047601 
753	 0.743703991250861 
754	 0.744287336509975 
755	 0.744811259078967 
756	 0.745175497190989 
757	 0.745410148700324 
758	 0.745602876480581 
759	 0.745891160925311 
760	 0.746260728589867 
761	 0.746631206458528 
762	 0.747075549740098 
763	 0.74741755793359 
764	 0.747647816861651 
765	 0.747945312809875 
766	 0.748183683870859 
767	 0.748503526929841 
768	 0.74894967980747 
769	 0.749229074140011 
770	 0.749591937992687 
771	 0.74994491674625 
772	 0.750134577635334 
773	 0.750333121051335 
774	 0.750680860662133 
775	 0.75109419531712 
776	 0.751333185682537 
777	 0.751563059598995 
778	 0.75183090157902 
779	 0.752127502254992 
780	 0.752377703269692 
781	 0.752616811183621 
782	 0.752949247720298 
783	 0.753401300110235 
784	 0.753677540232109 
785	 0.753863869509191 
786	 0.754029127164094 
787	 0.75421947093848 
788	 0.754383016808367 
789	 0.754557296051682 
790	 0.75478332366827 
791	 0.755089996687072 
792	 0.755346020838746 
793	 0.755537171665368 
794	 0.755693009692286 
795	 0.755875146399499 
796	 0.756064962359924 
797	 0.756309003787103 
798	 0.756632592964742 
799	 0.756874876830012 
800	 0.756999056593167 
801	 0.757123764308236 
802	 0.757438190128231 
803	 0.757613025204384 
804	 0.757766142367583 
805	 0.758001874982126 
806	 0.758310873727299 
807	 0.758471547010788 
808	 0.758531057851272 
809	 0.758629643395532 
810	 0.758955607882669 
811	 0.759250106568096 
812	 0.75947667762392 
813	 0.759692785547555 
814	 0.759839903372786 
815	 0.760016990182822 
816	 0.760232336185296 
817	 0.760414066712453 
818	 0.760660785542428 
819	 0.760854355771245 
820	 0.760940892953268 
821	 0.761017694628485 
822	 0.761327682758928 
823	 0.761614897896578 
824	 0.761652554411967 
825	 0.761719804723023 
826	 0.762047365346067 
827	 0.762417692443832 
828	 0.762510762252824 
829	 0.762786524677617 
830	 0.76297442835585 
831	 0.763016740944773 
832	 0.763079374348278 
833	 0.763205204928225 
834	 0.763350558125369 
835	 0.763487115160003 
836	 0.763636099274879 
837	 0.763825617372692 
838	 0.763999631975555 
839	 0.764125767485996 
840	 0.764308210534388 
841	 0.76439283950912 
842	 0.76445517466099 
843	 0.764629539285373 
844	 0.764836121904823 
845	 0.765044531564011 
846	 0.765209761411012 
847	 0.765300209935949 
848	 0.765484880071242 
849	 0.765618038389632 
850	 0.765643086983378 
851	 0.765665331448603 
852	 0.765844831453042 
853	 0.766092290996999 
854	 0.766299073465153 
855	 0.766450055532069 
856	 0.766445847573592 
857	 0.766480024353381 
858	 0.766723512171777 
859	 0.766918557149615 
860	 0.767120842296631 
861	 0.767302698520056 
862	 0.767409415683634 
863	 0.767480397799177 
864	 0.767543558911093 
865	 0.767657532542158 
866	 0.767871939198917 
867	 0.767878400454018 
868	 0.767911793827096 
869	 0.76807875546763 
870	 0.76820815009336 
871	 0.768389259107984 
872	 0.76853197311942 
873	 0.768557196715032 
874	 0.768469515311954 
875	 0.768643539636307 
876	 0.7689356574472 
877	 0.769080671026625 
878	 0.769040502169475 
879	 0.769089823694397 
880	 0.769145910161292 
881	 0.769024742695002 
882	 0.769028856532647 
883	 0.769127977266892 
884	 0.769233015214932 
885	 0.769248865562667 
886	 0.76929852313562 
887	 0.769393248815838 
888	 0.769427667018611 
889	 0.769219312815276 
890	 0.769259444955081 
891	 0.769390866198268 
892	 0.769402934622876 
893	 0.769216666185095 
894	 0.769095474177361 
895	 0.769098447356506 
896	 0.769178092314787 
897	 0.769187242690991 
898	 0.769091761292053 
899	 0.769003557625085 
900	 0.769007487272845 
901	 0.768860093069941 
902	 0.768815412559441 
903	 0.768806772927862 
904	 0.76865138246707 
905	 0.768481647043999 
906	 0.768432328807051 
907	 0.768483927877007 
908	 0.768518539704162 
909	 0.768620149834477 
910	 0.76867991348902 
911	 0.768623070659741 
912	 0.768461484134295 
913	 0.768538809474915 
914	 0.768654048452321 
915	 0.768677301020017 
916	 0.768697768919824 
917	 0.76866821108865 
918	 0.768695371221949 
919	 0.768800020861025 
920	 0.768796625267995 
921	 0.768831466734737 
922	 0.768952154978564 
923	 0.769116541021124 
924	 0.769128154778005 
925	 0.76918418110838 
926	 0.769339713203692 
927	 0.769572108898589 
928	 0.769783277112393 
929	 0.769976960185545 
930	 0.770185966499756 
931	 0.770421299379262 
932	 0.770534372182366 
933	 0.770718748318791 
934	 0.771029426423828 
935	 0.771403249718776 
936	 0.771663006276204 
937	 0.771912582506742 
938	 0.772203595078697 
939	 0.772525118867298 
940	 0.772819503123544 
941	 0.773015239415418 
942	 0.773155698000318 
943	 0.773360589639255 
944	 0.773511542486369 
945	 0.773675052490505 
946	 0.773834285142811 
947	 0.773895590522478 
948	 0.774178380723642 
949	 0.774299113330075 
950	 0.774175470463892 
951	 0.77421033467834 
952	 0.774306294853546 
953	 0.77439912131179 
954	 0.774449980087175 
955	 0.77445963234961 
956	 0.774357632017645 
957	 0.774247543837608 
958	 0.774202375619996 
959	 0.774176274063571 
960	 0.774171261595801 
961	 0.774109666034668 
962	 0.773959300679129 
963	 0.773806351411861 
964	 0.773701115293535 
965	 0.773674308774191 
966	 0.773715929874349 
967	 0.773759755235225 
968	 0.773652183949186 
969	 0.773606070426434 
970	 0.773788568379297 
971	 0.773990795467213 
972	 0.773936720771755 
973	 0.773911037580405 
974	 0.774143599961431 
975	 0.774191035415554 
976	 0.774249105666372 
977	 0.774315621503868 
978	 0.774351747774032 
979	 0.774387264049882 
980	 0.774461014687626 
981	 0.774465125963015 
982	 0.774383588008723 
983	 0.774653176240537 
984	 0.774825001792113 
985	 0.774889030763012 
986	 0.774967465283665 
987	 0.775042133436373 
988	 0.775203165177339 
989	 0.775308695546585 
990	 0.775223651933296 
991	 0.775116486367805 
992	 0.77506775176299 
993	 0.775115171262893 
994	 0.775270883673408 
995	 0.775593747027139 
996	 0.775584678274383 
997	 0.775395093081615 
998	 0.775375096852578 
999	 0.775642809052435 
1000	 0.775707100403333 
1001	 0.779224661727949 
1002	 0.779263604890574 
1003	 0.779327757897888 
1004	 0.779377504250535 
1005	 0.779418606740433 
1006	 0.779452712764103 
1007	 0.77949840243082 
1008	 0.779504354062264 
1009	 0.779457765116102 
1010	 0.779454978075359 
1011	 0.779447347041676 
1012	 0.77945921068887 
1013	 0.779513084398909 
1014	 0.779551057496248 
1015	 0.779585874658649 
1016	 0.779611989204332 
1017	 0.779660881518215 
1018	 0.779691344086154 
1019	 0.779707675435793 
1020	 0.779742534935172 
1021	 0.779792898841313 
1022	 0.779835014146997 
1023	 0.779904116281332 
1024	 0.780010942599606 
1025	 0.780108075807784 
1026	 0.780234427256097 
1027	 0.780323445326206 
1028	 0.780402860667427 
1029	 0.780468329610116 
1030	 0.780511564549118 
1031	 0.780540949331353 
1032	 0.780591786361778 
1033	 0.780630965189135 
1034	 0.780684962115934 
1035	 0.780729156073715 
1036	 0.780797994144816 
1037	 0.780893413953029 
1038	 0.780988713611156 
1039	 0.78108454474608 
1040	 0.781203615612034 
1041	 0.781344274872083 
1042	 0.781456672667233 
1043	 0.781570200346227 
1044	 0.781697564872802 
1045	 0.781785411704066 
1046	 0.781885340861571 
1047	 0.782022553751066 
1048	 0.78217854376232 
1049	 0.782347603778888 
1050	 0.782531357442471 
1051	 0.782690612592977 
1052	 0.782843445900253 
1053	 0.782999093285155 
1054	 0.783157340874069 
1055	 0.783284367224766 
1056	 0.783393533856383 
1057	 0.783522881176568 
1058	 0.78363293015279 
1059	 0.783756207004483 
1060	 0.78393103620994 
1061	 0.784098285876034 
1062	 0.784237245419574 
1063	 0.784386509202676 
1064	 0.784537167812433 
1065	 0.784644273986029 
1066	 0.7847711478638 
1067	 0.78495372647175 
1068	 0.785100722819264 
1069	 0.785235741838001 
1070	 0.785370035258789 
1071	 0.785501479683325 
1072	 0.785599563733469 
1073	 0.785723443818606 
1074	 0.785853000927573 
1075	 0.785969772733936 
1076	 0.786075410202245 
1077	 0.786186896052705 
1078	 0.786329562088719 
1079	 0.786484583557178 
1080	 0.786607384649865 
1081	 0.78670425607839 
1082	 0.786794463213656 
1083	 0.786843497609057 
1084	 0.786922469959263 
1085	 0.787030285827271 
1086	 0.787118321337785 
1087	 0.787190423899136 
1088	 0.787298227962356 
1089	 0.787385244463237 
1090	 0.787445845637704 
1091	 0.787530983386627 
1092	 0.787602049243117 
1093	 0.787681940398734 
1094	 0.787780400362702 
1095	 0.787858346191463 
1096	 0.78791859310236 
1097	 0.787965005072525 
1098	 0.787980985007485 
1099	 0.788013305047498 
1100	 0.788065748229015 
1101	 0.78809610039464 
1102	 0.788129278765405 
1103	 0.788149406511393 
1104	 0.788155525564435 
1105	 0.78813835621638 
1106	 0.788128994127299 
1107	 0.788105911772196 
1108	 0.788057425076672 
1109	 0.788025185377005 
1110	 0.788018417923955 
1111	 0.788008833717399 
1112	 0.788014269265286 
1113	 0.787990755924481 
1114	 0.787922383674241 
1115	 0.787870238192981 
1116	 0.787807311887847 
1117	 0.78772721635112 
1118	 0.787638476496934 
1119	 0.787530543954769 
1120	 0.787428077887871 
1121	 0.787329243069267 
1122	 0.787209778121022 
1123	 0.787049146028709 
1124	 0.786897813017936 
1125	 0.786699367484278 
1126	 0.786459454482968 
1127	 0.786214647146939 
1128	 0.785918015571005 
1129	 0.785574290501875 
1130	 0.785182209351543 
1131	 0.784760944785081 
1132	 0.78434046866622 
1133	 0.783881267734967 
1134	 0.7833979051764 
1135	 0.782872046560052 
1136	 0.782305236334744 
1137	 0.78171453255063 
1138	 0.781077970086127 
1139	 0.780432834395452 
1140	 0.779766940775569 
1141	 0.779111938702413 
1142	 0.778396950628044 
1143	 0.777672051029963 
1144	 0.776940533988756 
1145	 0.776124279009448 
1146	 0.775307387205988 
1147	 0.774459577405786 
1148	 0.773540351776624 
1149	 0.772665621718973 
1150	 0.771781499401277 
1151	 0.770894216427922 
1152	 0.769985811695193 
1153	 0.769077295518083 
1154	 0.768136042691813 
1155	 0.767182880129763 
1156	 0.766172349390864 
1157	 0.765148887510957 
1158	 0.764092395714081 
1159	 0.762959429546874 
1160	 0.761831981429785 
1161	 0.760764325367841 
1162	 0.759614371079599 
1163	 0.758526839907571 
1164	 0.757459463029835 
1165	 0.756331777765833 
1166	 0.755291018752225 
1167	 0.75423843511426 
1168	 0.75319895852758 
1169	 0.752170664125229 
1170	 0.751173455657019 
1171	 0.750133390946907 
1172	 0.749096811524534 
1173	 0.74802463634532 
1174	 0.746924305872706 
1175	 0.745844702757911 
1176	 0.744750674122426 
1177	 0.743650682469275 
1178	 0.742579449737019 
1179	 0.741425292757617 
1180	 0.740305374211784 
1181	 0.739206617667924 
1182	 0.73805973266184 
1183	 0.73699619023908 
1184	 0.735912399309796 
1185	 0.734831830032773 
1186	 0.733813707068428 
1187	 0.732820980359769 
1188	 0.731888102211603 
1189	 0.730991963322743 
1190	 0.730165633824565 
1191	 0.729404806833415 
1192	 0.728705533667851 
1193	 0.728072477361907 
1194	 0.727470179006298 
1195	 0.726913733416007 
1196	 0.726402226600484 
1197	 0.725944030844851 
1198	 0.725510377465161 
1199	 0.72508674261765 
1200	 0.724735147103111 
1201	 0.724386121874082 
1202	 0.724084872652675 
1203	 0.723876411739884 
1204	 0.723739895492584 
1205	 0.723704061269462 
1206	 0.72372064926404 
1207	 0.723909126510105 
1208	 0.724198951633156 
1209	 0.724639487723084 
1210	 0.725202334089451 
1211	 0.725943312063969 
1212	 0.726843217319212 
1213	 0.727884681331826 
1214	 0.7290911860512 
1215	 0.730442981208692 
1216	 0.73198122642669 
1217	 0.733566180330991 
1218	 0.735306910012237 
1219	 0.737105861505356 
1220	 0.738920038035974 
1221	 0.740867178138004 
1222	 0.742781295616895 
1223	 0.744722936235235 
1224	 0.746575962518953 
1225	 0.748405171869381 
1226	 0.75012147318522 
1227	 0.751782995274008 
1228	 0.753357228630028 
1229	 0.754854281037672 
1230	 0.756270394273901 
1231	 0.757610279780671 
1232	 0.758868068084753 
1233	 0.760029328016473 
1234	 0.761117463049372 
1235	 0.762111837465813 
1236	 0.763064756857362 
1237	 0.763944679137827 
1238	 0.764774729978336 
1239	 0.765536685460424 
1240	 0.766277772159492 
1241	 0.766982765025085 
1242	 0.767589643898423 
1243	 0.768190855112973 
1244	 0.768756582018157 
1245	 0.769300385054166 
1246	 0.769804350489265 
1247	 0.770294439479274 
1248	 0.770780299220833 
1249	 0.771206021300196 
1250	 0.771592251630519 
1251	 0.771942279437696 
1252	 0.77223447218838 
1253	 0.77252627710453 
1254	 0.772788377839703 
1255	 0.773042925376228 
1256	 0.773283541153804 
1257	 0.773510608035591 
1258	 0.773721869569391 
1259	 0.773919459101085 
1260	 0.774108434115437 
1261	 0.774277680600259 
1262	 0.774417237095147 
1263	 0.774559369649928 
1264	 0.774698736320943 
1265	 0.774819316733406 
1266	 0.77496102850569 
1267	 0.775129266940367 
1268	 0.775245858644167 
1269	 0.775334097513327 
1270	 0.775450137957594 
1271	 0.775543981460137 
1272	 0.775657312561961 
1273	 0.77580943534128 
1274	 0.775933549389608 
1275	 0.776037937709851 
1276	 0.776148460165583 
1277	 0.776252628810289 
1278	 0.776368728030126 
1279	 0.776492989528392 
1280	 0.776609658954997 
1281	 0.776731503865267 
1282	 0.776850579785494 
1283	 0.776955835649445 
1284	 0.777069220261854 
1285	 0.777186411029941 
1286	 0.777312226627079 
1287	 0.777427244271815 
1288	 0.777540012224856 
1289	 0.777654266678703 
1290	 0.777770666635043 
1291	 0.777872005579391 
1292	 0.777975448358387 
1293	 0.778058257253391 
1294	 0.77812596719411 
1295	 0.778181757251211 
1296	 0.778215770508582 
1297	 0.778260770671589 
1298	 0.778301091437489 
1299	 0.778335432623165 
1300	 0.778382526319539 
1301	 0.778405182607928 
1302	 0.778397193545775 
1303	 0.778404703704569 
1304	 0.778429020405273 
1305	 0.778418897125988 
1306	 0.778416264372012 
1307	 0.778375786560695 
1308	 0.778289646394253 
1309	 0.778190668415112 
1310	 0.778090334407827 
1311	 0.777971844710067 
1312	 0.777857426329449 
1313	 0.777744881637933 
1314	 0.777615340392866 
1315	 0.777467256656422 
1316	 0.777337050962587 
1317	 0.777200818930447 
1318	 0.777075371958995 
1319	 0.776976592442772 
1320	 0.776845437919563 
1321	 0.776717186324701 
1322	 0.776554630739845 
1323	 0.776370034612484 
1324	 0.776167080457098 
1325	 0.775944259152297 
1326	 0.775699245053032 
1327	 0.775443462689685 
1328	 0.775153423594055 
1329	 0.774823013947093 
1330	 0.774491535601771 
1331	 0.774143717570724 
1332	 0.773777148365369 
1333	 0.773407423891194 
1334	 0.773012760440513 
1335	 0.772596778371755 
1336	 0.772160293613144 
1337	 0.771692829417225 
1338	 0.771216725365092 
1339	 0.770678718810855 
1340	 0.770105608916466 
1341	 0.769484738952258 
1342	 0.768809986423812 
1343	 0.768115216582798 
1344	 0.767391166835785 
1345	 0.766620415933685 
1346	 0.765818136865007 
1347	 0.764976664867434 
1348	 0.764070455971935 
1349	 0.763172004815474 
1350	 0.762247040183302 
1351	 0.76131200280052 
1352	 0.760380215014847 
1353	 0.759406945573784 
1354	 0.758389494787262 
1355	 0.757384161057427 
1356	 0.75635091268763 
1357	 0.755325813772238 
1358	 0.754303236321797 
1359	 0.753282620020062 
1360	 0.752275052645648 
1361	 0.751247675503495 
1362	 0.750200981935173 
1363	 0.74917779767266 
1364	 0.748070605376931 
1365	 0.746938946202115 
1366	 0.745726363925348 
1367	 0.74445186273981 
1368	 0.743140211121622 
1369	 0.741779441935211 
1370	 0.740354775102546 
1371	 0.738884515357671 
1372	 0.737371108704895 
1373	 0.735790847293324 
1374	 0.734179633738408 
1375	 0.732511102478705 
1376	 0.73083124284112 
1377	 0.729103714684386 
1378	 0.727352057515814 
1379	 0.72557781673393 
1380	 0.723784048341057 
1381	 0.721980216972301 
1382	 0.720109853316951 
1383	 0.718180274816294 
1384	 0.716262248979567 
1385	 0.714263338785947 
1386	 0.712335685226132 
1387	 0.71041183043261 
1388	 0.708585165767752 
1389	 0.706809117395531 
1390	 0.705093679194508 
1391	 0.703504611257901 
1392	 0.701865233895542 
1393	 0.7003702989716 
1394	 0.698833569804057 
1395	 0.697231831872222 
1396	 0.695683696965612 
1397	 0.693939675452994 
1398	 0.692132836198578 
1399	 0.690095164977852 
1400	 0.687934002630914 
1401	 0.685559251959481 
1402	 0.682980643434289 
1403	 0.680236217684364 
1404	 0.677293343527322 
1405	 0.674280854072653 
1406	 0.671032773664056 
1407	 0.667854145709641 
1408	 0.664453757153953 
1409	 0.661383190056559 
1410	 0.658273942320692 
1411	 0.655554994272812 
1412	 0.653065489480759 
1413	 0.65090934517414 
1414	 0.649073576175292 
1415	 0.647436795046936 
1416	 0.646193186322828 
1417	 0.644965495707656 
1418	 0.643987952571059 
1419	 0.642952156632126 
1420	 0.642000064987222 
1421	 0.641031240497851 
1422	 0.640025714552246 
1423	 0.639072165815698 
1424	 0.638163595144425 
1425	 0.637226098982247 
1426	 0.636389077148244 
1427	 0.635607606134858 
1428	 0.634863854610847 
1429	 0.634234196041362 
1430	 0.63363658706238 
1431	 0.63309169457437 
1432	 0.632605471724271 
1433	 0.632183623296765 
1434	 0.631803714671818 
1435	 0.631472546482953 
1436	 0.631198837856901 
1437	 0.630975173053209 
1438	 0.630813607830957 
1439	 0.63072044798196 
1440	 0.630655500950247 
1441	 0.630656166156546 
1442	 0.630662556628395 
1443	 0.630688944636164 
1444	 0.63075961495289 
1445	 0.630872105116745 
1446	 0.630994184821426 
1447	 0.631143150033118 
1448	 0.631324659439077 
1449	 0.631529995271085 
1450	 0.6317540458869 
1451	 0.632028443676781 
1452	 0.632292511649908 
1453	 0.632573414223562 
1454	 0.632835720255011 
1455	 0.633093548005528 
1456	 0.633355737691063 
1457	 0.633609398720169 
1458	 0.633864832954374 
1459	 0.634124610856964 
1460	 0.634387678118042 
1461	 0.634626031332882 
1462	 0.634901203029449 
1463	 0.635195477232473 
1464	 0.635509033661969 
1465	 0.635853935719353 
1466	 0.636213300638977 
1467	 0.636557693353097 
1468	 0.636932038003934 
1469	 0.637310262129064 
1470	 0.63767041909263 
1471	 0.638031495091892 
1472	 0.638408145575002 
1473	 0.638739073403991 
1474	 0.639050701054056 
1475	 0.639340932401572 
1476	 0.639609164305193 
1477	 0.639850313286284 
1478	 0.640069532361886 
1479	 0.640263767532641 
1480	 0.640425925389353 
1481	 0.64057614686739 
1482	 0.640709152429656 
1483	 0.640819948539211 
1484	 0.6409051057281 
1485	 0.640983317256759 
1486	 0.641045793984118 
1487	 0.641089000332179 
1488	 0.641102135618964 
1489	 0.641137308228301 
1490	 0.641141468384926 
1491	 0.641198513243353 
1492	 0.641275945298145 
1493	 0.641391440287699 
1494	 0.641553863018343 
1495	 0.641712635274344 
1496	 0.64190183727593 
1497	 0.642090639498211 
1498	 0.642283376058242 
1499	 0.642483884982769 
1500	 0.642680380523759 
1501	 0.64291411967585 
1502	 0.643162514909365 
1503	 0.643429358311714 
1504	 0.643732785150091 
1505	 0.644043707804614 
1506	 0.644372476793542 
1507	 0.644702516752716 
1508	 0.645063182589966 
1509	 0.645401095054173 
1510	 0.645731746149857 
1511	 0.646051005130086 
1512	 0.646336776454252 
1513	 0.646649993418153 
1514	 0.646973821041355 
1515	 0.647295845564124 
1516	 0.647640967850989 
1517	 0.647974227496107 
1518	 0.648298048152436 
1519	 0.648616671868196 
1520	 0.648942051178188 
1521	 0.64924107501446 
1522	 0.649532909978156 
1523	 0.649843112096551 
1524	 0.650151468141796 
1525	 0.650460794894449 
1526	 0.650778920650736 
1527	 0.651091019984913 
1528	 0.651449019161254 
1529	 0.651827005940391 
1530	 0.652218083281323 
1531	 0.652653954889456 
1532	 0.653055807668458 
1533	 0.653450170713487 
1534	 0.653850686863639 
1535	 0.654251845854373 
1536	 0.654641870124227 
1537	 0.655040042116027 
1538	 0.655407299022279 
1539	 0.655766699876713 
1540	 0.656084908698821 
1541	 0.656375055936798 
1542	 0.656646847859218 
1543	 0.656889875368556 
1544	 0.657107126232657 
1545	 0.657312240784447 
1546	 0.657472543069749 
1547	 0.657591550119687 
1548	 0.657689870222037 
1549	 0.657755365446366 
1550	 0.65780210256715 
1551	 0.657818716669577 
1552	 0.657824264056052 
1553	 0.657810450910356 
1554	 0.65777768880689 
1555	 0.657708985614964 
1556	 0.65766615163894 
1557	 0.657614073665059 
1558	 0.657570896065576 
1559	 0.657530933786976 
1560	 0.657517959388555 
1561	 0.657494644203926 
1562	 0.657524144295603 
1563	 0.657599326011318 
1564	 0.657688235924959 
1565	 0.657814523292807 
1566	 0.657939965591161 
1567	 0.658070720715023 
1568	 0.658235992137346 
1569	 0.658424584986057 
1570	 0.658622107985834 
1571	 0.658867304839315 
1572	 0.659081277726638 
1573	 0.659283629336103 
1574	 0.659490608922813 
1575	 0.659693233056685 
1576	 0.659894341939479 
1577	 0.660086111212487 
1578	 0.660298445832495 
1579	 0.660523372449389 
1580	 0.660738474095157 
1581	 0.660969380422467 
1582	 0.661186843166737 
1583	 0.661377063612781 
1584	 0.661590612297996 
1585	 0.661808125275674 
1586	 0.662040628872356 
1587	 0.662292356144454 
1588	 0.662541001926731 
1589	 0.662796634907089 
1590	 0.663057269196984 
1591	 0.663310908628095 
1592	 0.663587317078178 
1593	 0.663890249636911 
1594	 0.664182313869683 
1595	 0.66449175360589 
1596	 0.664781388026483 
1597	 0.665066491166881 
1598	 0.665329193611179 
1599	 0.665564873934741 
1600	 0.665810974012076 
1601	 0.666047808090448 
1602	 0.666280940890732 
1603	 0.666517193778586 
1604	 0.666749402450676 
1605	 0.666980200539447 
1606	 0.667193253694495 
1607	 0.667409613718203 
1608	 0.667602731062487 
1609	 0.667763472831912 
1610	 0.667925601304708 
1611	 0.668098995254602 
1612	 0.668226081501712 
1613	 0.668333751835828 
1614	 0.668413214142327 
1615	 0.668439131309542 
1616	 0.668468875668082 
1617	 0.668496413868748 
1618	 0.668493805028738 
1619	 0.668461097203383 
1620	 0.668428644077624 
1621	 0.668383354181014 
1622	 0.668319577752952 
1623	 0.668257451414343 
1624	 0.66816583552177 
1625	 0.668038754643195 
1626	 0.667903226984413 
1627	 0.667740046991127 
1628	 0.667585637880875 
1629	 0.667427799246734 
1630	 0.667260262038919 
1631	 0.667080992084128 
1632	 0.666912734605654 
1633	 0.666744160511714 
1634	 0.666572827527949 
1635	 0.666417695371688 
1636	 0.66624637648394 
1637	 0.666082514765492 
1638	 0.66587281549716 
1639	 0.665634636650064 
1640	 0.665385340116326 
1641	 0.665105791638927 
1642	 0.664802989770796 
1643	 0.664492660414565 
1644	 0.664154555645447 
1645	 0.663791543537046 
1646	 0.663388201119206 
1647	 0.662943155550189 
1648	 0.662492767704102 
1649	 0.662033740457715 
1650	 0.661512797025855 
1651	 0.660983168540942 
1652	 0.66038569129896 
1653	 0.659723018296809 
1654	 0.659001385134731 
1655	 0.658233841339417 
1656	 0.657393255846619 
1657	 0.65648758914369 
1658	 0.655497357464606 
1659	 0.654436069318499 
1660	 0.653309993787534 
1661	 0.652126966306754 
1662	 0.650825253956643 
1663	 0.649454719672655 
1664	 0.64794027951858 
1665	 0.646302726917745 
1666	 0.64452260392577 
1667	 0.642626210473652 
1668	 0.640600770244927 
1669	 0.638444451784335 
1670	 0.636137030821676 
1671	 0.633644864128146 
1672	 0.631078862299236 
1673	 0.628391078685371 
1674	 0.625576135414207 
1675	 0.622671670912745 
1676	 0.619691229823532 
1677	 0.616560911997052 
1678	 0.61338489001763 
1679	 0.61011437179712 
1680	 0.606781895820971 
1681	 0.603373969748192 
1682	 0.599879469261466 
1683	 0.596302372438978 
1684	 0.592760123863717 
1685	 0.58915706159669 
1686	 0.585533354395143 
1687	 0.58186070304917 
1688	 0.578226362985925 
1689	 0.574562032971258 
1690	 0.570900054425761 
1691	 0.567324016216776 
1692	 0.563730009101926 
1693	 0.560125003268606 
1694	 0.556458830442026 
1695	 0.552776509059847 
1696	 0.549010904741407 
1697	 0.545148969379991 
1698	 0.541253663305847 
1699	 0.537315724364144 
1700	 0.533484209754314 
1701	 0.529586561669517 
1702	 0.525864906894579 
1703	 0.522182085379651 
1704	 0.518712828854774 
1705	 0.515344139456494 
1706	 0.512150493375012 
1707	 0.509343952569095 
1708	 0.506647222215359 
1709	 0.504092909334148 
1710	 0.501739145320546 
1711	 0.499387407149223 
1712	 0.497210111709366 
1713	 0.495081877862911 
1714	 0.49295859836092 
1715	 0.491070635625985 
1716	 0.489160858263319 
1717	 0.487330326843624 
1718	 0.485641501016752 
1719	 0.483972800005206 
1720	 0.482521687439254 
1721	 0.481265255388814 
1722	 0.480222556653214 
1723	 0.479487418991191 
1724	 0.47897646391964 
1725	 0.478745858430421 
1726	 0.478924153591774 
1727	 0.479484762187321 
1728	 0.480396111528107 
1729	 0.481724764646881 
1730	 0.483415919239523 
1731	 0.485252100509452 
1732	 0.487358912630455 
1733	 0.489540760161855 
1734	 0.491733715754587 
1735	 0.494022910611015 
1736	 0.496126572747383 
1737	 0.498083191244914 
1738	 0.499823135852393 
1739	 0.501232853220416 
1740	 0.502433263884722 
1741	 0.503306320764183 
1742	 0.503793352002596 
1743	 0.504142561294265 
1744	 0.504169837134108 
1745	 0.504140946105513 
1746	 0.50388686416358 
1747	 0.503661984426914 
1748	 0.503309904847012 
1749	 0.503030495130071 
1750	 0.502724575945517 
1751	 0.50251450312084 
1752	 0.502312693061292 
1753	 0.502268937486156 
1754	 0.502304227981666 
1755	 0.502509781569373 
1756	 0.502818915052291 
1757	 0.503304650210059 
1758	 0.504001054728614 
1759	 0.504870712830819 
1760	 0.506050961767994 
1761	 0.507516199680136 
1762	 0.50910530955259 
1763	 0.510975648045326 
1764	 0.512993878027455 
1765	 0.515141199296392 
1766	 0.517564346959855 
1767	 0.519949230552742 
1768	 0.522373237311656 
1769	 0.524813938142022 
1770	 0.527028558567504 
1771	 0.529240166678202 
1772	 0.531342638479098 
1773	 0.533230901474309 
1774	 0.535089477839147 
1775	 0.53678023717911 
1776	 0.538379248497116 
1777	 0.539890036071841 
1778	 0.541164243469871 
1779	 0.542343531555314 
1780	 0.543400192824929 
1781	 0.544343785453016 
1782	 0.545273479296233 
1783	 0.546095570549444 
1784	 0.546800574875077 
1785	 0.547361425947133 
1786	 0.547858029854799 
1787	 0.548245350303744 
1788	 0.548593255735997 
1789	 0.548831902707768 
1790	 0.549098164538825 
1791	 0.549335081080097 
1792	 0.549576733905917 
1793	 0.549824575621662 
1794	 0.550023607262083 
1795	 0.550219890539221 
1796	 0.550442761596993 
1797	 0.55069919286916 
1798	 0.550975047716753 
1799	 0.55125393595137 
1800	 0.551483090084958 
1801	 0.553538262863414 
1802	 0.553801012750225 
1803	 0.554052348139132 
1804	 0.554318383011115 
1805	 0.554593472541206 
1806	 0.554838675096389 
1807	 0.555042239302721 
1808	 0.55528627652971 
1809	 0.555541165218338 
1810	 0.555792552440621 
1811	 0.556045237160879 
1812	 0.55631314824674 
1813	 0.556551011810982 
1814	 0.556862304544015 
1815	 0.557204278556118 
1816	 0.557561431270425 
1817	 0.557905731832638 
1818	 0.558253128084625 
1819	 0.558614038182747 
1820	 0.558965269689928 
1821	 0.559339649121345 
1822	 0.55973841517665 
1823	 0.560157081365623 
1824	 0.560557440126022 
1825	 0.560979275193754 
1826	 0.561362016849694 
1827	 0.561724445180224 
1828	 0.562087019413259 
1829	 0.56241918080566 
1830	 0.562773408155359 
1831	 0.563119578189496 
1832	 0.563513888565889 
1833	 0.563898718195882 
1834	 0.564265630331829 
1835	 0.564652725043059 
1836	 0.5650314734813 
1837	 0.565413713849704 
1838	 0.56581753504048 
1839	 0.566176162314214 
1840	 0.566504739698439 
1841	 0.566852056672466 
1842	 0.567177575696732 
1843	 0.567523234430919 
1844	 0.567892356202717 
1845	 0.568204106981174 
1846	 0.568499496672997 
1847	 0.568759185826162 
1848	 0.568987495151619 
1849	 0.569208367356635 
1850	 0.569372068764314 
1851	 0.569499689520101 
1852	 0.569573338965771 
1853	 0.56960291738281 
1854	 0.569587260865381 
1855	 0.56954800187864 
1856	 0.569467807185941 
1857	 0.569343362232387 
1858	 0.569164493925522 
1859	 0.568929347032161 
1860	 0.568634397490897 
1861	 0.568292097854313 
1862	 0.567905793727535 
1863	 0.567465505411664 
1864	 0.566936683640695 
1865	 0.566365468880708 
1866	 0.565707442177153 
1867	 0.564936906213501 
1868	 0.56413006616162 
1869	 0.563203737548295 
1870	 0.562184451203164 
1871	 0.561089767756515 
1872	 0.559904232203662 
1873	 0.558620734032498 
1874	 0.557281784323458 
1875	 0.555837009007331 
1876	 0.554171181699058 
1877	 0.552456156775336 
1878	 0.550550726794133 
1879	 0.548456291655078 
1880	 0.546391561560272 
1881	 0.544113847429121 
1882	 0.541660872982219 
1883	 0.539080225351877 
1884	 0.536338637873313 
1885	 0.533213140632179 
1886	 0.529972825612972 
1887	 0.526454983536831 
1888	 0.522647256756979 
1889	 0.518946362816476 
1890	 0.514967133665432 
1891	 0.510938890895552 
1892	 0.506907895205865 
1893	 0.502699687535457 
1894	 0.498247342800682 
1895	 0.493949600107965 
1896	 0.489562062791336 
1897	 0.485152301014104 
1898	 0.481115115947355 
1899	 0.477020098613605 
1900	 0.473039174767896 
1901	 0.469232816457588 
1902	 0.465221657162078 
1903	 0.461434474920148 
1904	 0.457765989141181 
1905	 0.454157291493412 
1906	 0.450655144402914 
1907	 0.447573869332983 
1908	 0.44448930681408 
1909	 0.441543648294727 
1910	 0.438793172554768 
1911	 0.435959410671095 
1912	 0.433322883178263 
1913	 0.430794771424219 
1914	 0.428342212026857 
1915	 0.426098727453494 
1916	 0.424083756309026 
1917	 0.422091115766429 
1918	 0.420214014202678 
1919	 0.418481290455495 
1920	 0.416726865864758 
1921	 0.41512024471017 
1922	 0.413600668551994 
1923	 0.412135795430909 
1924	 0.410870409767448 
1925	 0.409679836060789 
1926	 0.408569473246671 
1927	 0.407597415173898 
1928	 0.406654069673475 
1929	 0.405759437923127 
1930	 0.404939914937369 
1931	 0.40419859841386 
1932	 0.403558361570267 
1933	 0.403062167196668 
1934	 0.402632091748909 
1935	 0.402270600912547 
1936	 0.401987698403891 
1937	 0.401764136558702 
1938	 0.401571425990951 
1939	 0.401507032160561 
1940	 0.401542921730831 
1941	 0.401649268004785 
1942	 0.401825533790436 
1943	 0.402081796379914 
1944	 0.402352529042712 
1945	 0.402662024568103 
1946	 0.403076976305681 
1947	 0.403518186712138 
1948	 0.404028814439741 
1949	 0.404625132370791 
1950	 0.40520747698471 
1951	 0.405810975256191 
1952	 0.406445469263807 
1953	 0.407100819029577 
1954	 0.407772261778591 
1955	 0.408501116021702 
1956	 0.409200706567047 
1957	 0.40992387548508 
1958	 0.41063736446953 
1959	 0.411301121874216 
1960	 0.411989532931129 
1961	 0.412657599272631 
1962	 0.413299594189604 
1963	 0.413950514244479 
1964	 0.414598947673297 
1965	 0.41523898726174 
1966	 0.415886379008694 
1967	 0.416520477645174 
1968	 0.417097402495983 
1969	 0.417686590746017 
1970	 0.418263061182768 
1971	 0.418814334441359 
1972	 0.419396547532481 
1973	 0.419987360112343 
1974	 0.420577169084029 
1975	 0.421195689157659 
1976	 0.421757481288044 
1977	 0.422294825150162 
1978	 0.422834075847672 
1979	 0.423345851410583 
1980	 0.423829934395512 
1981	 0.424368466688439 
1982	 0.424888769609915 
1983	 0.425378967921278 
1984	 0.425880189322066 
1985	 0.426313569077397 
1986	 0.426721517486369 
1987	 0.427128421512082 
1988	 0.427510175089159 
1989	 0.42787559350701 
1990	 0.428246079925341 
1991	 0.428581153681115 
1992	 0.428891118449622 
1993	 0.429169631386325 
1994	 0.429427265485069 
1995	 0.429680756424209 
1996	 0.429887202051757 
1997	 0.430087152488794 
1998	 0.430275736133582 
1999	 0.430447861599073 
2000	 0.430597296647819 
2001	 0.430741896213682 
2002	 0.430848933470342 
2003	 0.430923188557519 
2004	 0.4309848555013 
2005	 0.43102471028821 
2006	 0.431046221896299 
2007	 0.431065006229614 
2008	 0.431031421410743 
2009	 0.430967138939136 
2010	 0.430873798076771 
2011	 0.430736385007997 
2012	 0.430567144402993 
2013	 0.430372669972269 
2014	 0.430164524640001 
2015	 0.429896418056548 
2016	 0.429614764166011 
2017	 0.429242598109176 
2018	 0.428793670806741 
2019	 0.428299000475651 
2020	 0.42774382015782 
2021	 0.427127661897126 
2022	 0.426462856958612 
2023	 0.4257381002915 
2024	 0.42491987756021 
2025	 0.424078398526327 
2026	 0.423211755301712 
2027	 0.422275966945905 
2028	 0.421372183279371 
2029	 0.420461641123083 
2030	 0.419533771193384 
2031	 0.418588448668737 
2032	 0.417660819026977 
2033	 0.416677082899941 
2034	 0.415790730076116 
2035	 0.414936844925486 
2036	 0.414129008932317 
2037	 0.413421298696896 
2038	 0.412756705055495 
2039	 0.412197502650107 
2040	 0.411724452890349 
2041	 0.411325828625138 
2042	 0.411025832330088 
2043	 0.410781014817761 
2044	 0.41059703509103 
2045	 0.410492619645382 
2046	 0.410489583113436 
2047	 0.410513583057876 
2048	 0.410604898007477 
2049	 0.410738073105342 
2050	 0.41092715448434 
2051	 0.411141926662113 
2052	 0.411397017626302 
2053	 0.411713559906026 
2054	 0.412026032326585 
2055	 0.412363219123803 
2056	 0.412705050361566 
2057	 0.413054795540022 
2058	 0.41343955889372 
2059	 0.413853575838078 
2060	 0.414264594047411 
2061	 0.414727757527833 
2062	 0.415143717816163 
2063	 0.415538013501418 
2064	 0.415931070963894 
2065	 0.416306074195671 
2066	 0.416677302096776 
2067	 0.417070113485592 
2068	 0.417433151029351 
2069	 0.417780986857652 
2070	 0.418144843539168 
2071	 0.418429318467663 
2072	 0.418658909198289 
2073	 0.418886514129875 
2074	 0.419071777772261 
2075	 0.419240178337666 
2076	 0.419406570369323 
2077	 0.419528127213911 
2078	 0.419613953679142 
2079	 0.419665753450713 
2080	 0.419688594718455 
2081	 0.419679695304651 
2082	 0.419624026081888 
2083	 0.419546618315778 
2084	 0.419459994479823 
2085	 0.419334436829962 
2086	 0.419196608968241 
2087	 0.419040595650334 
2088	 0.418861224553336 
2089	 0.418665164789431 
2090	 0.41843378309929 
2091	 0.418174490960114 
2092	 0.417895206466572 
2093	 0.417577015041653 
2094	 0.417250940447871 
2095	 0.416904553944963 
2096	 0.416548775059712 
2097	 0.416193157282259 
2098	 0.415797537341413 
2099	 0.415391722864531 
2100	 0.414953148523455 
2101	 0.414439524498522 
2102	 0.413855300908413 
2103	 0.413278837760693 
2104	 0.412646488778266 
2105	 0.41201681648784 
2106	 0.411394128585002 
2107	 0.410724695661209 
2108	 0.410015398686446 
2109	 0.409292885464873 
2110	 0.408543382055001 
2111	 0.407782444617168 
2112	 0.406986483297051 
2113	 0.406198099430984 
2114	 0.405404135263918 
2115	 0.404597554901454 
2116	 0.403782107903276 
2117	 0.402981814612945 
2118	 0.40213521278858 
2119	 0.401248919847793 
2120	 0.400403962102715 
2121	 0.399522920664579 
2122	 0.398714230942026 
2123	 0.397958766598255 
2124	 0.397197380285433 
2125	 0.396476077703644 
2126	 0.395738619080411 
2127	 0.395000954543395 
2128	 0.394271900172756 
2129	 0.393522880686014 
2130	 0.392817219250728 
2131	 0.39213856564291 
2132	 0.391468652952648 
2133	 0.390822590781717 
2134	 0.390210863699141 
2135	 0.389555934821902 
2136	 0.38892842776366 
2137	 0.388290430042454 
2138	 0.387637461863801 
2139	 0.38701132041169 
2140	 0.386395623874805 
2141	 0.385791908849107 
2142	 0.385197650905562 
2143	 0.384627709289999 
2144	 0.384057871055666 
2145	 0.383538397313001 
2146	 0.383054567564382 
2147	 0.382593617710896 
2148	 0.382157317526183 
2149	 0.381762689015462 
2150	 0.381437070337939 
2151	 0.381080884812513 
2152	 0.380718404107008 
2153	 0.380407840857014 
2154	 0.380110442729386 
2155	 0.379787203474152 
2156	 0.379492473642365 
2157	 0.379251624352102 
2158	 0.378966116685589 
2159	 0.378649971315317 
2160	 0.378362365121465 
2161	 0.378077450727371 
2162	 0.377811559435605 
2163	 0.377536779117036 
2164	 0.377316019174884 
2165	 0.377112457938649 
2166	 0.376962318239645 
2167	 0.376872656146236 
2168	 0.376790148613923 
2169	 0.376711932485384 
2170	 0.376709143071256 
2171	 0.376755207507329 
2172	 0.376833318872304 
2173	 0.376970158460459 
2174	 0.377155056750029 
2175	 0.377339638002256 
2176	 0.377563302355187 
2177	 0.377813632355306 
2178	 0.378094275674449 
2179	 0.378416107506539 
2180	 0.378789237286313 
2181	 0.37913871555873 
2182	 0.379505298696934 
2183	 0.379909160505102 
2184	 0.380316015752938 
2185	 0.380748617192656 
2186	 0.38124555360327 
2187	 0.381713098912222 
2188	 0.382190270332748 
2189	 0.382636429313231 
2190	 0.3830946247468 
2191	 0.383508544757187 
2192	 0.383848542198868 
2193	 0.384230350152278 
2194	 0.384614663666574 
2195	 0.38498966334957 
2196	 0.385382495566596 
2197	 0.385770844022172 
2198	 0.386134380833356 
2199	 0.386469436595433 
2200	 0.386771557896203 
2201	 0.387052729736042 
2202	 0.387310757760347 
2203	 0.387527610835379 
2204	 0.387736030789072 
2205	 0.387947998372257 
2206	 0.388093570726289 
2207	 0.388191773940734 
2208	 0.388274423372133 
2209	 0.38829445938054 
2210	 0.388338107263924 
2211	 0.388405299136703 
2212	 0.388404761636188 
2213	 0.38837773970171 
2214	 0.38832453806883 
2215	 0.388217928290497 
2216	 0.388089646199702 
2217	 0.387971643920415 
2218	 0.387782021334074 
2219	 0.387530721117523 
2220	 0.387249382122366 
2221	 0.38692619189505 
2222	 0.386548977190992 
2223	 0.386152310250446 
2224	 0.385707697682713 
2225	 0.385244743337329 
2226	 0.384714060185078 
2227	 0.384040367742615 
2228	 0.383295917623502 
2229	 0.382408995970042 
2230	 0.38132916153446 
2231	 0.380275185708794 
2232	 0.379187160391828 
2233	 0.377945013841594 
2234	 0.376693377499309 
2235	 0.375177008743075 
2236	 0.373453280853199 
2237	 0.371627882308885 
2238	 0.369577267868029 
2239	 0.367500212960693 
2240	 0.365348224362884 
2241	 0.363037921302614 
2242	 0.360669345903485 
2243	 0.358098006519124 
2244	 0.35530617167304 
2245	 0.352457957348441 
2246	 0.349366249457665 
2247	 0.346323727597421 
2248	 0.34323124369492 
2249	 0.34011133560467 
2250	 0.336976660361608 
2251	 0.333862108942511 
2252	 0.330516228193176 
2253	 0.327253507369196 
2254	 0.323930234040034 
2255	 0.320569066205701 
2256	 0.317494325185014 
2257	 0.314412154290488 
2258	 0.311452819354594 
2259	 0.308656161107472 
2260	 0.30581907962217 
2261	 0.302989724402765 
2262	 0.30032395281361 
2263	 0.297662041903261 
2264	 0.295222952268041 
2265	 0.293017875139407 
2266	 0.290767663703481 
2267	 0.288693310961243 
2268	 0.286521579887792 
2269	 0.284281854422247 
2270	 0.282174470356467 
2271	 0.2800687610525 
2272	 0.278054111530098 
2273	 0.276197833329113 
2274	 0.274288064318998 
2275	 0.272433778297347 
2276	 0.270535731200336 
2277	 0.268648236761452 
2278	 0.266710386567264 
2279	 0.264697671296411 
2280	 0.262709710392177 
2281	 0.260711655755724 
2282	 0.258689972243751 
2283	 0.256710385798285 
2284	 0.254678119434121 
2285	 0.252414625418235 
2286	 0.250194705756823 
2287	 0.247851955705083 
2288	 0.245420024122153 
2289	 0.243177985485802 
2290	 0.240831008334596 
2291	 0.238461815788697 
2292	 0.23613703605815 
2293	 0.233682501681455 
2294	 0.231324049663096 
2295	 0.22905122797385 
2296	 0.22684997292856 
2297	 0.224953185570015 
2298	 0.223234569484746 
2299	 0.221805302778259 
2300	 0.220625925707051 
2301	 0.219748491966938 
2302	 0.219153892879117 
2303	 0.218858027132884 
2304	 0.218855864762268 
2305	 0.21920363033607 
2306	 0.219892980300415 
2307	 0.220863260761023 
2308	 0.22223315359311 
2309	 0.223786770887721 
2310	 0.225689183847511 
2311	 0.227677789860048 
2312	 0.230040864328406 
2313	 0.232255510976346 
2314	 0.234627204176345 
2315	 0.236813724441698 
2316	 0.239011528999793 
2317	 0.240922255504963 
2318	 0.242683425501369 
2319	 0.244227720859037 
2320	 0.245566384852791 
2321	 0.246653810178105 
2322	 0.24751789424783 
2323	 0.248173637559635 
2324	 0.248497876369442 
2325	 0.248721438909451 
2326	 0.248804025570932 
2327	 0.248658722229462 
2328	 0.24827111304641 
2329	 0.247753788203239 
2330	 0.247047997547434 
2331	 0.246124977335409 
2332	 0.245080662990331 
2333	 0.243930346342255 
2334	 0.242486389528273 
2335	 0.240987222886848 
2336	 0.239460593309609 
2337	 0.237727782983029 
2338	 0.236055281457634 
2339	 0.234376890132437 
2340	 0.232753341286158 
2341	 0.231286258779202 
2342	 0.229846238319807 
2343	 0.228603336993196 
2344	 0.227592186025004 
2345	 0.226899297853686 
2346	 0.226655900775144 
2347	 0.226857715656243 
2348	 0.22734561427707 
2349	 0.228180956493506 
2350	 0.229360956136884 
2351	 0.230761454108338 
2352	 0.232361627731341 
2353	 0.234101619570008 
2354	 0.235805485187494 
2355	 0.237398823204535 
2356	 0.238771862055943 
2357	 0.239959142093396 
2358	 0.241030901922508 
2359	 0.241894059588804 
2360	 0.242640127996929 
2361	 0.243179937649986 
2362	 0.243547218364505 
2363	 0.243806960301746 
2364	 0.243999664878491 
2365	 0.244137991454748 
2366	 0.244200535287516 
2367	 0.244252264166793 
2368	 0.244265252780221 
2369	 0.244321821863415 
2370	 0.244411521442949 
2371	 0.244441360965156 
2372	 0.244531730814553 
2373	 0.244632765702537 
2374	 0.244681898278272 
2375	 0.244851607589019 
2376	 0.245015111640882 
2377	 0.245058762773677 
2378	 0.245190474404574 
2379	 0.24536038946749 
2380	 0.245503617369483 
2381	 0.245751480133828 
2382	 0.245947678503599 
2383	 0.246107566722314 
2384	 0.246287068793171 
2385	 0.246509873539095 
2386	 0.246643567810516 
2387	 0.246684063848502 
2388	 0.246878366769867 
2389	 0.247104416897908 
2390	 0.247291110316854 
2391	 0.247612726765752 
2392	 0.247832084097272 
2393	 0.247934030095577 
2394	 0.248052312263722 
2395	 0.248140337768528 
2396	 0.248285602502895 
2397	 0.248418727728416 
2398	 0.248560288819366 
2399	 0.248816979838873 
2400	 0.248981387035309 
2401	 0.249017883961248 
2402	 0.249129771779399 
2403	 0.249275956955962 
2404	 0.249231429895756 
2405	 0.24926818594091 
2406	 0.249377556467942 
2407	 0.249416005524395 
2408	 0.249513063308807 
2409	 0.249730745690922 
2410	 0.249871743712406 
2411	 0.249858930063798 
2412	 0.249859857364179 
2413	 0.249905941291027 
2414	 0.250027469803132 
2415	 0.250100778846435 
2416	 0.250101556741304 
2417	 0.250127517384387 
2418	 0.250087801103522 
2419	 0.250058870761095 
2420	 0.250073113812869 
2421	 0.250070126764631 
2422	 0.250011168514426 
2423	 0.250015322735365 
2424	 0.250178642472164 
2425	 0.250198637392925 
2426	 0.250199824750869 
2427	 0.25024183451443 
2428	 0.249998067643514 
2429	 0.249783499121914 
2430	 0.249671144065111 
2431	 0.249525432860594 
2432	 0.249415986506462 
2433	 0.249371280138299 
2434	 0.249376304498781 
2435	 0.24929807463613 
2436	 0.24925142511165 
2437	 0.249211192929549 
2438	 0.249029617655456 
2439	 0.248698621567132 
2440	 0.248384028077359 
2441	 0.248048295088574 
2442	 0.247672483776203 
2443	 0.247433956000792 
2444	 0.247141179236649 
2445	 0.246800046484133 
2446	 0.246301900836629 
2447	 0.245653562762447 
2448	 0.245152698272649 
2449	 0.244724458551475 
2450	 0.244385389007518 
2451	 0.24406612697958 
2452	 0.243621121189217 
2453	 0.243035959814601 
2454	 0.242495581230079 
2455	 0.242225269459893 
2456	 0.241846056476524 
2457	 0.241268738847152 
2458	 0.240742258348562 
2459	 0.239978706947618 
2460	 0.239336234617531 
2461	 0.239059326747845 
2462	 0.238849074871748 
2463	 0.238750008869 
2464	 0.238461881259714 
2465	 0.238075866694717 
2466	 0.237728693483083 
2467	 0.237356616632309 
2468	 0.237119507998087 
2469	 0.236802932600257 
2470	 0.236485686935587 
2471	 0.236390305965674 
2472	 0.236308197141866 
2473	 0.23616691300331 
2474	 0.235950972823512 
2475	 0.235535118540157 
2476	 0.23504290938834 
2477	 0.234842719924903 
2478	 0.23495993513018 
2479	 0.234929553344026 
2480	 0.234884685031382 
2481	 0.234850171453801 
2482	 0.234745865937435 
2483	 0.234602637963714 
2484	 0.234547647318906 
2485	 0.234556349306112 
2486	 0.234570109161261 
2487	 0.234822212705636 
2488	 0.234968997447109 
2489	 0.234748881629632 
2490	 0.234728084213946 
2491	 0.234951824032661 
2492	 0.235351911532514 
2493	 0.236093905456554 
2494	 0.236322866538877 
2495	 0.236370413558238 
2496	 0.236595345638781 
2497	 0.236550564077005 
2498	 0.237275867545615 
2499	 0.238004296062224 
2500	 0.238299558625964 
