Wavelength	spectrum00007.asd
350	 7.83371286874155E-02 
351	 7.72283021985983E-02 
352	 7.66363957777748E-02 
353	 7.58881932032857E-02 
354	 7.49783098326251E-02 
355	 7.49482379111414E-02 
356	 7.45897456151801E-02 
357	 7.28172528527174E-02 
358	 7.00319464720642E-02 
359	 6.88473933539055E-02 
360	 6.97008746465465E-02 
361	 7.15717102566595E-02 
362	 7.28509514920577E-02 
363	 7.24400585944564E-02 
364	 7.09969429822942E-02 
365	 7.12173750718517E-02 
366	 7.27249792643357E-02 
367	 7.39309299691941E-02 
368	 7.38843226135106E-02 
369	 7.46059430119185E-02 
370	 7.62115967506149E-02 
371	 7.76389313770186E-02 
372	 7.75514013066304E-02 
373	 7.84673777819019E-02 
374	 8.00342445158621E-02 
375	 0.081638032191927 
376	 0.082788985690668 
377	 8.40723864559276E-02 
378	 8.56706989900652E-02 
379	 8.74535705280112E-02 
380	 8.84826820912458E-02 
381	 9.10429860048897E-02 
382	 9.36139942651236E-02 
383	 0.093129971495713 
384	 9.49665155262232E-02 
385	 9.77407217855853E-02 
386	 0.100113467258227 
387	 0.102102905002987 
388	 0.103561972446346 
389	 0.105440420159405 
390	 0.10831284334185 
391	 0.110401070176577 
392	 0.112186614921006 
393	 0.114241146308223 
394	 0.117026175977691 
395	 0.119541910741636 
396	 0.121984201328281 
397	 0.124465150774029 
398	 0.126668700784682 
399	 0.128918789634793 
400	 0.131397091121961 
401	 0.134077999566088 
402	 0.136269116505546 
403	 0.139154730802552 
404	 0.142244799356922 
405	 0.144005842848053 
406	 0.146990846002588 
407	 0.149727042482383 
408	 0.151529115834047 
409	 0.154393409521286 
410	 0.15683461401029 
411	 0.159221205548658 
412	 0.16219787674908 
413	 0.164724108918576 
414	 0.167088098803203 
415	 0.169510113167542 
416	 0.172052797545773 
417	 0.174345667110123 
418	 0.177047817005224 
419	 0.180320656428934 
420	 0.182793215450235 
421	 0.185218069841788 
422	 0.187928751673929 
423	 0.190933892815966 
424	 0.193320888524738 
425	 0.195729118538098 
426	 0.198375248159804 
427	 0.200858736166855 
428	 0.203551982088022 
429	 0.206378427064081 
430	 0.209139775610665 
431	 0.211582136110425 
432	 0.214222341223513 
433	 0.217011719768846 
434	 0.219615940969643 
435	 0.222205574407949 
436	 0.224813347668989 
437	 0.22745518282626 
438	 0.230129015747851 
439	 0.232928722157322 
440	 0.235690124029819 
441	 0.238252116170903 
442	 0.240770060259359 
443	 0.243463929040612 
444	 0.246253821366797 
445	 0.248851695380338 
446	 0.251612586054692 
447	 0.254272062075562 
448	 0.256710116528815 
449	 0.259337665369452 
450	 0.261934082092813 
451	 0.26443885622525 
452	 0.26687162595597 
453	 0.269358379825024 
454	 0.271913571857111 
455	 0.27446815921269 
456	 0.276888295409144 
457	 0.279369291811172 
458	 0.281820981312178 
459	 0.284163587771546 
460	 0.286531660996411 
461	 0.288791712156582 
462	 0.29101720108167 
463	 0.293359284155467 
464	 0.295541625578178 
465	 0.297748634320239 
466	 0.300033269691712 
467	 0.302176679699678 
468	 0.304187552773287 
469	 0.306185329496924 
470	 0.30825494749774 
471	 0.310151612171799 
472	 0.312022705791169 
473	 0.313926242416443 
474	 0.315828718567726 
475	 0.317650991574082 
476	 0.319479132635345 
477	 0.321300924159815 
478	 0.322814974292571 
479	 0.324275865672504 
480	 0.325839341407806 
481	 0.327536311029784 
482	 0.328896967670304 
483	 0.330195518407763 
484	 0.33157977785698 
485	 0.332981657082325 
486	 0.334304723614985 
487	 0.33549181643959 
488	 0.336550354516947 
489	 0.337643455882187 
490	 0.338595146926751 
491	 0.339464548352251 
492	 0.340423132790568 
493	 0.341283610502487 
494	 0.342014632330497 
495	 0.342668678035959 
496	 0.343410281992041 
497	 0.343973414728973 
498	 0.344401708360168 
499	 0.344819709416026 
500	 0.345238676922009 
501	 0.345587433019161 
502	 0.345835177219785 
503	 0.345995622858485 
504	 0.34615709745687 
505	 0.346239722562281 
506	 0.346201282227021 
507	 0.346165081759129 
508	 0.346093499877178 
509	 0.345920541772369 
510	 0.345600071808973 
511	 0.345311816736752 
512	 0.345064411414164 
513	 0.344788299355359 
514	 0.344339061104048 
515	 0.343762758229045 
516	 0.343205860901024 
517	 0.342759612445694 
518	 0.342253640330256 
519	 0.341571557896266 
520	 0.340819008201763 
521	 0.340226440860227 
522	 0.339555107013902 
523	 0.338794466490361 
524	 0.337977317372625 
525	 0.337148465314266 
526	 0.336299791900158 
527	 0.335440372810243 
528	 0.334578407690522 
529	 0.333704630317819 
530	 0.332757126133632 
531	 0.33175510861015 
532	 0.330804025513338 
533	 0.329783910746596 
534	 0.328742285117164 
535	 0.327715158393911 
536	 0.326583627882236 
537	 0.325486486382329 
538	 0.324395632732139 
539	 0.323205334357278 
540	 0.322033361479184 
541	 0.320907622380403 
542	 0.319810501690354 
543	 0.318669958072888 
544	 0.317570193883806 
545	 0.316436767444044 
546	 0.315202581022308 
547	 0.314046778035981 
548	 0.312903976335898 
549	 0.311766944007876 
550	 0.310686350443831 
551	 0.3096204023557 
552	 0.308583800257277 
553	 0.307577525058451 
554	 0.306548379572702 
555	 0.305497256210159 
556	 0.304464786574355 
557	 0.303498390970581 
558	 0.302520352309742 
559	 0.301548117262244 
560	 0.300585601533496 
561	 0.29960614830323 
562	 0.2986001240256 
563	 0.29760714608192 
564	 0.296650609444481 
565	 0.295644701569313 
566	 0.294584411727044 
567	 0.293492417877401 
568	 0.292413004071468 
569	 0.291382618482156 
570	 0.290363696657679 
571	 0.289360180130269 
572	 0.28849476847393 
573	 0.287696127333349 
574	 0.286946120338353 
575	 0.28622986257813 
576	 0.285471051554862 
577	 0.284637732005292 
578	 0.283737573021617 
579	 0.282820150293407 
580	 0.281892456872191 
581	 0.281013480439073 
582	 0.280219953951096 
583	 0.279461784005735 
584	 0.278703218973323 
585	 0.277936764015849 
586	 0.27716926981047 
587	 0.276372691827634 
588	 0.275546488637138 
589	 0.274704970864464 
590	 0.273875235394674 
591	 0.273113921695696 
592	 0.27239749313023 
593	 0.271680690858612 
594	 0.270946106974827 
595	 0.270252518066164 
596	 0.269589103057047 
597	 0.268889075283125 
598	 0.268209558033323 
599	 0.26754267470033 
600	 0.266876049674014 
601	 0.266216548987446 
602	 0.265582510968056 
603	 0.264955637488634 
604	 0.264318755622422 
605	 0.263774423982508 
606	 0.263239169440595 
607	 0.262683439842238 
608	 0.262164558942942 
609	 0.261616858127104 
610	 0.261106440722676 
611	 0.260677223022555 
612	 0.260192816295999 
613	 0.259744632795755 
614	 0.259346868044666 
615	 0.258958410165739 
616	 0.258528565477925 
617	 0.258185005945281 
618	 0.257952330592179 
619	 0.257628632882638 
620	 0.257346758073825 
621	 0.25710522389566 
622	 0.256864837623579 
623	 0.256616180121711 
624	 0.256415955432167 
625	 0.256286787964074 
626	 0.256211250320663 
627	 0.256108467104224 
628	 0.255973692312303 
629	 0.255851350838413 
630	 0.255871518791659 
631	 0.255883971724842 
632	 0.255873521911725 
633	 0.255889498989506 
634	 0.255968625223416 
635	 0.256042858778836 
636	 0.256111250035875 
637	 0.256265712241071 
638	 0.256428014120612 
639	 0.256587690866139 
640	 0.256751901274419 
641	 0.256920746471586 
642	 0.257148737351615 
643	 0.257424577893744 
644	 0.257700700327783 
645	 0.258017611906344 
646	 0.258347704866281 
647	 0.258668835521609 
648	 0.258977798250784 
649	 0.259354891201357 
650	 0.259768868060055 
651	 0.260166035716999 
652	 0.260561222358501 
653	 0.260995149671941 
654	 0.261491894212419 
655	 0.262051139996369 
656	 0.262562711226708 
657	 0.263044522522703 
658	 0.263547264896548 
659	 0.264149450103507 
660	 0.264730301859242 
661	 0.265298824225508 
662	 0.265905812374473 
663	 0.266543085946098 
664	 0.267180466707384 
665	 0.267813965631562 
666	 0.268467078571207 
667	 0.269163282039252 
668	 0.269853856427771 
669	 0.270517724134283 
670	 0.271247603061383 
671	 0.271977119488144 
672	 0.272701152925513 
673	 0.273441476367238 
674	 0.274194972026875 
675	 0.274934584875792 
676	 0.275695147432391 
677	 0.276583189229218 
678	 0.277307369504339 
679	 0.278006461225508 
680	 0.278840144427966 
681	 0.27971285122047 
682	 0.280549606035402 
683	 0.281333065657538 
684	 0.282095396177713 
685	 0.282936017411013 
686	 0.283799569301795 
687	 0.284648989536945 
688	 0.28549944730025 
689	 0.286293709749308 
690	 0.287113467788132 
691	 0.288022271676647 
692	 0.288891432241537 
693	 0.289743045194287 
694	 0.290596283172189 
695	 0.291461691095269 
696	 0.292302896091842 
697	 0.2931552288213 
698	 0.294029523419081 
699	 0.294884084501754 
700	 0.295791843935741 
701	 0.296710572511016 
702	 0.29758696547173 
703	 0.298453229805118 
704	 0.299357644256391 
705	 0.300263633512047 
706	 0.301090829556745 
707	 0.30195842765931 
708	 0.302850448869249 
709	 0.303729214804983 
710	 0.304549814220036 
711	 0.30539785202829 
712	 0.306266986421007 
713	 0.307138244838312 
714	 0.308082962131894 
715	 0.308919957892271 
716	 0.309663028633426 
717	 0.310461441102464 
718	 0.311259000988022 
719	 0.312090679667578 
720	 0.312962317330578 
721	 0.313818765890519 
722	 0.314579402287935 
723	 0.315318702895752 
724	 0.31612793869243 
725	 0.316961064736843 
726	 0.317755452231829 
727	 0.318503425349746 
728	 0.319237055879528 
729	 0.319939897370262 
730	 0.320647098334557 
731	 0.321390612307672 
732	 0.322191829914742 
733	 0.322911368862591 
734	 0.323576722535061 
735	 0.324264702100751 
736	 0.32503175301852 
737	 0.325733151901337 
738	 0.326365577034366 
739	 0.327019703683616 
740	 0.327684028996059 
741	 0.32835872733412 
742	 0.329029797700166 
743	 0.329663479059074 
744	 0.330354000107802 
745	 0.330994305717725 
746	 0.33149971218452 
747	 0.332036126165816 
748	 0.332624478409189 
749	 0.3332528685256 
750	 0.333879595517584 
751	 0.334430219569952 
752	 0.334933516266149 
753	 0.335452576517805 
754	 0.336073275371695 
755	 0.336654413873336 
756	 0.337207435797486 
757	 0.337751578952867 
758	 0.338211729793772 
759	 0.338649384948752 
760	 0.339130404407534 
761	 0.33970118965562 
762	 0.340297010410329 
763	 0.340811109734458 
764	 0.341239261672008 
765	 0.341689656882107 
766	 0.3421742740183 
767	 0.342710073618173 
768	 0.343280268047639 
769	 0.343804278715601 
770	 0.344254178280772 
771	 0.344662998665347 
772	 0.345090543262645 
773	 0.345576792645999 
774	 0.346089042502373 
775	 0.346587024074746 
776	 0.34703434840003 
777	 0.347461414458427 
778	 0.347908860490865 
779	 0.348384123128013 
780	 0.348837554941164 
781	 0.349269431392968 
782	 0.349697203577143 
783	 0.350144319538101 
784	 0.350633479237078 
785	 0.35111038680225 
786	 0.351564381319988 
787	 0.352005142616554 
788	 0.35238125287873 
789	 0.352761334768641 
790	 0.353191348111742 
791	 0.3536735719488 
792	 0.354161960805955 
793	 0.354597607233454 
794	 0.35497635443773 
795	 0.355421965747491 
796	 0.355893227682581 
797	 0.356387884843597 
798	 0.356894658787978 
799	 0.357310422879377 
800	 0.35772650943848 
801	 0.358179818718095 
802	 0.358652777455204 
803	 0.359105915676457 
804	 0.359587969536536 
805	 0.360104528900203 
806	 0.360580606768649 
807	 0.361070285998258 
808	 0.361543616710213 
809	 0.361993976268265 
810	 0.362544033330168 
811	 0.363097290656999 
812	 0.363642258349336 
813	 0.364194636557758 
814	 0.364686144171815 
815	 0.365203583780375 
816	 0.365765352477624 
817	 0.36632120522682 
818	 0.366877180334005 
819	 0.367461807770005 
820	 0.368073512058244 
821	 0.368656750068466 
822	 0.369246928875393 
823	 0.369856478844503 
824	 0.370473309803625 
825	 0.371020897699449 
826	 0.371652628738113 
827	 0.372376367075639 
828	 0.373113527087348 
829	 0.37376127991662 
830	 0.37438519488648 
831	 0.375006228955488 
832	 0.375607458096915 
833	 0.376316028721564 
834	 0.377067266868528 
835	 0.377806909649936 
836	 0.37854591075452 
837	 0.379300696076448 
838	 0.380011544757836 
839	 0.380669835995692 
840	 0.381461730660632 
841	 0.382274113262088 
842	 0.383067517524969 
843	 0.383842415968664 
844	 0.384635872200744 
845	 0.385434095077599 
846	 0.386271684995837 
847	 0.387195946567916 
848	 0.388055113947346 
849	 0.388836657897296 
850	 0.389612537989373 
851	 0.390523092588048 
852	 0.391458147992374 
853	 0.392430567406616 
854	 0.393431397090756 
855	 0.394356846644834 
856	 0.395245195141432 
857	 0.39614047178902 
858	 0.397096489822725 
859	 0.398200990098968 
860	 0.399252589416951 
861	 0.400250211861429 
862	 0.401287377939741 
863	 0.402320704582585 
864	 0.40334229252492 
865	 0.40440718918553 
866	 0.405598312373102 
867	 0.406715250168522 
868	 0.407823243441938 
869	 0.408965000847183 
870	 0.410100079986722 
871	 0.411255789417753 
872	 0.412399520889434 
873	 0.413540670301676 
874	 0.414811992384973 
875	 0.416049164195159 
876	 0.417288602407809 
877	 0.418589272014591 
878	 0.419848540982043 
879	 0.421076012562248 
880	 0.422307370605126 
881	 0.423576487819284 
882	 0.424834704829614 
883	 0.426123758014416 
884	 0.427455416760154 
885	 0.428812875070194 
886	 0.430164052985381 
887	 0.431544705909098 
888	 0.432921611606519 
889	 0.434189803268914 
890	 0.435603387570366 
891	 0.437072205797778 
892	 0.438460948927622 
893	 0.439677927171939 
894	 0.440948726711639 
895	 0.442358681449549 
896	 0.443881580895766 
897	 0.44532570167289 
898	 0.446764563614267 
899	 0.448248931227978 
900	 0.449773529395599 
901	 0.451135681468649 
902	 0.452546652543235 
903	 0.454004028436147 
904	 0.455408926289453 
905	 0.456792222353829 
906	 0.458268889505612 
907	 0.459842736660061 
908	 0.461425057424093 
909	 0.462937783403992 
910	 0.464447214481862 
911	 0.465979030715519 
912	 0.467511622865243 
913	 0.469165959335585 
914	 0.47074431454214 
915	 0.472256591088024 
916	 0.474035197310774 
917	 0.475670847268207 
918	 0.477252185716198 
919	 0.478903315807817 
920	 0.480613179835828 
921	 0.482304253822701 
922	 0.48403762584495 
923	 0.485844129458805 
924	 0.487578391696345 
925	 0.489405679548445 
926	 0.491240868230031 
927	 0.492993106367538 
928	 0.494821058657366 
929	 0.49680172988028 
930	 0.498819790957117 
931	 0.500738445580676 
932	 0.502727208662844 
933	 0.504753370964121 
934	 0.506877753874834 
935	 0.509136254649797 
936	 0.511175597898646 
937	 0.513206049632755 
938	 0.515293529326616 
939	 0.517389200504152 
940	 0.519582428855133 
941	 0.521701124345732 
942	 0.523683784035734 
943	 0.525611909293549 
944	 0.527673687340087 
945	 0.52980245447354 
946	 0.531846514902071 
947	 0.533644668692963 
948	 0.53547342779799 
949	 0.537320061286153 
950	 0.539155249257166 
951	 0.540984254601842 
952	 0.542745720914459 
953	 0.544539651809664 
954	 0.546351695482436 
955	 0.547974487857512 
956	 0.549590007211299 
957	 0.55121856446453 
958	 0.552822857849877 
959	 0.554331354076998 
960	 0.555877384037014 
961	 0.557447604884976 
962	 0.558990229354093 
963	 0.560454393554945 
964	 0.561922659406856 
965	 0.563443659828943 
966	 0.56500350834083 
967	 0.566483258210302 
968	 0.567926687102791 
969	 0.569430304502241 
970	 0.571048346189161 
971	 0.572703300306906 
972	 0.574163119865118 
973	 0.575554150552785 
974	 0.577038462557589 
975	 0.578524252559374 
976	 0.579964921943328 
977	 0.581455449293414 
978	 0.583047840810586 
979	 0.584529880163666 
980	 0.5858771370207 
981	 0.587212146280079 
982	 0.588656319776146 
983	 0.590153882807136 
984	 0.591592166806193 
985	 0.593003081439976 
986	 0.594438149906483 
987	 0.595811093789799 
988	 0.597213930102216 
989	 0.598514439693046 
990	 0.59962851230206 
991	 0.600899734522906 
992	 0.602087711492875 
993	 0.603357031710509 
994	 0.604841766788268 
995	 0.606093040062055 
996	 0.607335086030182 
997	 0.608511264858017 
998	 0.609541315516569 
999	 0.610575753112212 
1000	 0.611757122943002 
1001	 0.619066800837666 
1002	 0.620232082587561 
1003	 0.621402253381465 
1004	 0.62249628155076 
1005	 0.623492864002038 
1006	 0.624549775868609 
1007	 0.625587045813837 
1008	 0.626652105812885 
1009	 0.627744422145225 
1010	 0.628781046743309 
1011	 0.629828904895799 
1012	 0.630830611244137 
1013	 0.631774228539542 
1014	 0.632728981091482 
1015	 0.633657896479779 
1016	 0.634588651035456 
1017	 0.635580484918065 
1018	 0.636529784142099 
1019	 0.637499323641654 
1020	 0.638500294820575 
1021	 0.639421143083491 
1022	 0.640261340906382 
1023	 0.641161004780975 
1024	 0.642052741946357 
1025	 0.642950891022046 
1026	 0.643883170140194 
1027	 0.644777862017627 
1028	 0.645674435773784 
1029	 0.646541389275442 
1030	 0.647319343290018 
1031	 0.64814608825567 
1032	 0.648944374624465 
1033	 0.649672212926859 
1034	 0.650463749894446 
1035	 0.651238273561807 
1036	 0.652030072153968 
1037	 0.652844979313134 
1038	 0.65365253376102 
1039	 0.654471106330841 
1040	 0.655295919919054 
1041	 0.65609069520415 
1042	 0.656915280634037 
1043	 0.657777988672175 
1044	 0.658612770467436 
1045	 0.659424628620167 
1046	 0.660295995708161 
1047	 0.661164204976894 
1048	 0.662049844145469 
1049	 0.662903599815248 
1050	 0.663759865987784 
1051	 0.664654508594381 
1052	 0.665478631177855 
1053	 0.66632466861809 
1054	 0.667256111013035 
1055	 0.668074587607087 
1056	 0.668792281042638 
1057	 0.669577769226115 
1058	 0.670357062910131 
1059	 0.67108615911331 
1060	 0.671918408382949 
1061	 0.672722582728051 
1062	 0.673489591603086 
1063	 0.67426639202757 
1064	 0.674971761280987 
1065	 0.675702848434231 
1066	 0.676398892301119 
1067	 0.677053437787984 
1068	 0.677739405390714 
1069	 0.678365434434762 
1070	 0.678998945668839 
1071	 0.679619455927411 
1072	 0.680266470113886 
1073	 0.680869469038651 
1074	 0.681500973944904 
1075	 0.682123140007679 
1076	 0.682697692828489 
1077	 0.683306033634742 
1078	 0.68389036633166 
1079	 0.68445936472403 
1080	 0.685060441558301 
1081	 0.685631126280084 
1082	 0.68618346178546 
1083	 0.686698636727101 
1084	 0.687202133637552 
1085	 0.687738040822152 
1086	 0.688240704560347 
1087	 0.688721011348025 
1088	 0.68922820608517 
1089	 0.689705702091654 
1090	 0.690108885215559 
1091	 0.690537543183017 
1092	 0.690944816609145 
1093	 0.691330433280419 
1094	 0.691727220066771 
1095	 0.692097869744039 
1096	 0.692443776274721 
1097	 0.69279003881446 
1098	 0.693112120821825 
1099	 0.693429061426712 
1100	 0.693740458147036 
1101	 0.694020342943651 
1102	 0.694339793706673 
1103	 0.694632054303899 
1104	 0.694915419856791 
1105	 0.695166853122837 
1106	 0.695438194798865 
1107	 0.695665813595464 
1108	 0.695875449045685 
1109	 0.696102007736878 
1110	 0.69631091159539 
1111	 0.696514308136001 
1112	 0.696731235407669 
1113	 0.696912422288484 
1114	 0.697021632436755 
1115	 0.697098097359725 
1116	 0.697169600480997 
1117	 0.69724003704439 
1118	 0.697293721541137 
1119	 0.697379198549313 
1120	 0.697411515876283 
1121	 0.697421477532218 
1122	 0.697359785561805 
1123	 0.697289699923444 
1124	 0.697169017919014 
1125	 0.696958026568038 
1126	 0.696733932819353 
1127	 0.696455246589563 
1128	 0.696100262338999 
1129	 0.695706645434358 
1130	 0.695233119309825 
1131	 0.69468094990994 
1132	 0.694100270957016 
1133	 0.693481443206229 
1134	 0.692826767956315 
1135	 0.692074914592838 
1136	 0.691251854853048 
1137	 0.690368631366056 
1138	 0.689405884952365 
1139	 0.688379522733275 
1140	 0.687280698852021 
1141	 0.686195413809653 
1142	 0.685000815996068 
1143	 0.683720903656735 
1144	 0.682411240763308 
1145	 0.680975968316678 
1146	 0.679514860840216 
1147	 0.678006572352151 
1148	 0.676440726465738 
1149	 0.674954423685059 
1150	 0.673434976424631 
1151	 0.671916049726351 
1152	 0.670351956465895 
1153	 0.66874588557469 
1154	 0.667133420434626 
1155	 0.66550927762835 
1156	 0.663833583283826 
1157	 0.662162044511399 
1158	 0.66046461492521 
1159	 0.658705275161268 
1160	 0.656928438207705 
1161	 0.65517660178853 
1162	 0.653311779426487 
1163	 0.65151893946227 
1164	 0.649735711780921 
1165	 0.647960628241252 
1166	 0.646336534248548 
1167	 0.644692236034328 
1168	 0.64307972650404 
1169	 0.641455418299229 
1170	 0.639842258648884 
1171	 0.638210553408102 
1172	 0.636605337902015 
1173	 0.634913771440658 
1174	 0.633209120578465 
1175	 0.631487246113033 
1176	 0.629723574306474 
1177	 0.627907086151909 
1178	 0.626111797087179 
1179	 0.624145353898882 
1180	 0.622207367203823 
1181	 0.620186323236069 
1182	 0.618064301996203 
1183	 0.616090408936899 
1184	 0.614043779064995 
1185	 0.612024995077173 
1186	 0.610095492372296 
1187	 0.608203457217683 
1188	 0.606411249668233 
1189	 0.604658869377153 
1190	 0.603048832108608 
1191	 0.601549850383302 
1192	 0.600183828508466 
1193	 0.598945973793374 
1194	 0.597781997386811 
1195	 0.596739097375257 
1196	 0.595748827844949 
1197	 0.594839824342704 
1198	 0.593992301298436 
1199	 0.59318085189473 
1200	 0.592478948664032 
1201	 0.591808828995336 
1202	 0.591201482347749 
1203	 0.590709866949357 
1204	 0.590310075466074 
1205	 0.590085964901849 
1206	 0.589939452662386 
1207	 0.590075660171401 
1208	 0.590356665949793 
1209	 0.590938604893544 
1210	 0.591717963374477 
1211	 0.592834136949976 
1212	 0.594236736880019 
1213	 0.595929707475352 
1214	 0.597923941764326 
1215	 0.600215668310162 
1216	 0.602875874380229 
1217	 0.605655461056743 
1218	 0.608732250696089 
1219	 0.611955137096417 
1220	 0.615270638496329 
1221	 0.618850312881322 
1222	 0.62237653522001 
1223	 0.62597947475495 
1224	 0.629470350767891 
1225	 0.63294917187414 
1226	 0.636247468585609 
1227	 0.639511867926798 
1228	 0.642583475603988 
1229	 0.645523795451288 
1230	 0.648297530006694 
1231	 0.650923617408473 
1232	 0.653416391341519 
1233	 0.655726551198465 
1234	 0.657901987249272 
1235	 0.659934439374457 
1236	 0.661860002769168 
1237	 0.663635394200671 
1238	 0.665312752061933 
1239	 0.66685932354616 
1240	 0.668332019129578 
1241	 0.669768790538159 
1242	 0.671024406059094 
1243	 0.672247544955286 
1244	 0.673409327676602 
1245	 0.674506242491606 
1246	 0.675498847683937 
1247	 0.676473165978958 
1248	 0.677419831669351 
1249	 0.678291666846208 
1250	 0.679093651672452 
1251	 0.679843150057029 
1252	 0.680538969530345 
1253	 0.681182111992402 
1254	 0.681744653404274 
1255	 0.682302848667282 
1256	 0.682815350055447 
1257	 0.683312102700719 
1258	 0.683800242153085 
1259	 0.684242686693518 
1260	 0.684627812060773 
1261	 0.685018796727888 
1262	 0.68537393673809 
1263	 0.68574599079016 
1264	 0.686083471765585 
1265	 0.686411683424117 
1266	 0.686733052974069 
1267	 0.687024867457832 
1268	 0.687324407054051 
1269	 0.687625147305485 
1270	 0.687928034288616 
1271	 0.688218391992781 
1272	 0.688518606738157 
1273	 0.68883233596927 
1274	 0.689138398231944 
1275	 0.689444017068128 
1276	 0.689740270166327 
1277	 0.690039870211951 
1278	 0.690322962802694 
1279	 0.690585281904563 
1280	 0.690851164526729 
1281	 0.691105539004607 
1282	 0.691364804107501 
1283	 0.691629566639763 
1284	 0.691886273765317 
1285	 0.692139103311826 
1286	 0.692387853733313 
1287	 0.692638936192307 
1288	 0.692891607896858 
1289	 0.693125687785499 
1290	 0.693362029507772 
1291	 0.693573105042325 
1292	 0.693761757771837 
1293	 0.693943206971587 
1294	 0.694123580463588 
1295	 0.694268597412534 
1296	 0.694384885512465 
1297	 0.694498786471211 
1298	 0.694589907928379 
1299	 0.694675124009085 
1300	 0.69477137058424 
1301	 0.694827175517726 
1302	 0.694842531749434 
1303	 0.694866438933261 
1304	 0.694886129635115 
1305	 0.694878105078919 
1306	 0.694878116819051 
1307	 0.694837045275105 
1308	 0.694762760790636 
1309	 0.694647290829081 
1310	 0.694540270857614 
1311	 0.694410815067634 
1312	 0.694286634635522 
1313	 0.694164207947346 
1314	 0.6940207006355 
1315	 0.693852863186545 
1316	 0.693711765151561 
1317	 0.693565344204391 
1318	 0.693430670298937 
1319	 0.693332974670631 
1320	 0.693191307611849 
1321	 0.693054769811626 
1322	 0.69286562471857 
1323	 0.692665786253108 
1324	 0.692398343157197 
1325	 0.692066881863594 
1326	 0.691722910101456 
1327	 0.69134146907314 
1328	 0.690926692226869 
1329	 0.690497580270556 
1330	 0.690025046050216 
1331	 0.689518975607746 
1332	 0.688963754904558 
1333	 0.688390958801915 
1334	 0.687731304682272 
1335	 0.687067953899341 
1336	 0.686367523373458 
1337	 0.685619556145553 
1338	 0.684849487368873 
1339	 0.684021826856809 
1340	 0.683142032452748 
1341	 0.682214836924372 
1342	 0.681253816568252 
1343	 0.680225151104635 
1344	 0.67916020126641 
1345	 0.677991819262771 
1346	 0.676759180726837 
1347	 0.67545019741023 
1348	 0.674049088887646 
1349	 0.672589457848576 
1350	 0.671053024036505 
1351	 0.669470827442119 
1352	 0.667814462473651 
1353	 0.66611965119867 
1354	 0.664340506262029 
1355	 0.6625923414961 
1356	 0.660803407723446 
1357	 0.659029488947691 
1358	 0.657256716196965 
1359	 0.655502771980736 
1360	 0.653793771626736 
1361	 0.652028284086885 
1362	 0.65022405400159 
1363	 0.648505365682558 
1364	 0.646650930579233 
1365	 0.644769962431857 
1366	 0.642735665399783 
1367	 0.64062629190854 
1368	 0.638403909778871 
1369	 0.636062276034014 
1370	 0.633623729976024 
1371	 0.631079687936385 
1372	 0.628506223768028 
1373	 0.625821067671936 
1374	 0.623115166346767 
1375	 0.620344401508449 
1376	 0.617565057135894 
1377	 0.614717280713328 
1378	 0.611853750818882 
1379	 0.60896671465793 
1380	 0.60608154135345 
1381	 0.603170786495505 
1382	 0.600236882094427 
1383	 0.597251300270075 
1384	 0.594341033290778 
1385	 0.591379273652174 
1386	 0.588558010350438 
1387	 0.585745943770456 
1388	 0.583188983865609 
1389	 0.580755609000995 
1390	 0.578511119480753 
1391	 0.576548982700588 
1392	 0.57462893062486 
1393	 0.572933816716728 
1394	 0.571266419039968 
1395	 0.569533265395433 
1396	 0.567949499702796 
1397	 0.566040028470022 
1398	 0.564083299911527 
1399	 0.561746016755273 
1400	 0.559207790585301 
1401	 0.556348237809221 
1402	 0.553203197156303 
1403	 0.549759889771912 
1404	 0.545981429291501 
1405	 0.542100133191616 
1406	 0.537832128903883 
1407	 0.533691099414065 
1408	 0.529263297856211 
1409	 0.525248080297191 
1410	 0.521146367752098 
1411	 0.517608119385638 
1412	 0.514356442693612 
1413	 0.511594861617303 
1414	 0.50931186712267 
1415	 0.507295869822782 
1416	 0.505817762447109 
1417	 0.504378367969313 
1418	 0.503292053498064 
1419	 0.502141436046454 
1420	 0.50113395237433 
1421	 0.500086407798634 
1422	 0.499025768886005 
1423	 0.49798196435746 
1424	 0.496959750731005 
1425	 0.495896293054478 
1426	 0.494924904882208 
1427	 0.49399907013524 
1428	 0.493136860167844 
1429	 0.492423985983545 
1430	 0.491751790758396 
1431	 0.491144352895874 
1432	 0.49063027087359 
1433	 0.49019512850512 
1434	 0.489846284817505 
1435	 0.489586321319314 
1436	 0.489400462629305 
1437	 0.489308892082623 
1438	 0.489264719237444 
1439	 0.489295176849379 
1440	 0.489374615250597 
1441	 0.489521405790301 
1442	 0.489701158058858 
1443	 0.489939236354428 
1444	 0.490208729922064 
1445	 0.490529200403899 
1446	 0.490859397456941 
1447	 0.491221855691098 
1448	 0.491608973597714 
1449	 0.492023645480711 
1450	 0.492451079563367 
1451	 0.492912910710139 
1452	 0.493379205190994 
1453	 0.493871576085776 
1454	 0.494338656791003 
1455	 0.494818389234881 
1456	 0.495275450384457 
1457	 0.495708159753553 
1458	 0.496135816423991 
1459	 0.496541708695848 
1460	 0.496962836530819 
1461	 0.49736785652015 
1462	 0.497794100562112 
1463	 0.498244405457226 
1464	 0.498693827782851 
1465	 0.499145105919702 
1466	 0.499623713146125 
1467	 0.500072822253313 
1468	 0.50052698346027 
1469	 0.500975109939109 
1470	 0.501371318375681 
1471	 0.50174539651043 
1472	 0.502098764825518 
1473	 0.502415360922618 
1474	 0.502699419274939 
1475	 0.502944851081601 
1476	 0.503170604848951 
1477	 0.503325702290534 
1478	 0.503426531782646 
1479	 0.503487113907071 
1480	 0.503494152963953 
1481	 0.503463600905839 
1482	 0.503383386050137 
1483	 0.50328157580779 
1484	 0.50313089277978 
1485	 0.502971886909864 
1486	 0.502779583701303 
1487	 0.502595060088062 
1488	 0.502367932699556 
1489	 0.502198663513233 
1490	 0.502033837636617 
1491	 0.501919870222394 
1492	 0.501829444918046 
1493	 0.501807036727513 
1494	 0.501831155754753 
1495	 0.501905039782438 
1496	 0.502042630941343 
1497	 0.502217623291684 
1498	 0.502413436949775 
1499	 0.502699557748258 
1500	 0.503019618618824 
1501	 0.503462527969062 
1502	 0.503989543487501 
1503	 0.504622911578852 
1504	 0.505375311734326 
1505	 0.506203979054942 
1506	 0.507190968078528 
1507	 0.508152859687215 
1508	 0.509222856699751 
1509	 0.510219857345507 
1510	 0.511231546818055 
1511	 0.512151777893035 
1512	 0.513002207134604 
1513	 0.513822132114106 
1514	 0.514569589631679 
1515	 0.515293194106774 
1516	 0.515974131982098 
1517	 0.516648391039713 
1518	 0.517271465702826 
1519	 0.51790656909468 
1520	 0.51853876757273 
1521	 0.519176631455764 
1522	 0.51980426075164 
1523	 0.520472340646131 
1524	 0.521119707096529 
1525	 0.521769714560647 
1526	 0.522431286764925 
1527	 0.523093157569754 
1528	 0.523757476950954 
1529	 0.524437166826562 
1530	 0.525104503669889 
1531	 0.525761501231365 
1532	 0.526432257842157 
1533	 0.527108171251374 
1534	 0.527787431933225 
1535	 0.528477367075302 
1536	 0.529149149033505 
1537	 0.529823147245025 
1538	 0.530478442582912 
1539	 0.531128016148321 
1540	 0.53174495630466 
1541	 0.532354574847717 
1542	 0.532915772571582 
1543	 0.533448728542387 
1544	 0.533930823880421 
1545	 0.534372598428566 
1546	 0.534775369634002 
1547	 0.535132100039807 
1548	 0.535452266575855 
1549	 0.535738295307167 
1550	 0.535977849397475 
1551	 0.536162034755136 
1552	 0.536331804020389 
1553	 0.536459331900273 
1554	 0.536576885712665 
1555	 0.536652573023311 
1556	 0.536758899896914 
1557	 0.536851031759732 
1558	 0.536967452461458 
1559	 0.537102783997447 
1560	 0.537250168041924 
1561	 0.537388965707286 
1562	 0.537580845214219 
1563	 0.537806736281206 
1564	 0.538054294673658 
1565	 0.538338100583822 
1566	 0.538641710408602 
1567	 0.538974315038064 
1568	 0.539313974505596 
1569	 0.539683768726812 
1570	 0.540051323341208 
1571	 0.540442132588802 
1572	 0.540802007182073 
1573	 0.54116053555687 
1574	 0.541503436786571 
1575	 0.541809456161319 
1576	 0.54213530457196 
1577	 0.542465569111087 
1578	 0.54279499545198 
1579	 0.543131245806201 
1580	 0.543458570345998 
1581	 0.543781475713604 
1582	 0.544103368991843 
1583	 0.544427147975612 
1584	 0.544738062139233 
1585	 0.545041538893033 
1586	 0.545341928698442 
1587	 0.5456212929167 
1588	 0.545917367407908 
1589	 0.5462160980965 
1590	 0.546525558944936 
1591	 0.546852118683852 
1592	 0.547171633462942 
1593	 0.547508294359141 
1594	 0.547819306509465 
1595	 0.548112278497469 
1596	 0.548405225416137 
1597	 0.548680584819311 
1598	 0.54896150359098 
1599	 0.549249653159063 
1600	 0.549527075518994 
1601	 0.549804331738857 
1602	 0.550066991874262 
1603	 0.55032799469421 
1604	 0.550563444764168 
1605	 0.550784696187588 
1606	 0.550982692099031 
1607	 0.551150789455406 
1608	 0.551311399701309 
1609	 0.551461036178914 
1610	 0.551587962253255 
1611	 0.551702081718601 
1612	 0.551790907174096 
1613	 0.55185140434167 
1614	 0.551897003541011 
1615	 0.551929014825827 
1616	 0.551932753569281 
1617	 0.551919805809957 
1618	 0.551871630766415 
1619	 0.55178056092537 
1620	 0.551683218480151 
1621	 0.55156322516435 
1622	 0.551426948527293 
1623	 0.551282681157862 
1624	 0.551108379247407 
1625	 0.55091344540289 
1626	 0.550687069004571 
1627	 0.550408935858452 
1628	 0.550150768966195 
1629	 0.549874581422799 
1630	 0.549601360782695 
1631	 0.549343813788535 
1632	 0.549072374404585 
1633	 0.548779324569716 
1634	 0.548501602453347 
1635	 0.548248813993462 
1636	 0.547958797904125 
1637	 0.547671991228201 
1638	 0.547347028663489 
1639	 0.546983527118278 
1640	 0.546600549109246 
1641	 0.546204811098165 
1642	 0.545763127280381 
1643	 0.545285139413023 
1644	 0.544782225704816 
1645	 0.544252251210991 
1646	 0.543675967784311 
1647	 0.543083867015459 
1648	 0.542409952358863 
1649	 0.541677408521982 
1650	 0.540880907507598 
1651	 0.540016885261354 
1652	 0.539101563186626 
1653	 0.538159034834492 
1654	 0.537095913952875 
1655	 0.535955595428941 
1656	 0.534704576946563 
1657	 0.533359229557401 
1658	 0.531870972516494 
1659	 0.530265264113584 
1660	 0.528562769210354 
1661	 0.526740170099517 
1662	 0.524786685953928 
1663	 0.522720255943277 
1664	 0.520510462803014 
1665	 0.518170789909684 
1666	 0.515653561531265 
1667	 0.512994907029531 
1668	 0.510217202777858 
1669	 0.507275828095742 
1670	 0.504196792721148 
1671	 0.50097264230852 
1672	 0.49761091231581 
1673	 0.494099791720479 
1674	 0.490440666357921 
1675	 0.486648863974326 
1676	 0.482791631784646 
1677	 0.478810383615792 
1678	 0.474698220872386 
1679	 0.470454136222022 
1680	 0.466102011648416 
1681	 0.461617871394181 
1682	 0.456977722322559 
1683	 0.452230386896631 
1684	 0.447436357990023 
1685	 0.442461016159163 
1686	 0.437490549049018 
1687	 0.432393534116723 
1688	 0.427392973220656 
1689	 0.422361238254517 
1690	 0.417373108189238 
1691	 0.412491938468154 
1692	 0.407679198701606 
1693	 0.402897621735558 
1694	 0.398122917113499 
1695	 0.39340533165863 
1696	 0.388640216151635 
1697	 0.383842314310325 
1698	 0.379020442554014 
1699	 0.374202939591093 
1700	 0.369530695184968 
1701	 0.36477366991723 
1702	 0.360342046157469 
1703	 0.356033002085473 
1704	 0.352017076875756 
1705	 0.348208308394086 
1706	 0.344616980923676 
1707	 0.341515696333869 
1708	 0.338620877078993 
1709	 0.335944210404921 
1710	 0.3335067423708 
1711	 0.331078968200431 
1712	 0.328815633282789 
1713	 0.326609662945475 
1714	 0.324451108105466 
1715	 0.322538396623493 
1716	 0.320644311186266 
1717	 0.318875284400222 
1718	 0.317254554344656 
1719	 0.31569014831543 
1720	 0.314352133343419 
1721	 0.313215897993989 
1722	 0.312314385639456 
1723	 0.311758325393496 
1724	 0.311497362352333 
1725	 0.31153798382101 
1726	 0.312008698091383 
1727	 0.312918172119768 
1728	 0.314184264476807 
1729	 0.315869580957143 
1730	 0.3179400478106 
1731	 0.320147652970782 
1732	 0.322600145705322 
1733	 0.325115771167932 
1734	 0.327633359609514 
1735	 0.330205158806429 
1736	 0.332568485225673 
1737	 0.3347777785325 
1738	 0.336720982367808 
1739	 0.338284752223041 
1740	 0.33956669871057 
1741	 0.340527398079793 
1742	 0.341097279172435 
1743	 0.341470373527616 
1744	 0.341506791775332 
1745	 0.341415798934088 
1746	 0.341023954866253 
1747	 0.340641481613544 
1748	 0.340091725846884 
1749	 0.339582259940637 
1750	 0.338981402830915 
1751	 0.338501141275438 
1752	 0.337998284551542 
1753	 0.337675872643454 
1754	 0.337429673568721 
1755	 0.337396308981098 
1756	 0.33748576395739 
1757	 0.337786011555869 
1758	 0.338357510721588 
1759	 0.339137814149117 
1760	 0.340222590883521 
1761	 0.341649603460442 
1762	 0.343271644449126 
1763	 0.345224192252042 
1764	 0.347395507035413 
1765	 0.349745017102302 
1766	 0.352370974384801 
1767	 0.354999720615548 
1768	 0.35773656261546 
1769	 0.360522910714145 
1770	 0.363095321841357 
1771	 0.36566693259008 
1772	 0.368105303696344 
1773	 0.370364190630359 
1774	 0.372650141739287 
1775	 0.37473242617681 
1776	 0.376684714546337 
1777	 0.378534085960896 
1778	 0.38012261550616 
1779	 0.381636780513507 
1780	 0.383015345163289 
1781	 0.384203742927197 
1782	 0.385337693988054 
1783	 0.386326530663015 
1784	 0.387218519307519 
1785	 0.387961164738539 
1786	 0.38862952322234 
1787	 0.389168470614874 
1788	 0.389687106975031 
1789	 0.390158217250225 
1790	 0.390572425823251 
1791	 0.39091086786708 
1792	 0.391233100279834 
1793	 0.391473852262308 
1794	 0.391750416727108 
1795	 0.392057783806763 
1796	 0.392355949890538 
1797	 0.392664205275291 
1798	 0.392967691113253 
1799	 0.393263612606864 
1800	 0.393589698035519 
1801	 0.393427358306285 
1802	 0.393812318907588 
1803	 0.394156719258912 
1804	 0.394474588827884 
1805	 0.394800174527086 
1806	 0.395116355070451 
1807	 0.395411485356592 
1808	 0.39571535285647 
1809	 0.396013879748433 
1810	 0.396334144596493 
1811	 0.396636188182094 
1812	 0.396979285451166 
1813	 0.397357862147279 
1814	 0.39775097954727 
1815	 0.398133297225642 
1816	 0.398558496358999 
1817	 0.39899483958921 
1818	 0.399440191349913 
1819	 0.399904818737702 
1820	 0.400395605042018 
1821	 0.400892972249337 
1822	 0.40139030775267 
1823	 0.401932924163474 
1824	 0.402473302028646 
1825	 0.403030534249629 
1826	 0.403568390064925 
1827	 0.404117983997298 
1828	 0.404621166987691 
1829	 0.405082497985071 
1830	 0.405575768112491 
1831	 0.406050504421815 
1832	 0.406557001284785 
1833	 0.407061847222302 
1834	 0.407576196201117 
1835	 0.408103362588223 
1836	 0.408600803392221 
1837	 0.409116717984942 
1838	 0.409648928879195 
1839	 0.410176866983385 
1840	 0.41068532498894 
1841	 0.411230827244323 
1842	 0.411799287272511 
1843	 0.412375653073756 
1844	 0.412959311990922 
1845	 0.413502080377264 
1846	 0.414009441843268 
1847	 0.414463439542207 
1848	 0.41488811009113 
1849	 0.415292765132894 
1850	 0.415640551580082 
1851	 0.415938570030535 
1852	 0.416215878018145 
1853	 0.416456435271421 
1854	 0.416626078956393 
1855	 0.416755307669452 
1856	 0.416824598909518 
1857	 0.416804741070558 
1858	 0.416728575962449 
1859	 0.416610285333457 
1860	 0.416450472585376 
1861	 0.416211108296832 
1862	 0.415918344555616 
1863	 0.415569480358385 
1864	 0.415123166906678 
1865	 0.414634207571615 
1866	 0.414067231829217 
1867	 0.413357179556122 
1868	 0.412612163685156 
1869	 0.411740071652279 
1870	 0.410757139827928 
1871	 0.409703622316234 
1872	 0.40854779367674 
1873	 0.40727579743316 
1874	 0.40591579470715 
1875	 0.404483686996861 
1876	 0.402799245723286 
1877	 0.401066118739989 
1878	 0.399157097470004 
1879	 0.397044013660736 
1880	 0.39493358171071 
1881	 0.392598623340328 
1882	 0.390067859014276 
1883	 0.387426306708536 
1884	 0.384591430643071 
1885	 0.381368796159501 
1886	 0.378069061764585 
1887	 0.374494261111144 
1888	 0.370643833973648 
1889	 0.366961476557121 
1890	 0.363048054795771 
1891	 0.359098107772032 
1892	 0.355220725702097 
1893	 0.35120973199831 
1894	 0.34700900192319 
1895	 0.343001598386439 
1896	 0.338953132855537 
1897	 0.334888093540363 
1898	 0.331190914107619 
1899	 0.327448586185638 
1900	 0.323817672224796 
1901	 0.320372607405381 
1902	 0.316780175534195 
1903	 0.313406890891058 
1904	 0.310145456330844 
1905	 0.306952887178192 
1906	 0.303873522011091 
1907	 0.301161823106381 
1908	 0.298443471513002 
1909	 0.295868664769101 
1910	 0.293495609092674 
1911	 0.291054385059285 
1912	 0.288794960204359 
1913	 0.286626404163949 
1914	 0.284487543728559 
1915	 0.282522134751462 
1916	 0.280741259283816 
1917	 0.278964643681069 
1918	 0.277272878851124 
1919	 0.27570158531186 
1920	 0.274105264423201 
1921	 0.272634552843128 
1922	 0.271230430373844 
1923	 0.269854503966569 
1924	 0.268635011771039 
1925	 0.267455658619496 
1926	 0.266348924930862 
1927	 0.265343104643982 
1928	 0.264385949678066 
1929	 0.263470055363128 
1930	 0.262641832472035 
1931	 0.261890459560398 
1932	 0.261220020617868 
1933	 0.260677446357711 
1934	 0.260187416285051 
1935	 0.25978057716899 
1936	 0.259475144887303 
1937	 0.259214196145585 
1938	 0.259007549295 
1939	 0.258891033031575 
1940	 0.25885586171999 
1941	 0.258862671253642 
1942	 0.25895445395298 
1943	 0.259117674860887 
1944	 0.259300995400055 
1945	 0.259530245298168 
1946	 0.259825133705618 
1947	 0.260146353549873 
1948	 0.260531616881045 
1949	 0.260973454062888 
1950	 0.261407221911941 
1951	 0.261865815406296 
1952	 0.262335084522352 
1953	 0.262811374585594 
1954	 0.263295699811662 
1955	 0.26383626930742 
1956	 0.264373314697621 
1957	 0.264945335601289 
1958	 0.265556380758332 
1959	 0.266117263601497 
1960	 0.266692895770284 
1961	 0.267256019372201 
1962	 0.26778443202251 
1963	 0.268342871897819 
1964	 0.268914750642721 
1965	 0.269477332454602 
1966	 0.270055336943933 
1967	 0.270627146059816 
1968	 0.271146474373138 
1969	 0.271702659784046 
1970	 0.272235641080963 
1971	 0.272756225221812 
1972	 0.27331164327571 
1973	 0.2738450147057 
1974	 0.274379678433628 
1975	 0.274930469312617 
1976	 0.275440730774865 
1977	 0.275914967415815 
1978	 0.276419531265032 
1979	 0.276911641134091 
1980	 0.277403814892564 
1981	 0.277958579087688 
1982	 0.278489017367427 
1983	 0.279023781105349 
1984	 0.279584722427363 
1985	 0.28008149141861 
1986	 0.280584477962417 
1987	 0.281071988605308 
1988	 0.281529599037118 
1989	 0.28198655031623 
1990	 0.282450467545395 
1991	 0.282883068188204 
1992	 0.283300807880469 
1993	 0.283702303138608 
1994	 0.284056926181287 
1995	 0.284409299850025 
1996	 0.284745130389008 
1997	 0.28506590439974 
1998	 0.285386699893959 
1999	 0.285713018727775 
2000	 0.28601034602915 
2001	 0.286290901195557 
2002	 0.286563663945334 
2003	 0.286830268840696 
2004	 0.287070921159996 
2005	 0.287305373465472 
2006	 0.287503662417562 
2007	 0.287678856471449 
2008	 0.287816285827971 
2009	 0.287918391107302 
2010	 0.287996195644755 
2011	 0.288042017401209 
2012	 0.288043960044442 
2013	 0.287996284731106 
2014	 0.287923664287922 
2015	 0.28777523704217 
2016	 0.287565691299873 
2017	 0.287303506850811 
2018	 0.286992834037451 
2019	 0.286604567856176 
2020	 0.286156648745582 
2021	 0.285628368196905 
2022	 0.285044373938458 
2023	 0.284401504221442 
2024	 0.283676369445954 
2025	 0.282925743284326 
2026	 0.28213433653603 
2027	 0.281248236609102 
2028	 0.280411751946991 
2029	 0.279573959618241 
2030	 0.278711313505078 
2031	 0.277844756144494 
2032	 0.276972442753695 
2033	 0.276026632907775 
2034	 0.275172366975961 
2035	 0.274345148867928 
2036	 0.273539481409403 
2037	 0.272839434417995 
2038	 0.272177012403512 
2039	 0.271600605939535 
2040	 0.271093310455089 
2041	 0.270662082133875 
2042	 0.270291861450656 
2043	 0.270034536017733 
2044	 0.269859353585129 
2045	 0.269779399012656 
2046	 0.269837057892773 
2047	 0.269916119828463 
2048	 0.270076038290425 
2049	 0.270276745251482 
2050	 0.270547824917594 
2051	 0.270839288057477 
2052	 0.271157083665462 
2053	 0.271491919804623 
2054	 0.271829852935401 
2055	 0.27216015569695 
2056	 0.272528528054909 
2057	 0.272923493626696 
2058	 0.273332753829469 
2059	 0.273766855009118 
2060	 0.274203458874093 
2061	 0.274658122236616 
2062	 0.275119423321483 
2063	 0.27560654216711 
2064	 0.2760738937873 
2065	 0.276546904838178 
2066	 0.277004638349152 
2067	 0.277467250196558 
2068	 0.27789664149084 
2069	 0.27831917195626 
2070	 0.27875069696357 
2071	 0.279135338474871 
2072	 0.279483780854085 
2073	 0.279822030750364 
2074	 0.280129405239051 
2075	 0.280433366052282 
2076	 0.280731507718803 
2077	 0.281004350967091 
2078	 0.281281909269125 
2079	 0.281504186675566 
2080	 0.281680888088153 
2081	 0.281839523356893 
2082	 0.281951992463674 
2083	 0.282047817403735 
2084	 0.28215668887273 
2085	 0.282245302661098 
2086	 0.282315311692318 
2087	 0.282378165868929 
2088	 0.282416148332447 
2089	 0.282433534633935 
2090	 0.282426067902933 
2091	 0.282394746392859 
2092	 0.282349987253071 
2093	 0.282279300311574 
2094	 0.282194395560253 
2095	 0.282099025538235 
2096	 0.281984159313492 
2097	 0.281861756840656 
2098	 0.281691127063895 
2099	 0.281519891902521 
2100	 0.281327999399824 
2101	 0.281083803723252 
2102	 0.280799422433041 
2103	 0.280499765545518 
2104	 0.280150263875233 
2105	 0.279805114061863 
2106	 0.279458855075808 
2107	 0.279073685729431 
2108	 0.278673419278425 
2109	 0.278231169292785 
2110	 0.27774994332351 
2111	 0.277245937541317 
2112	 0.276690136836373 
2113	 0.27613927127917 
2114	 0.275550707182377 
2115	 0.274983627111752 
2116	 0.27442348971175 
2117	 0.273869808403491 
2118	 0.273300941700065 
2119	 0.27273280653749 
2120	 0.272169209457931 
2121	 0.271577640694967 
2122	 0.271036303197773 
2123	 0.270522705092228 
2124	 0.270018640711216 
2125	 0.269540761273563 
2126	 0.269063961017109 
2127	 0.268589368956787 
2128	 0.268140894237698 
2129	 0.267712886115811 
2130	 0.267291567449539 
2131	 0.266907537661098 
2132	 0.266501406784641 
2133	 0.26609682460474 
2134	 0.26568175269726 
2135	 0.265251068460397 
2136	 0.264818978157254 
2137	 0.26436842859589 
2138	 0.263906155138383 
2139	 0.263427980395144 
2140	 0.262920903393859 
2141	 0.262437409150749 
2142	 0.261929133281637 
2143	 0.261472380818935 
2144	 0.261028603337637 
2145	 0.260633974425786 
2146	 0.260276416983036 
2147	 0.259950754345749 
2148	 0.259689671909792 
2149	 0.259411205354904 
2150	 0.259154652127042 
2151	 0.258898099372053 
2152	 0.258640825304162 
2153	 0.258397453330427 
2154	 0.25814181986671 
2155	 0.257881807048735 
2156	 0.257610229260492 
2157	 0.25732866431333 
2158	 0.257023956101099 
2159	 0.256718144204682 
2160	 0.256375479996296 
2161	 0.255986655296917 
2162	 0.255617397838831 
2163	 0.255220299353317 
2164	 0.25485429888347 
2165	 0.254479156660995 
2166	 0.254159063882748 
2167	 0.253878473982723 
2168	 0.253603129641304 
2169	 0.253330907868781 
2170	 0.25312787605158 
2171	 0.252949557649939 
2172	 0.252816026304262 
2173	 0.252769151520273 
2174	 0.252729328988654 
2175	 0.252684809814611 
2176	 0.252675940269643 
2177	 0.252686032568719 
2178	 0.252709416300591 
2179	 0.252781093429054 
2180	 0.252884437978885 
2181	 0.253019358901706 
2182	 0.253207003666413 
2183	 0.253387657623311 
2184	 0.253592853892398 
2185	 0.253805521521951 
2186	 0.254036740282511 
2187	 0.254258647540583 
2188	 0.25449690262976 
2189	 0.254722165300932 
2190	 0.254933012062204 
2191	 0.255153134812777 
2192	 0.25537587999844 
2193	 0.255597967195701 
2194	 0.255834393589099 
2195	 0.256049436889721 
2196	 0.256264680416683 
2197	 0.256462782606185 
2198	 0.256628295318594 
2199	 0.256757573199001 
2200	 0.256862004055542 
2201	 0.256925961208063 
2202	 0.256991750414474 
2203	 0.257053896768811 
2204	 0.257055040842594 
2205	 0.257031518889615 
2206	 0.256966866680092 
2207	 0.256819622283266 
2208	 0.256712169103815 
2209	 0.256592837748393 
2210	 0.256480728761091 
2211	 0.256384414295637 
2212	 0.25626441396693 
2213	 0.256124628571802 
2214	 0.255996870858453 
2215	 0.255875513645856 
2216	 0.255734307606 
2217	 0.255629113450273 
2218	 0.255449853854682 
2219	 0.255250869506319 
2220	 0.254973277387352 
2221	 0.254641194199424 
2222	 0.254229172186463 
2223	 0.253773268874832 
2224	 0.253242607330885 
2225	 0.252686590910375 
2226	 0.252065988360481 
2227	 0.251315271262245 
2228	 0.25048042518156 
2229	 0.249552402140815 
2230	 0.248477528977464 
2231	 0.2473867704052 
2232	 0.246260365090167 
2233	 0.244998030766005 
2234	 0.243697830044951 
2235	 0.242189977670625 
2236	 0.240517991194871 
2237	 0.238747435518013 
2238	 0.236760977595633 
2239	 0.234781551388463 
2240	 0.232750277288785 
2241	 0.230599823750517 
2242	 0.228435718859266 
2243	 0.226070394867726 
2244	 0.223484202587423 
2245	 0.220901888610126 
2246	 0.218105238614106 
2247	 0.215396339137005 
2248	 0.212726347746632 
2249	 0.210007760467888 
2250	 0.207270469520037 
2251	 0.204579508614962 
2252	 0.201698000055191 
2253	 0.19891456507265 
2254	 0.196086599724879 
2255	 0.193243279991435 
2256	 0.190671343236946 
2257	 0.188061736880808 
2258	 0.185591020229001 
2259	 0.183319000135242 
2260	 0.180929263503157 
2261	 0.178514997911978 
2262	 0.176229166673572 
2263	 0.173910085409301 
2264	 0.171769838319964 
2265	 0.169839544303166 
2266	 0.167820003165725 
2267	 0.165916394714946 
2268	 0.163881570639039 
2269	 0.161786726509656 
2270	 0.159691806587772 
2271	 0.157497734739913 
2272	 0.155366670845291 
2273	 0.153287865602934 
2274	 0.151133948492687 
2275	 0.149011830187285 
2276	 0.14680229025336 
2277	 0.144415630136255 
2278	 0.142186794658569 
2279	 0.139860891181081 
2280	 0.137765381130157 
2281	 0.135850123095293 
2282	 0.134021436294949 
2283	 0.132305973254601 
2284	 0.130780886646426 
2285	 0.129277113944513 
2286	 0.12799024719585 
2287	 0.126843606420713 
2288	 0.125794989922321 
2289	 0.124922868230566 
2290	 0.124104609291198 
2291	 0.123359282569275 
2292	 0.122684492790304 
2293	 0.122016910085425 
2294	 0.121385264043407 
2295	 0.120778598420839 
2296	 0.120169427694135 
2297	 0.119641444488955 
2298	 0.119157798140264 
2299	 0.118728500027534 
2300	 0.118330277128921 
2301	 0.118082133042008 
2302	 0.117886862496748 
2303	 0.117865823598973 
2304	 0.118001630142886 
2305	 0.118256509209485 
2306	 0.118627474198017 
2307	 0.119181082652198 
2308	 0.119896879976636 
2309	 0.120760073050324 
2310	 0.121832385361136 
2311	 0.122962829248122 
2312	 0.124332137209529 
2313	 0.125587504884023 
2314	 0.126933442347419 
2315	 0.128173893973286 
2316	 0.129373477869408 
2317	 0.130465605960824 
2318	 0.13156584751241 
2319	 0.132421744973413 
2320	 0.133138398362113 
2321	 0.133672945249004 
2322	 0.133970427213981 
2323	 0.134167404101263 
2324	 0.134226399471176 
2325	 0.13411453532035 
2326	 0.13382865311231 
2327	 0.133428512754506 
2328	 0.132848924504257 
2329	 0.132135978255584 
2330	 0.131328708171629 
2331	 0.130290946635196 
2332	 0.12907676765801 
2333	 0.12776226824298 
2334	 0.126164342145085 
2335	 0.124468615455763 
2336	 0.122680238343562 
2337	 0.120742678957169 
2338	 0.118887583918498 
2339	 0.117035528895548 
2340	 0.115297397274005 
2341	 0.113688162986167 
2342	 0.112129126400194 
2343	 0.110800331732424 
2344	 0.109642828998714 
2345	 0.108760972474734 
2346	 0.108195802992683 
2347	 0.107964343941259 
2348	 0.107997585668797 
2349	 0.108216021849721 
2350	 0.108558562138202 
2351	 0.108924320782459 
2352	 0.109362012020681 
2353	 0.109829520563204 
2354	 0.110406928525484 
2355	 0.111149476304274 
2356	 0.111981760762864 
2357	 0.113043702997715 
2358	 0.114370274196282 
2359	 0.115817330883001 
2360	 0.117303878971692 
2361	 0.118838573135938 
2362	 0.1202600311645 
2363	 0.121662853900025 
2364	 0.123061115521382 
2365	 0.124241922563765 
2366	 0.125353492714992 
2367	 0.126276894740947 
2368	 0.127059731999041 
2369	 0.127806281373799 
2370	 0.128352105738671 
2371	 0.128807158587975 
2372	 0.129176303339088 
2373	 0.129437044311182 
2374	 0.129708780986564 
2375	 0.129970773208727 
2376	 0.130195269002503 
2377	 0.130362729406381 
2378	 0.130484296024923 
2379	 0.130569523875064 
2380	 0.130647851051363 
2381	 0.130758845216735 
2382	 0.130861191285622 
2383	 0.130939594684515 
2384	 0.131111813061447 
2385	 0.131321077623165 
2386	 0.131526719015082 
2387	 0.131846406353082 
2388	 0.132060657276118 
2389	 0.132210304034273 
2390	 0.132370808760247 
2391	 0.132464783515165 
2392	 0.132608724701228 
2393	 0.132810141868131 
2394	 0.132929721430665 
2395	 0.133047762307855 
2396	 0.133153190926446 
2397	 0.133173974576141 
2398	 0.133259109604781 
2399	 0.133352324979859 
2400	 0.133471640375238 
2401	 0.133638756685599 
2402	 0.13364264925562 
2403	 0.133802466103821 
2404	 0.133872227353324 
2405	 0.133893645955175 
2406	 0.134061569043936 
2407	 0.134230103525085 
2408	 0.134357280319931 
2409	 0.134423990399605 
2410	 0.13451843938753 
2411	 0.13465098422908 
2412	 0.134696322984082 
2413	 0.134738211225962 
2414	 0.134839409826049 
2415	 0.134863828161218 
2416	 0.134904580442455 
2417	 0.134999118084143 
2418	 0.134989877639711 
2419	 0.13497569409007 
2420	 0.135033357957073 
2421	 0.135120080694865 
2422	 0.13524981960649 
2423	 0.135326080487949 
2424	 0.135293107291375 
2425	 0.135301118596867 
2426	 0.135346635195031 
2427	 0.135347342891937 
2428	 0.135357547381105 
2429	 0.135388832659839 
2430	 0.135322483695347 
2431	 0.135238995370792 
2432	 0.135244752663002 
2433	 0.135192841587309 
2434	 0.135207028201025 
2435	 0.135257388661045 
2436	 0.135100723871246 
2437	 0.134904115653397 
2438	 0.134788774956633 
2439	 0.134614042871139 
2440	 0.134485567177243 
2441	 0.134493957641466 
2442	 0.134350690529401 
2443	 0.134098513819005 
2444	 0.13396507444818 
2445	 0.133790453803749 
2446	 0.133438062571504 
2447	 0.133198806358854 
2448	 0.133022756503055 
2449	 0.132700206934157 
2450	 0.13251403435828 
2451	 0.132319149093181 
2452	 0.131966727512678 
2453	 0.131624794343633 
2454	 0.131316342129812 
2455	 0.131022574128739 
2456	 0.130727434388027 
2457	 0.130488373077786 
2458	 0.130232476277796 
2459	 0.129965190831641 
2460	 0.129814234174186 
2461	 0.129768476898507 
2462	 0.129690326654092 
2463	 0.129493954835021 
2464	 0.129278389032562 
2465	 0.129107113012184 
2466	 0.129091145078763 
2467	 0.129122508959277 
2468	 0.12900484927378 
2469	 0.128747906655122 
2470	 0.128337041431594 
2471	 0.12807344705396 
2472	 0.128072032331265 
2473	 0.12807393538461 
2474	 0.127967679853339 
2475	 0.127818472480681 
2476	 0.127704058590782 
2477	 0.127597978250821 
2478	 0.127579771683847 
2479	 0.127645173228398 
2480	 0.127838921739948 
2481	 0.127845174134651 
2482	 0.127932953024096 
2483	 0.127918851254207 
2484	 0.127660784015504 
2485	 0.127549975185602 
2486	 0.127330435418129 
2487	 0.127048292174357 
2488	 0.12703508100456 
2489	 0.127185474224984 
2490	 0.127281081852992 
2491	 0.127244773776972 
2492	 0.127399336337447 
2493	 0.127570429464043 
2494	 0.127716765106115 
2495	 0.128154240349968 
2496	 0.128175731538789 
2497	 0.127928908695155 
2498	 0.127939833996915 
2499	 0.127976503888513 
2500	 0.128158202827911 
