Wavelength	spectrum00015.asd
350	 4.44230196949826E-02 
351	 4.27180790460204E-02 
352	 4.20670206212334E-02 
353	 4.25033118695013E-02 
354	 4.26460647756272E-02 
355	 4.10949519555731E-02 
356	 0.039203852985447 
357	 3.80831134072513E-02 
358	 3.59914588152257E-02 
359	 0.034725165787207 
360	 3.48120235709506E-02 
361	 3.57977232751377E-02 
362	 3.58305443297957E-02 
363	 3.51280400034937E-02 
364	 0.034086566060295 
365	 3.29763492194315E-02 
366	 3.35846904111529E-02 
367	 0.033521744909615 
368	 3.14426456156505E-02 
369	 3.27978304707326E-02 
370	 3.37529020617217E-02 
371	 3.33149231568827E-02 
372	 3.23746382216387E-02 
373	 3.23414807330958E-02 
374	 0.032396507831735 
375	 3.22620288211854E-02 
376	 0.032811867697657 
377	 3.32752866103216E-02 
378	 3.30867841740292E-02 
379	 3.21109560537292E-02 
380	 3.11614823235022E-02 
381	 3.17300891178304E-02 
382	 3.27717221287043E-02 
383	 3.20841220549394E-02 
384	 3.22852757125945E-02 
385	 0.032518561416182 
386	 3.22674314445888E-02 
387	 3.21411918795969E-02 
388	 3.16488827536014E-02 
389	 3.16706295205858E-02 
390	 3.27315244898578E-02 
391	 3.28248646808895E-02 
392	 0.032795633072758 
393	 3.29772581715569E-02 
394	 3.32979342678465E-02 
395	 3.35696019819908E-02 
396	 3.43060543621112E-02 
397	 3.53234704063015E-02 
398	 3.51428883566689E-02 
399	 3.48993014932979E-02 
400	 3.52163947148695E-02 
401	 3.61279265722015E-02 
402	 3.59403624990835E-02 
403	 3.62278413670447E-02 
404	 3.70496399241711E-02 
405	 3.73376643665854E-02 
406	 3.79828109482143E-02 
407	 3.86307395614319E-02 
408	 3.91042608843016E-02 
409	 3.99647844326973E-02 
410	 4.03039106064297E-02 
411	 4.06378733965438E-02 
412	 4.17106124567494E-02 
413	 4.30043401722405E-02 
414	 4.37305392902827E-02 
415	 4.41571207164605E-02 
416	 4.54096594311052E-02 
417	 4.62870515302353E-02 
418	 4.70655597355532E-02 
419	 4.81094588806062E-02 
420	 4.94299862385894E-02 
421	 5.04113485682739E-02 
422	 0.051354168795312 
423	 5.27576059062465E-02 
424	 5.36957424423386E-02 
425	 5.45599763603612E-02 
426	 5.56367040025012E-02 
427	 5.69672964980162E-02 
428	 5.80538207220871E-02 
429	 0.05923981099074 
430	 6.07247571869506E-02 
431	 6.16365346028005E-02 
432	 6.29229484162315E-02 
433	 6.44304565754971E-02 
434	 6.54926524641368E-02 
435	 6.69278779669512E-02 
436	 6.83254391734337E-02 
437	 6.94574488995272E-02 
438	 7.05745273090351E-02 
439	 7.17870459310475E-02 
440	 7.30927245437824E-02 
441	 7.44119479429049E-02 
442	 7.55326463355914E-02 
443	 7.68150771184104E-02 
444	 7.81565396470878E-02 
445	 7.91252822241365E-02 
446	 8.03572630561713E-02 
447	 8.15929907906219E-02 
448	 8.26418833430114E-02 
449	 8.37810068370004E-02 
450	 8.49640010048573E-02 
451	 8.61432142574809E-02 
452	 8.72721333579738E-02 
453	 8.83881797554447E-02 
454	 8.93957559595722E-02 
455	 9.02988445254615E-02 
456	 9.12242142981596E-02 
457	 9.23358116259494E-02 
458	 9.33172331199363E-02 
459	 0.093994570774675 
460	 9.49563658557335E-02 
461	 0.095743103395526 
462	 9.63673647937758E-02 
463	 9.70826068387452E-02 
464	 9.77463911147482E-02 
465	 9.83303318591235E-02 
466	 9.88399148965153E-02 
467	 9.93174541554028E-02 
468	 9.96741047407305E-02 
469	 9.99854662507682E-02 
470	 0.100320915239726 
471	 0.100516910439862 
472	 0.10059232087044 
473	 0.100643187980924 
474	 0.10079867213666 
475	 0.100792695034665 
476	 0.100749257025853 
477	 0.100733960018556 
478	 0.100533151006765 
479	 0.100279744894502 
480	 0.100083152739154 
481	 9.99746467723604E-02 
482	 9.95617649495723E-02 
483	 0.099164296842905 
484	 9.88931392389467E-02 
485	 9.85626068149766E-02 
486	 9.81650096472276E-02 
487	 9.77841303327046E-02 
488	 9.74514337904131E-02 
489	 0.096949421930133 
490	 0.096490868432415 
491	 9.61131378035421E-02 
492	 9.57458524214433E-02 
493	 9.53995875338463E-02 
494	 9.50102364207518E-02 
495	 9.45902246407202E-02 
496	 9.42950496205864E-02 
497	 9.39522996867053E-02 
498	 0.09360499785119 
499	 9.33107347980519E-02 
500	 9.28782647297387E-02 
501	 9.23793573443079E-02 
502	 9.18793076451869E-02 
503	 9.14182032096966E-02 
504	 0.090872738622336 
505	 9.02373684774624E-02 
506	 8.95610936700281E-02 
507	 8.89700759996048E-02 
508	 8.83399518415256E-02 
509	 8.76622058605826E-02 
510	 8.69856184563527E-02 
511	 8.63550376017971E-02 
512	 8.57435142155466E-02 
513	 0.085157434979491 
514	 8.46577458926648E-02 
515	 8.39812938889518E-02 
516	 8.32650377958139E-02 
517	 8.26642564105738E-02 
518	 8.20125205925548E-02 
519	 8.13054132015664E-02 
520	 8.05757415031648E-02 
521	 7.98786699721246E-02 
522	 7.92298683591836E-02 
523	 7.85073201906337E-02 
524	 7.77045408530296E-02 
525	 7.70885152342645E-02 
526	 7.63989594809273E-02 
527	 7.57197761547636E-02 
528	 0.075199574423628 
529	 7.46307057822788E-02 
530	 0.074060534091446 
531	 7.35538911674619E-02 
532	 7.31732827552834E-02 
533	 7.28027875338859E-02 
534	 7.24522728102566E-02 
535	 7.21554580629025E-02 
536	 7.19227060384422E-02 
537	 7.17686399913265E-02 
538	 7.16759669578488E-02 
539	 7.16085419681021E-02 
540	 7.15357906473705E-02 
541	 7.15496659487547E-02 
542	 7.16697347368975E-02 
543	 7.17760592690404E-02 
544	 7.19611318893484E-02 
545	 7.22182297836322E-02 
546	 7.25287861590132E-02 
547	 7.29655600762967E-02 
548	 7.34578671083545E-02 
549	 7.39861676443157E-02 
550	 0.074579980633594 
551	 7.52101314081132E-02 
552	 7.58545578949314E-02 
553	 0.076495406649425 
554	 7.71197826191247E-02 
555	 7.77139578597432E-02 
556	 7.82969229841212E-02 
557	 7.88831914944932E-02 
558	 0.079339193099503 
559	 7.97370510364386E-02 
560	 8.00834835567619E-02 
561	 8.02685426977906E-02 
562	 8.03129268350218E-02 
563	 8.02740705209343E-02 
564	 8.01975421879348E-02 
565	 8.00355518891623E-02 
566	 7.97921857917061E-02 
567	 7.94823851079337E-02 
568	 0.079129085532905 
569	 0.078754165608325 
570	 7.83117060739553E-02 
571	 7.77784060148413E-02 
572	 0.077207234637746 
573	 7.65308672755903E-02 
574	 7.57389154511433E-02 
575	 7.48506043539367E-02 
576	 7.39108899612616E-02 
577	 7.29248652934259E-02 
578	 7.19124068565248E-02 
579	 7.09160404877357E-02 
580	 7.00142829166337E-02 
581	 6.91230069994403E-02 
582	 6.81736410125403E-02 
583	 6.72712542906724E-02 
584	 6.64223228313848E-02 
585	 6.56127528136356E-02 
586	 6.48300798015052E-02 
587	 6.42191927961633E-02 
588	 6.37555332740646E-02 
589	 6.33927778725552E-02 
590	 6.30906163381975E-02 
591	 6.28157759549246E-02 
592	 6.26193880961413E-02 
593	 0.062550624896527 
594	 6.25273937410724E-02 
595	 6.25081901411864E-02 
596	 6.24996630636006E-02 
597	 6.25479094840595E-02 
598	 6.26341941180524E-02 
599	 6.27678135138989E-02 
600	 6.29370697963705E-02 
601	 6.30646950098841E-02 
602	 6.32377742868205E-02 
603	 6.34164820506952E-02 
604	 6.35262829568431E-02 
605	 6.36563600903886E-02 
606	 6.38272607331776E-02 
607	 6.40194138263199E-02 
608	 0.064172488019862 
609	 6.43036676330912E-02 
610	 6.44376467992718E-02 
611	 6.45874991389582E-02 
612	 6.47182907251198E-02 
613	 6.48324672880894E-02 
614	 6.49436890752122E-02 
615	 6.50671336413165E-02 
616	 6.51472563839308E-02 
617	 6.52388015013281E-02 
618	 6.53553575810899E-02 
619	 6.54130560684026E-02 
620	 6.54370202510364E-02 
621	 6.54656601369221E-02 
622	 6.55180830703943E-02 
623	 6.54929211614477E-02 
624	 6.54456827755904E-02 
625	 6.53883486916188E-02 
626	 6.52888659808748E-02 
627	 6.51972658584868E-02 
628	 0.065098061556044 
629	 6.49647168376052E-02 
630	 0.064770295218207 
631	 6.45758754051481E-02 
632	 6.44126060453431E-02 
633	 6.42827156543618E-02 
634	 6.41036531523229E-02 
635	 6.39169168627932E-02 
636	 6.37593290005843E-02 
637	 6.36473564559481E-02 
638	 6.35156396053889E-02 
639	 6.33940305800698E-02 
640	 6.33168351146709E-02 
641	 0.063246023492719 
642	 6.32284745520544E-02 
643	 6.32571498598244E-02 
644	 6.32958561728954E-02 
645	 0.063381192184879 
646	 6.34834800882939E-02 
647	 6.36025532335271E-02 
648	 6.37996295578165E-02 
649	 6.40235057528004E-02 
650	 6.42810338204812E-02 
651	 6.45897652130494E-02 
652	 6.49345122777901E-02 
653	 6.53260514322773E-02 
654	 6.57668698039209E-02 
655	 6.62549634542634E-02 
656	 6.68360810035715E-02 
657	 6.74751925022707E-02 
658	 6.81395062966115E-02 
659	 6.88241144188963E-02 
660	 0.069609585862857 
661	 7.04794074338008E-02 
662	 7.13943874568287E-02 
663	 0.072424739574227 
664	 7.35026611450083E-02 
665	 7.46331158824971E-02 
666	 7.58963582251011E-02 
667	 7.72264297235463E-02 
668	 7.86440034595276E-02 
669	 0.080178212359729 
670	 8.18451034737171E-02 
671	 8.36030558772984E-02 
672	 8.54480587132361E-02 
673	 8.74068878535946E-02 
674	 8.95573153009794E-02 
675	 9.18221697163885E-02 
676	 9.41893377996291E-02 
677	 9.67397880138098E-02 
678	 9.93816698117223E-02 
679	 0.102149524223319 
680	 0.105094389406539 
681	 0.108227562392588 
682	 0.111470606144666 
683	 0.114809539242794 
684	 0.118276663607523 
685	 0.121916650979272 
686	 0.125688161335773 
687	 0.129563948309818 
688	 0.133553019929316 
689	 0.137603556751015 
690	 0.14173871193536 
691	 0.145979961928834 
692	 0.150256228105401 
693	 0.154575154950689 
694	 0.158931428605674 
695	 0.163299099162415 
696	 0.167649034014056 
697	 0.171971550950064 
698	 0.17625875498041 
699	 0.180502279537221 
700	 0.184720846736643 
701	 0.188883483112485 
702	 0.192954904181973 
703	 0.196941752006063 
704	 0.200785711405064 
705	 0.204502170252551 
706	 0.20815234505244 
707	 0.211719228175582 
708	 0.215134327473094 
709	 0.218366671493537 
710	 0.221452439915458 
711	 0.22442930926755 
712	 0.227315706950657 
713	 0.230097547566758 
714	 0.232684030476721 
715	 0.235135678598835 
716	 0.237473389378882 
717	 0.239686635022861 
718	 0.241817058779439 
719	 0.243817596092319 
720	 0.245678188661661 
721	 0.247471748521189 
722	 0.249110627370821 
723	 0.250636399842919 
724	 0.252115067635279 
725	 0.253557266579279 
726	 0.254877763585191 
727	 0.256056488968544 
728	 0.25713258615758 
729	 0.258198192974573 
730	 0.259229430236503 
731	 0.260188203928832 
732	 0.261043112229994 
733	 0.261844245551864 
734	 0.262584381130565 
735	 0.263270787497011 
736	 0.264039867757575 
737	 0.264676060191228 
738	 0.265205054381283 
739	 0.265792504495016 
740	 0.266258312209372 
741	 0.266721578062842 
742	 0.267235533240034 
743	 0.267704935693844 
744	 0.268154229883465 
745	 0.26856322452655 
746	 0.268909898241054 
747	 0.269189005153492 
748	 0.269506084826818 
749	 0.269842326780416 
750	 0.270115397299553 
751	 0.270386408545117 
752	 0.27059250478447 
753	 0.270771488290603 
754	 0.271098202679888 
755	 0.271386200517798 
756	 0.271598424458333 
757	 0.271758625270147 
758	 0.271950445792636 
759	 0.27212489629076 
760	 0.272287789795294 
761	 0.272471864187026 
762	 0.272721834963197 
763	 0.272864255024423 
764	 0.272916714596929 
765	 0.273104091903879 
766	 0.273270451547468 
767	 0.273442311328196 
768	 0.273633496382969 
769	 0.273747422796363 
770	 0.273865968401967 
771	 0.27399817464456 
772	 0.274125246021733 
773	 0.274225829253368 
774	 0.274368954721693 
775	 0.2745399934055 
776	 0.274659751273371 
777	 0.274770058093403 
778	 0.274898562838035 
779	 0.275029175643528 
780	 0.275073644903153 
781	 0.275179587605029 
782	 0.275334241698617 
783	 0.275479032400907 
784	 0.275576081407615 
785	 0.275668559310935 
786	 0.275762197502895 
787	 0.2758426016682 
788	 0.275923248911851 
789	 0.276014259996172 
790	 0.276100056489066 
791	 0.276140623705902 
792	 0.276249109797742 
793	 0.276353097696466 
794	 0.27640399297664 
795	 0.276510379796266 
796	 0.27658871735739 
797	 0.276662023125993 
798	 0.276763107359038 
799	 0.276773217433698 
800	 0.276802744366205 
801	 0.2768932651958 
802	 0.277013411134483 
803	 0.277053865406488 
804	 0.277133876945719 
805	 0.277275315339644 
806	 0.277311492651331 
807	 0.277355399914015 
808	 0.27739776642902 
809	 0.277431694179805 
810	 0.277552779989657 
811	 0.277631476561231 
812	 0.277671955668049 
813	 0.27773612169433 
814	 0.277825657325614 
815	 0.27792210685777 
816	 0.277996309903263 
817	 0.278020285547534 
818	 0.278063704692398 
819	 0.278127709805561 
820	 0.278198303198985 
821	 0.278255379046887 
822	 0.278378283312588 
823	 0.278490652587592 
824	 0.278526409417959 
825	 0.278578860093757 
826	 0.278687668682206 
827	 0.278790610242103 
828	 0.278804409670329 
829	 0.27882744044581 
830	 0.278880801415459 
831	 0.278955562235392 
832	 0.279020989778881 
833	 0.279075521760751 
834	 0.279118833843797 
835	 0.279156550780956 
836	 0.279201255906835 
837	 0.279258284103981 
838	 0.279309385592619 
839	 0.279351906789151 
840	 0.279448874604044 
841	 0.279513760894746 
842	 0.279546225593119 
843	 0.279578691622095 
844	 0.279602108599199 
845	 0.279672203668044 
846	 0.279753636065132 
847	 0.27975918221762 
848	 0.279786260172921 
849	 0.279783365549256 
850	 0.279771840140569 
851	 0.279873193795846 
852	 0.279921761463165 
853	 0.279960578855132 
854	 0.280014941187414 
855	 0.279972362979923 
856	 0.280013179573953 
857	 0.280110468584347 
858	 0.280180022295272 
859	 0.280199506864554 
860	 0.280194556199622 
861	 0.280206080160511 
862	 0.280259292181981 
863	 0.280254391626154 
864	 0.280216775866421 
865	 0.280222760252946 
866	 0.280351958533992 
867	 0.280350776367193 
868	 0.280354061151072 
869	 0.280418300548967 
870	 0.280421436188468 
871	 0.280451491964575 
872	 0.280430323203791 
873	 0.280344683987986 
874	 0.280394619172405 
875	 0.28050125636993 
876	 0.280556717173807 
877	 0.280510757355006 
878	 0.280551745878307 
879	 0.280560557791331 
880	 0.280529650695484 
881	 0.280501009131155 
882	 0.280450305524436 
883	 0.28044357727823 
884	 0.28046737092272 
885	 0.280454066623191 
886	 0.28046017844416 
887	 0.280452107885175 
888	 0.280409116786736 
889	 0.280340417302116 
890	 0.280314476878575 
891	 0.280218447432068 
892	 0.280040743012193 
893	 0.279988897106029 
894	 0.279986784006722 
895	 0.279996183524248 
896	 0.279963986078017 
897	 0.279773157936692 
898	 0.279645716182068 
899	 0.27958666103331 
900	 0.279529590448744 
901	 0.279466540574876 
902	 0.279386140572906 
903	 0.279302477893188 
904	 0.279225903340431 
905	 0.27906325624614 
906	 0.278989008168224 
907	 0.278986818474907 
908	 0.278915795135637 
909	 0.27890080731938 
910	 0.278863534049804 
911	 0.278794907353104 
912	 0.278773498945476 
913	 0.278844507751317 
914	 0.278840497004917 
915	 0.278744220596025 
916	 0.278773772192295 
917	 0.278786750416198 
918	 0.278804825873546 
919	 0.278846836118442 
920	 0.278868476320079 
921	 0.278907474721648 
922	 0.27895517341381 
923	 0.279009665753495 
924	 0.279122544791402 
925	 0.279171402942373 
926	 0.279198581145133 
927	 0.279258340711973 
928	 0.279238099893603 
929	 0.279294127212019 
930	 0.279395835029214 
931	 0.279460559237217 
932	 0.279554901319222 
933	 0.279720338289949 
934	 0.27987441046273 
935	 0.279912614626695 
936	 0.279989609785542 
937	 0.280088963341673 
938	 0.280172915217506 
939	 0.280217971240349 
940	 0.280352929902684 
941	 0.280490661555948 
942	 0.280584125713571 
943	 0.280641618450268 
944	 0.28066221922442 
945	 0.280684465259827 
946	 0.280741785620206 
947	 0.280842309559147 
948	 0.280848586468066 
949	 0.28085563388394 
950	 0.280885187913923 
951	 0.280831240050998 
952	 0.280754466862268 
953	 0.280711008889616 
954	 0.280709710785132 
955	 0.280692987367752 
956	 0.280676406547204 
957	 0.280575850876931 
958	 0.280403391748657 
959	 0.280354063087516 
960	 0.280365388983964 
961	 0.280319116177179 
962	 0.280163287233873 
963	 0.280003653534525 
964	 0.279844181848511 
965	 0.279754247841691 
966	 0.279740830411868 
967	 0.279652387192186 
968	 0.279520535433528 
969	 0.279371212652168 
970	 0.279240765312565 
971	 0.279181257960848 
972	 0.279175024591096 
973	 0.279120051703553 
974	 0.278963203668277 
975	 0.278846775910143 
976	 0.278800038235454 
977	 0.278788656460989 
978	 0.278749317539712 
979	 0.278613404592798 
980	 0.27852535344675 
981	 0.278468310202722 
982	 0.278392721927475 
983	 0.278347987143921 
984	 0.278205463070305 
985	 0.278142540847809 
986	 0.278281945292837 
987	 0.278212332169686 
988	 0.278132459625486 
989	 0.278030095396312 
990	 0.277875746686144 
991	 0.277838527480728 
992	 0.277705489670108 
993	 0.277554922786446 
994	 0.277520233345922 
995	 0.277541996747193 
996	 0.277480257853245 
997	 0.277351553873907 
998	 0.277232121433977 
999	 0.277164447433141 
1000	 0.27706722793865 
1001	 0.278392327637289 
1002	 0.278387932436547 
1003	 0.278313533377067 
1004	 0.278227954378717 
1005	 0.278153837707908 
1006	 0.27807364519162 
1007	 0.277931482391698 
1008	 0.277844141436209 
1009	 0.277832430103432 
1010	 0.277738696502798 
1011	 0.277596967454141 
1012	 0.277483501944231 
1013	 0.277332661169472 
1014	 0.277220608560368 
1015	 0.277151918443827 
1016	 0.277073241351721 
1017	 0.276965605441301 
1018	 0.276835804606847 
1019	 0.276708985347187 
1020	 0.276581731477325 
1021	 0.276434718629294 
1022	 0.27628774998622 
1023	 0.276135837404111 
1024	 0.275962416969268 
1025	 0.275791996454534 
1026	 0.275636038187857 
1027	 0.275458813729753 
1028	 0.275258718395238 
1029	 0.27505872306519 
1030	 0.274883449363041 
1031	 0.274687271866117 
1032	 0.274524150163079 
1033	 0.2743609104701 
1034	 0.274118343573641 
1035	 0.273918203016179 
1036	 0.273722796073901 
1037	 0.273518366735553 
1038	 0.273295656794767 
1039	 0.27309114864919 
1040	 0.27286976733857 
1041	 0.272600913988828 
1042	 0.272378194748209 
1043	 0.272177154659254 
1044	 0.271997639512566 
1045	 0.271770535124071 
1046	 0.271536908599973 
1047	 0.271354556786099 
1048	 0.271141950522815 
1049	 0.270965005268059 
1050	 0.270814263777222 
1051	 0.270591591511443 
1052	 0.270374990653591 
1053	 0.2701973525061 
1054	 0.270055252228421 
1055	 0.269879051353331 
1056	 0.269719226052929 
1057	 0.269549139822709 
1058	 0.269361882393048 
1059	 0.269148008458981 
1060	 0.268948062507813 
1061	 0.268807221443155 
1062	 0.268641933895988 
1063	 0.26844097661464 
1064	 0.268264985740147 
1065	 0.268067579751005 
1066	 0.267865287914201 
1067	 0.267676573291882 
1068	 0.267486870049949 
1069	 0.267302655891574 
1070	 0.267111949570222 
1071	 0.266899160143889 
1072	 0.266720859273105 
1073	 0.266556846616566 
1074	 0.266347351971694 
1075	 0.266153574962393 
1076	 0.265947720195125 
1077	 0.265704124584513 
1078	 0.265487473982265 
1079	 0.265251061162155 
1080	 0.264990638604084 
1081	 0.264761788351488 
1082	 0.264516178473246 
1083	 0.264246444084476 
1084	 0.263962397016057 
1085	 0.263642417736107 
1086	 0.263346547785466 
1087	 0.263048239036241 
1088	 0.262760167267927 
1089	 0.262478008572382 
1090	 0.262220173028392 
1091	 0.261896486763273 
1092	 0.261537963895592 
1093	 0.261199752395252 
1094	 0.260821167089085 
1095	 0.260452099003183 
1096	 0.260078339938743 
1097	 0.259653969581661 
1098	 0.259252882815596 
1099	 0.258859127847642 
1100	 0.258463606996952 
1101	 0.258080280405732 
1102	 0.257638800577421 
1103	 0.257191793565807 
1104	 0.256720548294628 
1105	 0.256250120567704 
1106	 0.255742488759191 
1107	 0.25526988944833 
1108	 0.254791930998432 
1109	 0.25427036637516 
1110	 0.253745270669115 
1111	 0.253188789557502 
1112	 0.252631565494195 
1113	 0.252073961227104 
1114	 0.25151208155388 
1115	 0.250977594337819 
1116	 0.250408219920094 
1117	 0.249825501740777 
1118	 0.249236192401548 
1119	 0.248628220380329 
1120	 0.24802179730786 
1121	 0.24742621141152 
1122	 0.246789727692942 
1123	 0.246105373293067 
1124	 0.245451866286562 
1125	 0.244752670346177 
1126	 0.244050376968585 
1127	 0.243370479022755 
1128	 0.242623238642419 
1129	 0.241865892665202 
1130	 0.241077071095496 
1131	 0.240257364997279 
1132	 0.239483250464676 
1133	 0.238666710385977 
1134	 0.237837109192788 
1135	 0.236997113891974 
1136	 0.236134293663823 
1137	 0.23526062213202 
1138	 0.234387382004443 
1139	 0.233486822195167 
1140	 0.232547743000778 
1141	 0.231656171683661 
1142	 0.230742320223263 
1143	 0.229836547862153 
1144	 0.228952089333004 
1145	 0.228032890434166 
1146	 0.227134000711243 
1147	 0.226205221367639 
1148	 0.225279939376903 
1149	 0.224408255442649 
1150	 0.223500595325236 
1151	 0.222618430189929 
1152	 0.221716159869931 
1153	 0.22078577653985 
1154	 0.219875406099489 
1155	 0.218981934515117 
1156	 0.218059500149451 
1157	 0.217142867707838 
1158	 0.216227478512463 
1159	 0.215299853119536 
1160	 0.214354885240589 
1161	 0.213403876085167 
1162	 0.21240564102404 
1163	 0.211443724482391 
1164	 0.210459794813075 
1165	 0.209459545450895 
1166	 0.208536589249542 
1167	 0.207571335571624 
1168	 0.206602775459255 
1169	 0.205643030384077 
1170	 0.204702258801271 
1171	 0.203736180128106 
1172	 0.20275884929544 
1173	 0.201775093329592 
1174	 0.200771635787641 
1175	 0.199812688743754 
1176	 0.198866482831191 
1177	 0.1979202068299 
1178	 0.197010498830482 
1179	 0.19605582194939 
1180	 0.195133144148722 
1181	 0.194227706093073 
1182	 0.193340446869454 
1183	 0.192538248690066 
1184	 0.191723364087437 
1185	 0.190939580651342 
1186	 0.19018882552704 
1187	 0.189453054275461 
1188	 0.188773237030261 
1189	 0.188127186547602 
1190	 0.187527758048403 
1191	 0.186992843290885 
1192	 0.18647950138536 
1193	 0.186016101564768 
1194	 0.185551324437634 
1195	 0.185104056143514 
1196	 0.184670460299849 
1197	 0.18425655158533 
1198	 0.183839760211452 
1199	 0.183432564467068 
1200	 0.1830624653498 
1201	 0.182677836856405 
1202	 0.182308318850298 
1203	 0.181945678733723 
1204	 0.181586444947418 
1205	 0.181264048921595 
1206	 0.180949311294953 
1207	 0.180672423370489 
1208	 0.180431791030747 
1209	 0.18021619661826 
1210	 0.180017737928751 
1211	 0.179864657225874 
1212	 0.17974599880324 
1213	 0.179660820298682 
1214	 0.179614923816445 
1215	 0.1795933716093 
1216	 0.17961037714527 
1217	 0.179646773943393 
1218	 0.179705849461473 
1219	 0.179801407849967 
1220	 0.17991239759833 
1221	 0.180021965519523 
1222	 0.180134137499012 
1223	 0.180234337051493 
1224	 0.180312643188158 
1225	 0.180376257746716 
1226	 0.18042631084871 
1227	 0.180463986505999 
1228	 0.180476149596331 
1229	 0.18046728101673 
1230	 0.180449570369247 
1231	 0.18041337396983 
1232	 0.18035921433991 
1233	 0.180292972484166 
1234	 0.180213496137236 
1235	 0.180108651141678 
1236	 0.179998289942561 
1237	 0.179880694331471 
1238	 0.179750118034296 
1239	 0.17960643119314 
1240	 0.17945382330875 
1241	 0.179276720471384 
1242	 0.179104776568387 
1243	 0.178916987124281 
1244	 0.178708468668476 
1245	 0.17851072261091 
1246	 0.178310870667585 
1247	 0.178105787234548 
1248	 0.17790335983968 
1249	 0.177688833167667 
1250	 0.177467520877777 
1251	 0.177240502421678 
1252	 0.177001477028742 
1253	 0.176764115150903 
1254	 0.176520472021585 
1255	 0.176276422496528 
1256	 0.176019650529856 
1257	 0.175782031902046 
1258	 0.17556007822363 
1259	 0.175328233092324 
1260	 0.175104514017727 
1261	 0.174877779138763 
1262	 0.174645729894453 
1263	 0.174394763352272 
1264	 0.174176290874329 
1265	 0.173973994317603 
1266	 0.173764077408494 
1267	 0.173562471565077 
1268	 0.173366846301781 
1269	 0.173164757843328 
1270	 0.172983491176168 
1271	 0.172824487110728 
1272	 0.172657870431674 
1273	 0.172494825386213 
1274	 0.172337030701732 
1275	 0.172178841716613 
1276	 0.172032414935435 
1277	 0.171895223161006 
1278	 0.171763976327894 
1279	 0.171636146154487 
1280	 0.171522104201326 
1281	 0.171416882770302 
1282	 0.171322566724744 
1283	 0.171246502931103 
1284	 0.171172618168171 
1285	 0.171104991088865 
1286	 0.171043543987205 
1287	 0.170991542393608 
1288	 0.17094516859019 
1289	 0.170908424419324 
1290	 0.170887761007464 
1291	 0.170856476622987 
1292	 0.17082357843463 
1293	 0.17080078039959 
1294	 0.170773485179792 
1295	 0.170763101481155 
1296	 0.170772422379791 
1297	 0.170773732965038 
1298	 0.170776281375189 
1299	 0.170784922493157 
1300	 0.170795939019919 
1301	 0.170808578680828 
1302	 0.170826638090779 
1303	 0.170846773793329 
1304	 0.170870051850061 
1305	 0.170890746729418 
1306	 0.17091864658241 
1307	 0.170938656194132 
1308	 0.170954938181347 
1309	 0.170963263700933 
1310	 0.170973470231449 
1311	 0.170980182337962 
1312	 0.170987448528866 
1313	 0.170990501608617 
1314	 0.171003338814743 
1315	 0.171022609230438 
1316	 0.171032533820921 
1317	 0.17104326625637 
1318	 0.171054765536799 
1319	 0.171061835889772 
1320	 0.171067548402 
1321	 0.171077877992246 
1322	 0.171083180589521 
1323	 0.171081634412203 
1324	 0.171079364242485 
1325	 0.171082911711892 
1326	 0.171074550121943 
1327	 0.171061930815233 
1328	 0.171038678394652 
1329	 0.170999790709689 
1330	 0.170965431331792 
1331	 0.170929255421129 
1332	 0.170886509031352 
1333	 0.17084339983855 
1334	 0.170799410836064 
1335	 0.170738851893946 
1336	 0.170667219525222 
1337	 0.170587345808947 
1338	 0.170500350236359 
1339	 0.170400323938708 
1340	 0.170292322952113 
1341	 0.170168003981156 
1342	 0.170034023879269 
1343	 0.169878615919417 
1344	 0.169710904584442 
1345	 0.169520141815436 
1346	 0.169302759439301 
1347	 0.169084105925887 
1348	 0.168848671646167 
1349	 0.168607721025118 
1350	 0.168360052226932 
1351	 0.168104248793832 
1352	 0.167827708137628 
1353	 0.167562866558246 
1354	 0.167292218220671 
1355	 0.167033793917285 
1356	 0.166779161342307 
1357	 0.166536029834139 
1358	 0.166308170762414 
1359	 0.166076145270762 
1360	 0.165845941962879 
1361	 0.165629593242332 
1362	 0.165402314456153 
1363	 0.165168388052377 
1364	 0.164923132340361 
1365	 0.16467461776874 
1366	 0.164410719007812 
1367	 0.16413364697677 
1368	 0.163849712154691 
1369	 0.163557057673158 
1370	 0.163254381733857 
1371	 0.162940292792057 
1372	 0.162623469096799 
1373	 0.162294062469674 
1374	 0.161970900114611 
1375	 0.161641380722483 
1376	 0.161317462851722 
1377	 0.160992071562576 
1378	 0.160671965646566 
1379	 0.160360245545999 
1380	 0.16004110905718 
1381	 0.159723641904234 
1382	 0.159402502045501 
1383	 0.159072213361731 
1384	 0.158746283551538 
1385	 0.15841779590688 
1386	 0.158099262424626 
1387	 0.157778345711679 
1388	 0.157477062803962 
1389	 0.157189294603163 
1390	 0.156911447652116 
1391	 0.156660057297348 
1392	 0.156393544626167 
1393	 0.156149104589093 
1394	 0.1558885528414 
1395	 0.155606338834755 
1396	 0.155324451005409 
1397	 0.154996416366122 
1398	 0.154654118441475 
1399	 0.154242901726579 
1400	 0.153791922143214 
1401	 0.153290455058254 
1402	 0.152737735659896 
1403	 0.152132179697547 
1404	 0.151478301402378 
1405	 0.150788218446185 
1406	 0.150023760999938 
1407	 0.149272320229582 
1408	 0.148471736340045 
1409	 0.147712304077337 
1410	 0.146927504292307 
1411	 0.146212090733686 
1412	 0.145515722088042 
1413	 0.144892828023939 
1414	 0.144325517624958 
1415	 0.143805446930667 
1416	 0.143353262568351 
1417	 0.142924158971639 
1418	 0.142555316421933 
1419	 0.142184360800403 
1420	 0.141843706686633 
1421	 0.14150833163766 
1422	 0.141178156247967 
1423	 0.140860877865345 
1424	 0.140563655791776 
1425	 0.140258943608858 
1426	 0.13997892169484 
1427	 0.139714350515478 
1428	 0.139460395995297 
1429	 0.139229570946155 
1430	 0.139008058136314 
1431	 0.138795925842681 
1432	 0.138605542933264 
1433	 0.138433479114661 
1434	 0.138273041195428 
1435	 0.138129507268936 
1436	 0.137997755171427 
1437	 0.1378722476801 
1438	 0.137778582644128 
1439	 0.137711048305652 
1440	 0.137646243521963 
1441	 0.137605860065738 
1442	 0.13756442669236 
1443	 0.137520948767982 
1444	 0.137498051401922 
1445	 0.137498483884369 
1446	 0.1374892034837 
1447	 0.137479334953027 
1448	 0.137486136256967 
1449	 0.137494825398337 
1450	 0.13751585806804 
1451	 0.137565944903757 
1452	 0.137600555451074 
1453	 0.137630456497052 
1454	 0.137663953889718 
1455	 0.137699396948367 
1456	 0.137729538128842 
1457	 0.137758706964603 
1458	 0.137788554857516 
1459	 0.137813721606048 
1460	 0.137839578307131 
1461	 0.137867542552704 
1462	 0.137895432388337 
1463	 0.137912767532433 
1464	 0.137944131317031 
1465	 0.137983085318976 
1466	 0.13802945103404 
1467	 0.138076729013997 
1468	 0.138133429293471 
1469	 0.138186292096414 
1470	 0.138229248693311 
1471	 0.138269101446463 
1472	 0.138302453057471 
1473	 0.138344637205399 
1474	 0.138385624610859 
1475	 0.138424801659501 
1476	 0.138476309149979 
1477	 0.138502583133554 
1478	 0.138515546616711 
1479	 0.138524476513559 
1480	 0.138511639162017 
1481	 0.138523457332244 
1482	 0.138543962690748 
1483	 0.138555499512844 
1484	 0.138578953125591 
1485	 0.138588036408664 
1486	 0.138581854846483 
1487	 0.138579660725436 
1488	 0.138577796595256 
1489	 0.138571796363941 
1490	 0.13855461723823 
1491	 0.138552196163852 
1492	 0.138552482781654 
1493	 0.138558717877328 
1494	 0.138570057319607 
1495	 0.138592371489686 
1496	 0.138624769313765 
1497	 0.138656994997966 
1498	 0.138703040640183 
1499	 0.138742864725732 
1500	 0.13877892262903 
1501	 0.138815249496742 
1502	 0.138848723149937 
1503	 0.13888796580615 
1504	 0.138922245620476 
1505	 0.138970956131143 
1506	 0.139037020379654 
1507	 0.139095939271633 
1508	 0.139159450404204 
1509	 0.139221999097811 
1510	 0.139284974465222 
1511	 0.139341825865097 
1512	 0.139394904835366 
1513	 0.139450853275884 
1514	 0.139496150238904 
1515	 0.139551617754754 
1516	 0.139625998371471 
1517	 0.139686664820501 
1518	 0.13974065017214 
1519	 0.139798498444828 
1520	 0.139847480439873 
1521	 0.139898270087607 
1522	 0.139971156189105 
1523	 0.140041322993451 
1524	 0.140112557916481 
1525	 0.140188410200902 
1526	 0.140264499248571 
1527	 0.14034060301628 
1528	 0.140415221042674 
1529	 0.140489141123912 
1530	 0.140572967756538 
1531	 0.140656374707041 
1532	 0.140747378212295 
1533	 0.140850532612274 
1534	 0.140951376527899 
1535	 0.141055931204633 
1536	 0.141151726474679 
1537	 0.141249058207772 
1538	 0.141341068369842 
1539	 0.141421936735193 
1540	 0.141511614614451 
1541	 0.141604279429597 
1542	 0.141698125135091 
1543	 0.141795461921751 
1544	 0.141886751438755 
1545	 0.141977247269838 
1546	 0.142067752288844 
1547	 0.142161853888626 
1548	 0.142238157876138 
1549	 0.142305729065376 
1550	 0.142375602833059 
1551	 0.142428602820882 
1552	 0.142494934732639 
1553	 0.14257518761938 
1554	 0.142643475190538 
1555	 0.142706884191701 
1556	 0.142771077298837 
1557	 0.142823392926982 
1558	 0.142896629929361 
1559	 0.14297918825749 
1560	 0.143064009603635 
1561	 0.143159446573824 
1562	 0.143259426758812 
1563	 0.143361365719142 
1564	 0.143468937616526 
1565	 0.143592432999594 
1566	 0.143705061212137 
1567	 0.14380552781701 
1568	 0.143925354652735 
1569	 0.144052888009717 
1570	 0.144181149837829 
1571	 0.144323933758186 
1572	 0.144460850639554 
1573	 0.144592200268244 
1574	 0.144728353958551 
1575	 0.14487130121068 
1576	 0.145009175034089 
1577	 0.145143972311117 
1578	 0.145281150128934 
1579	 0.14541873815714 
1580	 0.145555062453658 
1581	 0.145693754840521 
1582	 0.145828797995245 
1583	 0.145959237523045 
1584	 0.146091581221211 
1585	 0.14622049858664 
1586	 0.146355551896901 
1587	 0.146494657477368 
1588	 0.14663322605818 
1589	 0.146775396084735 
1590	 0.14691738390163 
1591	 0.147062098162444 
1592	 0.147201241130621 
1593	 0.147338048958718 
1594	 0.147475176690694 
1595	 0.147606441522571 
1596	 0.147741331551799 
1597	 0.147882906094811 
1598	 0.14801757651154 
1599	 0.148148654833258 
1600	 0.1482798732677 
1601	 0.148409282589109 
1602	 0.148535488092601 
1603	 0.148662276520246 
1604	 0.148783536835593 
1605	 0.148903648448028 
1606	 0.149012881614992 
1607	 0.149112891265616 
1608	 0.149211927726428 
1609	 0.149295689289308 
1610	 0.149390708847697 
1611	 0.149501971406298 
1612	 0.149592454890743 
1613	 0.149682452217245 
1614	 0.149756689035465 
1615	 0.149810574977487 
1616	 0.149860365321203 
1617	 0.149891670757671 
1618	 0.149934997892064 
1619	 0.149978040994055 
1620	 0.150020207487713 
1621	 0.150080510750291 
1622	 0.150116816541676 
1623	 0.150144492548646 
1624	 0.150154891279981 
1625	 0.150137268181616 
1626	 0.150128533506442 
1627	 0.150105672572744 
1628	 0.150092793275368 
1629	 0.150082106853546 
1630	 0.150080247361788 
1631	 0.150085670730228 
1632	 0.150094270569631 
1633	 0.150118641295581 
1634	 0.15013530243011 
1635	 0.150150731494187 
1636	 0.150162599516539 
1637	 0.150164468805326 
1638	 0.150172371265225 
1639	 0.150190791668336 
1640	 0.150196919087238 
1641	 0.150205300770507 
1642	 0.150200555517465 
1643	 0.150183442295684 
1644	 0.150155456095043 
1645	 0.150118986018576 
1646	 0.150073446403209 
1647	 0.150026317068674 
1648	 0.149948745741067 
1649	 0.149855682527253 
1650	 0.1497409023761 
1651	 0.149600229114959 
1652	 0.149439137428488 
1653	 0.149273264302641 
1654	 0.149060305976977 
1655	 0.148804973622097 
1656	 0.148529552693412 
1657	 0.148225883313359 
1658	 0.147884232791209 
1659	 0.147519749437591 
1660	 0.147117698838499 
1661	 0.146690476714918 
1662	 0.146196029591081 
1663	 0.145659570148827 
1664	 0.145056670989868 
1665	 0.144385717845525 
1666	 0.143654360384567 
1667	 0.142876725254655 
1668	 0.142029026208161 
1669	 0.141109358495202 
1670	 0.140130029283243 
1671	 0.139068932517148 
1672	 0.137967398328435 
1673	 0.136805722883035 
1674	 0.135598384375433 
1675	 0.134331232268748 
1676	 0.133069118237403 
1677	 0.13176226487842 
1678	 0.130456384135973 
1679	 0.129122111804703 
1680	 0.127801683912242 
1681	 0.126456340624893 
1682	 0.125147858094532 
1683	 0.123871866842002 
1684	 0.122621243463151 
1685	 0.121391239557471 
1686	 0.120178488410123 
1687	 0.118970010301628 
1688	 0.117801957255909 
1689	 0.116650942559327 
1690	 0.115544768470736 
1691	 0.114480562204417 
1692	 0.113482380391416 
1693	 0.112537110087507 
1694	 0.111623647741829 
1695	 0.110769212775633 
1696	 0.109922648439297 
1697	 0.109088573107005 
1698	 0.108303700167274 
1699	 0.107572724971166 
1700	 0.106856154292234 
1701	 0.106173577845085 
1702	 0.105517064254175 
1703	 0.104864633756888 
1704	 0.104271848029074 
1705	 0.10373843282136 
1706	 0.103168991579721 
1707	 0.102673550254298 
1708	 0.102196021887936 
1709	 0.10175187127293 
1710	 0.101390366355445 
1711	 0.10103244221047 
1712	 0.100690259856913 
1713	 0.100348091547914 
1714	 0.100002437219827 
1715	 9.96999229608337E-02 
1716	 0.099404308491226 
1717	 9.91289849811415E-02 
1718	 9.88813202370788E-02 
1719	 9.86632713302708E-02 
1720	 9.84820404732908E-02 
1721	 9.83326212172292E-02 
1722	 9.82253431673644E-02 
1723	 9.81505040434729E-02 
1724	 9.81242709132222E-02 
1725	 9.81675079603989E-02 
1726	 9.82902572398352E-02 
1727	 9.84893494161054E-02 
1728	 9.87497695829967E-02 
1729	 9.90884939378732E-02 
1730	 9.94862324220159E-02 
1731	 9.99010125501964E-02 
1732	 0.100371407102517 
1733	 0.100856225925505 
1734	 0.101340268268006 
1735	 0.10185446661361 
1736	 0.10233787782188 
1737	 0.102772658570659 
1738	 0.103188075996781 
1739	 0.103535579431752 
1740	 0.103836955828358 
1741	 0.104094016731397 
1742	 0.104279778645438 
1743	 0.104437711874247 
1744	 0.104548564982004 
1745	 0.104659240107043 
1746	 0.104724274117975 
1747	 0.104802925711082 
1748	 0.104875214803247 
1749	 0.104955325476934 
1750	 0.10502651404254 
1751	 0.105126506364757 
1752	 0.105234278248778 
1753	 0.105384720621391 
1754	 0.105555907875674 
1755	 0.105754474225922 
1756	 0.105973602594052 
1757	 0.106244530798352 
1758	 0.10658522873788 
1759	 0.106943223827425 
1760	 0.107372355477867 
1761	 0.10785027582413 
1762	 0.108338780560384 
1763	 0.108922129592483 
1764	 0.109535568499871 
1765	 0.110185141817702 
1766	 0.110897113367003 
1767	 0.111582856264518 
1768	 0.112316822753852 
1769	 0.113071953997493 
1770	 0.113772336014184 
1771	 0.114490173241006 
1772	 0.115171513597375 
1773	 0.115786216505694 
1774	 0.116384675894176 
1775	 0.116955869216552 
1776	 0.117517122680745 
1777	 0.118047125297429 
1778	 0.118518596606285 
1779	 0.118974539530221 
1780	 0.119370635831872 
1781	 0.119710698369127 
1782	 0.120081245779782 
1783	 0.120410717069694 
1784	 0.120689007471391 
1785	 0.120931260513026 
1786	 0.121158474192702 
1787	 0.121355539218705 
1788	 0.121549656590711 
1789	 0.121725789142659 
1790	 0.121897180016883 
1791	 0.122047863951992 
1792	 0.122194871238044 
1793	 0.122349026085248 
1794	 0.122478134780707 
1795	 0.122626289614636 
1796	 0.122815029294391 
1797	 0.122985308773354 
1798	 0.12313808646758 
1799	 0.123289280298641 
1800	 0.123417936376727 
1801	 0.125319600317276 
1802	 0.125504231341649 
1803	 0.125665854234725 
1804	 0.125824615966786 
1805	 0.125977292062302 
1806	 0.126130601882432 
1807	 0.126271588818759 
1808	 0.126422178653471 
1809	 0.1265725064411 
1810	 0.126735995660798 
1811	 0.126910502596226 
1812	 0.127074433852663 
1813	 0.127244027297399 
1814	 0.127422769832966 
1815	 0.127563999399726 
1816	 0.127719400262462 
1817	 0.127889968934905 
1818	 0.128059913898557 
1819	 0.128249261680302 
1820	 0.128474131686141 
1821	 0.128672981525284 
1822	 0.128862983547945 
1823	 0.129075749008404 
1824	 0.129257700411065 
1825	 0.129454640275368 
1826	 0.129658237627853 
1827	 0.129869908517977 
1828	 0.130074887155395 
1829	 0.130278238893553 
1830	 0.130490529122679 
1831	 0.130696494282277 
1832	 0.130929473381547 
1833	 0.131162427008038 
1834	 0.131400031398381 
1835	 0.131643119238246 
1836	 0.131869762609789 
1837	 0.132106599981497 
1838	 0.13234533514304 
1839	 0.132584453159059 
1840	 0.132826594222081 
1841	 0.133074980937207 
1842	 0.133326659052353 
1843	 0.133575563587117 
1844	 0.133840883889759 
1845	 0.134089017381897 
1846	 0.134313338097237 
1847	 0.134547853756336 
1848	 0.134784517137869 
1849	 0.135022550304237 
1850	 0.135245823399291 
1851	 0.135471582755247 
1852	 0.135692261808717 
1853	 0.13588705635246 
1854	 0.136061905003113 
1855	 0.136230845115773 
1856	 0.136381889108785 
1857	 0.136536253960778 
1858	 0.136688168603769 
1859	 0.136818419638007 
1860	 0.136948159374468 
1861	 0.137057041432852 
1862	 0.137152889704469 
1863	 0.137207826810394 
1864	 0.137257055636335 
1865	 0.137299308144458 
1866	 0.137316188654261 
1867	 0.137315305535112 
1868	 0.137297874133154 
1869	 0.137240860875779 
1870	 0.137156640234919 
1871	 0.13703864739957 
1872	 0.136903094132938 
1873	 0.136746068451901 
1874	 0.136565498083223 
1875	 0.136346965986228 
1876	 0.136085336019413 
1877	 0.135808413216702 
1878	 0.135459835899337 
1879	 0.135051724088747 
1880	 0.13462622406495 
1881	 0.134125843056551 
1882	 0.133555498200942 
1883	 0.132942172008917 
1884	 0.132258280872422 
1885	 0.131440768346862 
1886	 0.130554360816323 
1887	 0.129583867422692 
1888	 0.128528231039011 
1889	 0.127486430560704 
1890	 0.126377410324968 
1891	 0.125254583968667 
1892	 0.124117164041136 
1893	 0.122952911536984 
1894	 0.121735115568154 
1895	 0.120576451336234 
1896	 0.11939905662352 
1897	 0.118240022993413 
1898	 0.117202517205077 
1899	 0.116166251644498 
1900	 0.115163281851983 
1901	 0.114232048667027 
1902	 0.11326776826824 
1903	 0.112361990613885 
1904	 0.111506494836153 
1905	 0.11068750175954 
1906	 0.109910053879634 
1907	 0.109241987335964 
1908	 0.108592598590777 
1909	 0.107983873674277 
1910	 0.10742412359759 
1911	 0.106858661605708 
1912	 0.106349649581632 
1913	 0.105864518593359 
1914	 0.105400612364848 
1915	 0.10499433104229 
1916	 0.104646514034937 
1917	 0.104307157095622 
1918	 0.103995145051782 
1919	 0.103715556090122 
1920	 0.103424236225379 
1921	 0.103143018955948 
1922	 0.102895433927851 
1923	 0.102671556178147 
1924	 0.102473450392666 
1925	 0.102302009403871 
1926	 0.102151171198485 
1927	 0.1020214599114 
1928	 0.10191145216071 
1929	 0.101824572876006 
1930	 0.101754415674591 
1931	 0.101712677268668 
1932	 0.101699255419364 
1933	 0.101699409165251 
1934	 0.101723182522856 
1935	 0.101772638441407 
1936	 0.10184176621958 
1937	 0.101942339504087 
1938	 0.10208903687037 
1939	 0.102238917384289 
1940	 0.102408773623187 
1941	 0.102588113755118 
1942	 0.102783258128245 
1943	 0.102999911412305 
1944	 0.103231982082772 
1945	 0.103488536891505 
1946	 0.103777239480797 
1947	 0.104064350616724 
1948	 0.104368164408195 
1949	 0.104699832709702 
1950	 0.105024763847912 
1951	 0.105356744474422 
1952	 0.105690848900076 
1953	 0.1060270525107 
1954	 0.106361345455781 
1955	 0.106726130843723 
1956	 0.107089655936809 
1957	 0.107465819864761 
1958	 0.107855118900169 
1959	 0.108215488092234 
1960	 0.108574985637694 
1961	 0.108934071176589 
1962	 0.109280564039248 
1963	 0.109642961141175 
1964	 0.110014219963097 
1965	 0.110378820680809 
1966	 0.110754955397745 
1967	 0.111126754769183 
1968	 0.11145393638631 
1969	 0.111795759684468 
1970	 0.112136225463545 
1971	 0.112465795208917 
1972	 0.112837080344512 
1973	 0.113191475317324 
1974	 0.113540365357222 
1975	 0.113892999788254 
1976	 0.114237128259376 
1977	 0.114561768909651 
1978	 0.114902919350462 
1979	 0.115253806388759 
1980	 0.115585685586312 
1981	 0.115934118954564 
1982	 0.116279387644953 
1983	 0.116630823819517 
1984	 0.11698067063625 
1985	 0.117298944520418 
1986	 0.117618072311109 
1987	 0.11792190635904 
1988	 0.118191853280876 
1989	 0.118480624384933 
1990	 0.118784250407521 
1991	 0.119059957811892 
1992	 0.119324448858601 
1993	 0.119590954046964 
1994	 0.119828964802059 
1995	 0.120066057419922 
1996	 0.120305949521464 
1997	 0.120531949225871 
1998	 0.12075556664094 
1999	 0.120979218159533 
2000	 0.121179897809072 
2001	 0.121377575306518 
2002	 0.12154858992761 
2003	 0.121690213480792 
2004	 0.121831119333895 
2005	 0.121954820275746 
2006	 0.122072103756527 
2007	 0.122188099715381 
2008	 0.122287636916739 
2009	 0.122363155739405 
2010	 0.122430403623498 
2011	 0.122471711025418 
2012	 0.122481088778982 
2013	 0.122476460977938 
2014	 0.122454323099896 
2015	 0.122408168756022 
2016	 0.122343878650419 
2017	 0.122251719064501 
2018	 0.122126594373334 
2019	 0.121990351133216 
2020	 0.121842159915622 
2021	 0.121660630158639 
2022	 0.1214509755797 
2023	 0.121210304079118 
2024	 0.120911763816655 
2025	 0.120602123406352 
2026	 0.120286919138297 
2027	 0.119943869955019 
2028	 0.119612089599593 
2029	 0.119285445270535 
2030	 0.118935240502679 
2031	 0.118572284604461 
2032	 0.118210054510035 
2033	 0.117811887127214 
2034	 0.117451369655663 
2035	 0.11709798331777 
2036	 0.11675915085607 
2037	 0.116473412831474 
2038	 0.116207748632159 
2039	 0.115955778706644 
2040	 0.115730798344152 
2041	 0.115530688723633 
2042	 0.115334818781156 
2043	 0.115188384007226 
2044	 0.11509182759137 
2045	 0.115003960264345 
2046	 0.114949001060037 
2047	 0.114901188777355 
2048	 0.114867943771918 
2049	 0.114854319686725 
2050	 0.114855760810308 
2051	 0.114880586989847 
2052	 0.114923716607678 
2053	 0.114977651188152 
2054	 0.115039801522965 
2055	 0.115120004796902 
2056	 0.11519308285871 
2057	 0.115260489102529 
2058	 0.11535794842174 
2059	 0.115469078478058 
2060	 0.115583039252845 
2061	 0.115729588804738 
2062	 0.115858304810226 
2063	 0.115971713684231 
2064	 0.116098542258931 
2065	 0.116231870123854 
2066	 0.116366253807292 
2067	 0.116504871677473 
2068	 0.116641717008554 
2069	 0.116775624734807 
2070	 0.116910609521404 
2071	 0.117035762904106 
2072	 0.117154617744904 
2073	 0.117274586232216 
2074	 0.117388520482687 
2075	 0.117499627197263 
2076	 0.117611608826324 
2077	 0.117717704265 
2078	 0.117812867765238 
2079	 0.117915757833497 
2080	 0.118030231239015 
2081	 0.11812904167609 
2082	 0.118231241018631 
2083	 0.118308458971611 
2084	 0.118387197425836 
2085	 0.118455930598856 
2086	 0.118521569767494 
2087	 0.118585798293653 
2088	 0.118648262483258 
2089	 0.118700675086909 
2090	 0.118755399234661 
2091	 0.118819294724847 
2092	 0.118863944749686 
2093	 0.118901312042221 
2094	 0.11892887921078 
2095	 0.11895082688055 
2096	 0.118955539686958 
2097	 0.11895214247007 
2098	 0.118922848040948 
2099	 0.118885846316563 
2100	 0.118852654542204 
2101	 0.118812140482059 
2102	 0.118775346232894 
2103	 0.118714368794648 
2104	 0.118635410360762 
2105	 0.118558632945035 
2106	 0.118474508936533 
2107	 0.118374743821956 
2108	 0.118279128535486 
2109	 0.118153604824464 
2110	 0.117998886305728 
2111	 0.1178406473616 
2112	 0.117653674503235 
2113	 0.117480680790249 
2114	 0.117295238302947 
2115	 0.117123424882457 
2116	 0.116973790032106 
2117	 0.116813946894331 
2118	 0.116643133930842 
2119	 0.116471672068358 
2120	 0.11629581992543 
2121	 0.116100558408053 
2122	 0.115925809918875 
2123	 0.115759510696087 
2124	 0.115591516792372 
2125	 0.115427524502168 
2126	 0.115266257913021 
2127	 0.115106320227875 
2128	 0.11495310262939 
2129	 0.114806967359325 
2130	 0.114658014301014 
2131	 0.114515090909146 
2132	 0.114366937414768 
2133	 0.114221264415615 
2134	 0.114067498452242 
2135	 0.113893447384395 
2136	 0.113733060091245 
2137	 0.113580195630113 
2138	 0.113423030882144 
2139	 0.113281094623189 
2140	 0.113163092934731 
2141	 0.113026503511074 
2142	 0.112874867171377 
2143	 0.112750718684523 
2144	 0.112619719640389 
2145	 0.112526578677612 
2146	 0.112474964082861 
2147	 0.112413629040429 
2148	 0.112369133368093 
2149	 0.11232570259084 
2150	 0.11227586201521 
2151	 0.112242094644515 
2152	 0.112223974212322 
2153	 0.112216171999677 
2154	 0.112201058335799 
2155	 0.112175576096976 
2156	 0.112134605427285 
2157	 0.112075595461737 
2158	 0.11201671753038 
2159	 0.111937994661156 
2160	 0.111886728941961 
2161	 0.111847172312558 
2162	 0.111796370569039 
2163	 0.111757325030842 
2164	 0.111705133611442 
2165	 0.111621711655203 
2166	 0.111574033838409 
2167	 0.111544275645398 
2168	 0.111515777424972 
2169	 0.111485505181182 
2170	 0.111488400566333 
2171	 0.111509630650763 
2172	 0.111537014379578 
2173	 0.111594793822857 
2174	 0.111661339640475 
2175	 0.11169389068343 
2176	 0.111767890147965 
2177	 0.111844945943305 
2178	 0.111922469781146 
2179	 0.112037974195857 
2180	 0.112195682154988 
2181	 0.112319906333844 
2182	 0.112456518548711 
2183	 0.112587138942209 
2184	 0.11269358756697 
2185	 0.112817679666559 
2186	 0.112959715133346 
2187	 0.113097566552438 
2188	 0.113236450267503 
2189	 0.113371788821091 
2190	 0.113528961684204 
2191	 0.113649562057566 
2192	 0.113732198563968 
2193	 0.11383495324193 
2194	 0.113933866827717 
2195	 0.11402250231694 
2196	 0.114115403394798 
2197	 0.114212394823139 
2198	 0.114283441012269 
2199	 0.114346771388837 
2200	 0.114402425518847 
2201	 0.114459848094789 
2202	 0.114494208578585 
2203	 0.114513221071891 
2204	 0.114512571135302 
2205	 0.114499874567001 
2206	 0.114459126879457 
2207	 0.114380628812899 
2208	 0.114319008451533 
2209	 0.114259418526938 
2210	 0.114165229432482 
2211	 0.11407523234754 
2212	 0.11394292784244 
2213	 0.113759269960865 
2214	 0.113572952708869 
2215	 0.113370194990311 
2216	 0.113146529375448 
2217	 0.112922565125522 
2218	 0.112649381577847 
2219	 0.11235401601371 
2220	 0.112013493273082 
2221	 0.111644243080527 
2222	 0.111190584082833 
2223	 0.110732903225243 
2224	 0.110243436674391 
2225	 0.109702779496785 
2226	 0.109118966489818 
2227	 0.108443636916863 
2228	 0.107691990701999 
2229	 0.106894966165573 
2230	 0.10601313196003 
2231	 0.105106710338791 
2232	 0.104165659558692 
2233	 0.103145453679487 
2234	 0.102097671992875 
2235	 0.100918204515113 
2236	 9.96294882262347E-02 
2237	 9.83005803655033E-02 
2238	 9.68356784084207E-02 
2239	 9.53915206970458E-02 
2240	 9.39531145498605E-02 
2241	 9.24120587048409E-02 
2242	 9.08157534103188E-02 
2243	 8.91646001674275E-02 
2244	 8.73927292363818E-02 
2245	 8.56542185820182E-02 
2246	 8.38557423357528E-02 
2247	 8.21005751939353E-02 
2248	 8.03663034713532E-02 
2249	 7.86207819882291E-02 
2250	 0.076875944633773 
2251	 7.51811664016893E-02 
2252	 7.33687782267825E-02 
2253	 7.16729231149558E-02 
2254	 6.99924718536758E-02 
2255	 6.83034060377166E-02 
2256	 6.68248711017636E-02 
2257	 6.53474724277501E-02 
2258	 0.063956227156543 
2259	 6.26736117873022E-02 
2260	 6.14051042413814E-02 
2261	 6.01556877602102E-02 
2262	 5.90312605544426E-02 
2263	 0.057967488496035 
2264	 5.69977368098702E-02 
2265	 5.61525965262068E-02 
2266	 5.53298162444421E-02 
2267	 5.45995431644166E-02 
2268	 5.38732249964653E-02 
2269	 5.31885022154955E-02 
2270	 5.25436934520832E-02 
2271	 5.19355304181243E-02 
2272	 5.13430732546806E-02 
2273	 5.08094771249152E-02 
2274	 0.050263776985258 
2275	 4.97505895141179E-02 
2276	 4.91975522327319E-02 
2277	 4.86563094390459E-02 
2278	 0.048068350643504 
2279	 4.73846813635343E-02 
2280	 4.67720647473043E-02 
2281	 4.62044387095651E-02 
2282	 4.55862536868298E-02 
2283	 4.49719607119558E-02 
2284	 0.04436812127466 
2285	 4.36892809521042E-02 
2286	 4.30011341775653E-02 
2287	 4.23437487309604E-02 
2288	 4.16677120559417E-02 
2289	 4.10056629280885E-02 
2290	 4.03469232764875E-02 
2291	 3.97233162604457E-02 
2292	 3.91494304077577E-02 
2293	 0.038543791319444 
2294	 3.79672591370959E-02 
2295	 3.74197872703678E-02 
2296	 3.69140410186948E-02 
2297	 3.64984980333933E-02 
2298	 3.61633039205952E-02 
2299	 3.58850415599135E-02 
2300	 3.56734627597771E-02 
2301	 3.55331076693815E-02 
2302	 3.54601109069052E-02 
2303	 3.54749676213609E-02 
2304	 3.55763658673336E-02 
2305	 3.57471462747999E-02 
2306	 0.036005892008049 
2307	 3.63341309556223E-02 
2308	 3.67472794964487E-02 
2309	 3.72109344460485E-02 
2310	 3.77488431957739E-02 
2311	 0.038336279412343 
2312	 3.90321698586494E-02 
2313	 3.96971363253329E-02 
2314	 4.04474006820391E-02 
2315	 4.11178530527271E-02 
2316	 4.17283378456341E-02 
2317	 0.042348516478226 
2318	 4.29779455522211E-02 
2319	 4.35211694481576E-02 
2320	 4.40862725634643E-02 
2321	 4.45237680759451E-02 
2322	 0.044841096902165 
2323	 4.51100842614243E-02 
2324	 4.52576036210271E-02 
2325	 4.54028201470982E-02 
2326	 4.55137295488678E-02 
2327	 4.55665464106981E-02 
2328	 4.55959553388129E-02 
2329	 4.55564314255443E-02 
2330	 4.54474433523303E-02 
2331	 4.52564405440484E-02 
2332	 4.50375610946425E-02 
2333	 4.47770099468586E-02 
2334	 4.45031691642294E-02 
2335	 4.42381136794358E-02 
2336	 4.39246715273255E-02 
2337	 4.36090900315891E-02 
2338	 4.32643681950695E-02 
2339	 4.28643277268619E-02 
2340	 4.24923450202842E-02 
2341	 4.21350382671798E-02 
2342	 4.18172301164705E-02 
2343	 4.15726321134342E-02 
2344	 0.041428859273204 
2345	 4.13810287664114E-02 
2346	 4.13793372166389E-02 
2347	 0.041530691119687 
2348	 4.17550809523319E-02 
2349	 4.20205543491842E-02 
2350	 4.24277362731291E-02 
2351	 4.28590702585304E-02 
2352	 4.32907119980857E-02 
2353	 4.38091224863743E-02 
2354	 0.044288384177335 
2355	 4.47471484403964E-02 
2356	 4.51940809800525E-02 
2357	 4.55798089819299E-02 
2358	 4.59940233321663E-02 
2359	 4.63389375713001E-02 
2360	 4.66230177334451E-02 
2361	 4.68874580605598E-02 
2362	 4.70923475687194E-02 
2363	 4.72141851484745E-02 
2364	 4.72820950185309E-02 
2365	 4.73745792530544E-02 
2366	 4.74181093983436E-02 
2367	 4.74314433393433E-02 
2368	 4.75424566668142E-02 
2369	 4.76508036924977E-02 
2370	 4.77165428502521E-02 
2371	 4.77805222955722E-02 
2372	 0.047809208761492 
2373	 4.78392078572772E-02 
2374	 4.78454310857941E-02 
2375	 4.78962993923853E-02 
2376	 4.79456267361529E-02 
2377	 4.79029378800172E-02 
2378	 4.79405229829129E-02 
2379	 4.80100411881105E-02 
2380	 0.04805256024394 
2381	 4.81287357038828E-02 
2382	 4.81465825738446E-02 
2383	 4.80993791577705E-02 
2384	 4.80781666061846E-02 
2385	 4.80317587124702E-02 
2386	 4.80156754483132E-02 
2387	 4.80401597248196E-02 
2388	 4.80353733398154E-02 
2389	 4.80148781439027E-02 
2390	 4.79886736914193E-02 
2391	 4.79258610037326E-02 
2392	 4.79264706702029E-02 
2393	 4.79724372014714E-02 
2394	 4.80057173225375E-02 
2395	 4.80679717865717E-02 
2396	 4.80795539895828E-02 
2397	 4.80632613660948E-02 
2398	 4.80482342499284E-02 
2399	 4.80222405050645E-02 
2400	 4.80360063541299E-02 
2401	 4.80178379827038E-02 
2402	 4.80644732093692E-02 
2403	 4.81862154658731E-02 
2404	 4.82742902196457E-02 
2405	 4.83311676074236E-02 
2406	 4.83982166424224E-02 
2407	 4.84010837912839E-02 
2408	 4.84274693631702E-02 
2409	 4.85494430609773E-02 
2410	 4.85812247705853E-02 
2411	 4.85376828509128E-02 
2412	 4.85039861395122E-02 
2413	 4.84852645000131E-02 
2414	 4.85377866273795E-02 
2415	 4.86288923980847E-02 
2416	 4.87198808373397E-02 
2417	 4.88539063053462E-02 
2418	 4.89123176320451E-02 
2419	 4.88995465266227E-02 
2420	 4.89364439098409E-02 
2421	 4.88798618831258E-02 
2422	 4.88230643309572E-02 
2423	 4.88869885191808E-02 
2424	 4.88992958998182E-02 
2425	 4.89357257003584E-02 
2426	 4.89999564142941E-02 
2427	 4.90016587194908E-02 
2428	 4.89890028311285E-02 
2429	 4.89139632740224E-02 
2430	 4.89039395923411E-02 
2431	 4.89725437148558E-02 
2432	 4.90224973051806E-02 
2433	 4.89790808388011E-02 
2434	 4.88466790128416E-02 
2435	 4.87496402906341E-02 
2436	 4.85765288487741E-02 
2437	 4.85027076570479E-02 
2438	 4.85901545825156E-02 
2439	 4.85806263016502E-02 
2440	 4.85677340323744E-02 
2441	 4.85379679281285E-02 
2442	 4.83444386417231E-02 
2443	 4.81738309741561E-02 
2444	 4.80406690458437E-02 
2445	 4.78762561653061E-02 
2446	 4.78300451615089E-02 
2447	 0.047668354009746 
2448	 4.74886985852077E-02 
2449	 4.74425124860483E-02 
2450	 0.047306649841246 
2451	 4.71928373007545E-02 
2452	 4.70362494879291E-02 
2453	 4.69139312745577E-02 
2454	 4.68334279562025E-02 
2455	 4.66174569976275E-02 
2456	 4.64041689941814E-02 
2457	 4.61756360410668E-02 
2458	 4.59986861578778E-02 
2459	 4.59287197953146E-02 
2460	 0.0459346430922 
2461	 4.58965812373588E-02 
2462	 4.56848273966622E-02 
2463	 4.55267852950392E-02 
2464	 4.54532474310457E-02 
2465	 4.55283617849119E-02 
2466	 4.55937570269837E-02 
2467	 4.55641691641293E-02 
2468	 4.55626484034784E-02 
2469	 4.52974800215421E-02 
2470	 4.51720398548988E-02 
2471	 4.53027569462733E-02 
2472	 4.54006085322972E-02 
2473	 4.56021392496217E-02 
2474	 4.56250498407885E-02 
2475	 4.56062279509562E-02 
2476	 4.57745297443831E-02 
2477	 4.57369507372027E-02 
2478	 4.57992564883685E-02 
2479	 0.045973638023874 
2480	 4.57294264312595E-02 
2481	 4.57430049365672E-02 
2482	 4.59884010673627E-02 
2483	 4.58826612779832E-02 
2484	 0.045777863289147 
2485	 4.57928438644719E-02 
2486	 4.58223628833475E-02 
2487	 4.59888954828947E-02 
2488	 4.62149476810288E-02 
2489	 4.62783247052319E-02 
2490	 4.62241974042051E-02 
2491	 4.62159277251809E-02 
2492	 4.63614616749852E-02 
2493	 4.66461761762898E-02 
2494	 4.67659360977564E-02 
2495	 4.67611186592723E-02 
2496	 4.68005722110542E-02 
2497	 0.046861843403156 
2498	 4.72542940568303E-02 
2499	 4.76643963001399E-02 
2500	 0.047739515947302 
