Wavelength	spectrum00025.asd
350	 7.70222838704482E-02 
351	 7.43882295514904E-02 
352	 7.21837387394705E-02 
353	 7.04002294101734E-02 
354	 6.76812623241927E-02 
355	 6.78393952992345E-02 
356	 6.78633300766384E-02 
357	 6.52483907043212E-02 
358	 6.33799427158858E-02 
359	 6.18868764591247E-02 
360	 6.13143927076122E-02 
361	 0.062253824601556 
362	 6.24045354140677E-02 
363	 6.17518562478245E-02 
364	 0.060599989322842 
365	 0.059279461068532 
366	 5.94068160140101E-02 
367	 6.04428221614607E-02 
368	 6.13448747677045E-02 
369	 0.061442749961086 
370	 6.13889467404947E-02 
371	 6.11405326262984E-02 
372	 6.04804112644254E-02 
373	 6.14117481173955E-02 
374	 0.062091425108493 
375	 6.19411000656477E-02 
376	 6.27883982713239E-02 
377	 6.22484289069577E-02 
378	 6.15557625924809E-02 
379	 6.21002772590186E-02 
380	 6.24450491117953E-02 
381	 0.062703408183607 
382	 6.31660280438201E-02 
383	 0.064047802648775 
384	 6.37169234429354E-02 
385	 6.38630559900007E-02 
386	 6.47624825026854E-02 
387	 6.39637791775891E-02 
388	 6.43756510610329E-02 
389	 6.53721086897254E-02 
390	 6.57421439695259E-02 
391	 6.58805323331372E-02 
392	 0.066463034574081 
393	 6.71040956598936E-02 
394	 6.68847767814468E-02 
395	 6.70204844539109E-02 
396	 6.79998335327709E-02 
397	 0.069382714948378 
398	 6.93902488081036E-02 
399	 6.95560479781266E-02 
400	 6.98905190336649E-02 
401	 7.01028919648572E-02 
402	 7.05527537691438E-02 
403	 7.13078956451388E-02 
404	 7.20736403285754E-02 
405	 7.23769980995613E-02 
406	 7.29088209074525E-02 
407	 7.36725682010945E-02 
408	 7.45313314049176E-02 
409	 7.53527493690095E-02 
410	 7.56435684227669E-02 
411	 7.58307821512949E-02 
412	 7.64994847933386E-02 
413	 7.73709964176685E-02 
414	 7.80137188605489E-02 
415	 7.84810383850928E-02 
416	 7.92353037282636E-02 
417	 7.99927372368994E-02 
418	 0.080654302626943 
419	 8.12081724845908E-02 
420	 8.17232260288256E-02 
421	 8.25237002379225E-02 
422	 8.34769709396187E-02 
423	 8.42816861871762E-02 
424	 0.084984890191935 
425	 8.54147987495844E-02 
426	 8.57321370844814E-02 
427	 8.64717744456352E-02 
428	 8.71605890736402E-02 
429	 8.78201413728389E-02 
430	 8.85091177034911E-02 
431	 8.90387162200547E-02 
432	 8.96983492107715E-02 
433	 0.090377151455808 
434	 9.08082208460715E-02 
435	 9.15117192360748E-02 
436	 9.22568920097499E-02 
437	 9.28628222426012E-02 
438	 9.33429084622711E-02 
439	 9.40348029278694E-02 
440	 9.47917980009012E-02 
441	 9.53838583434635E-02 
442	 9.58996921578099E-02 
443	 9.64148017108315E-02 
444	 9.69587978378093E-02 
445	 9.75216883345149E-02 
446	 9.81075871172594E-02 
447	 0.098573545086811 
448	 9.89495981814967E-02 
449	 9.97254337152635E-02 
450	 0.100329825910988 
451	 0.100779920491526 
452	 0.101283571410408 
453	 0.101668837348605 
454	 0.102233212983213 
455	 0.102925076635154 
456	 0.103291529518052 
457	 0.103740866484161 
458	 0.104208428907763 
459	 0.104612196699417 
460	 0.105138994919514 
461	 0.105670924036123 
462	 0.106116854797401 
463	 0.106427835075151 
464	 0.106751222125462 
465	 0.107152195766092 
466	 0.107594077373549 
467	 0.107900632721187 
468	 0.10828816639149 
469	 0.108700386862394 
470	 0.109057141164538 
471	 0.109558838230554 
472	 0.109829170128366 
473	 0.10997113702061 
474	 0.110441824357881 
475	 0.110791956665053 
476	 0.111175116242678 
477	 0.111637389896741 
478	 0.111738813335226 
479	 0.111989761575561 
480	 0.112423212426248 
481	 0.112862532370704 
482	 0.113133968871036 
483	 0.113380201059623 
484	 0.113670525692734 
485	 0.11395978065348 
486	 0.114332129542447 
487	 0.114614437812809 
488	 0.114721542909665 
489	 0.115005950519668 
490	 0.115368564657572 
491	 0.115725262780474 
492	 0.116008132937664 
493	 0.116239934938048 
494	 0.116415728820427 
495	 0.116580293147013 
496	 0.11687034161252 
497	 0.11709686841582 
498	 0.117260722978555 
499	 0.117421235922713 
500	 0.117610830338786 
501	 0.117745772725093 
502	 0.117849715176763 
503	 0.118035762285643 
504	 0.11818557830195 
505	 0.118279181207478 
506	 0.11832879481955 
507	 0.118364044170684 
508	 0.118481829380532 
509	 0.118590427906485 
510	 0.118557018747506 
511	 0.118622501820851 
512	 0.118677418745381 
513	 0.11868757625695 
514	 0.118757557160881 
515	 0.118707433533941 
516	 0.118647962918954 
517	 0.118691174549572 
518	 0.118681653083383 
519	 0.118640810398256 
520	 0.118605421518034 
521	 0.118611224913412 
522	 0.118559193544469 
523	 0.118498872687186 
524	 0.118462973229116 
525	 0.118410319383379 
526	 0.118321101198613 
527	 0.118262130934342 
528	 0.118286600456539 
529	 0.118187085301137 
530	 0.118070095899583 
531	 0.117986237978038 
532	 0.117904808283954 
533	 0.117797868678426 
534	 0.117728663680894 
535	 0.117719754737892 
536	 0.117617402128569 
537	 0.117512242830936 
538	 0.11742650758309 
539	 0.117344174900481 
540	 0.117271587338232 
541	 0.117228710574223 
542	 0.117209184171216 
543	 0.117164207340368 
544	 0.117095246356604 
545	 0.11701286771431 
546	 0.11693976297022 
547	 0.116928657810584 
548	 0.116924998872566 
549	 0.116915357852973 
550	 0.116924642593879 
551	 0.116899494912511 
552	 0.116869600317869 
553	 0.116856184142799 
554	 0.116816695466705 
555	 0.116778350593267 
556	 0.116771678499668 
557	 0.116814318020435 
558	 0.116817189031729 
559	 0.116831345311552 
560	 0.116860440128363 
561	 0.116825648630095 
562	 0.11673041158085 
563	 0.116577437036289 
564	 0.116391743674285 
565	 0.116264866036533 
566	 0.116149860140856 
567	 0.116049037478902 
568	 0.115997820162093 
569	 0.115934661532264 
570	 0.115859616128953 
571	 0.115779795662241 
572	 0.115695242791396 
573	 0.115600245053531 
574	 0.115489420918099 
575	 0.115354862898343 
576	 0.115170066521067 
577	 0.11498748608004 
578	 0.114840193166508 
579	 0.114732106691141 
580	 0.11464405783042 
581	 0.114549571442091 
582	 0.114425285619806 
583	 0.114255992279645 
584	 0.114101670107603 
585	 0.113944420444503 
586	 0.113736179993034 
587	 0.113612914547776 
588	 0.113546162226307 
589	 0.113496478711115 
590	 0.113446870131528 
591	 0.113323616864956 
592	 0.113165071292301 
593	 0.113026258000643 
594	 0.112856097867898 
595	 0.112680713406901 
596	 0.112518971850169 
597	 0.112379259701446 
598	 0.112224010537383 
599	 0.112098487412038 
600	 0.112014514732971 
601	 0.111862404514899 
602	 0.11175685410739 
603	 0.1116742542802 
604	 0.111548163494879 
605	 0.111460946365119 
606	 0.111385024376011 
607	 0.111307681113138 
608	 0.111246067043089 
609	 0.111138465936581 
610	 0.111031365575354 
611	 0.110967083107255 
612	 0.11088157101833 
613	 0.110784762738286 
614	 0.110678935286959 
615	 0.110563179585241 
616	 0.110454328152001 
617	 0.110340765576411 
618	 0.110216068758824 
619	 0.110087681011042 
620	 0.109981245321045 
621	 0.10988855478067 
622	 0.109783254913701 
623	 0.109610837080836 
624	 0.109494560913637 
625	 0.109423401497667 
626	 0.109263730522529 
627	 0.10915858321001 
628	 0.109060666044875 
629	 0.108930919295258 
630	 0.108844197638472 
631	 0.108732781358143 
632	 0.108617093576511 
633	 0.108545066418987 
634	 0.108462438071229 
635	 0.10837023770372 
636	 0.108282777563152 
637	 0.108224489075527 
638	 0.108161104772128 
639	 0.108094688418009 
640	 0.108035903522371 
641	 0.107990692015863 
642	 0.107959919490189 
643	 0.107943088885605 
644	 0.107937582757893 
645	 0.107930924348741 
646	 0.1079396601254 
647	 0.107968709880578 
648	 0.107998265890138 
649	 0.108039098897377 
650	 0.108076799130473 
651	 0.108104661636612 
652	 0.10817896135803 
653	 0.10826023572981 
654	 0.108347418371457 
655	 0.108471557855779 
656	 0.108630320273996 
657	 0.108782298364931 
658	 0.108916789736025 
659	 0.109099780200555 
660	 0.109313186352073 
661	 0.109520550748518 
662	 0.109704432332583 
663	 0.109999473654653 
664	 0.110290043584205 
665	 0.110562797157549 
666	 0.110916790704587 
667	 0.111255643418298 
668	 0.111630265989437 
669	 0.112071822675046 
670	 0.112486558132611 
671	 0.112930538659639 
672	 0.113412548947801 
673	 0.113927468177952 
674	 0.114517802530687 
675	 0.115163892495133 
676	 0.115829649618965 
677	 0.116468820989779 
678	 0.117174790548673 
679	 0.117945092675956 
680	 0.118760922292311 
681	 0.119630620466543 
682	 0.120540086622675 
683	 0.121502794550736 
684	 0.122541942251471 
685	 0.123617948569942 
686	 0.124745640064729 
687	 0.125946648160481 
688	 0.127244596387629 
689	 0.128557621834595 
690	 0.129972697810309 
691	 0.131555720874266 
692	 0.133133344463523 
693	 0.134811625988237 
694	 0.136594347067466 
695	 0.138427006905741 
696	 0.140411090136995 
697	 0.142483458047885 
698	 0.144634595581216 
699	 0.146971462096615 
700	 0.149399528060228 
701	 0.1519626081784 
702	 0.154704788780235 
703	 0.157513338979802 
704	 0.160461954787961 
705	 0.163566591071505 
706	 0.16680326288127 
707	 0.170212253620298 
708	 0.173777649897065 
709	 0.177480085761246 
710	 0.181303532597486 
711	 0.18528413731798 
712	 0.189431580128649 
713	 0.193745647651909 
714	 0.198246358645401 
715	 0.202837947308031 
716	 0.207525861614572 
717	 0.212387059727449 
718	 0.217460468985812 
719	 0.222672196780446 
720	 0.227980095732456 
721	 0.23342347386754 
722	 0.238913956675089 
723	 0.244512592996373 
724	 0.250279430781416 
725	 0.256114534458177 
726	 0.261993759747033 
727	 0.267912349644049 
728	 0.273880477248129 
729	 0.279900018846691 
730	 0.285954499177749 
731	 0.292010824962029 
732	 0.29801642217172 
733	 0.303986494460819 
734	 0.309923405501694 
735	 0.315840190459216 
736	 0.321794250939145 
737	 0.327610472737308 
738	 0.333269015857719 
739	 0.338854618068901 
740	 0.344371252933917 
741	 0.349812381988802 
742	 0.355142139793329 
743	 0.360300038554048 
744	 0.36532786545221 
745	 0.370216913359403 
746	 0.374954782907541 
747	 0.379575425696832 
748	 0.384000175229309 
749	 0.388290435073823 
750	 0.392551583359701 
751	 0.39657547189274 
752	 0.40035105652617 
753	 0.403968241542461 
754	 0.407608999878423 
755	 0.411171075417377 
756	 0.414550273023841 
757	 0.417704595037887 
758	 0.420749687966325 
759	 0.423660598867905 
760	 0.426468425655372 
761	 0.429216012658509 
762	 0.431865607512347 
763	 0.434383466120132 
764	 0.436775415365965 
765	 0.439097856661502 
766	 0.441335115496105 
767	 0.443510520905342 
768	 0.445610138997718 
769	 0.447505760036186 
770	 0.449377027449453 
771	 0.451207671898207 
772	 0.452934680677104 
773	 0.454651925646232 
774	 0.456342805443959 
775	 0.457958665666252 
776	 0.459439235215051 
777	 0.460842635924095 
778	 0.462245512672038 
779	 0.463647565608693 
780	 0.464912211507004 
781	 0.466220615848963 
782	 0.467506255109867 
783	 0.468682755539272 
784	 0.469850536913461 
785	 0.471023523777639 
786	 0.472143659128175 
787	 0.473136505089944 
788	 0.474145166259251 
789	 0.475114575608274 
790	 0.476030602430567 
791	 0.476948622479649 
792	 0.477833510263713 
793	 0.478694198700726 
794	 0.479554248008907 
795	 0.480461522824823 
796	 0.481268409334673 
797	 0.482073276378902 
798	 0.482987203889611 
799	 0.483708316199661 
800	 0.484410499195823 
801	 0.485125171801565 
802	 0.485772338719856 
803	 0.486480065212369 
804	 0.487196376422832 
805	 0.487881274441559 
806	 0.488550118753579 
807	 0.489264008011562 
808	 0.489933185118433 
809	 0.490492890439182 
810	 0.491057476641722 
811	 0.491669671146732 
812	 0.492307237366953 
813	 0.492907051958978 
814	 0.493381999421694 
815	 0.493907472844364 
816	 0.494515477988439 
817	 0.495090442568723 
818	 0.495542012741011 
819	 0.49603767583717 
820	 0.496626944968771 
821	 0.497101011916483 
822	 0.497680065370799 
823	 0.498243058245815 
824	 0.498670626501609 
825	 0.499130667234263 
826	 0.499630220919473 
827	 0.500133012575994 
828	 0.50059733784269 
829	 0.501111422914893 
830	 0.501552042500442 
831	 0.501922859989602 
832	 0.50233920493441 
833	 0.502733599142154 
834	 0.50311349713821 
835	 0.503493504236826 
836	 0.503883622817108 
837	 0.504288699467189 
838	 0.504642292747072 
839	 0.504946013565146 
840	 0.505451800893447 
841	 0.505858794083024 
842	 0.5061949151943 
843	 0.506589078956807 
844	 0.506930818968281 
845	 0.507323766629504 
846	 0.507748753868166 
847	 0.508093643973633 
848	 0.508321580547823 
849	 0.508612959225193 
850	 0.508987617861876 
851	 0.509241271695901 
852	 0.509448531897525 
853	 0.509773668098535 
854	 0.510243156188905 
855	 0.510562918555127 
856	 0.510805890883836 
857	 0.511035333814619 
858	 0.51130337646218 
859	 0.511597522942361 
860	 0.511984584777589 
861	 0.512382737770242 
862	 0.512663288095757 
863	 0.512926643232537 
864	 0.513109464741145 
865	 0.513328525065886 
866	 0.513797682479299 
867	 0.514015169134233 
868	 0.514208625907142 
869	 0.514510654095823 
870	 0.514782359293056 
871	 0.5150582983194 
872	 0.515260137241833 
873	 0.515405892146973 
874	 0.515771134687747 
875	 0.516088117236327 
876	 0.516378121491192 
877	 0.516699908293442 
878	 0.516900247544262 
879	 0.517134507596538 
880	 0.517336942808932 
881	 0.517399719572772 
882	 0.517603076397958 
883	 0.517859518321221 
884	 0.518062121922084 
885	 0.518139542134046 
886	 0.51827243068002 
887	 0.518483178595204 
888	 0.518700217963915 
889	 0.518787802751681 
890	 0.518970783578796 
891	 0.51911220579226 
892	 0.51912013777197 
893	 0.519088754561561 
894	 0.519211138941678 
895	 0.519434893978955 
896	 0.519635569103348 
897	 0.519697030028926 
898	 0.51973721686304 
899	 0.519819085806166 
900	 0.519933921252849 
901	 0.519879161552527 
902	 0.519927089603101 
903	 0.520067892784993 
904	 0.520144134808403 
905	 0.520080484171225 
906	 0.520044905928668 
907	 0.520119036965608 
908	 0.520292444123802 
909	 0.52050841913784 
910	 0.520664593587885 
911	 0.520744377276948 
912	 0.520822840823432 
913	 0.520939153301843 
914	 0.521016086825322 
915	 0.521081902730817 
916	 0.521315177745763 
917	 0.521446124653722 
918	 0.521574699828884 
919	 0.521775330218865 
920	 0.521932626183951 
921	 0.522115322979892 
922	 0.522287562577596 
923	 0.522431997986665 
924	 0.522646447468885 
925	 0.522806359668556 
926	 0.522992611056981 
927	 0.523285687883836 
928	 0.523534979905783 
929	 0.523786183318016 
930	 0.524019665414744 
931	 0.524209287370431 
932	 0.524397505854878 
933	 0.524726306498536 
934	 0.525105444947198 
935	 0.525349397554037 
936	 0.525520915326646 
937	 0.525672339802345 
938	 0.525880586091652 
939	 0.526212484304752 
940	 0.526603561646984 
941	 0.526954519045665 
942	 0.52718312172208 
943	 0.527267463269177 
944	 0.527464176461049 
945	 0.527706893808161 
946	 0.527938928583994 
947	 0.528156776318258 
948	 0.528345887702233 
949	 0.528405713166713 
950	 0.528395110212601 
951	 0.528554090183541 
952	 0.528637703160112 
953	 0.528704115520129 
954	 0.528786571933702 
955	 0.528806532780099 
956	 0.528784514166739 
957	 0.528781338707273 
958	 0.528803731853413 
959	 0.528756219202237 
960	 0.528743881631394 
961	 0.528716958750788 
962	 0.528639991754919 
963	 0.528577366726278 
964	 0.528487582868591 
965	 0.528453722677888 
966	 0.528527215742191 
967	 0.528627888308089 
968	 0.528558864066819 
969	 0.528547642899616 
970	 0.528732598051674 
971	 0.528710111245197 
972	 0.528691677283496 
973	 0.528747500097445 
974	 0.528860467780602 
975	 0.528894869830928 
976	 0.528941624286317 
977	 0.528999212912685 
978	 0.529029798278917 
979	 0.528971075453032 
980	 0.528992722309971 
981	 0.529046872385254 
982	 0.529060961391009 
983	 0.529145811828224 
984	 0.529214648842821 
985	 0.529336900126093 
986	 0.529554352262186 
987	 0.529645165434448 
988	 0.529716191890537 
989	 0.529738276740242 
990	 0.529694182322481 
991	 0.529757974644711 
992	 0.529831678159152 
993	 0.529909878694662 
994	 0.530020318368288 
995	 0.530201119361414 
996	 0.530230918688385 
997	 0.530131871413708 
998	 0.530022946473794 
999	 0.529967112421625 
1000	 0.530130301226623 
1001	 0.539171594637922 
1002	 0.539277062390385 
1003	 0.539307414381444 
1004	 0.539324500461469 
1005	 0.539309399387625 
1006	 0.539332146336846 
1007	 0.539307552153861 
1008	 0.539363599563125 
1009	 0.539503142346649 
1010	 0.53959777640563 
1011	 0.539691671428991 
1012	 0.539781663943343 
1013	 0.539887130140079 
1014	 0.539953161602462 
1015	 0.539963467413235 
1016	 0.540064722607174 
1017	 0.540121939952815 
1018	 0.540132909000642 
1019	 0.540238975610666 
1020	 0.540294869070299 
1021	 0.540358330325485 
1022	 0.540429134488387 
1023	 0.540503876160021 
1024	 0.540564654390324 
1025	 0.540645448480171 
1026	 0.540754594594084 
1027	 0.540828436646901 
1028	 0.540894345864634 
1029	 0.540959143452573 
1030	 0.540973917966287 
1031	 0.540988765323708 
1032	 0.541020143479007 
1033	 0.541027658234247 
1034	 0.541028036788388 
1035	 0.541056829101334 
1036	 0.541100062288729 
1037	 0.541149407417426 
1038	 0.541195889475529 
1039	 0.541272555887898 
1040	 0.541328704074993 
1041	 0.54136489038171 
1042	 0.5413968332038 
1043	 0.541417937455533 
1044	 0.541463612242313 
1045	 0.541518031899644 
1046	 0.541580629180186 
1047	 0.541669026942894 
1048	 0.541758710216321 
1049	 0.541821901641325 
1050	 0.541889230895636 
1051	 0.541984725979479 
1052	 0.542089675245615 
1053	 0.542204267094942 
1054	 0.542344582031563 
1055	 0.542468365438553 
1056	 0.542578495187846 
1057	 0.542724219999361 
1058	 0.5428898435913 
1059	 0.543029268765939 
1060	 0.543188643214614 
1061	 0.543337259556243 
1062	 0.543476548030076 
1063	 0.543645343704051 
1064	 0.543821253488183 
1065	 0.544009995294998 
1066	 0.544161739135339 
1067	 0.544294776997479 
1068	 0.544477529877699 
1069	 0.544665712025159 
1070	 0.544851872976569 
1071	 0.545056593856236 
1072	 0.545252100425179 
1073	 0.545402574040508 
1074	 0.545570720061614 
1075	 0.545767318957079 
1076	 0.545979064627632 
1077	 0.546211577093784 
1078	 0.546435884010652 
1079	 0.546619326713675 
1080	 0.546802767221572 
1081	 0.547000498818682 
1082	 0.547217381006335 
1083	 0.547409480756147 
1084	 0.547537370127039 
1085	 0.547693892134315 
1086	 0.547847473841674 
1087	 0.547978347662754 
1088	 0.548092280678827 
1089	 0.548248685812283 
1090	 0.548380119761116 
1091	 0.548478801631662 
1092	 0.548602503649961 
1093	 0.548744429958168 
1094	 0.548873562333815 
1095	 0.548980641106195 
1096	 0.549063224113189 
1097	 0.549124801899139 
1098	 0.549140616159765 
1099	 0.549151516081603 
1100	 0.549187415166694 
1101	 0.54918867072338 
1102	 0.549209801054994 
1103	 0.549220496797641 
1104	 0.549230959621988 
1105	 0.549196732473466 
1106	 0.549193104958009 
1107	 0.549166556603019 
1108	 0.549104580313287 
1109	 0.549064561019866 
1110	 0.549015311410393 
1111	 0.548938855028619 
1112	 0.54887280495093 
1113	 0.548808941170937 
1114	 0.548699574474029 
1115	 0.548557000435595 
1116	 0.548414176708825 
1117	 0.548261349736309 
1118	 0.54810375435804 
1119	 0.547944560020859 
1120	 0.547780118205626 
1121	 0.547627086854413 
1122	 0.547426173842603 
1123	 0.547180073529017 
1124	 0.546932921570673 
1125	 0.546624614740351 
1126	 0.546289076378808 
1127	 0.545932890908648 
1128	 0.545527690363399 
1129	 0.545116922086737 
1130	 0.544641818029969 
1131	 0.544123216680475 
1132	 0.543598772238166 
1133	 0.543046721547324 
1134	 0.542498642071444 
1135	 0.541913379730444 
1136	 0.541311438466561 
1137	 0.540692527540756 
1138	 0.540029064119058 
1139	 0.539365529136711 
1140	 0.538689758387819 
1141	 0.538043318938313 
1142	 0.537349171506404 
1143	 0.536651782562271 
1144	 0.53594008894451 
1145	 0.535182487233503 
1146	 0.534465114584602 
1147	 0.533724133784606 
1148	 0.532967066657506 
1149	 0.532273871240353 
1150	 0.531549160607821 
1151	 0.530828038720378 
1152	 0.530088855846522 
1153	 0.529347690770157 
1154	 0.528578044799537 
1155	 0.52779159681009 
1156	 0.526979865004154 
1157	 0.526157951610292 
1158	 0.525328713593502 
1159	 0.524478390607863 
1160	 0.523604843198704 
1161	 0.522721732657121 
1162	 0.521778832092997 
1163	 0.520870701077257 
1164	 0.519943635804862 
1165	 0.519007395131066 
1166	 0.51815089884908 
1167	 0.517262624438514 
1168	 0.516390175672704 
1169	 0.515518995464279 
1170	 0.514668418490433 
1171	 0.513789239348897 
1172	 0.512896223614252 
1173	 0.512001234818579 
1174	 0.511107263478154 
1175	 0.510223249555045 
1176	 0.509337386649613 
1177	 0.508444655249778 
1178	 0.507568756555507 
1179	 0.506630772383084 
1180	 0.505736628052302 
1181	 0.504882354092351 
1182	 0.504009642293591 
1183	 0.503221856633014 
1184	 0.502461858829187 
1185	 0.501722298522793 
1186	 0.501072208442487 
1187	 0.500494221216187 
1188	 0.499970608596695 
1189	 0.49950190511921 
1190	 0.499098552773738 
1191	 0.498768574853644 
1192	 0.498488784099266 
1193	 0.498275058187374 
1194	 0.49809352216741 
1195	 0.497991304215491 
1196	 0.497872072183695 
1197	 0.497762063417904 
1198	 0.497690790053939 
1199	 0.497628260984318 
1200	 0.4975955367421 
1201	 0.497602063278003 
1202	 0.497631772955 
1203	 0.497678027681911 
1204	 0.497748554096028 
1205	 0.49788674716236 
1206	 0.49804937538247 
1207	 0.498314805906122 
1208	 0.498636721114541 
1209	 0.499055377643093 
1210	 0.499536851874826 
1211	 0.500141173503155 
1212	 0.500850288110329 
1213	 0.501655452055874 
1214	 0.502572110096063 
1215	 0.503578547116283 
1216	 0.50470331452552 
1217	 0.505862627121568 
1218	 0.507115883675677 
1219	 0.50842334991371 
1220	 0.509744722421936 
1221	 0.511151682202703 
1222	 0.512511360024421 
1223	 0.513873177826122 
1224	 0.51518665996809 
1225	 0.516471199067625 
1226	 0.517690271491245 
1227	 0.518880600899308 
1228	 0.520014667204488 
1229	 0.521088284847071 
1230	 0.522126188998642 
1231	 0.523135065330992 
1232	 0.52408171795544 
1233	 0.524965216563025 
1234	 0.525800172624499 
1235	 0.526578153391534 
1236	 0.527319798478561 
1237	 0.528012210633698 
1238	 0.528670461122261 
1239	 0.529281659977502 
1240	 0.52986539679419 
1241	 0.530435077148828 
1242	 0.530940824410419 
1243	 0.531422081142708 
1244	 0.531873486872446 
1245	 0.532295614071967 
1246	 0.532656881091022 
1247	 0.533049739118392 
1248	 0.533446978668107 
1249	 0.533811204382268 
1250	 0.534189609936885 
1251	 0.534497763280532 
1252	 0.534762095392395 
1253	 0.534994043789808 
1254	 0.535152243151041 
1255	 0.5353405092841 
1256	 0.535507944842908 
1257	 0.535681644416397 
1258	 0.535884231700074 
1259	 0.536049570757715 
1260	 0.536204735094536 
1261	 0.536331938426024 
1262	 0.536414250424784 
1263	 0.536501281910409 
1264	 0.536591671547244 
1265	 0.536665160625095 
1266	 0.536750403238057 
1267	 0.536849915954486 
1268	 0.536937079558107 
1269	 0.537013099057041 
1270	 0.537098179024687 
1271	 0.537184814990455 
1272	 0.537275270503102 
1273	 0.537368435804722 
1274	 0.537462071637947 
1275	 0.537550009860682 
1276	 0.537656495066997 
1277	 0.537775241912014 
1278	 0.53789148605892 
1279	 0.538023675603553 
1280	 0.538148333624103 
1281	 0.53824819367848 
1282	 0.538378595553998 
1283	 0.538530033397253 
1284	 0.538677712549 
1285	 0.538832686739548 
1286	 0.538999896144035 
1287	 0.539180514204212 
1288	 0.539364013854475 
1289	 0.53955635477081 
1290	 0.539780006251601 
1291	 0.539970473530982 
1292	 0.540147867106554 
1293	 0.540324165911647 
1294	 0.540488741672307 
1295	 0.540657908014482 
1296	 0.540823043042353 
1297	 0.540992644465386 
1298	 0.541171179554371 
1299	 0.541334411052969 
1300	 0.541502889904539 
1301	 0.541649048535091 
1302	 0.541783606237171 
1303	 0.541899323284598 
1304	 0.541999273807296 
1305	 0.542083911937237 
1306	 0.542156116238367 
1307	 0.542205923855132 
1308	 0.542232546845153 
1309	 0.542248030003302 
1310	 0.542259234878141 
1311	 0.542255184204535 
1312	 0.542241622700461 
1313	 0.54223426370924 
1314	 0.542185629015969 
1315	 0.542103829493412 
1316	 0.542027771024565 
1317	 0.541928022925145 
1318	 0.541838798685415 
1319	 0.541760541414416 
1320	 0.541658308397673 
1321	 0.541561536247973 
1322	 0.541423594926754 
1323	 0.54127366774734 
1324	 0.541079238856094 
1325	 0.540840817104085 
1326	 0.540590903849845 
1327	 0.540309317085932 
1328	 0.540013735909936 
1329	 0.53971090742374 
1330	 0.539377749612297 
1331	 0.539029509917646 
1332	 0.538644540541382 
1333	 0.538241194799627 
1334	 0.537783139888104 
1335	 0.537322448022772 
1336	 0.536842715594934 
1337	 0.536312590472914 
1338	 0.535764760610333 
1339	 0.53516478602963 
1340	 0.534512993116828 
1341	 0.533835506452009 
1342	 0.533133230589958 
1343	 0.532377953141121 
1344	 0.531594109260092 
1345	 0.530737560511062 
1346	 0.529814082072198 
1347	 0.528875590693204 
1348	 0.52786978431816 
1349	 0.526870013102218 
1350	 0.525855685082455 
1351	 0.524821043294387 
1352	 0.523762476237489 
1353	 0.522692940832667 
1354	 0.521568794627567 
1355	 0.520503594757126 
1356	 0.519442995463427 
1357	 0.518408987995578 
1358	 0.5174156436369 
1359	 0.51643333255518 
1360	 0.515486732343078 
1361	 0.51452065388752 
1362	 0.513525427258634 
1363	 0.512596799226682 
1364	 0.511623151369564 
1365	 0.510642530155155 
1366	 0.509618567068835 
1367	 0.508592863825129 
1368	 0.507515099166203 
1369	 0.506386353448262 
1370	 0.505241513085824 
1371	 0.504066920779279 
1372	 0.502892042583242 
1373	 0.501696396638312 
1374	 0.500476726656971 
1375	 0.499226302755801 
1376	 0.497988228566837 
1377	 0.496727470153218 
1378	 0.495458780674556 
1379	 0.494200188120436 
1380	 0.492923647771679 
1381	 0.491619475652674 
1382	 0.490312347583276 
1383	 0.488989868144983 
1384	 0.487685337323022 
1385	 0.486363870237502 
1386	 0.485079819855069 
1387	 0.483799901376158 
1388	 0.482589033821117 
1389	 0.481430263028639 
1390	 0.480288689710415 
1391	 0.479222863755468 
1392	 0.478122048028238 
1393	 0.477082900900518 
1394	 0.476016861728347 
1395	 0.474915555416631 
1396	 0.473850366209977 
1397	 0.472650373393792 
1398	 0.4714158348331 
1399	 0.470012971679205 
1400	 0.468522227029578 
1401	 0.466876207963361 
1402	 0.465092149542399 
1403	 0.463175475520354 
1404	 0.461119564144246 
1405	 0.458981334002798 
1406	 0.456655125893762 
1407	 0.454373093411085 
1408	 0.45191652591059 
1409	 0.449679372366001 
1410	 0.447412274681245 
1411	 0.445398805330579 
1412	 0.44351092055006 
1413	 0.441870586554914 
1414	 0.440451022074471 
1415	 0.439171045502381 
1416	 0.438148050310728 
1417	 0.437171838650661 
1418	 0.436371961763028 
1419	 0.435562907984605 
1420	 0.434850250976555 
1421	 0.434135946167837 
1422	 0.43343498379043 
1423	 0.432752079659043 
1424	 0.432100338807593 
1425	 0.431436465715066 
1426	 0.430832209440432 
1427	 0.430259241480126 
1428	 0.42973913955652 
1429	 0.429303894089885 
1430	 0.428878931042465 
1431	 0.428488144604198 
1432	 0.428146298018133 
1433	 0.427839831987972 
1434	 0.427581675726419 
1435	 0.427372709887759 
1436	 0.42720450012481 
1437	 0.427075184926562 
1438	 0.426997800304071 
1439	 0.426977192563958 
1440	 0.426978700412396 
1441	 0.427028595654592 
1442	 0.427093168217966 
1443	 0.427187439586743 
1444	 0.427298271394816 
1445	 0.427440288285338 
1446	 0.427587662958364 
1447	 0.427738724326455 
1448	 0.427928473007211 
1449	 0.428148644029907 
1450	 0.428375535656751 
1451	 0.428641988042106 
1452	 0.428895909777332 
1453	 0.429158211466104 
1454	 0.429407608994525 
1455	 0.429649115672471 
1456	 0.429898285676655 
1457	 0.430142626286286 
1458	 0.430388460657556 
1459	 0.430633643611206 
1460	 0.430893504129419 
1461	 0.431153424276081 
1462	 0.431422734596692 
1463	 0.431711302572806 
1464	 0.432000759243052 
1465	 0.432278121991498 
1466	 0.432596764473383 
1467	 0.432886462330757 
1468	 0.433186166650349 
1469	 0.433507298706553 
1470	 0.43379697116677 
1471	 0.434101728200913 
1472	 0.434423532959627 
1473	 0.434721617697254 
1474	 0.435012175074913 
1475	 0.435284286389948 
1476	 0.435552857073503 
1477	 0.435785811470581 
1478	 0.435993364997384 
1479	 0.436184027564776 
1480	 0.436347264880525 
1481	 0.436504869044765 
1482	 0.436644180971637 
1483	 0.436778338396122 
1484	 0.436903309241835 
1485	 0.437013345721192 
1486	 0.437103663718174 
1487	 0.437204209297059 
1488	 0.437285072437718 
1489	 0.437392842108763 
1490	 0.437517734035554 
1491	 0.437642121606165 
1492	 0.437770271481856 
1493	 0.437914633803198 
1494	 0.438056923249901 
1495	 0.438229002870894 
1496	 0.438430815281146 
1497	 0.438633216820046 
1498	 0.438862804246619 
1499	 0.439078769380203 
1500	 0.439278839167633 
1501	 0.439508408411226 
1502	 0.43973946941103 
1503	 0.439994167009481 
1504	 0.44028666082382 
1505	 0.440571434894114 
1506	 0.440872331056051 
1507	 0.441164108792986 
1508	 0.441448934468289 
1509	 0.441741701877617 
1510	 0.442029966882844 
1511	 0.442327544525281 
1512	 0.442640936653979 
1513	 0.442947957576833 
1514	 0.443264914583938 
1515	 0.443567569275965 
1516	 0.443855967981712 
1517	 0.444147609201566 
1518	 0.444433663809393 
1519	 0.444716955074103 
1520	 0.445004112647076 
1521	 0.44528385860964 
1522	 0.445548966502941 
1523	 0.445827439643434 
1524	 0.446113016020355 
1525	 0.446399552019754 
1526	 0.446704722920373 
1527	 0.447024865613353 
1528	 0.447346242247319 
1529	 0.447674736343668 
1530	 0.44801491722612 
1531	 0.448363292511645 
1532	 0.448720036196832 
1533	 0.449095805308341 
1534	 0.449455736801558 
1535	 0.449820927823262 
1536	 0.450165339137088 
1537	 0.450501572247307 
1538	 0.450823563091808 
1539	 0.4511323054085 
1540	 0.451430707928681 
1541	 0.45172133741181 
1542	 0.451989143325016 
1543	 0.452242075045028 
1544	 0.452477493338042 
1545	 0.452690017065515 
1546	 0.45289600960142 
1547	 0.453092618080986 
1548	 0.453268346807127 
1549	 0.453430092206668 
1550	 0.45357342709584 
1551	 0.453703575540306 
1552	 0.453802191314031 
1553	 0.453872192038865 
1554	 0.453936927901542 
1555	 0.453963065924184 
1556	 0.454013423525425 
1557	 0.454064012678997 
1558	 0.454123011458282 
1559	 0.45418827314068 
1560	 0.454258348985959 
1561	 0.454320338684837 
1562	 0.454418609175617 
1563	 0.454532439624478 
1564	 0.454665294547926 
1565	 0.454843263336132 
1566	 0.454997467007103 
1567	 0.455144274672554 
1568	 0.455309892579115 
1569	 0.455466647761155 
1570	 0.455655899216517 
1571	 0.45588140279592 
1572	 0.456096832759083 
1573	 0.456327510863052 
1574	 0.456552740514155 
1575	 0.456788190540136 
1576	 0.456999096669001 
1577	 0.457197380176227 
1578	 0.457396416359259 
1579	 0.457578373538577 
1580	 0.457761506376818 
1581	 0.457957031792337 
1582	 0.458131007005255 
1583	 0.45828044042698 
1584	 0.458440835426463 
1585	 0.45858494350098 
1586	 0.458753114001575 
1587	 0.458941906244526 
1588	 0.45912216326995 
1589	 0.459312094970057 
1590	 0.459499359601598 
1591	 0.459675508182363 
1592	 0.459864774843093 
1593	 0.46007249780171 
1594	 0.460263750293791 
1595	 0.460455668660012 
1596	 0.460638919084981 
1597	 0.460813089909681 
1598	 0.460977286596044 
1599	 0.461128795250226 
1600	 0.461284591294401 
1601	 0.461443720078862 
1602	 0.461583102366364 
1603	 0.461718406213799 
1604	 0.461841865083353 
1605	 0.461925058875511 
1606	 0.462037239210926 
1607	 0.462173199346118 
1608	 0.462287132411565 
1609	 0.462416289216366 
1610	 0.462514886177597 
1611	 0.462595404256224 
1612	 0.462648408907877 
1613	 0.462674546304213 
1614	 0.462687511544228 
1615	 0.462664130339814 
1616	 0.462643914773731 
1617	 0.462623302838325 
1618	 0.462583050526213 
1619	 0.462533096301766 
1620	 0.462468271261017 
1621	 0.462388175780466 
1622	 0.462290426045862 
1623	 0.462170705374034 
1624	 0.462046451599092 
1625	 0.4619043730076 
1626	 0.461759325249951 
1627	 0.461608707602644 
1628	 0.461456059729143 
1629	 0.461285447252157 
1630	 0.461131334502399 
1631	 0.460980937534697 
1632	 0.460838744516909 
1633	 0.460709762600592 
1634	 0.460579643124226 
1635	 0.460457649250149 
1636	 0.460331280504346 
1637	 0.460211887855633 
1638	 0.460081143350502 
1639	 0.459945947023271 
1640	 0.459801938771746 
1641	 0.459660493094616 
1642	 0.459487182799857 
1643	 0.459305249750993 
1644	 0.459092160686452 
1645	 0.458847015845742 
1646	 0.458580424689663 
1647	 0.458309062626505 
1648	 0.457974020635412 
1649	 0.457613484741396 
1650	 0.457184245282648 
1651	 0.456699436455204 
1652	 0.456151243084163 
1653	 0.455534301472808 
1654	 0.454868730336434 
1655	 0.454151867573195 
1656	 0.453356384602703 
1657	 0.452510129290132 
1658	 0.45157315586775 
1659	 0.450546573432505 
1660	 0.449458805617688 
1661	 0.44833795622247 
1662	 0.447065285379612 
1663	 0.445679379513962 
1664	 0.444186357719908 
1665	 0.442569310466172 
1666	 0.44082169712424 
1667	 0.438971088919515 
1668	 0.437021800917282 
1669	 0.43494277392424 
1670	 0.432751505604212 
1671	 0.430445316592203 
1672	 0.428026554819378 
1673	 0.425471315019995 
1674	 0.422825014013445 
1675	 0.420047121674364 
1676	 0.417299470483739 
1677	 0.4144677886268 
1678	 0.41163187573445 
1679	 0.408761509990288 
1680	 0.405893260553532 
1681	 0.40297468141753 
1682	 0.400092442994146 
1683	 0.397239717784 
1684	 0.394441956670628 
1685	 0.391641632322424 
1686	 0.388914081456922 
1687	 0.386208023694505 
1688	 0.383600482300056 
1689	 0.381066628562324 
1690	 0.378580973814256 
1691	 0.376200423091564 
1692	 0.37388597987476 
1693	 0.371617841113142 
1694	 0.369416553123893 
1695	 0.367301636174657 
1696	 0.365198630186374 
1697	 0.36313723530001 
1698	 0.361100824134731 
1699	 0.359114040806755 
1700	 0.357187655382821 
1701	 0.355289900168877 
1702	 0.353468896928351 
1703	 0.351688931822847 
1704	 0.350001750822323 
1705	 0.348382326406561 
1706	 0.346786998662803 
1707	 0.345383839679402 
1708	 0.344041430437211 
1709	 0.342772199824602 
1710	 0.341640034865761 
1711	 0.34051813002931 
1712	 0.339456846674811 
1713	 0.338412567708595 
1714	 0.33736325434587 
1715	 0.336423633985719 
1716	 0.335479239757452 
1717	 0.334567028177681 
1718	 0.333726465214119 
1719	 0.332928530893941 
1720	 0.33224541144693 
1721	 0.331663836860708 
1722	 0.331210348655489 
1723	 0.330901679578701 
1724	 0.330719406054705 
1725	 0.330716119753489 
1726	 0.330937027925534 
1727	 0.331360212428376 
1728	 0.331974252809085 
1729	 0.332832394553902 
1730	 0.333884520003383 
1731	 0.335000359015009 
1732	 0.336260665703626 
1733	 0.337556282700227 
1734	 0.338861372451601 
1735	 0.34022838820825 
1736	 0.34150682988572 
1737	 0.342713891662719 
1738	 0.343793806931743 
1739	 0.344693032433325 
1740	 0.345456909154872 
1741	 0.346077071260681 
1742	 0.346511794533162 
1743	 0.346871189675453 
1744	 0.347080399423604 
1745	 0.347245744774064 
1746	 0.347285666878779 
1747	 0.347333312309294 
1748	 0.347311629755093 
1749	 0.347323624899625 
1750	 0.347318456288252 
1751	 0.347336877168451 
1752	 0.347342954390369 
1753	 0.34743654162419 
1754	 0.347542344324638 
1755	 0.34775963266664 
1756	 0.348039638707766 
1757	 0.348433466149355 
1758	 0.348962492219219 
1759	 0.349571771996565 
1760	 0.350340447848423 
1761	 0.351286766133233 
1762	 0.352312076835299 
1763	 0.353515997834973 
1764	 0.354830121904704 
1765	 0.356225052734152 
1766	 0.357771248236074 
1767	 0.35931739817574 
1768	 0.360941052862805 
1769	 0.362582887479568 
1770	 0.364078069953228 
1771	 0.365577767101434 
1772	 0.367012668386032 
1773	 0.368342261134013 
1774	 0.369665991433296 
1775	 0.370892455865738 
1776	 0.372068847219905 
1777	 0.373152995955383 
1778	 0.374094993528514 
1779	 0.374996363783834 
1780	 0.375799443753094 
1781	 0.376524250537017 
1782	 0.377220403397388 
1783	 0.377820033368214 
1784	 0.378332588322367 
1785	 0.378756657869052 
1786	 0.37914673472904 
1787	 0.379470398417741 
1788	 0.379791769267833 
1789	 0.380074676839862 
1790	 0.3803360728116 
1791	 0.38058291184676 
1792	 0.380805998729411 
1793	 0.380987399248075 
1794	 0.381135654568587 
1795	 0.38129737574079 
1796	 0.381458694557531 
1797	 0.381621531702483 
1798	 0.381806129132801 
1799	 0.381963675829506 
1800	 0.382093468406172 
1801	 0.381418142975948 
1802	 0.381615624382931 
1803	 0.381812539509112 
1804	 0.382015563383286 
1805	 0.382223679365157 
1806	 0.382423694314541 
1807	 0.382625052141512 
1808	 0.382812114856202 
1809	 0.382993136580003 
1810	 0.383173280527374 
1811	 0.383337957858923 
1812	 0.383513398752925 
1813	 0.383689888949631 
1814	 0.383877843722833 
1815	 0.384058822188627 
1816	 0.384238960700854 
1817	 0.384433230915935 
1818	 0.384624788293534 
1819	 0.384835580001018 
1820	 0.385065739942177 
1821	 0.385295668199654 
1822	 0.385534904267248 
1823	 0.3857858908869 
1824	 0.386011628580482 
1825	 0.386253797181767 
1826	 0.386494922548146 
1827	 0.386739121671129 
1828	 0.386960667305518 
1829	 0.387168764382728 
1830	 0.387395392557521 
1831	 0.387599693789846 
1832	 0.387840823818532 
1833	 0.388110548125159 
1834	 0.388374648301062 
1835	 0.388635476344635 
1836	 0.388887021578318 
1837	 0.38914400596993 
1838	 0.389407268433955 
1839	 0.389657978788687 
1840	 0.389902524005131 
1841	 0.390148347547131 
1842	 0.390388004773842 
1843	 0.390628104677162 
1844	 0.390867397904264 
1845	 0.391092622701815 
1846	 0.391290425492796 
1847	 0.391462232320402 
1848	 0.391633162660225 
1849	 0.391809300604329 
1850	 0.391935282376438 
1851	 0.392039409942139 
1852	 0.392129193798166 
1853	 0.392173337426295 
1854	 0.392178860151099 
1855	 0.39215936888859 
1856	 0.392113963875665 
1857	 0.392029426772993 
1858	 0.391909599757769 
1859	 0.391766810312972 
1860	 0.391612977554756 
1861	 0.391399501207963 
1862	 0.391150496078749 
1863	 0.390865980507304 
1864	 0.390510093590176 
1865	 0.390115206645333 
1866	 0.389642459903748 
1867	 0.389080884488257 
1868	 0.38849447123593 
1869	 0.387806589636093 
1870	 0.38706241325492 
1871	 0.386276613750914 
1872	 0.385426933121479 
1873	 0.384501301735614 
1874	 0.38353792122226 
1875	 0.382543672517459 
1876	 0.381382684798086 
1877	 0.38019657294747 
1878	 0.378897473222092 
1879	 0.377431660137079 
1880	 0.375945325235748 
1881	 0.374309387830471 
1882	 0.372530496671867 
1883	 0.370676247069966 
1884	 0.368681760266152 
1885	 0.366407196654709 
1886	 0.36406058034393 
1887	 0.361478072906846 
1888	 0.358678188237705 
1889	 0.35599415789419 
1890	 0.353124997028764 
1891	 0.35023842355521 
1892	 0.347378410960762 
1893	 0.344413721439368 
1894	 0.341301283544054 
1895	 0.338333408906598 
1896	 0.33528996201971 
1897	 0.33223455998131 
1898	 0.329440035579156 
1899	 0.326592684374941 
1900	 0.323842176191281 
1901	 0.321234684517905 
1902	 0.318511727500487 
1903	 0.315932155883943 
1904	 0.31344225010713 
1905	 0.3110022402149 
1906	 0.30863473963408 
1907	 0.306540978166024 
1908	 0.304464546452671 
1909	 0.302469185792402 
1910	 0.300632728892959 
1911	 0.298749620593019 
1912	 0.296972070202048 
1913	 0.295279224232161 
1914	 0.293618063435716 
1915	 0.29208847065556 
1916	 0.290694202037149 
1917	 0.289336805765241 
1918	 0.288054184368569 
1919	 0.28684602699814 
1920	 0.285624061442525 
1921	 0.28450742192438 
1922	 0.283429150043595 
1923	 0.282370599064457 
1924	 0.281457004488379 
1925	 0.280585842614808 
1926	 0.279771457110077 
1927	 0.279054144338518 
1928	 0.27835952029342 
1929	 0.277700834332363 
1930	 0.277086628943372 
1931	 0.276525869389524 
1932	 0.276006195653648 
1933	 0.275591703735084 
1934	 0.275227355975292 
1935	 0.274910588795442 
1936	 0.274683321403298 
1937	 0.274500979115951 
1938	 0.274364773320717 
1939	 0.274296013266503 
1940	 0.27430022049077 
1941	 0.274339962449998 
1942	 0.274430118695154 
1943	 0.274579762688918 
1944	 0.274755822780159 
1945	 0.274988610949809 
1946	 0.275288425196184 
1947	 0.275602793004375 
1948	 0.275962534175728 
1949	 0.276367557776908 
1950	 0.276766997561315 
1951	 0.277174873778584 
1952	 0.277604251112043 
1953	 0.278047838165632 
1954	 0.278502809266467 
1955	 0.279003353288946 
1956	 0.279499261795631 
1957	 0.280017536350467 
1958	 0.280553450697538 
1959	 0.281056944972844 
1960	 0.281579270677414 
1961	 0.282094742300256 
1962	 0.282594908746998 
1963	 0.283116794228067 
1964	 0.283655451402666 
1965	 0.284179439312507 
1966	 0.284711180721389 
1967	 0.285249345604091 
1968	 0.285745306938751 
1969	 0.286244035523623 
1970	 0.286738919458592 
1971	 0.287206669293214 
1972	 0.28770684819764 
1973	 0.288218888545125 
1974	 0.288728181094686 
1975	 0.289264347042587 
1976	 0.289773167464976 
1977	 0.290259902075332 
1978	 0.290760576541244 
1979	 0.291253904394921 
1980	 0.291754250875038 
1981	 0.292291921531698 
1982	 0.292784282149965 
1983	 0.293258721472008 
1984	 0.293744724495445 
1985	 0.294190259333095 
1986	 0.294637210126035 
1987	 0.295084537621336 
1988	 0.29553066060991 
1989	 0.295973447966568 
1990	 0.296423154122853 
1991	 0.296851187577003 
1992	 0.29728421867834 
1993	 0.297683999251701 
1994	 0.298049027708856 
1995	 0.29841486449715 
1996	 0.298746136647797 
1997	 0.299070457704741 
1998	 0.299400667097067 
1999	 0.299731035806508 
2000	 0.300029806966117 
2001	 0.30032841524389 
2002	 0.30060612557464 
2003	 0.300848517862924 
2004	 0.301094751056125 
2005	 0.301348464060342 
2006	 0.301566653076809 
2007	 0.301765027643284 
2008	 0.301949507979081 
2009	 0.3020980687713 
2010	 0.302209392617495 
2011	 0.302306562792391 
2012	 0.302377381603295 
2013	 0.302392765249889 
2014	 0.302377290250977 
2015	 0.302310345467718 
2016	 0.302191674362698 
2017	 0.302024452023232 
2018	 0.30180931277994 
2019	 0.301558648253003 
2020	 0.30127438699825 
2021	 0.300909150649247 
2022	 0.300525251076957 
2023	 0.300087643633844 
2024	 0.299567637808695 
2025	 0.299062898679941 
2026	 0.298499020749617 
2027	 0.297875774327107 
2028	 0.297246661016419 
2029	 0.296567655109875 
2030	 0.295893525158261 
2031	 0.295212695240449 
2032	 0.294520253190027 
2033	 0.293773524395763 
2034	 0.293099248371387 
2035	 0.292431138807722 
2036	 0.291774645084839 
2037	 0.291239323852184 
2038	 0.290748451748591 
2039	 0.29030593038416 
2040	 0.289921921457226 
2041	 0.289594098073303 
2042	 0.289321492857861 
2043	 0.289094552650559 
2044	 0.288927943306222 
2045	 0.288804174042675 
2046	 0.288728246402143 
2047	 0.288688618838031 
2048	 0.288696341332406 
2049	 0.288751909678052 
2050	 0.288859825604417 
2051	 0.288997709991913 
2052	 0.289163034176094 
2053	 0.289377447123182 
2054	 0.289592923457482 
2055	 0.289821783650004 
2056	 0.29006868061619 
2057	 0.290330131617813 
2058	 0.290622626238678 
2059	 0.290947427016733 
2060	 0.291266583822627 
2061	 0.291627299825466 
2062	 0.291968296152634 
2063	 0.292279776800241 
2064	 0.29262477250682 
2065	 0.293005330461231 
2066	 0.293343146648294 
2067	 0.293731025524099 
2068	 0.294121714024627 
2069	 0.294478290058169 
2070	 0.294833376882648 
2071	 0.295160923851684 
2072	 0.295457910786201 
2073	 0.295748129714992 
2074	 0.296014673112805 
2075	 0.296286103506371 
2076	 0.296553865428277 
2077	 0.296801443993649 
2078	 0.297054990405255 
2079	 0.297276063277725 
2080	 0.297463078853901 
2081	 0.297644538285087 
2082	 0.297810510254407 
2083	 0.29795873746077 
2084	 0.298096738634377 
2085	 0.298221722263106 
2086	 0.298336625497411 
2087	 0.298444274857192 
2088	 0.298522427422766 
2089	 0.298580880716779 
2090	 0.298629414695622 
2091	 0.298650816523173 
2092	 0.298671516516986 
2093	 0.298692859980282 
2094	 0.298690394876758 
2095	 0.298665018204 
2096	 0.298636123620224 
2097	 0.298601080292584 
2098	 0.29854679647329 
2099	 0.298475603609765 
2100	 0.298385966588949 
2101	 0.298274515932652 
2102	 0.298135835751299 
2103	 0.297984843035651 
2104	 0.2978074848822 
2105	 0.297632683996228 
2106	 0.297457894732315 
2107	 0.297245037132759 
2108	 0.297017411930013 
2109	 0.296775933067995 
2110	 0.296494538831878 
2111	 0.296211856054612 
2112	 0.295930289096278 
2113	 0.295625710543484 
2114	 0.295271491769489 
2115	 0.294951326267589 
2116	 0.294637141626474 
2117	 0.294333939806099 
2118	 0.294013430559359 
2119	 0.293709888371614 
2120	 0.293382755011022 
2121	 0.293019597172631 
2122	 0.292685535130155 
2123	 0.29237312844974 
2124	 0.292031585189604 
2125	 0.291682892481252 
2126	 0.291330720887027 
2127	 0.290966503237853 
2128	 0.290598722097688 
2129	 0.290238874253475 
2130	 0.289855474284289 
2131	 0.289450131657967 
2132	 0.289037533477727 
2133	 0.288604733155145 
2134	 0.288183881044875 
2135	 0.287733148631356 
2136	 0.287276122430271 
2137	 0.286813290422221 
2138	 0.286321710353826 
2139	 0.28586588489973 
2140	 0.28542023291534 
2141	 0.284982625932407 
2142	 0.284564658511642 
2143	 0.284140670440436 
2144	 0.283718134339145 
2145	 0.283303283951417 
2146	 0.282872984060161 
2147	 0.282485914461176 
2148	 0.282117898960736 
2149	 0.281765768504724 
2150	 0.281479970068566 
2151	 0.281153608960439 
2152	 0.280815033229397 
2153	 0.280471324393032 
2154	 0.280140091243005 
2155	 0.279798793131586 
2156	 0.279467162644765 
2157	 0.279161295890364 
2158	 0.278828139112564 
2159	 0.278471021052966 
2160	 0.27813324735987 
2161	 0.277801682634746 
2162	 0.277467394118339 
2163	 0.277112067655947 
2164	 0.276810793228786 
2165	 0.276520845491863 
2166	 0.276261493290824 
2167	 0.276047022226563 
2168	 0.27584700026833 
2169	 0.275650010402045 
2170	 0.275499708757711 
2171	 0.275386744160017 
2172	 0.275301854945933 
2173	 0.275262384599751 
2174	 0.275237949782579 
2175	 0.275210299381427 
2176	 0.275227109494784 
2177	 0.275257582357492 
2178	 0.275289745788237 
2179	 0.275382723062434 
2180	 0.275531384897126 
2181	 0.275671429908892 
2182	 0.27585363493999 
2183	 0.276013007974776 
2184	 0.276166365550343 
2185	 0.276331304636314 
2186	 0.276504100414203 
2187	 0.276674627477082 
2188	 0.27685459936699 
2189	 0.277026028478102 
2190	 0.277185514403945 
2191	 0.277360064609096 
2192	 0.27755192413178 
2193	 0.277721070279854 
2194	 0.277908021225147 
2195	 0.278057742193772 
2196	 0.278169812550487 
2197	 0.27827369191966 
2198	 0.278389562104928 
2199	 0.278471508719062 
2200	 0.278560067449631 
2201	 0.278667518961196 
2202	 0.278718788686919 
2203	 0.278741887151364 
2204	 0.27874220982602 
2205	 0.278690722142705 
2206	 0.278669422953713 
2207	 0.278654047347737 
2208	 0.278609176616115 
2209	 0.278574764273723 
2210	 0.278493816748781 
2211	 0.278364614004067 
2212	 0.278238460428048 
2213	 0.278092081151028 
2214	 0.277935431183691 
2215	 0.277795360632292 
2216	 0.277588382222548 
2217	 0.27736599798011 
2218	 0.277080894585976 
2219	 0.276729161327343 
2220	 0.276341439665671 
2221	 0.275923311855876 
2222	 0.275425515696651 
2223	 0.274892897214504 
2224	 0.274312769058482 
2225	 0.273690879258825 
2226	 0.273012973140385 
2227	 0.272206448618571 
2228	 0.271318825926159 
2229	 0.270347910900363 
2230	 0.2692275380748 
2231	 0.26811658984298 
2232	 0.266996483277899 
2233	 0.265728261840334 
2234	 0.264411491801325 
2235	 0.262933721607084 
2236	 0.261304088636059 
2237	 0.25960235479461 
2238	 0.25774023629495 
2239	 0.255866497918541 
2240	 0.25393961654498 
2241	 0.251905658561859 
2242	 0.24985382767777 
2243	 0.247632215272251 
2244	 0.245216254593718 
2245	 0.242804013150892 
2246	 0.240210957734071 
2247	 0.237691435728258 
2248	 0.235195885097407 
2249	 0.232669614248514 
2250	 0.23013724274027 
2251	 0.227642225709235 
2252	 0.224982760217696 
2253	 0.222385425421414 
2254	 0.219763058214517 
2255	 0.217149630824692 
2256	 0.214794852779068 
2257	 0.212462570551777 
2258	 0.210247595935684 
2259	 0.208201022893542 
2260	 0.206135198474346 
2261	 0.2040882641574 
2262	 0.202189219541619 
2263	 0.200314487214768 
2264	 0.198647797696081 
2265	 0.197185677188179 
2266	 0.195725034632143 
2267	 0.194430515199872 
2268	 0.193106956004518 
2269	 0.191797487205605 
2270	 0.190551111120143 
2271	 0.18933711845186 
2272	 0.188186467325726 
2273	 0.187128377273806 
2274	 0.186050304152278 
2275	 0.185068015306545 
2276	 0.183996933011515 
2277	 0.182881348487318 
2278	 0.181758591942653 
2279	 0.180561962316993 
2280	 0.17940228778539 
2281	 0.178289999087883 
2282	 0.177123965702999 
2283	 0.175941887405938 
2284	 0.174766863400448 
2285	 0.173482343485608 
2286	 0.172174470189732 
2287	 0.170857668143455 
2288	 0.169503766225308 
2289	 0.168240712970825 
2290	 0.166937534428964 
2291	 0.165623264574635 
2292	 0.164371773266607 
2293	 0.163069581599904 
2294	 0.1618229906272 
2295	 0.160631046323719 
2296	 0.159475622009688 
2297	 0.158474867733501 
2298	 0.157555829927927 
2299	 0.156783126960771 
2300	 0.156141584927426 
2301	 0.15566687139356 
2302	 0.155308818541412 
2303	 0.155164427650876 
2304	 0.155231007403347 
2305	 0.155427880401913 
2306	 0.155790850761656 
2307	 0.15634679726927 
2308	 0.15707960056249 
2309	 0.157989652547559 
2310	 0.159174176678916 
2311	 0.160364424241254 
2312	 0.161759950776903 
2313	 0.163101703636682 
2314	 0.164539120452633 
2315	 0.16588435220202 
2316	 0.16725875958335 
2317	 0.168486759282291 
2318	 0.169653573726102 
2319	 0.170670028203604 
2320	 0.171588378685169 
2321	 0.172348617587672 
2322	 0.172937885638006 
2323	 0.17343809169943 
2324	 0.173789912855009 
2325	 0.174037495475568 
2326	 0.174176963712381 
2327	 0.174195983602941 
2328	 0.174039084100771 
2329	 0.17385271391326 
2330	 0.173586994131534 
2331	 0.173210776965479 
2332	 0.172775315170156 
2333	 0.172250581911794 
2334	 0.171549898161544 
2335	 0.17076942276624 
2336	 0.169943776136282 
2337	 0.169076932112401 
2338	 0.168254701724609 
2339	 0.167413300158131 
2340	 0.166578483280421 
2341	 0.165756877501786 
2342	 0.164937335596259 
2343	 0.164276064637713 
2344	 0.163813959291137 
2345	 0.163519991259414 
2346	 0.163429514567029 
2347	 0.163537761534497 
2348	 0.163752448797771 
2349	 0.164205641776412 
2350	 0.164890952418826 
2351	 0.165715745025876 
2352	 0.16665334020993 
2353	 0.167660768176767 
2354	 0.16864632255571 
2355	 0.169602179022981 
2356	 0.170541208362346 
2357	 0.171351583138589 
2358	 0.172103849973707 
2359	 0.17277499714705 
2360	 0.173289493885942 
2361	 0.173688733598536 
2362	 0.173965596380995 
2363	 0.174147953170665 
2364	 0.174283328441389 
2365	 0.174392007825425 
2366	 0.174546833864599 
2367	 0.174695671658825 
2368	 0.174877242482556 
2369	 0.175115188479006 
2370	 0.175211004167791 
2371	 0.175252760134351 
2372	 0.175327746197945 
2373	 0.17534440960377 
2374	 0.175409557410327 
2375	 0.17553821617708 
2376	 0.175567442880766 
2377	 0.175497927824949 
2378	 0.175442298817733 
2379	 0.175406131785557 
2380	 0.17541996756134 
2381	 0.175512544947081 
2382	 0.175599026527965 
2383	 0.175745197078992 
2384	 0.175828720674752 
2385	 0.175892104262799 
2386	 0.175934183741702 
2387	 0.175957466140133 
2388	 0.175983841896928 
2389	 0.176002604910294 
2390	 0.176011108010239 
2391	 0.175998695370151 
2392	 0.175976985597767 
2393	 0.175910106865534 
2394	 0.175881967267163 
2395	 0.175900058767569 
2396	 0.175867157291581 
2397	 0.175826336955917 
2398	 0.175771724270147 
2399	 0.175696824323363 
2400	 0.175621147933192 
2401	 0.175488538620573 
2402	 0.175524131444474 
2403	 0.175509139629729 
2404	 0.175465359403839 
2405	 0.175531842748492 
2406	 0.175602434127643 
2407	 0.175625291472506 
2408	 0.175753825308303 
2409	 0.175913905628876 
2410	 0.175964534832018 
2411	 0.175989858535662 
2412	 0.17595560140972 
2413	 0.175942475319065 
2414	 0.176016529909589 
2415	 0.176110745715249 
2416	 0.176291485204272 
2417	 0.176412714235048 
2418	 0.17643441335443 
2419	 0.176545324294071 
2420	 0.176594197181377 
2421	 0.176531135158377 
2422	 0.176542052646645 
2423	 0.176532201245458 
2424	 0.176490470152364 
2425	 0.176481375013792 
2426	 0.176411178851515 
2427	 0.176319789497845 
2428	 0.176143780712144 
2429	 0.176013272599129 
2430	 0.17601783100552 
2431	 0.175922165174695 
2432	 0.175865066349647 
2433	 0.175817922521405 
2434	 0.175572130500789 
2435	 0.17526084308186 
2436	 0.175040753455343 
2437	 0.174840362588164 
2438	 0.174636911550388 
2439	 0.174504830322222 
2440	 0.174275232877469 
2441	 0.173922320861907 
2442	 0.173618737043071 
2443	 0.173297231313751 
2444	 0.172947226600318 
2445	 0.172693781594339 
2446	 0.172363944920445 
2447	 0.172067595691208 
2448	 0.171834123891391 
2449	 0.171476403829998 
2450	 0.171225295747222 
2451	 0.170796467266484 
2452	 0.170289385447957 
2453	 0.170006572159902 
2454	 0.169611339350872 
2455	 0.169374030081485 
2456	 0.169167315811413 
2457	 0.168630972973601 
2458	 0.168197846038136 
2459	 0.167863712256846 
2460	 0.167481215856073 
2461	 0.167287141614205 
2462	 0.167119801738801 
2463	 0.166815389154997 
2464	 0.166568062032245 
2465	 0.166430650031812 
2466	 0.166297314332086 
2467	 0.166035261484215 
2468	 0.165809301190712 
2469	 0.165576506757582 
2470	 0.165305850603453 
2471	 0.165260414275332 
2472	 0.165135197901347 
2473	 0.165009322607573 
2474	 0.165002057057639 
2475	 0.164935898078864 
2476	 0.165048167510984 
2477	 0.165255775078981 
2478	 0.165170504810465 
2479	 0.164972670969882 
2480	 0.16477279410225 
2481	 0.16463874735267 
2482	 0.164679665504043 
2483	 0.16477678808436 
2484	 0.164976471728358 
2485	 0.165026969211013 
2486	 0.164861623775051 
2487	 0.164875722620184 
2488	 0.164726349289996 
2489	 0.164633656203517 
2490	 0.164791185952807 
2491	 0.164689540933044 
2492	 0.164449783763867 
2493	 0.164445161125942 
2494	 0.164536986742443 
2495	 0.164615970878175 
2496	 0.164909590190402 
2497	 0.165146614265382 
2498	 0.16496503524144 
2499	 0.164789161942029 
2500	 0.164729598653275 
