Wavelength	spectrum00023.asd
350	 8.72517115125724E-02 
351	 8.61259051954264E-02 
352	 8.48098172910691E-02 
353	 8.34667186428377E-02 
354	 8.28142482094999E-02 
355	 8.13759825723943E-02 
356	 8.02724205752556E-02 
357	 7.99256424809074E-02 
358	 7.66243596070743E-02 
359	 7.53982092052062E-02 
360	 7.63427919510581E-02 
361	 7.69589326512724E-02 
362	 0.077188141063973 
363	 7.67070119185727E-02 
364	 7.56655014585061E-02 
365	 7.47614790005677E-02 
366	 7.50757742048755E-02 
367	 7.55020709581399E-02 
368	 7.50351274216157E-02 
369	 7.47762947950338E-02 
370	 7.50664462905482E-02 
371	 7.56605722658667E-02 
372	 7.60394220308116E-02 
373	 7.66654062904236E-02 
374	 7.69789786940225E-02 
375	 7.71059155106414E-02 
376	 7.82932933337365E-02 
377	 7.84953226173851E-02 
378	 7.81380756068364E-02 
379	 7.82271277676288E-02 
380	 7.93750384751251E-02 
381	 8.03480389472524E-02 
382	 8.03416412117983E-02 
383	 7.92290696604898E-02 
384	 7.97657377948117E-02 
385	 8.09849057100363E-02 
386	 8.17843444714109E-02 
387	 8.15912762238949E-02 
388	 8.11941513139016E-02 
389	 8.13356932602354E-02 
390	 8.21819616476075E-02 
391	 8.19682808164057E-02 
392	 8.20624556575578E-02 
393	 8.28079673342064E-02 
394	 8.37539172551852E-02 
395	 8.42326637754638E-02 
396	 8.49220104051919E-02 
397	 0.085864963317601 
398	 8.57419210015659E-02 
399	 8.56568416310331E-02 
400	 8.58977456461796E-02 
401	 8.63643705555932E-02 
402	 8.63484893768232E-02 
403	 8.72079265571126E-02 
404	 0.088400161796237 
405	 0.088146464033704 
406	 8.85871421453308E-02 
407	 8.88453967845812E-02 
408	 8.85630216957953E-02 
409	 8.92681094321114E-02 
410	 8.98119868738076E-02 
411	 0.090173641439032 
412	 9.06723977043052E-02 
413	 9.15050022567545E-02 
414	 9.15887858896947E-02 
415	 9.12371842266692E-02 
416	 9.19533536166815E-02 
417	 9.23643696398747E-02 
418	 9.28230563462165E-02 
419	 9.35434246711173E-02 
420	 9.36738045591551E-02 
421	 9.39349124135085E-02 
422	 9.43649790697506E-02 
423	 9.47185083519813E-02 
424	 9.49077946470861E-02 
425	 9.50464939057147E-02 
426	 9.52218931970373E-02 
427	 9.54681234651656E-02 
428	 9.56184923263071E-02 
429	 9.58141558289121E-02 
430	 9.61165726095408E-02 
431	 9.61029882296248E-02 
432	 9.62949942021916E-02 
433	 9.66705699695312E-02 
434	 9.69090387749809E-02 
435	 9.70456825536014E-02 
436	 9.72286737829948E-02 
437	 9.74596235585107E-02 
438	 9.74825416033925E-02 
439	 9.75922239975109E-02 
440	 9.78524357639594E-02 
441	 9.81912208321934E-02 
442	 9.82979349823601E-02 
443	 9.84254903871275E-02 
444	 9.85931854205714E-02 
445	 0.098635574806371 
446	 0.0987725218512 
447	 9.88977677852967E-02 
448	 9.89509713901823E-02 
449	 9.90978771539223E-02 
450	 9.91794243081487E-02 
451	 9.92589707470678E-02 
452	 9.94433183775821E-02 
453	 9.95681134571976E-02 
454	 9.95671178482589E-02 
455	 9.95302219216411E-02 
456	 9.97002550276424E-02 
457	 9.97977345642405E-02 
458	 9.97845766495109E-02 
459	 9.97352023979733E-02 
460	 9.98913500803993E-02 
461	 9.99872151170769E-02 
462	 0.099967254361925 
463	 9.99126044953608E-02 
464	 9.99496079151248E-02 
465	 9.99838529246612E-02 
466	 9.99590812704598E-02 
467	 9.99178111632861E-02 
468	 9.98878002432152E-02 
469	 9.98738514188848E-02 
470	 9.98839061711992E-02 
471	 9.99979283054016E-02 
472	 9.99992214235594E-02 
473	 9.98914104241007E-02 
474	 9.98537103192573E-02 
475	 9.98098852363125E-02 
476	 9.97192900123816E-02 
477	 9.96114187905084E-02 
478	 9.96724013048528E-02 
479	 9.96841245434502E-02 
480	 9.96810995127384E-02 
481	 0.099762946036399 
482	 9.97783147110269E-02 
483	 9.97486138465756E-02 
484	 9.96921741106657E-02 
485	 9.96093392516999E-02 
486	 9.95898391602979E-02 
487	 9.95990856469021E-02 
488	 9.95901371911227E-02 
489	 9.95786369280494E-02 
490	 0.099568278841175 
491	 9.95626234415203E-02 
492	 9.95591212408187E-02 
493	 9.95070150403993E-02 
494	 9.94179504222373E-02 
495	 9.93245760213279E-02 
496	 9.92822304338354E-02 
497	 9.92228751496184E-02 
498	 9.91346135208463E-02 
499	 9.90302574711303E-02 
500	 0.098944453730981 
501	 9.88541729329077E-02 
502	 9.87432167766372E-02 
503	 9.86061785180423E-02 
504	 9.84833173962038E-02 
505	 9.83477081649665E-02 
506	 9.81961605084265E-02 
507	 9.81200965248682E-02 
508	 9.80092108353421E-02 
509	 9.78894547432856E-02 
510	 9.78210040303215E-02 
511	 9.76404324256507E-02 
512	 9.74642530441502E-02 
513	 9.73394305330723E-02 
514	 9.71932909620367E-02 
515	 9.69542785721407E-02 
516	 9.67199396210926E-02 
517	 9.65748473712278E-02 
518	 9.63982681113095E-02 
519	 0.096167395579406 
520	 9.59506644708476E-02 
521	 0.09585813123507 
522	 9.57110646519558E-02 
523	 9.55009195372646E-02 
524	 9.52595460836987E-02 
525	 0.095041788927158 
526	 9.48314291907711E-02 
527	 0.094624938928473 
528	 9.44218463671757E-02 
529	 9.42265707376602E-02 
530	 9.40167003948299E-02 
531	 9.37966580524575E-02 
532	 9.36003890987662E-02 
533	 0.09343036543163 
534	 9.32542950080471E-02 
535	 9.30512646693769E-02 
536	 9.28578110737156E-02 
537	 9.26355434471897E-02 
538	 9.24020414803698E-02 
539	 9.22035054765813E-02 
540	 9.20417208562683E-02 
541	 9.18709983558897E-02 
542	 9.16720444323897E-02 
543	 9.14738908542129E-02 
544	 9.13094822424367E-02 
545	 9.11599216450185E-02 
546	 9.09931177610279E-02 
547	 9.07983281227617E-02 
548	 9.06353133717992E-02 
549	 9.05233777672336E-02 
550	 9.04393237425549E-02 
551	 9.03106620940052E-02 
552	 9.01652643861426E-02 
553	 0.090038341383826 
554	 0.089932466994129 
555	 8.98164782709705E-02 
556	 8.97110782823067E-02 
557	 8.96504537477185E-02 
558	 8.95648361543261E-02 
559	 8.94967483320083E-02 
560	 8.94372989258991E-02 
561	 8.92927998350793E-02 
562	 8.91305224036825E-02 
563	 8.89913993857227E-02 
564	 8.88846264953425E-02 
565	 8.87305333543146E-02 
566	 8.85638307594624E-02 
567	 8.84083129068358E-02 
568	 8.82714724127945E-02 
569	 8.80841113134927E-02 
570	 8.78656037372329E-02 
571	 8.76501062767723E-02 
572	 8.74712660066494E-02 
573	 8.73081399294166E-02 
574	 8.71504584189294E-02 
575	 8.69942266050668E-02 
576	 8.68606646665579E-02 
577	 8.66932878437849E-02 
578	 8.64838811903922E-02 
579	 8.62850311306472E-02 
580	 8.61293147448857E-02 
581	 8.59800771195167E-02 
582	 8.58021014513616E-02 
583	 8.56225791471486E-02 
584	 8.54421242466163E-02 
585	 8.52673862099375E-02 
586	 8.51080723323767E-02 
587	 8.49813616651409E-02 
588	 8.48286291807882E-02 
589	 8.46334063587558E-02 
590	 8.44606493231517E-02 
591	 0.084289329912982 
592	 8.41024000943458E-02 
593	 8.38947047406352E-02 
594	 8.37125550172401E-02 
595	 8.35139169579749E-02 
596	 0.083305290215392 
597	 8.31357904907184E-02 
598	 8.29681428169517E-02 
599	 8.28034135392111E-02 
600	 8.26491647518364E-02 
601	 8.25162914602187E-02 
602	 8.23708336122808E-02 
603	 8.22120863885951E-02 
604	 0.082055751551849 
605	 0.081910296461349 
606	 8.17745114063633E-02 
607	 8.16556917792562E-02 
608	 8.15730918528187E-02 
609	 8.14367262242812E-02 
610	 8.12818633191266E-02 
611	 8.11524906750626E-02 
612	 8.10068687954887E-02 
613	 8.08666733161704E-02 
614	 8.07327831372832E-02 
615	 8.05919753113966E-02 
616	 0.080438721358662 
617	 8.02823387303863E-02 
618	 8.01330757185498E-02 
619	 7.99990151974102E-02 
620	 7.98657941943019E-02 
621	 7.97279556041169E-02 
622	 7.95842731910555E-02 
623	 7.94363115843843E-02 
624	 7.92924161074531E-02 
625	 7.91534529656006E-02 
626	 7.90115972270064E-02 
627	 7.88343564867203E-02 
628	 7.86676529852049E-02 
629	 7.85369639494789E-02 
630	 0.078374613508083 
631	 7.82602511027971E-02 
632	 7.81608898129709E-02 
633	 0.078007853534987 
634	 7.78623126982919E-02 
635	 7.77343527759014E-02 
636	 7.76243054178435E-02 
637	 7.75259917129063E-02 
638	 7.74107081598801E-02 
639	 7.72939583950814E-02 
640	 7.71928887868492E-02 
641	 7.70899583485208E-02 
642	 7.69898787582346E-02 
643	 7.69014680601624E-02 
644	 7.68337222635905E-02 
645	 7.67737845301422E-02 
646	 7.67148842856129E-02 
647	 7.66586642334175E-02 
648	 7.66176804950547E-02 
649	 7.66118538399235E-02 
650	 0.076599167435436 
651	 7.65465329204131E-02 
652	 7.65467725902266E-02 
653	 7.65284474774322E-02 
654	 7.65068871771623E-02 
655	 7.65625778759152E-02 
656	 7.66087626941764E-02 
657	 7.66545101129225E-02 
658	 7.67138909462187E-02 
659	 7.67730994618259E-02 
660	 7.68912537458987E-02 
661	 7.70276915460809E-02 
662	 7.71260957309368E-02 
663	 7.72709487354743E-02 
664	 7.74304290342379E-02 
665	 7.75925412280504E-02 
666	 7.77730583483056E-02 
667	 7.80133818993161E-02 
668	 7.82739286457234E-02 
669	 7.85265434697633E-02 
670	 7.88177070061072E-02 
671	 7.91280679798124E-02 
672	 0.079451672532211 
673	 7.97943373235927E-02 
674	 8.01975611945123E-02 
675	 8.06130837797387E-02 
676	 8.10371253678275E-02 
677	 8.15271835367807E-02 
678	 8.20292704957723E-02 
679	 8.25524316601835E-02 
680	 8.31102450681025E-02 
681	 8.36789710611671E-02 
682	 8.43059943102135E-02 
683	 8.49837060135933E-02 
684	 8.56778445523191E-02 
685	 8.64032369869718E-02 
686	 8.71828129291586E-02 
687	 8.80222671705396E-02 
688	 8.89027819406327E-02 
689	 8.98243194639742E-02 
690	 9.07868930748556E-02 
691	 9.17974499541737E-02 
692	 9.28809818733165E-02 
693	 9.40053932714246E-02 
694	 9.51892327740339E-02 
695	 9.64724859749061E-02 
696	 0.097801300367428 
697	 9.91686820769899E-02 
698	 0.1005979191495 
699	 0.102150222886092 
700	 0.103770125113237 
701	 0.105449140037683 
702	 0.107199081787365 
703	 0.109049084293092 
704	 0.110986693092942 
705	 0.113011362005847 
706	 0.115128539385437 
707	 0.117319374409467 
708	 0.119598605078195 
709	 0.121970311340074 
710	 0.124408144912636 
711	 0.127005465596489 
712	 0.129699844742146 
713	 0.13242497930322 
714	 0.135308282655352 
715	 0.138285661583427 
716	 0.141339482719316 
717	 0.144492026944833 
718	 0.147817174887937 
719	 0.151241885385125 
720	 0.154727455160451 
721	 0.158325493803138 
722	 0.162023452698865 
723	 0.165834718583253 
724	 0.169761886594392 
725	 0.173756101213508 
726	 0.177866643549296 
727	 0.182094586214399 
728	 0.186402729743745 
729	 0.190749114819554 
730	 0.195191875419984 
731	 0.199735329129595 
732	 0.204272236490458 
733	 0.208944482196097 
734	 0.213694066237007 
735	 0.218450921471938 
736	 0.223325223882625 
737	 0.228195942863692 
738	 0.233041317146021 
739	 0.237911309614677 
740	 0.242858586461948 
741	 0.247803483579819 
742	 0.252701847892117 
743	 0.257598671220932 
744	 0.262500504054914 
745	 0.267395572365833 
746	 0.272256214456186 
747	 0.277037187213439 
748	 0.281749988168511 
749	 0.286431566971528 
750	 0.291109587734893 
751	 0.295647687577043 
752	 0.300032778681176 
753	 0.304348984416446 
754	 0.308777140343204 
755	 0.31313706096597 
756	 0.317348474537622 
757	 0.321410536796966 
758	 0.325451301901605 
759	 0.329403232719003 
760	 0.333234007379864 
761	 0.336950554174802 
762	 0.340703375827196 
763	 0.34431638264746 
764	 0.347760513863953 
765	 0.351199614166789 
766	 0.354584196121815 
767	 0.357875217660154 
768	 0.361046225793267 
769	 0.36407291812301 
770	 0.367174268051595 
771	 0.370238328663353 
772	 0.373088308877284 
773	 0.375902370347359 
774	 0.378699266425411 
775	 0.381450593744033 
776	 0.384102040439102 
777	 0.386722274367964 
778	 0.389272443376938 
779	 0.391735885924766 
780	 0.394149806438228 
781	 0.396568243083305 
782	 0.398966218110711 
783	 0.401302234837118 
784	 0.403572914332661 
785	 0.405764100434792 
786	 0.407903289341948 
787	 0.41003062972997 
788	 0.41210426303188 
789	 0.414157419888634 
790	 0.416187664413905 
791	 0.418148934322584 
792	 0.420098184687717 
793	 0.422023926757537 
794	 0.423911585709194 
795	 0.425775504649351 
796	 0.427596246447345 
797	 0.42943121642224 
798	 0.43132210582339 
799	 0.433111235445467 
800	 0.434795649932684 
801	 0.436458298927685 
802	 0.438220697515209 
803	 0.439941521562744 
804	 0.441684042696515 
805	 0.443422527002006 
806	 0.444964463657792 
807	 0.446580483888573 
808	 0.448222396217905 
809	 0.449805961546729 
810	 0.451393761919166 
811	 0.452984482409305 
812	 0.454549001069189 
813	 0.456059891027334 
814	 0.457568549449357 
815	 0.459082867696856 
816	 0.460600680059088 
817	 0.462109123486206 
818	 0.463577436678645 
819	 0.465069029233405 
820	 0.466581565972872 
821	 0.467984135239484 
822	 0.469421156908444 
823	 0.470887385413404 
824	 0.472337223624205 
825	 0.473731660632775 
826	 0.475183591158858 
827	 0.476646975798032 
828	 0.478021897992963 
829	 0.479379914595833 
830	 0.480748628813273 
831	 0.482100178528815 
832	 0.483372126515746 
833	 0.484640443236824 
834	 0.485955505878905 
835	 0.487317583753693 
836	 0.488661729280813 
837	 0.489985612637753 
838	 0.49130058753343 
839	 0.492612992175801 
840	 0.493910745971459 
841	 0.4951240790004 
842	 0.496369199065394 
843	 0.497762420674875 
844	 0.49901292218586 
845	 0.500327165451598 
846	 0.501710930391405 
847	 0.503011991409241 
848	 0.504219289377676 
849	 0.505399732250771 
850	 0.506617762338684 
851	 0.507911004282513 
852	 0.509233920685423 
853	 0.510604754767244 
854	 0.511983878762657 
855	 0.513181072363913 
856	 0.51439309597657 
857	 0.515668035506733 
858	 0.516983971308748 
859	 0.51825955700271 
860	 0.519605061133707 
861	 0.520949898039044 
862	 0.522159226969752 
863	 0.523325332871132 
864	 0.524536655233609 
865	 0.525876526749474 
866	 0.527377326870166 
867	 0.528640957648593 
868	 0.529798935612459 
869	 0.531029668948684 
870	 0.532447696969449 
871	 0.533805920524933 
872	 0.535071509248852 
873	 0.536298670683561 
874	 0.537613259863194 
875	 0.538945564578325 
876	 0.540277772387641 
877	 0.541607490568207 
878	 0.542928118699583 
879	 0.544218888798382 
880	 0.545485609414601 
881	 0.546739769430477 
882	 0.547936601292365 
883	 0.54923530892904 
884	 0.550596940779111 
885	 0.551847909548922 
886	 0.553084385265605 
887	 0.554398627927294 
888	 0.55573043284393 
889	 0.556873517425539 
890	 0.558214953217774 
891	 0.559542928956029 
892	 0.560685119512408 
893	 0.561725377172644 
894	 0.562987979017341 
895	 0.564299697578045 
896	 0.565475879951625 
897	 0.566663498986618 
898	 0.567847749592757 
899	 0.569052021069538 
900	 0.57027536647243 
901	 0.571389337038725 
902	 0.572500068278235 
903	 0.573662637048635 
904	 0.574870179979502 
905	 0.575981793074613 
906	 0.577016243361972 
907	 0.578077411303239 
908	 0.57929230089121 
909	 0.580561970971636 
910	 0.581752038081097 
911	 0.582843267572377 
912	 0.583943025017165 
913	 0.585165058200494 
914	 0.586246677760762 
915	 0.58717195406337 
916	 0.588318606109343 
917	 0.589442199348471 
918	 0.590548695517012 
919	 0.591662883000688 
920	 0.592754953442488 
921	 0.59376387427437 
922	 0.594753060278466 
923	 0.59580437322093 
924	 0.596959614213957 
925	 0.598074231005453 
926	 0.599113871946176 
927	 0.600117472743581 
928	 0.601215761390814 
929	 0.602306546643182 
930	 0.603368026329884 
931	 0.604405772816357 
932	 0.605371510317658 
933	 0.606464353229042 
934	 0.607641857982329 
935	 0.608742236881496 
936	 0.609782553150103 
937	 0.610796987562038 
938	 0.611851592097708 
939	 0.613001852339489 
940	 0.61413475828005 
941	 0.61518188803139 
942	 0.616125733810536 
943	 0.617006972754425 
944	 0.617942557146532 
945	 0.618924891527006 
946	 0.619910834407851 
947	 0.620844528745101 
948	 0.621749040960594 
949	 0.622588205419672 
950	 0.623422496057973 
951	 0.624409399376353 
952	 0.625181997234949 
953	 0.625971752113184 
954	 0.626873676178338 
955	 0.62763225934287 
956	 0.628348437779065 
957	 0.629037964399285 
958	 0.629754053064238 
959	 0.630624931025243 
960	 0.631447931951431 
961	 0.63222015484598 
962	 0.632950304477765 
963	 0.633572749615681 
964	 0.634090343401312 
965	 0.634717965864282 
966	 0.635548606930651 
967	 0.636293368396246 
968	 0.637003729821038 
969	 0.637742543553043 
970	 0.638507947223015 
971	 0.639116807030031 
972	 0.639711892635362 
973	 0.640378226478037 
974	 0.641153402039676 
975	 0.642020605845374 
976	 0.642650788705883 
977	 0.643189565233966 
978	 0.643848542489725 
979	 0.644507155480561 
980	 0.645190421454907 
981	 0.645863661391918 
982	 0.646488770936779 
983	 0.647069426372385 
984	 0.647723568788844 
985	 0.648411401546392 
986	 0.649078458712356 
987	 0.649848676901568 
988	 0.650432765839529 
989	 0.650913810166443 
990	 0.651459905196948 
991	 0.652010302118054 
992	 0.652558823568521 
993	 0.65309234647392 
994	 0.653636996131932 
995	 0.654376797002138 
996	 0.654813709216714 
997	 0.655162933185654 
998	 0.655726431660161 
999	 0.656137306247529 
1000	 0.656717192289071 
1001	 0.661516440016139 
1002	 0.662018408498611 
1003	 0.662530337138063 
1004	 0.663009509132508 
1005	 0.663482860140443 
1006	 0.663925668869835 
1007	 0.664294511078002 
1008	 0.664751251155694 
1009	 0.665261748442492 
1010	 0.665705410636174 
1011	 0.666153954834807 
1012	 0.666604088348497 
1013	 0.667008842638419 
1014	 0.667417459129474 
1015	 0.667842559174113 
1016	 0.668271221090678 
1017	 0.668693542225656 
1018	 0.66908862277792 
1019	 0.66952563235723 
1020	 0.669984770632128 
1021	 0.670391692319588 
1022	 0.670762437548794 
1023	 0.671164279664531 
1024	 0.671540539350107 
1025	 0.671951922838034 
1026	 0.672413412510597 
1027	 0.672820561112903 
1028	 0.673225020806846 
1029	 0.673610173675391 
1030	 0.673918363418498 
1031	 0.674293491880288 
1032	 0.674674918697685 
1033	 0.675040875473513 
1034	 0.675483092911085 
1035	 0.675922920253514 
1036	 0.676339541995547 
1037	 0.676740871112015 
1038	 0.677165463195948 
1039	 0.677606645778865 
1040	 0.67801881197497 
1041	 0.678418822607736 
1042	 0.678853346470017 
1043	 0.679304309141622 
1044	 0.679688684972635 
1045	 0.680114600773346 
1046	 0.680577616959177 
1047	 0.681010175838705 
1048	 0.681491089935506 
1049	 0.68196531659009 
1050	 0.682406721897998 
1051	 0.682860829925085 
1052	 0.683266493242303 
1053	 0.683705719092458 
1054	 0.68421022387058 
1055	 0.68463590534689 
1056	 0.68499985872101 
1057	 0.685419629366835 
1058	 0.685841529162066 
1059	 0.686216150665642 
1060	 0.686644725330212 
1061	 0.6871078455683 
1062	 0.687515345214848 
1063	 0.687931377527733 
1064	 0.688361610500598 
1065	 0.688765024581274 
1066	 0.689149581435055 
1067	 0.689527358439282 
1068	 0.689899450690553 
1069	 0.690217871003679 
1070	 0.69055177450617 
1071	 0.690866953667567 
1072	 0.691216173953362 
1073	 0.691579253929368 
1074	 0.692005372280056 
1075	 0.692429748058805 
1076	 0.692790493939144 
1077	 0.693144231442169 
1078	 0.693486889236008 
1079	 0.693815709462458 
1080	 0.694162449790501 
1081	 0.694534139461614 
1082	 0.694887695993246 
1083	 0.695210380990836 
1084	 0.69554896210116 
1085	 0.695897203168751 
1086	 0.69622651507252 
1087	 0.696542522070698 
1088	 0.696859845039002 
1089	 0.697147929504809 
1090	 0.69739821487771 
1091	 0.697644625839494 
1092	 0.697878536033193 
1093	 0.698123126678238 
1094	 0.698375682910345 
1095	 0.698601518203963 
1096	 0.698850906878332 
1097	 0.699122889608882 
1098	 0.699384739618557 
1099	 0.699654635525411 
1100	 0.699906700233231 
1101	 0.700115092229392 
1102	 0.700305702165252 
1103	 0.700489748731649 
1104	 0.70064710647409 
1105	 0.700810897756836 
1106	 0.70099868623645 
1107	 0.701159704916974 
1108	 0.701314687938519 
1109	 0.701499147728822 
1110	 0.70166843746342 
1111	 0.701820495291553 
1112	 0.70196728623073 
1113	 0.702069133288572 
1114	 0.702142701524892 
1115	 0.702215383871943 
1116	 0.702266773809612 
1117	 0.702296964693288 
1118	 0.702326464873954 
1119	 0.702349418881777 
1120	 0.702351740714191 
1121	 0.702348746523674 
1122	 0.702329087403151 
1123	 0.70228951079267 
1124	 0.702197979082505 
1125	 0.702056340126836 
1126	 0.701883855050267 
1127	 0.701641286064105 
1128	 0.701340821677437 
1129	 0.701028987808387 
1130	 0.700680940497426 
1131	 0.700316327905671 
1132	 0.699971049348288 
1133	 0.699600175295499 
1134	 0.699211582689071 
1135	 0.698808345151757 
1136	 0.698348959492739 
1137	 0.697942751598644 
1138	 0.697541137983819 
1139	 0.697162820789759 
1140	 0.696800941755769 
1141	 0.696494599784384 
1142	 0.696183531929621 
1143	 0.695879896766906 
1144	 0.695587420922472 
1145	 0.695256947122997 
1146	 0.694923030949955 
1147	 0.694608280191013 
1148	 0.694306633528508 
1149	 0.694042427736691 
1150	 0.693768978785 
1151	 0.693456738791437 
1152	 0.69310780616424 
1153	 0.692735056011857 
1154	 0.692309680252536 
1155	 0.691843249497641 
1156	 0.691337150028293 
1157	 0.690782652085001 
1158	 0.690213990630861 
1159	 0.689604112141099 
1160	 0.688987063821115 
1161	 0.688342070122292 
1162	 0.687651628477604 
1163	 0.687005550862793 
1164	 0.686351621177566 
1165	 0.68569335869305 
1166	 0.685089667623258 
1167	 0.68447216028302 
1168	 0.68385576969443 
1169	 0.683232341456845 
1170	 0.682631496483988 
1171	 0.68199368881441 
1172	 0.68133575996741 
1173	 0.680653053186705 
1174	 0.679953247674388 
1175	 0.679251456229127 
1176	 0.678526725376683 
1177	 0.677796363114351 
1178	 0.677074327389574 
1179	 0.676306032047892 
1180	 0.67555598494931 
1181	 0.674789091280251 
1182	 0.674008429452388 
1183	 0.673296400752758 
1184	 0.672537489169348 
1185	 0.671796027248025 
1186	 0.671119505020337 
1187	 0.670458079081685 
1188	 0.669859159699578 
1189	 0.669323922624857 
1190	 0.668825491955301 
1191	 0.668373930643843 
1192	 0.667966098266328 
1193	 0.66760877220163 
1194	 0.667276072944554 
1195	 0.666985300468016 
1196	 0.666708098106593 
1197	 0.666456259161041 
1198	 0.666237538936302 
1199	 0.666010999370906 
1200	 0.665834671943902 
1201	 0.665689705464671 
1202	 0.665562051124258 
1203	 0.665484125639375 
1204	 0.665459137082184 
1205	 0.665486811731458 
1206	 0.665534392276512 
1207	 0.665704337179902 
1208	 0.665929213262785 
1209	 0.666270472359875 
1210	 0.666699234032732 
1211	 0.667248883520521 
1212	 0.667902227176736 
1213	 0.668678441537223 
1214	 0.669558328069197 
1215	 0.67057694144839 
1216	 0.671767369234307 
1217	 0.672984666270951 
1218	 0.674318423271748 
1219	 0.675725500544009 
1220	 0.677122796188115 
1221	 0.6786113661085 
1222	 0.680077605740773 
1223	 0.681545297215243 
1224	 0.682984837617027 
1225	 0.68442726636588 
1226	 0.685773496662729 
1227	 0.687094675806418 
1228	 0.68834550497668 
1229	 0.68952077263669 
1230	 0.690655808094187 
1231	 0.691761684750287 
1232	 0.692787658283773 
1233	 0.693736010089411 
1234	 0.694627315393213 
1235	 0.695444758112328 
1236	 0.696226173589116 
1237	 0.696952975541876 
1238	 0.697637362220444 
1239	 0.698259347521837 
1240	 0.6988634107703 
1241	 0.699458865944252 
1242	 0.699993802843517 
1243	 0.700513947314974 
1244	 0.70102476519366 
1245	 0.701489970813589 
1246	 0.701896210531012 
1247	 0.702320136592196 
1248	 0.702739837388644 
1249	 0.703122007707959 
1250	 0.703485223573289 
1251	 0.703830382924449 
1252	 0.704141125857587 
1253	 0.704449364868943 
1254	 0.704766267492311 
1255	 0.705036085368479 
1256	 0.705263345914154 
1257	 0.705492693198404 
1258	 0.705686748748187 
1259	 0.705886859981622 
1260	 0.706100684876865 
1261	 0.706291045556271 
1262	 0.706450851460153 
1263	 0.706627039342905 
1264	 0.706796506122182 
1265	 0.706951974795577 
1266	 0.707119365964664 
1267	 0.707299185739766 
1268	 0.707463314198185 
1269	 0.707623410826314 
1270	 0.707778655270181 
1271	 0.707920694786665 
1272	 0.708074616035774 
1273	 0.708236876756119 
1274	 0.708384116730117 
1275	 0.708528860113652 
1276	 0.708670847014867 
1277	 0.708790619467856 
1278	 0.708929629910579 
1279	 0.709080721506741 
1280	 0.709229864940301 
1281	 0.709389457741124 
1282	 0.709541317545277 
1283	 0.709696104536743 
1284	 0.709838192131811 
1285	 0.709972297321228 
1286	 0.710097700553841 
1287	 0.710223175997243 
1288	 0.710336897533653 
1289	 0.710459783257263 
1290	 0.710588793295876 
1291	 0.710707317891655 
1292	 0.710825465143591 
1293	 0.710934114545388 
1294	 0.711037268580746 
1295	 0.71113102565185 
1296	 0.71120622770261 
1297	 0.711299180828355 
1298	 0.711393889703384 
1299	 0.711486619776187 
1300	 0.711606452345534 
1301	 0.711688691391554 
1302	 0.711739396644829 
1303	 0.711801789018435 
1304	 0.711864696209786 
1305	 0.711905701684345 
1306	 0.711962420811939 
1307	 0.711978177889796 
1308	 0.711946017362074 
1309	 0.711910634090606 
1310	 0.71187554304445 
1311	 0.711820752697153 
1312	 0.711777742342018 
1313	 0.711756272733527 
1314	 0.711684352701283 
1315	 0.711582111310824 
1316	 0.711497666006573 
1317	 0.711384813054721 
1318	 0.711300896968576 
1319	 0.711260153668195 
1320	 0.711167875101143 
1321	 0.71106847107123 
1322	 0.710941713151411 
1323	 0.71078476897726 
1324	 0.710616989247219 
1325	 0.710441861638244 
1326	 0.710236322866492 
1327	 0.710001387197001 
1328	 0.709758296353637 
1329	 0.709484724231545 
1330	 0.709215352481894 
1331	 0.70896671648721 
1332	 0.708672060425121 
1333	 0.708348238518986 
1334	 0.708016505632431 
1335	 0.707668235844419 
1336	 0.707288889695459 
1337	 0.706900927302592 
1338	 0.706516489242189 
1339	 0.706091580119986 
1340	 0.705646012902601 
1341	 0.705154229870317 
1342	 0.704636591954045 
1343	 0.704081017428713 
1344	 0.703480352433076 
1345	 0.702854732907761 
1346	 0.702203345567908 
1347	 0.701521357165286 
1348	 0.700802304491476 
1349	 0.700061150689414 
1350	 0.699284349164678 
1351	 0.698499273410841 
1352	 0.697688462184585 
1353	 0.696867383748984 
1354	 0.696031575304755 
1355	 0.69519024462311 
1356	 0.694321127122975 
1357	 0.693464441333895 
1358	 0.692591882313071 
1359	 0.69174431652078 
1360	 0.690917531876099 
1361	 0.690094765217902 
1362	 0.689264011422717 
1363	 0.688465644861921 
1364	 0.687618831189994 
1365	 0.686762225659335 
1366	 0.685867787922198 
1367	 0.684949965957037 
1368	 0.684005524759148 
1369	 0.683050659443032 
1370	 0.682020743770886 
1371	 0.680946121597275 
1372	 0.679851404152005 
1373	 0.678698171223015 
1374	 0.677532248031816 
1375	 0.676344140648636 
1376	 0.675130649288878 
1377	 0.673873200347735 
1378	 0.672602066174995 
1379	 0.671310829515126 
1380	 0.67000749250797 
1381	 0.668667564004693 
1382	 0.667335388780567 
1383	 0.665993002997547 
1384	 0.66465917300002 
1385	 0.663312434934259 
1386	 0.662000003675898 
1387	 0.660674152781256 
1388	 0.659428869647348 
1389	 0.658224710974176 
1390	 0.657071950367562 
1391	 0.656019696364959 
1392	 0.654928891037242 
1393	 0.653932147041252 
1394	 0.652927460676643 
1395	 0.651899118784224 
1396	 0.650914566218118 
1397	 0.649817176028725 
1398	 0.648707967216249 
1399	 0.647438391687386 
1400	 0.64609410731761 
1401	 0.644604236245232 
1402	 0.642988384430093 
1403	 0.641252460958345 
1404	 0.639369130919823 
1405	 0.637460484820564 
1406	 0.635401959837834 
1407	 0.633392544945092 
1408	 0.631280421102696 
1409	 0.629315764522031 
1410	 0.627325624613718 
1411	 0.625520323095322 
1412	 0.623805907462208 
1413	 0.622280233926473 
1414	 0.620910464705383 
1415	 0.619654051544734 
1416	 0.618594022584939 
1417	 0.617571914811272 
1418	 0.616690603095524 
1419	 0.615797916747253 
1420	 0.614973810112929 
1421	 0.614156533162051 
1422	 0.613337356878736 
1423	 0.612554460465577 
1424	 0.611811586109444 
1425	 0.611062509567552 
1426	 0.610390306907875 
1427	 0.609761507377299 
1428	 0.609176032222269 
1429	 0.608690762907204 
1430	 0.60822432795501 
1431	 0.60780436622498 
1432	 0.60741623400427 
1433	 0.6070699764294 
1434	 0.606765535616068 
1435	 0.606496203534557 
1436	 0.606270065887556 
1437	 0.606092816901376 
1438	 0.605950158929384 
1439	 0.605847225746599 
1440	 0.605773202345901 
1441	 0.605753271733064 
1442	 0.605728255185755 
1443	 0.605728205403317 
1444	 0.605728302011071 
1445	 0.605739012481336 
1446	 0.605755336646296 
1447	 0.605766996621993 
1448	 0.605812968301313 
1449	 0.605870701118468 
1450	 0.605955165273957 
1451	 0.606080957661755 
1452	 0.606202423248178 
1453	 0.606356458462073 
1454	 0.606480028278661 
1455	 0.606589331039607 
1456	 0.606706268262887 
1457	 0.606813317165827 
1458	 0.606920004184438 
1459	 0.607024544397268 
1460	 0.607142755890115 
1461	 0.607257035953419 
1462	 0.607382133369523 
1463	 0.607528121534541 
1464	 0.607671918433862 
1465	 0.607811305845545 
1466	 0.607965693100684 
1467	 0.608103522444157 
1468	 0.608277815462096 
1469	 0.60846145411906 
1470	 0.60862297284833 
1471	 0.608775890089162 
1472	 0.608935699231667 
1473	 0.609059581548347 
1474	 0.609154724652854 
1475	 0.609247567032783 
1476	 0.609337193613618 
1477	 0.609385452890118 
1478	 0.609422685345673 
1479	 0.609406522824216 
1480	 0.609343953594937 
1481	 0.609264254538893 
1482	 0.609145325000439 
1483	 0.609014937272179 
1484	 0.608869438873841 
1485	 0.608685515218244 
1486	 0.608463630022564 
1487	 0.608242727081387 
1488	 0.607976960869746 
1489	 0.607746767309566 
1490	 0.607513709023479 
1491	 0.607309065225446 
1492	 0.6071248420795 
1493	 0.606950529266233 
1494	 0.606791586839892 
1495	 0.606652375055302 
1496	 0.606523994689295 
1497	 0.606417387661242 
1498	 0.606336334986225 
1499	 0.606267745629922 
1500	 0.606203159131777 
1501	 0.606177909248113 
1502	 0.60618428848302 
1503	 0.606203910346537 
1504	 0.606260019160925 
1505	 0.606318651688913 
1506	 0.606383000880894 
1507	 0.6064666773879 
1508	 0.606575739817839 
1509	 0.606682865266443 
1510	 0.606796911418514 
1511	 0.606923323688058 
1512	 0.607051811077544 
1513	 0.607194271398654 
1514	 0.607359708826294 
1515	 0.607523843416958 
1516	 0.607685385812606 
1517	 0.607865251213714 
1518	 0.608050570442245 
1519	 0.608252683350133 
1520	 0.608477570524889 
1521	 0.60871079108865 
1522	 0.608946957282088 
1523	 0.609196966256165 
1524	 0.609444845523988 
1525	 0.609692450693397 
1526	 0.609959049342591 
1527	 0.610238429587864 
1528	 0.610510432274789 
1529	 0.610787192844246 
1530	 0.611079762582124 
1531	 0.611374450224639 
1532	 0.611674884445394 
1533	 0.611997731848815 
1534	 0.612305187644418 
1535	 0.612593379884319 
1536	 0.612915627679434 
1537	 0.613257328802347 
1538	 0.613589617589327 
1539	 0.613941758550943 
1540	 0.614269658660353 
1541	 0.614574644284593 
1542	 0.61490377787526 
1543	 0.615233014915592 
1544	 0.615572378837321 
1545	 0.615930331939478 
1546	 0.616277484410727 
1547	 0.616628945717752 
1548	 0.616967967611971 
1549	 0.61731043965396 
1550	 0.617626891870601 
1551	 0.617932277306302 
1552	 0.618214487264254 
1553	 0.618481788434502 
1554	 0.618719198336601 
1555	 0.618936473830585 
1556	 0.619123560702669 
1557	 0.619274583292478 
1558	 0.619416355557681 
1559	 0.619532630379176 
1560	 0.619639445647942 
1561	 0.61971864101264 
1562	 0.619813941169733 
1563	 0.619905172573276 
1564	 0.619993183832989 
1565	 0.620092126643663 
1566	 0.620175045143501 
1567	 0.620233430239763 
1568	 0.620312311748729 
1569	 0.620386916829534 
1570	 0.62048201923459 
1571	 0.62059555319859 
1572	 0.620710610913617 
1573	 0.620829821525356 
1574	 0.620967798657126 
1575	 0.62113637113903 
1576	 0.621274469581671 
1577	 0.621404589837392 
1578	 0.621548119670811 
1579	 0.62167036905752 
1580	 0.621814229870007 
1581	 0.621980881992742 
1582	 0.622155324705087 
1583	 0.622321267168745 
1584	 0.6225226964848 
1585	 0.622763948835546 
1586	 0.622996501130379 
1587	 0.623257818418852 
1588	 0.62349391785697 
1589	 0.623714763285535 
1590	 0.623939898130304 
1591	 0.624151095267386 
1592	 0.624375862886718 
1593	 0.624612276575745 
1594	 0.624842718826403 
1595	 0.625086848167797 
1596	 0.625308040608959 
1597	 0.625511628569691 
1598	 0.625718623792793 
1599	 0.625917759523566 
1600	 0.626109601561794 
1601	 0.626311818438592 
1602	 0.626487147015434 
1603	 0.626639397241808 
1604	 0.6267852952444 
1605	 0.626906004101514 
1606	 0.627036174228865 
1607	 0.627170755998247 
1608	 0.627292873262891 
1609	 0.627431871413924 
1610	 0.627527917710633 
1611	 0.627596249246624 
1612	 0.627646832545202 
1613	 0.627672451967679 
1614	 0.627670880534888 
1615	 0.627651239507274 
1616	 0.62760312028706 
1617	 0.627523317788798 
1618	 0.627419361856858 
1619	 0.627282633456585 
1620	 0.627135957763837 
1621	 0.626957978809443 
1622	 0.626777571408555 
1623	 0.62659554171893 
1624	 0.626391859107029 
1625	 0.626168218994678 
1626	 0.625938907636237 
1627	 0.625691798980168 
1628	 0.625439026834304 
1629	 0.625171360914615 
1630	 0.624913302348426 
1631	 0.624649854495329 
1632	 0.624388204284289 
1633	 0.624129505184878 
1634	 0.623877732207939 
1635	 0.623618876287531 
1636	 0.623383464361704 
1637	 0.623179194812405 
1638	 0.622955564949066 
1639	 0.622750263496266 
1640	 0.622511847209357 
1641	 0.622270796322741 
1642	 0.621981447429994 
1643	 0.621681928880641 
1644	 0.621309657323037 
1645	 0.620925607220429 
1646	 0.620408300907295 
1647	 0.619833750220548 
1648	 0.619103103347109 
1649	 0.618262856786524 
1650	 0.617247237739415 
1651	 0.616049066750348 
1652	 0.614770711488894 
1653	 0.61331780280559 
1654	 0.611815427919372 
1655	 0.610175021814334 
1656	 0.608549593376147 
1657	 0.606861288113914 
1658	 0.60515473521185 
1659	 0.603448775058416 
1660	 0.60171783382247 
1661	 0.59995842631969 
1662	 0.598148910202913 
1663	 0.596325891947886 
1664	 0.594416545893771 
1665	 0.592415485037612 
1666	 0.590392605416561 
1667	 0.588281024071618 
1668	 0.586248140510048 
1669	 0.584191114549218 
1670	 0.582209518300599 
1671	 0.580244138052366 
1672	 0.578381336446852 
1673	 0.576618038074575 
1674	 0.57486405485039 
1675	 0.57320867933042 
1676	 0.571571967175861 
1677	 0.569964469475303 
1678	 0.568351809213329 
1679	 0.566775894912109 
1680	 0.565176783865079 
1681	 0.563564579770891 
1682	 0.561940040427247 
1683	 0.560323928051613 
1684	 0.558717173840903 
1685	 0.557100628981222 
1686	 0.555469873465802 
1687	 0.553847300006504 
1688	 0.552188166064352 
1689	 0.550508459137563 
1690	 0.548775700793399 
1691	 0.547035301127713 
1692	 0.545257892886143 
1693	 0.543453293833843 
1694	 0.541561189323079 
1695	 0.539610600244325 
1696	 0.53758392461155 
1697	 0.535461155286414 
1698	 0.533286668502356 
1699	 0.531048200652638 
1700	 0.528839072886026 
1701	 0.526544127428894 
1702	 0.524360142236801 
1703	 0.522181965724194 
1704	 0.520115573084186 
1705	 0.518099123963996 
1706	 0.516123117386047 
1707	 0.514378858031348 
1708	 0.512680782984439 
1709	 0.511093001573304 
1710	 0.509653101716867 
1711	 0.508195102555938 
1712	 0.506829697402577 
1713	 0.505474314599465 
1714	 0.504083442957071 
1715	 0.502814899895416 
1716	 0.501519197393413 
1717	 0.500262600407814 
1718	 0.499102116197092 
1719	 0.497952023755124 
1720	 0.496956685650591 
1721	 0.496089239069307 
1722	 0.495364539889408 
1723	 0.494845136695911 
1724	 0.494399607767534 
1725	 0.494146296540127 
1726	 0.494167057551709 
1727	 0.494399364512967 
1728	 0.494910005318895 
1729	 0.495711847625805 
1730	 0.496753317531184 
1731	 0.497928191527585 
1732	 0.499317080101113 
1733	 0.500781112061933 
1734	 0.502274258333409 
1735	 0.503861145360186 
1736	 0.505354399203553 
1737	 0.506772092881221 
1738	 0.508080602171382 
1739	 0.509144409689245 
1740	 0.510077084547565 
1741	 0.510778780724747 
1742	 0.51118561732362 
1743	 0.511529714495044 
1744	 0.51168260916914 
1745	 0.511778497782725 
1746	 0.511743736527443 
1747	 0.511698696890482 
1748	 0.511534119882658 
1749	 0.511421142708979 
1750	 0.511288598850863 
1751	 0.511198361164213 
1752	 0.511102454820197 
1753	 0.511101140590764 
1754	 0.511123119521752 
1755	 0.511272278124819 
1756	 0.511485845055997 
1757	 0.511829902591792 
1758	 0.512335055013907 
1759	 0.512954286647118 
1760	 0.513767496578901 
1761	 0.51474720589619 
1762	 0.515793353306809 
1763	 0.517051257489074 
1764	 0.518437431539096 
1765	 0.519935570870039 
1766	 0.521643110972925 
1767	 0.523336886002238 
1768	 0.525075707041872 
1769	 0.526844288117957 
1770	 0.52844613656482 
1771	 0.530047635207161 
1772	 0.531564821188081 
1773	 0.532943806788023 
1774	 0.534347480178034 
1775	 0.535609413187279 
1776	 0.536800966991763 
1777	 0.537955908210358 
1778	 0.538924193244051 
1779	 0.539846932894255 
1780	 0.54068564392124 
1781	 0.541410653567824 
1782	 0.542112762881905 
1783	 0.542725029801422 
1784	 0.543283628129161 
1785	 0.543733827515311 
1786	 0.54410467839615 
1787	 0.54436022262598 
1788	 0.544625612664368 
1789	 0.54482135632845 
1790	 0.545026722092739 
1791	 0.545240613998577 
1792	 0.545421126881459 
1793	 0.545566388261508 
1794	 0.54572129919949 
1795	 0.545860702448879 
1796	 0.545994914320704 
1797	 0.546157195935824 
1798	 0.546311275934253 
1799	 0.546473344271999 
1800	 0.54666149304423 
1801	 0.550364728344615 
1802	 0.550567110420204 
1803	 0.550775124375284 
1804	 0.550983828682286 
1805	 0.551196834819638 
1806	 0.551401639591759 
1807	 0.551608423372267 
1808	 0.551812631000263 
1809	 0.551997804471798 
1810	 0.552209265555254 
1811	 0.552423170293161 
1812	 0.552657562953656 
1813	 0.552902386936332 
1814	 0.553184386072149 
1815	 0.553446105104478 
1816	 0.553726062528811 
1817	 0.554012699875232 
1818	 0.554288480119609 
1819	 0.55459595020998 
1820	 0.554923032586046 
1821	 0.555263192503657 
1822	 0.555625172898935 
1823	 0.556009839662864 
1824	 0.556358107146709 
1825	 0.556714553903722 
1826	 0.557069874349064 
1827	 0.55742123018286 
1828	 0.557752427334712 
1829	 0.558078719166724 
1830	 0.558407189547091 
1831	 0.558711462284292 
1832	 0.559030419862707 
1833	 0.559367234666454 
1834	 0.559725099625949 
1835	 0.560101508935027 
1836	 0.56045387829034 
1837	 0.560810208981083 
1838	 0.561176371666594 
1839	 0.56152622429111 
1840	 0.561857854268023 
1841	 0.562203384630853 
1842	 0.562548195157984 
1843	 0.562900197676818 
1844	 0.563262603451708 
1845	 0.563581008547892 
1846	 0.563846636727725 
1847	 0.564098553040407 
1848	 0.564335393192374 
1849	 0.564540546344371 
1850	 0.564733383834657 
1851	 0.564928016514971 
1852	 0.565087173966013 
1853	 0.565198197466175 
1854	 0.565272129785246 
1855	 0.565301468379881 
1856	 0.565308855016046 
1857	 0.565294432940343 
1858	 0.565245627744148 
1859	 0.565169072191264 
1860	 0.565087665615785 
1861	 0.564931034212201 
1862	 0.564724195842882 
1863	 0.56449604230732 
1864	 0.564184463140352 
1865	 0.563831869511225 
1866	 0.563420262685906 
1867	 0.562913737587692 
1868	 0.56238630635409 
1869	 0.561780434951503 
1870	 0.561112013719347 
1871	 0.560391086051762 
1872	 0.559622732718305 
1873	 0.558791842280022 
1874	 0.557925956263494 
1875	 0.55701749158472 
1876	 0.555940928548683 
1877	 0.554814232760315 
1878	 0.553549464748236 
1879	 0.552102327966902 
1880	 0.550622670437376 
1881	 0.548956059646082 
1882	 0.547125017876049 
1883	 0.545171951742952 
1884	 0.543045689282933 
1885	 0.540617988835385 
1886	 0.538132497631421 
1887	 0.535403206703216 
1888	 0.532419462160631 
1889	 0.529527603541966 
1890	 0.526384375535345 
1891	 0.523177700255624 
1892	 0.519974579901014 
1893	 0.51661295980133 
1894	 0.513054544433899 
1895	 0.509605933098389 
1896	 0.506060696115919 
1897	 0.50246412936396 
1898	 0.499147517229729 
1899	 0.495745790590052 
1900	 0.492424782148642 
1901	 0.489244359309491 
1902	 0.485929716374547 
1903	 0.482820256318309 
1904	 0.479803312445121 
1905	 0.476832614993285 
1906	 0.473985454311052 
1907	 0.471487866553493 
1908	 0.468993261237596 
1909	 0.466678039617855 
1910	 0.464562974744482 
1911	 0.4623623086347 
1912	 0.460344181071074 
1913	 0.458448700098454 
1914	 0.456605452968706 
1915	 0.454936650730861 
1916	 0.453465866246503 
1917	 0.45204536259512 
1918	 0.450696020342792 
1919	 0.449438629204635 
1920	 0.448193449424022 
1921	 0.447069327528282 
1922	 0.446007262520173 
1923	 0.445011570549864 
1924	 0.444189746526184 
1925	 0.443426069539622 
1926	 0.442727931653508 
1927	 0.442144821121669 
1928	 0.441599778807822 
1929	 0.441106214954123 
1930	 0.440655757951449 
1931	 0.440280578508566 
1932	 0.439964483273502 
1933	 0.43973190424025 
1934	 0.439570691529513 
1935	 0.439478934231971 
1936	 0.439452395341556 
1937	 0.439473243334921 
1938	 0.439548843908555 
1939	 0.4396777077246 
1940	 0.439870393529478 
1941	 0.440095756731797 
1942	 0.440350487072997 
1943	 0.440672425330292 
1944	 0.441020636688226 
1945	 0.441399060272172 
1946	 0.441867170502652 
1947	 0.4423338897585 
1948	 0.442795491819758 
1949	 0.4432889060468 
1950	 0.443770432773547 
1951	 0.444230001050649 
1952	 0.444713885653474 
1953	 0.445212611046155 
1954	 0.445722519232022 
1955	 0.446234599928521 
1956	 0.446717979392236 
1957	 0.44721389896661 
1958	 0.447701103516888 
1959	 0.448142184773364 
1960	 0.448592657788295 
1961	 0.449004373138161 
1962	 0.449363315447591 
1963	 0.449738130727548 
1964	 0.450103630270304 
1965	 0.450448995850612 
1966	 0.450785177419905 
1967	 0.45112938168047 
1968	 0.451410471420736 
1969	 0.451714250432208 
1970	 0.452026712678262 
1971	 0.452296759363408 
1972	 0.452597364025666 
1973	 0.45291392660161 
1974	 0.453238250163498 
1975	 0.453572181387048 
1976	 0.453919025532241 
1977	 0.454282723197864 
1978	 0.454647009859244 
1979	 0.455011309837403 
1980	 0.455392899432205 
1981	 0.455796433791894 
1982	 0.456182614986808 
1983	 0.456592258113403 
1984	 0.457018745298711 
1985	 0.4574114448519 
1986	 0.457807579612497 
1987	 0.458203567588851 
1988	 0.458589857544907 
1989	 0.458975575077072 
1990	 0.459386745552225 
1991	 0.45975864369964 
1992	 0.460126693393561 
1993	 0.460449825987138 
1994	 0.460742775910307 
1995	 0.46099042848074 
1996	 0.461197512827177 
1997	 0.461392419341888 
1998	 0.461578806414019 
1999	 0.461747710293719 
2000	 0.4618980674522 
2001	 0.462036253683973 
2002	 0.462154815269383 
2003	 0.462257885129206 
2004	 0.462332641814145 
2005	 0.462390424576822 
2006	 0.462424683824456 
2007	 0.462430127418631 
2008	 0.462414411677391 
2009	 0.462370057664412 
2010	 0.462296028802802 
2011	 0.462213838077095 
2012	 0.462094697531056 
2013	 0.461928748230578 
2014	 0.461740391785866 
2015	 0.461499042262322 
2016	 0.461214654761436 
2017	 0.460870921930712 
2018	 0.460468376964679 
2019	 0.460036956135901 
2020	 0.459581049653513 
2021	 0.459022054362677 
2022	 0.458429922787228 
2023	 0.45781892843436 
2024	 0.457083569987953 
2025	 0.456312795141944 
2026	 0.455486590572778 
2027	 0.454573605010303 
2028	 0.45367370678632 
2029	 0.452748854391963 
2030	 0.451766764200971 
2031	 0.450797345804498 
2032	 0.449724192892674 
2033	 0.448529128515839 
2034	 0.447361787181778 
2035	 0.446159669364881 
2036	 0.444883263888986 
2037	 0.443708614781603 
2038	 0.442502243481405 
2039	 0.44130530246648 
2040	 0.44014107887798 
2041	 0.438931242287042 
2042	 0.437661518147567 
2043	 0.436477035457169 
2044	 0.435256447032221 
2045	 0.434148380022213 
2046	 0.433117127038407 
2047	 0.43213445326443 
2048	 0.431196459073675 
2049	 0.430352196643548 
2050	 0.429564644581846 
2051	 0.428865821419647 
2052	 0.42827524494481 
2053	 0.427791260696981 
2054	 0.4274326425651 
2055	 0.427199039717398 
2056	 0.42705670248623 
2057	 0.427018873271573 
2058	 0.427111598804755 
2059	 0.427307365346305 
2060	 0.427630706798747 
2061	 0.42814105957635 
2062	 0.428674419747874 
2063	 0.429298323869384 
2064	 0.430001156862498 
2065	 0.430786375711496 
2066	 0.431623338605914 
2067	 0.432577663477851 
2068	 0.433534409885059 
2069	 0.434502084718973 
2070	 0.43554325825799 
2071	 0.436488778323008 
2072	 0.437426142023534 
2073	 0.438314654120342 
2074	 0.439128430855471 
2075	 0.43995703843236 
2076	 0.440803189028967 
2077	 0.441565880328461 
2078	 0.442330999215426 
2079	 0.442992812250217 
2080	 0.44356701686865 
2081	 0.444082859338545 
2082	 0.444531220755219 
2083	 0.444893575503299 
2084	 0.445221146578632 
2085	 0.44548680222342 
2086	 0.445682899873226 
2087	 0.44582556912684 
2088	 0.445886176639838 
2089	 0.445841337558919 
2090	 0.445789603220234 
2091	 0.445673084194386 
2092	 0.445541654545672 
2093	 0.445374927347054 
2094	 0.445191069100182 
2095	 0.444977278447544 
2096	 0.444737445559803 
2097	 0.444481507360192 
2098	 0.444188497460815 
2099	 0.443873171915441 
2100	 0.443529097543149 
2101	 0.443135602142878 
2102	 0.44269797925675 
2103	 0.442257603314098 
2104	 0.441773526191867 
2105	 0.44128045108078 
2106	 0.440793434386469 
2107	 0.440253533988845 
2108	 0.439674929780959 
2109	 0.439070959892841 
2110	 0.438450963633228 
2111	 0.437777976482053 
2112	 0.43703810723182 
2113	 0.436301451889793 
2114	 0.4355401600081 
2115	 0.434744290257982 
2116	 0.433934086804668 
2117	 0.433116992807559 
2118	 0.432219481073363 
2119	 0.43125985296227 
2120	 0.43029016176447 
2121	 0.429252093734622 
2122	 0.428244735726996 
2123	 0.427255108309727 
2124	 0.426192369439973 
2125	 0.425125287938931 
2126	 0.423988922423993 
2127	 0.422775821158235 
2128	 0.421549833254372 
2129	 0.420249344088524 
2130	 0.418978643526738 
2131	 0.417693085088124 
2132	 0.416403711186983 
2133	 0.415107925239261 
2134	 0.413851825682657 
2135	 0.412517732646459 
2136	 0.411212864270048 
2137	 0.40996452560086 
2138	 0.408707882677449 
2139	 0.407559719443472 
2140	 0.406499151194011 
2141	 0.405458377941156 
2142	 0.404484367983244 
2143	 0.403528690815007 
2144	 0.402606153255329 
2145	 0.401724223321032 
2146	 0.400859458951022 
2147	 0.400065071524924 
2148	 0.39932705712531 
2149	 0.398629136930349 
2150	 0.398028914212256 
2151	 0.397407105457335 
2152	 0.396788385289573 
2153	 0.39621491224173 
2154	 0.395635355490376 
2155	 0.395084126366198 
2156	 0.394628597359132 
2157	 0.394233088283635 
2158	 0.393894355408602 
2159	 0.393640045016344 
2160	 0.393405708890171 
2161	 0.393213071506837 
2162	 0.393074175087389 
2163	 0.392985442483789 
2164	 0.392934991430443 
2165	 0.392948543298013 
2166	 0.392974741519419 
2167	 0.393030818752314 
2168	 0.393119733466044 
2169	 0.393234028303655 
2170	 0.393388666206997 
2171	 0.393579902450814 
2172	 0.39380902307682 
2173	 0.39407177858903 
2174	 0.394375924565407 
2175	 0.394726526173965 
2176	 0.395147426782977 
2177	 0.395564089337379 
2178	 0.396047504243185 
2179	 0.396463788959069 
2180	 0.396885419681687 
2181	 0.39725132238545 
2182	 0.397597000741784 
2183	 0.397885793582298 
2184	 0.39812862048642 
2185	 0.398334011633967 
2186	 0.398471670481618 
2187	 0.398614424900849 
2188	 0.398728873987032 
2189	 0.398834089940686 
2190	 0.398925782545539 
2191	 0.399001137865462 
2192	 0.399049576741609 
2193	 0.39909664578163 
2194	 0.399150853669699 
2195	 0.399172140548208 
2196	 0.399193016196645 
2197	 0.399162499580515 
2198	 0.399123507605227 
2199	 0.399006388190611 
2200	 0.398843891043936 
2201	 0.398622079149765 
2202	 0.39839906944804 
2203	 0.398114009164755 
2204	 0.397847943314232 
2205	 0.397557828361683 
2206	 0.397312637798179 
2207	 0.397038701342054 
2208	 0.396855133582496 
2209	 0.396717751472191 
2210	 0.396645104630923 
2211	 0.396661673856255 
2212	 0.396667182367591 
2213	 0.396764620189572 
2214	 0.396787949254834 
2215	 0.396809994095283 
2216	 0.396776120190839 
2217	 0.396715187084023 
2218	 0.39659213817171 
2219	 0.396452439507529 
2220	 0.396204935048081 
2221	 0.395876986212364 
2222	 0.395476430980754 
2223	 0.395004530953711 
2224	 0.394431023888916 
2225	 0.393806936439794 
2226	 0.393093474949769 
2227	 0.39226496100597 
2228	 0.391318490478705 
2229	 0.390331279176823 
2230	 0.389218159585987 
2231	 0.388117113935826 
2232	 0.387007069223007 
2233	 0.385762241668674 
2234	 0.3844686434874 
2235	 0.383061305425155 
2236	 0.381500756617898 
2237	 0.379948458669487 
2238	 0.378308673761014 
2239	 0.376668129398532 
2240	 0.375017141774323 
2241	 0.373286726225288 
2242	 0.371548312538209 
2243	 0.369706855797595 
2244	 0.367745215710961 
2245	 0.365792505165844 
2246	 0.363728114528516 
2247	 0.361706783542132 
2248	 0.35972347110996 
2249	 0.357681751453452 
2250	 0.35561149536663 
2251	 0.353571539004409 
2252	 0.351380617702169 
2253	 0.349244637469651 
2254	 0.34707926878056 
2255	 0.344925432131652 
2256	 0.342997774063779 
2257	 0.341036844035188 
2258	 0.339138854863304 
2259	 0.337367658421565 
2260	 0.335534088264936 
2261	 0.333668338255867 
2262	 0.331882788920506 
2263	 0.330081808520979 
2264	 0.328422982279403 
2265	 0.326867392968182 
2266	 0.325316770442423 
2267	 0.323923249769094 
2268	 0.322402010861863 
2269	 0.320780127505113 
2270	 0.319291008040631 
2271	 0.31777588344702 
2272	 0.316380303229781 
2273	 0.315151761694527 
2274	 0.313869727381992 
2275	 0.312630449520139 
2276	 0.311379442065001 
2277	 0.310149168273143 
2278	 0.308895510855359 
2279	 0.307630897519142 
2280	 0.306348362191786 
2281	 0.305053944520754 
2282	 0.303724316236966 
2283	 0.302380269073863 
2284	 0.301029694680551 
2285	 0.299548261455442 
2286	 0.298073226049658 
2287	 0.296516892792182 
2288	 0.29493604192387 
2289	 0.293485423988211 
2290	 0.291946032839412 
2291	 0.290386489682337 
2292	 0.288855701253318 
2293	 0.287163990570208 
2294	 0.285504675671833 
2295	 0.283951684243025 
2296	 0.282417408414924 
2297	 0.281103804870962 
2298	 0.279944581138501 
2299	 0.278943473698215 
2300	 0.278069609469969 
2301	 0.277468391201467 
2302	 0.277045407183676 
2303	 0.276907234158699 
2304	 0.277042213627427 
2305	 0.277396350315183 
2306	 0.277990053562296 
2307	 0.278878428085633 
2308	 0.280027994516437 
2309	 0.281472796619805 
2310	 0.2833241375556 
2311	 0.28523074130653 
2312	 0.287542454001692 
2313	 0.289665148850007 
2314	 0.291879426448241 
2315	 0.294000655408261 
2316	 0.296086936898496 
2317	 0.298040542382465 
2318	 0.300015629728447 
2319	 0.301709552511306 
2320	 0.303280365508694 
2321	 0.304578493065927 
2322	 0.305597884433847 
2323	 0.306456082363819 
2324	 0.307037563565724 
2325	 0.307488196928051 
2326	 0.30774915434846 
2327	 0.307873421990342 
2328	 0.3078151546988 
2329	 0.307617192067895 
2330	 0.307257156544568 
2331	 0.306758509920915 
2332	 0.306098517266966 
2333	 0.305275298722276 
2334	 0.30427563527773 
2335	 0.303164681722222 
2336	 0.301911391432072 
2337	 0.300568955503799 
2338	 0.299237183109396 
2339	 0.29781488783305 
2340	 0.296438143612168 
2341	 0.29507422565496 
2342	 0.293706102285424 
2343	 0.292567839262305 
2344	 0.291708348407136 
2345	 0.291131880148726 
2346	 0.290877280757823 
2347	 0.290979227386936 
2348	 0.291274862564447 
2349	 0.291917570096626 
2350	 0.292934590865806 
2351	 0.294172613734831 
2352	 0.295652078841057 
2353	 0.29728340032764 
2354	 0.298830805768373 
2355	 0.300331479156888 
2356	 0.301681095539266 
2357	 0.30283545456784 
2358	 0.303944614373611 
2359	 0.304830971966893 
2360	 0.30560031660049 
2361	 0.306223701008697 
2362	 0.306647953312878 
2363	 0.307009697641345 
2364	 0.307223493165155 
2365	 0.307321408201034 
2366	 0.30748344897567 
2367	 0.30759042108117 
2368	 0.30766680708581 
2369	 0.307813640677529 
2370	 0.307905819103219 
2371	 0.30796556749743 
2372	 0.308036584483221 
2373	 0.308154348517401 
2374	 0.308225160630598 
2375	 0.308268820512542 
2376	 0.308429940076067 
2377	 0.308550799506865 
2378	 0.308678968355338 
2379	 0.308924033948822 
2380	 0.309048349446312 
2381	 0.309128040253704 
2382	 0.309252062369806 
2383	 0.309313047675609 
2384	 0.30948369095944 
2385	 0.309767779922882 
2386	 0.310010636842507 
2387	 0.31034918776111 
2388	 0.310542230143968 
2389	 0.310648330704444 
2390	 0.310718234663966 
2391	 0.310687905851018 
2392	 0.310704980949555 
2393	 0.310711804212079 
2394	 0.310725477104726 
2395	 0.310747361738559 
2396	 0.310743713572545 
2397	 0.310754902332075 
2398	 0.310651013030277 
2399	 0.310481812455029 
2400	 0.310323304164128 
2401	 0.310049882864986 
2402	 0.309949120072241 
2403	 0.309835353794165 
2404	 0.309665362845173 
2405	 0.309565688648183 
2406	 0.309496292447099 
2407	 0.309429693644164 
2408	 0.309526856566315 
2409	 0.309694282684016 
2410	 0.309830622349981 
2411	 0.310140990065483 
2412	 0.310525185260038 
2413	 0.310899696569616 
2414	 0.31139280347606 
2415	 0.311883076787518 
2416	 0.312232582570478 
2417	 0.312488436118762 
2418	 0.312626568659985 
2419	 0.312711505711304 
2420	 0.312857571900897 
2421	 0.313008537075328 
2422	 0.313140609439333 
2423	 0.313145667022595 
2424	 0.313043573589685 
2425	 0.312907969844549 
2426	 0.312827381911223 
2427	 0.312917225876717 
2428	 0.312845956252113 
2429	 0.312587339511533 
2430	 0.312416620160581 
2431	 0.312169278050297 
2432	 0.31187456953786 
2433	 0.311706508192359 
2434	 0.311451352402029 
2435	 0.310992463269743 
2436	 0.310629352989585 
2437	 0.310439596813158 
2438	 0.310160340139991 
2439	 0.309725076774613 
2440	 0.309155077487568 
2441	 0.308535789215951 
2442	 0.307898598046057 
2443	 0.307292913514121 
2444	 0.306875148870934 
2445	 0.306314917394422 
2446	 0.305621878073391 
2447	 0.305102969673006 
2448	 0.304467031261158 
2449	 0.303744428724747 
2450	 0.303113806921418 
2451	 0.302414232061344 
2452	 0.30169569719502 
2453	 0.301098043175794 
2454	 0.300593366517743 
2455	 0.30007048341962 
2456	 0.299539823812662 
2457	 0.299022631374476 
2458	 0.298537928125957 
2459	 0.298042206421804 
2460	 0.297573931766908 
2461	 0.297213789018176 
2462	 0.296735467052554 
2463	 0.296233605598091 
2464	 0.295844981046351 
2465	 0.295508952430989 
2466	 0.295279009521838 
2467	 0.295180323830133 
2468	 0.295108699907708 
2469	 0.294938020902138 
2470	 0.2947304115011 
2471	 0.294422089244829 
2472	 0.294148644668723 
2473	 0.294184298260883 
2474	 0.294310914963358 
2475	 0.294436141046421 
2476	 0.294525493403963 
2477	 0.294379592372672 
2478	 0.294212604065103 
2479	 0.29408196437763 
2480	 0.294238608853417 
2481	 0.294180924532932 
2482	 0.293841004160344 
2483	 0.294006763407789 
2484	 0.293981337568378 
2485	 0.294220247222495 
2486	 0.294576853947807 
2487	 0.294625159187586 
2488	 0.294696725325234 
2489	 0.294826110029302 
2490	 0.294867073724772 
2491	 0.294843339827605 
2492	 0.295123504099235 
2493	 0.295506936254544 
2494	 0.29562171237477 
2495	 0.295806333028301 
2496	 0.295762017858829 
2497	 0.295610926773841 
2498	 0.295862297333634 
2499	 0.296021668945396 
2500	 0.296177744111905 
