Wavelength	spectrum00009.asd
350	 6.82202077173956E-02 
351	 6.73923582255506E-02 
352	 0.065416353131505 
353	 0.063402309618024 
354	 6.50714963248065E-02 
355	 6.44332906349514E-02 
356	 6.37060147751181E-02 
357	 6.47118933269288E-02 
358	 6.21577821783234E-02 
359	 0.06133352365286 
360	 6.26244975680533E-02 
361	 6.36811121385209E-02 
362	 6.31187597781572E-02 
363	 6.28233890101334E-02 
364	 6.35156998676797E-02 
365	 6.39665300458526E-02 
366	 6.51911372410938E-02 
367	 6.58049953110886E-02 
368	 0.065231017805248 
369	 6.73598401810821E-02 
370	 6.88549578947457E-02 
371	 6.95054171396566E-02 
372	 7.07423037233367E-02 
373	 7.10080180318186E-02 
374	 7.23471509555215E-02 
375	 7.47935420935024E-02 
376	 7.50447183494673E-02 
377	 7.63555618891568E-02 
378	 7.83931050051328E-02 
379	 8.00714738694035E-02 
380	 8.10645190344062E-02 
381	 8.27233523362295E-02 
382	 8.47828691171727E-02 
383	 8.61243490985129E-02 
384	 8.75066778898758E-02 
385	 8.96027177172682E-02 
386	 9.20985220390318E-02 
387	 0.093212283036823 
388	 9.54398278241268E-02 
389	 9.84039201326866E-02 
390	 0.101030728456388 
391	 0.102813513370554 
392	 0.104869369215295 
393	 0.107886184572796 
394	 0.111957850714035 
395	 0.114656037025635 
396	 0.117246444436418 
397	 0.120485827077931 
398	 0.123470123250863 
399	 0.126463367356053 
400	 0.129410517152251 
401	 0.132281529398678 
402	 0.135427555991075 
403	 0.139175069592827 
404	 0.14294083325269 
405	 0.145676739246065 
406	 0.149364554825218 
407	 0.153061643527279 
408	 0.156241360398483 
409	 0.160039490757289 
410	 0.163624325220702 
411	 0.166944341609881 
412	 0.170253406807123 
413	 0.174010566633716 
414	 0.177531227990726 
415	 0.180812752934095 
416	 0.184464628302155 
417	 0.188108377487034 
418	 0.191726379128947 
419	 0.19533421031353 
420	 0.19892022240274 
421	 0.202272436921504 
422	 0.205710248797144 
423	 0.209597748437821 
424	 0.21310118685971 
425	 0.216285262083871 
426	 0.21947414574929 
427	 0.223181974835607 
428	 0.22670240331734 
429	 0.230050674324348 
430	 0.233350481901852 
431	 0.236506911696492 
432	 0.239927654934502 
433	 0.243428004456467 
434	 0.246575474823163 
435	 0.249889978216901 
436	 0.253150843726467 
437	 0.256238835776833 
438	 0.259294549289195 
439	 0.262502149004799 
440	 0.265731830195523 
441	 0.268795380219781 
442	 0.271684862396657 
443	 0.274764441622295 
444	 0.277831308859201 
445	 0.280299175246536 
446	 0.282982254137775 
447	 0.285771275088673 
448	 0.288467984723188 
449	 0.291017540811946 
450	 0.293531020162274 
451	 0.295989519207065 
452	 0.298321960027662 
453	 0.300472264745088 
454	 0.302590804398216 
455	 0.304685470438588 
456	 0.306602764746404 
457	 0.30844805773339 
458	 0.310271694894192 
459	 0.312074280268117 
460	 0.313741860489121 
461	 0.31530105997343 
462	 0.31669596812122 
463	 0.317874116559446 
464	 0.319190581636067 
465	 0.320509262761282 
466	 0.32161554087966 
467	 0.322251029346542 
468	 0.323069379933751 
469	 0.323979723550754 
470	 0.324713089586877 
471	 0.325283051352118 
472	 0.325784304476236 
473	 0.326206014805767 
474	 0.326458724058188 
475	 0.326664905434586 
476	 0.32680036650166 
477	 0.326831972227174 
478	 0.326776273008984 
479	 0.32649018653479 
480	 0.326096415851361 
481	 0.325775017992555 
482	 0.325333752408599 
483	 0.324808104645708 
484	 0.324195572708187 
485	 0.323435959555889 
486	 0.322657484480672 
487	 0.321777824598583 
488	 0.320741388145537 
489	 0.319736758037121 
490	 0.318589271841059 
491	 0.317363790565876 
492	 0.316227632461679 
493	 0.314875143981817 
494	 0.313460733151954 
495	 0.312052026193393 
496	 0.310479512806718 
497	 0.308883477191501 
498	 0.3072593943542 
499	 0.305573258304071 
500	 0.303861041156579 
501	 0.302082437073266 
502	 0.300234277330732 
503	 0.298350096231849 
504	 0.296509652552986 
505	 0.2946189654156 
506	 0.29263299082038 
507	 0.290708050872874 
508	 0.288732959519195 
509	 0.286707828813793 
510	 0.284692304886012 
511	 0.282784208495941 
512	 0.280814519932709 
513	 0.278751175168119 
514	 0.276763254763059 
515	 0.274672358423797 
516	 0.272602592989005 
517	 0.270666210504709 
518	 0.268661266407603 
519	 0.266686776699327 
520	 0.264757316029263 
521	 0.262824721066216 
522	 0.260872379746293 
523	 0.258937893869659 
524	 0.257055156527789 
525	 0.255238705659152 
526	 0.253383942590631 
527	 0.251552727379396 
528	 0.249834029773641 
529	 0.248112483435191 
530	 0.246366597087979 
531	 0.244627100547907 
532	 0.242972414990461 
533	 0.241237616642863 
534	 0.239563704751394 
535	 0.238043566648974 
536	 0.236419314966839 
537	 0.234888028065486 
538	 0.233422775506674 
539	 0.231887152630354 
540	 0.230386100909946 
541	 0.228994734079344 
542	 0.227695991384881 
543	 0.22633147085948 
544	 0.22505323111017 
545	 0.223813428580519 
546	 0.222539321170415 
547	 0.221324084794528 
548	 0.220159390540003 
549	 0.219014165998813 
550	 0.217845039568814 
551	 0.216702817754376 
552	 0.215599160211171 
553	 0.214525028495084 
554	 0.21343591543751 
555	 0.212423407712653 
556	 0.21149713489742 
557	 0.210613489514706 
558	 0.209653261357069 
559	 0.208774488029817 
560	 0.208030011628343 
561	 0.20729260267196 
562	 0.206573455893173 
563	 0.205936535942138 
564	 0.205420270084627 
565	 0.20492005029538 
566	 0.204343227239114 
567	 0.203697914908823 
568	 0.203062915558654 
569	 0.202352172158502 
570	 0.201619290244777 
571	 0.200906711488339 
572	 0.200188745916915 
573	 0.199456873865409 
574	 0.198787361012841 
575	 0.198269383575613 
576	 0.197858947097433 
577	 0.197508552275747 
578	 0.197178500973299 
579	 0.196840901280681 
580	 0.196468381656472 
581	 0.196026125725161 
582	 0.19551715733583 
583	 0.195054261587931 
584	 0.194581137257509 
585	 0.194118076589855 
586	 0.193717954684599 
587	 0.193305268381494 
588	 0.192906808728383 
589	 0.192526313283206 
590	 0.192112250280229 
591	 0.191637649998064 
592	 0.191172837856533 
593	 0.190791032756213 
594	 0.190421381497679 
595	 0.190117943644057 
596	 0.189860133957422 
597	 0.189566704883748 
598	 0.189322180110975 
599	 0.189096880830478 
600	 0.18885352757123 
601	 0.188585599172418 
602	 0.188324988694274 
603	 0.188033047494763 
604	 0.187667071189134 
605	 0.187366106992775 
606	 0.187108193408786 
607	 0.186871522302373 
608	 0.186653707936376 
609	 0.186363647047037 
610	 0.186101201843864 
611	 0.185942870419617 
612	 0.18571978106213 
613	 0.185532226192986 
614	 0.185381402816647 
615	 0.18520845745894 
616	 0.185053075386261 
617	 0.184924238776119 
618	 0.184817944735524 
619	 0.184713324189266 
620	 0.184638530899563 
621	 0.184552822623156 
622	 0.18441810680111 
623	 0.184314786596496 
624	 0.184263009343667 
625	 0.184243782847469 
626	 0.184207580352054 
627	 0.184206833518897 
628	 0.184193609828797 
629	 0.184146093160543 
630	 0.184150622721418 
631	 0.184182623566943 
632	 0.184217294854501 
633	 0.184236498763739 
634	 0.184289921380352 
635	 0.184310793919374 
636	 0.184318869184713 
637	 0.184449792343667 
638	 0.184565118959243 
639	 0.184660214193056 
640	 0.184754052352244 
641	 0.18482092669691 
642	 0.184934002447979 
643	 0.185085550679068 
644	 0.185221024676348 
645	 0.185368659410417 
646	 0.185529841594321 
647	 0.185696203577879 
648	 0.185847072491472 
649	 0.186030346301426 
650	 0.186219910581175 
651	 0.186386820233668 
652	 0.186594677093486 
653	 0.18680557287924 
654	 0.187026178149478 
655	 0.18729573608912 
656	 0.187557482249341 
657	 0.187787934022117 
658	 0.18800469383883 
659	 0.188302795549123 
660	 0.188581894404562 
661	 0.188864636557417 
662	 0.189195044263282 
663	 0.189472817643205 
664	 0.189748745651294 
665	 0.190064323011476 
666	 0.190435827792425 
667	 0.190735521725899 
668	 0.19101916588871 
669	 0.191347791249691 
670	 0.191694770909173 
671	 0.192070827891965 
672	 0.192441544753106 
673	 0.192769790741607 
674	 0.193143104668823 
675	 0.193501585625397 
676	 0.193853050290355 
677	 0.194298132890211 
678	 0.194687612708767 
679	 0.195029011390648 
680	 0.195379301584913 
681	 0.195826356247779 
682	 0.196250661547023 
683	 0.196645828200204 
684	 0.197062905363896 
685	 0.197448490117591 
686	 0.197877664115444 
687	 0.198349945659453 
688	 0.19874396156495 
689	 0.199118225874137 
690	 0.199531489338585 
691	 0.200009873275967 
692	 0.200466252104816 
693	 0.20093460463394 
694	 0.201401795385504 
695	 0.201829697855982 
696	 0.202249053272651 
697	 0.202700643532391 
698	 0.203175140243082 
699	 0.203583053277303 
700	 0.204048995874863 
701	 0.204553963904657 
702	 0.205044489283495 
703	 0.205506430771502 
704	 0.205978425799797 
705	 0.206451621026361 
706	 0.206891876791557 
707	 0.207380281836309 
708	 0.20784708804045 
709	 0.208271274101903 
710	 0.208745120885576 
711	 0.209215589766762 
712	 0.209672198751946 
713	 0.210126271812273 
714	 0.210631996240537 
715	 0.211106863990482 
716	 0.211524174364968 
717	 0.211910498531248 
718	 0.212365751176343 
719	 0.21285831307138 
720	 0.213344810762351 
721	 0.21379742774529 
722	 0.214232124674513 
723	 0.214657789153042 
724	 0.215083511300731 
725	 0.215520033348916 
726	 0.216013097788126 
727	 0.216510053678018 
728	 0.216905817570208 
729	 0.217320441484942 
730	 0.217727371556972 
731	 0.218127912506873 
732	 0.218601532831137 
733	 0.21907307868971 
734	 0.219503359899303 
735	 0.219887113497029 
736	 0.220296871110268 
737	 0.220697198036278 
738	 0.221083935915811 
739	 0.221477483742046 
740	 0.22191822536264 
741	 0.222329156286275 
742	 0.222684144933042 
743	 0.22305255328395 
744	 0.223498172660934 
745	 0.223936405948178 
746	 0.224286400509437 
747	 0.224621532145321 
748	 0.225004059657292 
749	 0.225393720513442 
750	 0.225705630520425 
751	 0.226024429807038 
752	 0.226340004375244 
753	 0.226662517409608 
754	 0.22703836870001 
755	 0.227418183993194 
756	 0.227775665511333 
757	 0.228096975668321 
758	 0.228377420232023 
759	 0.228677782667953 
760	 0.228991941810411 
761	 0.229293828361934 
762	 0.229666265183465 
763	 0.230007738972372 
764	 0.230280468166795 
765	 0.230533809539259 
766	 0.230832335679412 
767	 0.231150759172514 
768	 0.231457620502466 
769	 0.231751998385974 
770	 0.23206180741667 
771	 0.232367469319847 
772	 0.232640112937122 
773	 0.23289875491403 
774	 0.233163158949674 
775	 0.23344906339883 
776	 0.233760664592404 
777	 0.234019573516171 
778	 0.234285243014963 
779	 0.234566554702082 
780	 0.234748961215124 
781	 0.235015994972191 
782	 0.235332616537948 
783	 0.235622083580803 
784	 0.235905506651046 
785	 0.236172170676884 
786	 0.236423969756153 
787	 0.23667102762306 
788	 0.236924668668039 
789	 0.237178799660484 
790	 0.237431185605559 
791	 0.237687046042884 
792	 0.237965184856824 
793	 0.238216540846296 
794	 0.238428920567519 
795	 0.238711649007018 
796	 0.239009898513436 
797	 0.239309761061486 
798	 0.239608601912986 
799	 0.239896177473715 
800	 0.240154181942536 
801	 0.240411658090372 
802	 0.240722256968202 
803	 0.240999786012712 
804	 0.241275677865757 
805	 0.241579860736507 
806	 0.241915158895066 
807	 0.242237057236643 
808	 0.24250584443435 
809	 0.242740597170622 
810	 0.243122270651818 
811	 0.243488804369927 
812	 0.243816384791992 
813	 0.244147394795766 
814	 0.244506244304038 
815	 0.244865244129192 
816	 0.245203417278356 
817	 0.245516122837655 
818	 0.245878945418197 
819	 0.246248398012393 
820	 0.246597764755665 
821	 0.246958281248118 
822	 0.247363037298442 
823	 0.247778513885146 
824	 0.248157006786309 
825	 0.248457346900214 
826	 0.248862485702644 
827	 0.249332019938131 
828	 0.249747701343618 
829	 0.250231690255242 
830	 0.250675158252925 
831	 0.251060230188492 
832	 0.251459688421127 
833	 0.251878329031356 
834	 0.252339971163779 
835	 0.252828953675194 
836	 0.253271480255947 
837	 0.25376416266968 
838	 0.25427185404368 
839	 0.254750898276276 
840	 0.255227561796976 
841	 0.255739294362423 
842	 0.256277257192985 
843	 0.256816696868024 
844	 0.257361636149763 
845	 0.25794841021017 
846	 0.258539918593537 
847	 0.259063492254009 
848	 0.259635035421782 
849	 0.260247486785339 
850	 0.260873494523751 
851	 0.261482058642288 
852	 0.26213514883242 
853	 0.262825759531237 
854	 0.263525882045441 
855	 0.264197956281234 
856	 0.264844850424171 
857	 0.265508639981291 
858	 0.266236659409139 
859	 0.267053555352195 
860	 0.26786043803929 
861	 0.268628079726516 
862	 0.269372598789169 
863	 0.270119164911915 
864	 0.270894888677517 
865	 0.271720634663049 
866	 0.272600895982033 
867	 0.273422482146211 
868	 0.274269560762259 
869	 0.275183780037685 
870	 0.276109766915592 
871	 0.277070556753535 
872	 0.277969689207421 
873	 0.278786786575639 
874	 0.27971249385499 
875	 0.280725441714765 
876	 0.281793438366533 
877	 0.28286930918277 
878	 0.28388673544474 
879	 0.284909470853491 
880	 0.285948179948963 
881	 0.286991229397779 
882	 0.288071790944326 
883	 0.289141838960199 
884	 0.290245935433511 
885	 0.291479508457439 
886	 0.292710906368225 
887	 0.293948381834508 
888	 0.295159777931119 
889	 0.296264796822584 
890	 0.297518136814934 
891	 0.298816547803012 
892	 0.300065601587876 
893	 0.301303743008565 
894	 0.30263174700769 
895	 0.30402923885224 
896	 0.305447568279277 
897	 0.306864922658458 
898	 0.30823618422248 
899	 0.309647597187872 
900	 0.311166875117322 
901	 0.312603826055493 
902	 0.314066137795892 
903	 0.315592094349795 
904	 0.317167242093219 
905	 0.318719835671935 
906	 0.320335712528987 
907	 0.32201732615853 
908	 0.323704426049604 
909	 0.325409727212177 
910	 0.327119166341502 
911	 0.328840413609956 
912	 0.330608524420945 
913	 0.332480136059925 
914	 0.334328997032534 
915	 0.336135621598939 
916	 0.33805823391929 
917	 0.33992932572313 
918	 0.341803446389779 
919	 0.34373028517038 
920	 0.345662879463502 
921	 0.347639545338215 
922	 0.34968938121154 
923	 0.351795494936599 
924	 0.353839266837355 
925	 0.355872972191459 
926	 0.357978547883547 
927	 0.360182084143145 
928	 0.362293771645973 
929	 0.364420278190616 
930	 0.366645538085656 
931	 0.3689713218513 
932	 0.37112633975775 
933	 0.37333502154193 
934	 0.375694052937072 
935	 0.378158288877731 
936	 0.380432287007875 
937	 0.382669342957566 
938	 0.384982258804356 
939	 0.387411706913671 
940	 0.389894490812547 
941	 0.392320680395937 
942	 0.394689336943901 
943	 0.397098716690307 
944	 0.39956336067725 
945	 0.402032489291024 
946	 0.404518995710306 
947	 0.407091047810119 
948	 0.409589362263455 
949	 0.412073209855622 
950	 0.414581761965511 
951	 0.417091644118877 
952	 0.419636236241738 
953	 0.422226039543042 
954	 0.424854209809847 
955	 0.427492790034715 
956	 0.430015864831173 
957	 0.432589017006564 
958	 0.435290519657986 
959	 0.437944679568281 
960	 0.440592745588097 
961	 0.443219684412986 
962	 0.445837402421629 
963	 0.448521414883203 
964	 0.451186981591134 
965	 0.453898443590824 
966	 0.456675130347727 
967	 0.459358232456739 
968	 0.4620176801072 
969	 0.46477675030775 
970	 0.4676685912098 
971	 0.470469021528517 
972	 0.473249967999696 
973	 0.476066043756157 
974	 0.478925651089725 
975	 0.481705396529517 
976	 0.484505747402614 
977	 0.487331607355598 
978	 0.490164412171337 
979	 0.493007050954536 
980	 0.495856388354398 
981	 0.498687615072874 
982	 0.501484686234812 
983	 0.504286868080465 
984	 0.507159680688562 
985	 0.510067493101823 
986	 0.512955810865155 
987	 0.51584387121505 
988	 0.518713083505152 
989	 0.521506270839007 
990	 0.524214381941508 
991	 0.52701886539715 
992	 0.529831597367325 
993	 0.532663113719922 
994	 0.535528183692792 
995	 0.538363236389755 
996	 0.541038020208682 
997	 0.543712864880421 
998	 0.546544851661834 
999	 0.549319356543289 
1000	 0.551986345065831 
1001	 0.556017525741858 
1002	 0.558788394351825 
1003	 0.561659117120519 
1004	 0.564352962857702 
1005	 0.566934562270265 
1006	 0.56956727097322 
1007	 0.572095224012168 
1008	 0.574753358748796 
1009	 0.577499269710774 
1010	 0.580160468738567 
1011	 0.582896264710271 
1012	 0.585514487394859 
1013	 0.587984867830319 
1014	 0.590537203414664 
1015	 0.59309633520569 
1016	 0.595586490840853 
1017	 0.598225473659498 
1018	 0.600820080476148 
1019	 0.603433502797436 
1020	 0.606117243616613 
1021	 0.608675000693888 
1022	 0.611161722520403 
1023	 0.61368686768707 
1024	 0.616118105176138 
1025	 0.618668450366723 
1026	 0.621312630895069 
1027	 0.623892320192093 
1028	 0.62652082471405 
1029	 0.629141785632044 
1030	 0.631528472463552 
1031	 0.63400391958986 
1032	 0.636429400404122 
1033	 0.638749718546665 
1034	 0.641255893432533 
1035	 0.643698853351339 
1036	 0.646117715570061 
1037	 0.648585308951375 
1038	 0.650958093307124 
1039	 0.65325998245028 
1040	 0.65557324787474 
1041	 0.65780468429295 
1042	 0.660110758653447 
1043	 0.662473022518318 
1044	 0.664747276184533 
1045	 0.667084059950683 
1046	 0.669433850424291 
1047	 0.671601689504755 
1048	 0.673839442434493 
1049	 0.676033350932424 
1050	 0.678139791596147 
1051	 0.68038767598398 
1052	 0.682550107047343 
1053	 0.6847241516328 
1054	 0.686988018145905 
1055	 0.689106378412006 
1056	 0.691109664979402 
1057	 0.693174934109699 
1058	 0.69519042343455 
1059	 0.697166440133939 
1060	 0.69930312832897 
1061	 0.701343668616912 
1062	 0.703377298986143 
1063	 0.705404405854647 
1064	 0.707244324798476 
1065	 0.709139544701151 
1066	 0.711008113812397 
1067	 0.71281884161108 
1068	 0.714726191334921 
1069	 0.716552997600573 
1070	 0.718382601910178 
1071	 0.720210589763541 
1072	 0.722015907926254 
1073	 0.723712067733699 
1074	 0.725474910461548 
1075	 0.727181835205803 
1076	 0.728852232300789 
1077	 0.73059620908492 
1078	 0.73224815484413 
1079	 0.733933401148771 
1080	 0.7356453194799 
1081	 0.737232657461457 
1082	 0.738855440775162 
1083	 0.740421721514117 
1084	 0.741941626343953 
1085	 0.743516165068098 
1086	 0.745016053168134 
1087	 0.746468120617072 
1088	 0.747935676390991 
1089	 0.749375307716279 
1090	 0.750730738362911 
1091	 0.752136275641751 
1092	 0.753470977495234 
1093	 0.754799038606737 
1094	 0.756168037546631 
1095	 0.757443564371084 
1096	 0.758784690499234 
1097	 0.760117387977744 
1098	 0.761321495860171 
1099	 0.762588697653838 
1100	 0.763853141015489 
1101	 0.765039284534063 
1102	 0.766259291336148 
1103	 0.767436502121516 
1104	 0.76859115409318 
1105	 0.769705479429788 
1106	 0.770821398213909 
1107	 0.771893576760056 
1108	 0.772977120057041 
1109	 0.774038896989878 
1110	 0.775102090139198 
1111	 0.776203689115963 
1112	 0.777256978809908 
1113	 0.778303854397233 
1114	 0.779307534373171 
1115	 0.780211922592573 
1116	 0.78115693641138 
1117	 0.782063065195841 
1118	 0.782939754112305 
1119	 0.783813911592442 
1120	 0.784663548240524 
1121	 0.785472132898752 
1122	 0.786273887859452 
1123	 0.787075701891609 
1124	 0.787769748381889 
1125	 0.788435372985378 
1126	 0.789050719802279 
1127	 0.7896050053199 
1128	 0.790162187675043 
1129	 0.7906433957272 
1130	 0.79108932789721 
1131	 0.791519949141263 
1132	 0.791810818034125 
1133	 0.792066086444167 
1134	 0.792314514341868 
1135	 0.792498829440705 
1136	 0.792595977260336 
1137	 0.79272597264467 
1138	 0.792834405636996 
1139	 0.792924496803624 
1140	 0.793012872874371 
1141	 0.793076860454868 
1142	 0.793094542190292 
1143	 0.79307351046971 
1144	 0.792995538746914 
1145	 0.792896976922349 
1146	 0.792793307879056 
1147	 0.792651593261136 
1148	 0.792492959804394 
1149	 0.792325202784673 
1150	 0.792115101956674 
1151	 0.791883077403946 
1152	 0.791589660632377 
1153	 0.791244494973269 
1154	 0.790860696005166 
1155	 0.790441573956011 
1156	 0.789952519107847 
1157	 0.789411961198078 
1158	 0.788847489833942 
1159	 0.788203314778121 
1160	 0.787567320692144 
1161	 0.786962842974188 
1162	 0.786274343976175 
1163	 0.785611797662643 
1164	 0.784926001844511 
1165	 0.784185960402599 
1166	 0.783512031301135 
1167	 0.782846982431974 
1168	 0.782214137171111 
1169	 0.781609112167916 
1170	 0.781025578829109 
1171	 0.780484950807121 
1172	 0.779965915649332 
1173	 0.779495665162964 
1174	 0.77908024263557 
1175	 0.778705255948011 
1176	 0.778373192197728 
1177	 0.778064430026654 
1178	 0.777797425091808 
1179	 0.777538608685486 
1180	 0.777334779058879 
1181	 0.777154040527108 
1182	 0.777004053454583 
1183	 0.776918877942443 
1184	 0.776838657449852 
1185	 0.776807982106173 
1186	 0.776859568559156 
1187	 0.776975586829803 
1188	 0.777138700684262 
1189	 0.777384992947974 
1190	 0.777648261224548 
1191	 0.777946048204731 
1192	 0.778288087003886 
1193	 0.778681613097503 
1194	 0.779088234355254 
1195	 0.779538874635643 
1196	 0.780004277180267 
1197	 0.780477207050413 
1198	 0.781001031018365 
1199	 0.78155063712006 
1200	 0.782059258194653 
1201	 0.782596572842309 
1202	 0.7831517510696 
1203	 0.783717761875785 
1204	 0.784378294430983 
1205	 0.785051723764261 
1206	 0.785756902637199 
1207	 0.78651222626196 
1208	 0.787315749770061 
1209	 0.788131395359821 
1210	 0.788980259684004 
1211	 0.789875711384624 
1212	 0.790798113581206 
1213	 0.791768277685997 
1214	 0.792786090999968 
1215	 0.793850159643577 
1216	 0.794973101292919 
1217	 0.796092181820128 
1218	 0.79725417936161 
1219	 0.798433819970973 
1220	 0.799600355710452 
1221	 0.800798783292303 
1222	 0.801969657841013 
1223	 0.80315003148875 
1224	 0.804269305735035 
1225	 0.80534069598287 
1226	 0.806400905837436 
1227	 0.807437894631236 
1228	 0.808438542406194 
1229	 0.809424299482023 
1230	 0.810367613296289 
1231	 0.811248525094921 
1232	 0.81214567188138 
1233	 0.813046208218696 
1234	 0.813884260685141 
1235	 0.814698592745151 
1236	 0.815483935505754 
1237	 0.8162132944076 
1238	 0.816927193873117 
1239	 0.817618695478872 
1240	 0.818296761571918 
1241	 0.818962195863182 
1242	 0.819586944724922 
1243	 0.820180111069543 
1244	 0.820757221351433 
1245	 0.82129493755769 
1246	 0.821779030788444 
1247	 0.822263852638516 
1248	 0.82273746365367 
1249	 0.823187031867687 
1250	 0.823618453076355 
1251	 0.824015251500559 
1252	 0.824401987812273 
1253	 0.824734719336787 
1254	 0.825032277080112 
1255	 0.825286755568345 
1256	 0.825468087647359 
1257	 0.825664027320299 
1258	 0.825839281521069 
1259	 0.825992574307013 
1260	 0.826141429907658 
1261	 0.82627056794526 
1262	 0.826356916872081 
1263	 0.826444002779951 
1264	 0.826539405746914 
1265	 0.826626247371943 
1266	 0.826733644543259 
1267	 0.826850854259149 
1268	 0.826971001412495 
1269	 0.827110458660717 
1270	 0.827231178505438 
1271	 0.827340929010299 
1272	 0.827465538622046 
1273	 0.827590871908198 
1274	 0.827715121668884 
1275	 0.827859478493598 
1276	 0.827978646041969 
1277	 0.828066530075876 
1278	 0.8281806450119 
1279	 0.828280203772739 
1280	 0.828413229924969 
1281	 0.828567708762182 
1282	 0.828741473477393 
1283	 0.82897130098168 
1284	 0.829161164502292 
1285	 0.829341913578124 
1286	 0.82952542387823 
1287	 0.829700622733695 
1288	 0.829846609083225 
1289	 0.830011938212778 
1290	 0.830200326733782 
1291	 0.830353964129908 
1292	 0.830490672527643 
1293	 0.830623408933683 
1294	 0.830757022724811 
1295	 0.83085411201741 
1296	 0.830930593072528 
1297	 0.830997326377864 
1298	 0.831055001928782 
1299	 0.831068074422249 
1300	 0.831071872256703 
1301	 0.831031508358354 
1302	 0.830929507401215 
1303	 0.830824234143643 
1304	 0.830710758767858 
1305	 0.830559667211005 
1306	 0.83040174729676 
1307	 0.830187639637599 
1308	 0.829922782249169 
1309	 0.829619993292374 
1310	 0.829330704330616 
1311	 0.828998183358786 
1312	 0.828706416836554 
1313	 0.828424980066606 
1314	 0.82816490978809 
1315	 0.827889337390754 
1316	 0.827695055869714 
1317	 0.827550218201257 
1318	 0.827420638132216 
1319	 0.827371797835576 
1320	 0.827259954414627 
1321	 0.827171349300117 
1322	 0.827008253200679 
1323	 0.82682433138344 
1324	 0.826571247255231 
1325	 0.826267558852317 
1326	 0.825907406185887 
1327	 0.825503834595003 
1328	 0.825026749470564 
1329	 0.824479695041875 
1330	 0.823891539313015 
1331	 0.823240656833877 
1332	 0.822548293414654 
1333	 0.821812995404334 
1334	 0.821026956114708 
1335	 0.82024000017608 
1336	 0.819404504734274 
1337	 0.818591467357509 
1338	 0.817760028136178 
1339	 0.816982581789846 
1340	 0.816217094786316 
1341	 0.815466103306089 
1342	 0.814762854988896 
1343	 0.814026124071682 
1344	 0.813308954189122 
1345	 0.812520102660464 
1346	 0.811729778623831 
1347	 0.810862924522769 
1348	 0.809926967343343 
1349	 0.808957662890193 
1350	 0.807916712644657 
1351	 0.806885231083204 
1352	 0.805812385428713 
1353	 0.804744469000047 
1354	 0.803657287574701 
1355	 0.802597657509012 
1356	 0.801524498348875 
1357	 0.800481989651093 
1358	 0.799472168758095 
1359	 0.798466297497473 
1360	 0.797486264431113 
1361	 0.796498138991225 
1362	 0.795490492613084 
1363	 0.794538407936088 
1364	 0.793538319444093 
1365	 0.792540763596552 
1366	 0.791493761400125 
1367	 0.790418836492671 
1368	 0.789330636438538 
1369	 0.788210451726871 
1370	 0.787079470855533 
1371	 0.785944783155464 
1372	 0.78478359041854 
1373	 0.783628800224603 
1374	 0.782377917235074 
1375	 0.781115303852672 
1376	 0.779720734722981 
1377	 0.778247108216242 
1378	 0.776642410823951 
1379	 0.774945533477225 
1380	 0.773116443977849 
1381	 0.771211889030461 
1382	 0.769095531375209 
1383	 0.766808158763118 
1384	 0.764403697362155 
1385	 0.761819063064412 
1386	 0.759140591861916 
1387	 0.756313339090505 
1388	 0.753480642274418 
1389	 0.750534133637424 
1390	 0.747569906408535 
1391	 0.744629517873991 
1392	 0.741529103566613 
1393	 0.738546267175299 
1394	 0.73545876157062 
1395	 0.732365388730516 
1396	 0.729311450021886 
1397	 0.726137716452949 
1398	 0.722926759496794 
1399	 0.719540113566906 
1400	 0.716068950271546 
1401	 0.712447041093369 
1402	 0.708683368184089 
1403	 0.704765727537839 
1404	 0.700707903752246 
1405	 0.696593094259185 
1406	 0.692277932729762 
1407	 0.688007197154992 
1408	 0.683586070046123 
1409	 0.679371395289926 
1410	 0.675091499680959 
1411	 0.671095486513827 
1412	 0.667220267911139 
1413	 0.663666815388928 
1414	 0.660345531088526 
1415	 0.657225476041698 
1416	 0.654418059911319 
1417	 0.651706102661631 
1418	 0.64921331615029 
1419	 0.646757279625475 
1420	 0.644444670362462 
1421	 0.642201849552417 
1422	 0.640030932013382 
1423	 0.637916910294627 
1424	 0.63593383861117 
1425	 0.633898107114341 
1426	 0.632014236024284 
1427	 0.630188268660141 
1428	 0.628417085539823 
1429	 0.626871357968911 
1430	 0.625342878678265 
1431	 0.623890419135133 
1432	 0.622507867959178 
1433	 0.621214052260156 
1434	 0.619977057223917 
1435	 0.618801395561521 
1436	 0.61769087088373 
1437	 0.616666057075042 
1438	 0.615682909023647 
1439	 0.614762458452294 
1440	 0.613871502674657 
1441	 0.613032954932835 
1442	 0.612221190707066 
1443	 0.611453759623362 
1444	 0.610692561775178 
1445	 0.609972428437532 
1446	 0.609255610083439 
1447	 0.608548341637651 
1448	 0.607852152420359 
1449	 0.607170645080949 
1450	 0.60649719237927 
1451	 0.605844885602292 
1452	 0.605175265408791 
1453	 0.604513314578876 
1454	 0.603846341620715 
1455	 0.603161926922269 
1456	 0.602484473040395 
1457	 0.601804157677815 
1458	 0.601130395125968 
1459	 0.600466808178383 
1460	 0.599793049612418 
1461	 0.599123159799292 
1462	 0.598451554706035 
1463	 0.59778228077599 
1464	 0.59709214618801 
1465	 0.596419104840589 
1466	 0.59569179586169 
1467	 0.594961881509723 
1468	 0.594171590542244 
1469	 0.593319657833895 
1470	 0.592476692818442 
1471	 0.591541284772532 
1472	 0.590564256899844 
1473	 0.589472879485849 
1474	 0.588302275772864 
1475	 0.587052202864771 
1476	 0.585716597126273 
1477	 0.584273390700259 
1478	 0.58275688055958 
1479	 0.581136476624694 
1480	 0.57938179445584 
1481	 0.577591067269824 
1482	 0.575698378942557 
1483	 0.57380112212736 
1484	 0.571828664302318 
1485	 0.56987168009669 
1486	 0.567851820283573 
1487	 0.565947096240826 
1488	 0.564006976695478 
1489	 0.562245334824648 
1490	 0.56053723681051 
1491	 0.559051210902528 
1492	 0.557682180668915 
1493	 0.556543375382737 
1494	 0.555618573548359 
1495	 0.554870495401474 
1496	 0.554309997459108 
1497	 0.553939705123416 
1498	 0.553729976920051 
1499	 0.553773671863028 
1500	 0.5539429259473 
1501	 0.554506878492195 
1502	 0.555315369405894 
1503	 0.556517984710085 
1504	 0.558124955089713 
1505	 0.560007409379138 
1506	 0.562426240698218 
1507	 0.564800022501561 
1508	 0.567559191079829 
1509	 0.570102200185023 
1510	 0.572713706435709 
1511	 0.575075424230609 
1512	 0.577302102963348 
1513	 0.579361161651056 
1514	 0.581173972037526 
1515	 0.582926026664871 
1516	 0.584468063098236 
1517	 0.58604718438232 
1518	 0.587529224837516 
1519	 0.58905030263217 
1520	 0.590585340448295 
1521	 0.592132698275264 
1522	 0.593691012412628 
1523	 0.59536216574435 
1524	 0.597015235884352 
1525	 0.598712111247885 
1526	 0.600432212732095 
1527	 0.602161460255929 
1528	 0.603935128739831 
1529	 0.605758057660332 
1530	 0.607591357405812 
1531	 0.609466990266277 
1532	 0.611306997136833 
1533	 0.613162703840011 
1534	 0.614999024701922 
1535	 0.616824414736876 
1536	 0.618605689648025 
1537	 0.620393589932875 
1538	 0.622104221295068 
1539	 0.62377095854458 
1540	 0.625360229752229 
1541	 0.626901077418022 
1542	 0.628366205173468 
1543	 0.629760788581746 
1544	 0.631066793804149 
1545	 0.632325581432184 
1546	 0.633449621328626 
1547	 0.634471926019103 
1548	 0.635380600972741 
1549	 0.636154546985471 
1550	 0.636883033905183 
1551	 0.637501694693206 
1552	 0.638081560673752 
1553	 0.638593956764376 
1554	 0.639069195497643 
1555	 0.63945735591824 
1556	 0.6398635239166 
1557	 0.640221021570246 
1558	 0.640621020513685 
1559	 0.64100275923619 
1560	 0.641447383341022 
1561	 0.641902141766839 
1562	 0.642444250278354 
1563	 0.643047722782562 
1564	 0.64369940004839 
1565	 0.644436786319119 
1566	 0.645180594780613 
1567	 0.645972381061264 
1568	 0.646766664974216 
1569	 0.647590323276352 
1570	 0.648414871753616 
1571	 0.649259336603802 
1572	 0.650090495188998 
1573	 0.650924945302136 
1574	 0.651756452710963 
1575	 0.652593387760631 
1576	 0.653405812283146 
1577	 0.654197304151336 
1578	 0.655004397163815 
1579	 0.655807195150546 
1580	 0.656597445766156 
1581	 0.657394132695535 
1582	 0.658185353837952 
1583	 0.65894663756165 
1584	 0.659730950325713 
1585	 0.660529491165069 
1586	 0.661333723673098 
1587	 0.662143172602778 
1588	 0.66295772770558 
1589	 0.663774016843723 
1590	 0.664610813758046 
1591	 0.665461173652611 
1592	 0.666318619284634 
1593	 0.667186072036623 
1594	 0.668075376240215 
1595	 0.668979850442018 
1596	 0.669887462001068 
1597	 0.670816672100605 
1598	 0.671748284602655 
1599	 0.672688851891065 
1600	 0.673623185352873 
1601	 0.67456506234168 
1602	 0.675503809018603 
1603	 0.676450261979449 
1604	 0.677364123446659 
1605	 0.678262040123785 
1606	 0.679156432114937 
1607	 0.680023285844927 
1608	 0.680893483343229 
1609	 0.681779801807729 
1610	 0.682638580105927 
1611	 0.683473150217919 
1612	 0.684299861725997 
1613	 0.685114539364489 
1614	 0.685915888263014 
1615	 0.686723024056471 
1616	 0.687489312228467 
1617	 0.688221924633512 
1618	 0.688943343832623 
1619	 0.689629692731275 
1620	 0.690307795884332 
1621	 0.690980555408312 
1622	 0.69163145456279 
1623	 0.692267983488217 
1624	 0.692884123927186 
1625	 0.69347673217142 
1626	 0.694058035432758 
1627	 0.694610271815504 
1628	 0.695158792796937 
1629	 0.695707657309968 
1630	 0.696231389453617 
1631	 0.696733684354286 
1632	 0.697236362642239 
1633	 0.697734056954078 
1634	 0.698203881862697 
1635	 0.698659617466201 
1636	 0.699100811327748 
1637	 0.69951916385373 
1638	 0.699916524488365 
1639	 0.700321038126156 
1640	 0.700673118109998 
1641	 0.700976530647567 
1642	 0.701262622204204 
1643	 0.70152092891554 
1644	 0.701741709853835 
1645	 0.701948703031332 
1646	 0.702101063467667 
1647	 0.702225232020064 
1648	 0.702272854899029 
1649	 0.702267593992394 
1650	 0.702189227171598 
1651	 0.702048387836591 
1652	 0.701817244973406 
1653	 0.701534872362969 
1654	 0.701130367114088 
1655	 0.700614850551808 
1656	 0.70000649815397 
1657	 0.699303281982275 
1658	 0.698477496651256 
1659	 0.697560352937611 
1660	 0.69651043077902 
1661	 0.695379180938039 
1662	 0.694032063137528 
1663	 0.692531925237305 
1664	 0.690826118138173 
1665	 0.688929820524283 
1666	 0.686801754369215 
1667	 0.684491853603122 
1668	 0.68196201321113 
1669	 0.6792009151267 
1670	 0.676219231077653 
1671	 0.672929131479111 
1672	 0.669571546729871 
1673	 0.666023793075637 
1674	 0.662345744643738 
1675	 0.658517893292571 
1676	 0.654712943201774 
1677	 0.650725630942825 
1678	 0.64683342617845 
1679	 0.642912254612493 
1680	 0.639089260594192 
1681	 0.635233346139931 
1682	 0.631574899864333 
1683	 0.628008866829338 
1684	 0.624732321892696 
1685	 0.621608714686186 
1686	 0.618753812455705 
1687	 0.616150890175554 
1688	 0.613752675275292 
1689	 0.611589406240003 
1690	 0.609621552155387 
1691	 0.607965923002503 
1692	 0.606369100329606 
1693	 0.605002374148693 
1694	 0.603579685553096 
1695	 0.602260189674094 
1696	 0.600860444238557 
1697	 0.599469975221929 
1698	 0.597996424087159 
1699	 0.596472101081353 
1700	 0.594969515018401 
1701	 0.593433958863516 
1702	 0.59188575343559 
1703	 0.590326315237727 
1704	 0.588757895943078 
1705	 0.587156104720847 
1706	 0.585510668054692 
1707	 0.583975051478625 
1708	 0.582352941357256 
1709	 0.580682632279002 
1710	 0.578974236169569 
1711	 0.577043107752874 
1712	 0.575011677898868 
1713	 0.572794545015788 
1714	 0.570390094277313 
1715	 0.568019853143065 
1716	 0.565455651704424 
1717	 0.562850063623585 
1718	 0.560257561588516 
1719	 0.557554404190388 
1720	 0.555046434275184 
1721	 0.552674114468502 
1722	 0.55047995758303 
1723	 0.548669835218312 
1724	 0.547092972583769 
1725	 0.545840292269033 
1726	 0.545013218628838 
1727	 0.544486452359605 
1728	 0.544350082768607 
1729	 0.544616447310715 
1730	 0.545231669231833 
1731	 0.546102619782367 
1732	 0.547231158078281 
1733	 0.548471155252759 
1734	 0.549797323737024 
1735	 0.551245555659797 
1736	 0.552667648358485 
1737	 0.554110274571854 
1738	 0.555539341927186 
1739	 0.556865430849659 
1740	 0.558149750421149 
1741	 0.559358776788957 
1742	 0.560472927453432 
1743	 0.561576937135938 
1744	 0.562625372295085 
1745	 0.563671401891443 
1746	 0.564693830789683 
1747	 0.565658151418806 
1748	 0.566594685321505 
1749	 0.567492287502243 
1750	 0.568344943689403 
1751	 0.569163404456414 
1752	 0.569934028938734 
1753	 0.570697342854635 
1754	 0.571392405679318 
1755	 0.572142601114545 
1756	 0.572871651594335 
1757	 0.573674101774749 
1758	 0.574610330099169 
1759	 0.57559049605119 
1760	 0.576678514417279 
1761	 0.577907072953148 
1762	 0.579121698946243 
1763	 0.580479483830566 
1764	 0.581921390909096 
1765	 0.583384781623739 
1766	 0.585011844134673 
1767	 0.586633105700153 
1768	 0.58832282461363 
1769	 0.590067886322864 
1770	 0.591643421992431 
1771	 0.59322177199107 
1772	 0.59468876498995 
1773	 0.595979678450335 
1774	 0.597277712731292 
1775	 0.598411331622128 
1776	 0.59944186734709 
1777	 0.600432243059792 
1778	 0.601269555198962 
1779	 0.602073061733058 
1780	 0.60282488507801 
1781	 0.603468895984183 
1782	 0.604109826284688 
1783	 0.604694981800193 
1784	 0.605195058982035 
1785	 0.605653853417729 
1786	 0.606056802977327 
1787	 0.606356580091305 
1788	 0.606707713348365 
1789	 0.607044037608707 
1790	 0.607372403850883 
1791	 0.607720146122182 
1792	 0.608062314881868 
1793	 0.608364275757427 
1794	 0.608705090308195 
1795	 0.609061136616987 
1796	 0.609422308741908 
1797	 0.609835685427311 
1798	 0.610273281304628 
1799	 0.610717382753045 
1800	 0.611168901281559 
1801	 0.612810289462563 
1802	 0.613291685392771 
1803	 0.613777414623151 
1804	 0.614265379393112 
1805	 0.614805222868616 
1806	 0.615318598057577 
1807	 0.615827953425138 
1808	 0.616346859047336 
1809	 0.616877797227718 
1810	 0.617398352874761 
1811	 0.617913024171925 
1812	 0.618441317032121 
1813	 0.618966552914065 
1814	 0.619522028763035 
1815	 0.62006553230671 
1816	 0.620616706925698 
1817	 0.621149851251779 
1818	 0.621677917187607 
1819	 0.622180470567176 
1820	 0.622650201999492 
1821	 0.623146298417133 
1822	 0.623628999652328 
1823	 0.624137051562193 
1824	 0.624640940514058 
1825	 0.625162915920354 
1826	 0.625662721927178 
1827	 0.62614555976879 
1828	 0.626622362388697 
1829	 0.627076865962922 
1830	 0.627563147141895 
1831	 0.628046408732231 
1832	 0.628562028890548 
1833	 0.629073839187475 
1834	 0.629589769208657 
1835	 0.630121212039075 
1836	 0.630599611138373 
1837	 0.631084723417982 
1838	 0.631607562639303 
1839	 0.632050299746329 
1840	 0.632469092664849 
1841	 0.632839922548398 
1842	 0.63317279232336 
1843	 0.633434868618842 
1844	 0.633691550768813 
1845	 0.633890284790841 
1846	 0.634046361292739 
1847	 0.63417348572085 
1848	 0.634216064062887 
1849	 0.634219158606298 
1850	 0.634111355521637 
1851	 0.633939226193045 
1852	 0.633652164032576 
1853	 0.633254252232698 
1854	 0.632798227110479 
1855	 0.632247630395136 
1856	 0.631623199659259 
1857	 0.630922332961286 
1858	 0.630056045138446 
1859	 0.629092133538716 
1860	 0.628041309813801 
1861	 0.626818857631337 
1862	 0.625442437268613 
1863	 0.624016050739083 
1864	 0.622394020885603 
1865	 0.62065669089096 
1866	 0.618796160563634 
1867	 0.616607641379243 
1868	 0.614326560356003 
1869	 0.611776938062585 
1870	 0.60899314620039 
1871	 0.606053287759128 
1872	 0.602889045859705 
1873	 0.599479761187861 
1874	 0.595909181305242 
1875	 0.59214685924551 
1876	 0.587833932460998 
1877	 0.583424544874055 
1878	 0.578580772133628 
1879	 0.573216771022064 
1880	 0.567932326253391 
1881	 0.562203936028248 
1882	 0.556044629704145 
1883	 0.549694772777236 
1884	 0.543071061216871 
1885	 0.535667674467261 
1886	 0.528224080632221 
1887	 0.520318821946486 
1888	 0.511964975793138 
1889	 0.504018597721787 
1890	 0.495656432167901 
1891	 0.487275533516839 
1892	 0.479015949018112 
1893	 0.470441420535211 
1894	 0.461478712232117 
1895	 0.45285125370988 
1896	 0.444054266983532 
1897	 0.435160147262774 
1898	 0.42701453334437 
1899	 0.418701848313882 
1900	 0.410593698970921 
1901	 0.402886742516901 
1902	 0.394819272014662 
1903	 0.387188202964786 
1904	 0.379789224512161 
1905	 0.372521516835655 
1906	 0.365460250097312 
1907	 0.359202149575479 
1908	 0.352980072955009 
1909	 0.347081085810406 
1910	 0.341615211142451 
1911	 0.335991389304202 
1912	 0.330770635960454 
1913	 0.325732595734185 
1914	 0.320768802517062 
1915	 0.316234443779377 
1916	 0.312149380609941 
1917	 0.308069973764427 
1918	 0.304202312193346 
1919	 0.300624401978828 
1920	 0.29694947724098 
1921	 0.293559152944028 
1922	 0.290321883628214 
1923	 0.287172577404055 
1924	 0.284412841977364 
1925	 0.281747969464998 
1926	 0.279250204414465 
1927	 0.277012479772101 
1928	 0.274836801325957 
1929	 0.27273206479585 
1930	 0.270843386238308 
1931	 0.269104458640801 
1932	 0.267479655560337 
1933	 0.266151631650552 
1934	 0.264932370520896 
1935	 0.263839134162221 
1936	 0.262954238253746 
1937	 0.262185018502037 
1938	 0.261529938895496 
1939	 0.261061269040663 
1940	 0.260757748033723 
1941	 0.260594473708365 
1942	 0.260594910869161 
1943	 0.26073036106 
1944	 0.260972475165334 
1945	 0.261369087024456 
1946	 0.261903063227214 
1947	 0.262517686433144 
1948	 0.26327574804085 
1949	 0.264152869465682 
1950	 0.265058753379609 
1951	 0.266039276270609 
1952	 0.267095751622388 
1953	 0.26821144304494 
1954	 0.26937874804995 
1955	 0.270696655183382 
1956	 0.272040825985965 
1957	 0.273457287321744 
1958	 0.274918875639173 
1959	 0.276314747693159 
1960	 0.277774448285291 
1961	 0.27922982111428 
1962	 0.280647564595553 
1963	 0.282156642384572 
1964	 0.283740615088335 
1965	 0.285279091749449 
1966	 0.286854580436169 
1967	 0.288453481733976 
1968	 0.289912776919626 
1969	 0.291432580694587 
1970	 0.292955727466678 
1971	 0.294423480631945 
1972	 0.296016554398586 
1973	 0.297588748627216 
1974	 0.299159739077536 
1975	 0.300794550144563 
1976	 0.302353737699991 
1977	 0.30382825179736 
1978	 0.305378482969158 
1979	 0.30691801735099 
1980	 0.308462720382045 
1981	 0.310170800372244 
1982	 0.311860861331419 
1983	 0.313584044843756 
1984	 0.315382891953713 
1985	 0.31704344704942 
1986	 0.318748978961247 
1987	 0.320449011685621 
1988	 0.322112478769996 
1989	 0.323809797843716 
1990	 0.325573172783587 
1991	 0.32724998561605 
1992	 0.328921966884805 
1993	 0.330565569901498 
1994	 0.332057900000245 
1995	 0.333593454092522 
1996	 0.33507828894975 
1997	 0.336500613559808 
1998	 0.33795568271893 
1999	 0.339431099490041 
2000	 0.34082756252021 
2001	 0.342240543042724 
2002	 0.343549290924394 
2003	 0.344788505246606 
2004	 0.345981302788446 
2005	 0.347090662715953 
2006	 0.348165440440062 
2007	 0.349236463750243 
2008	 0.350176451488945 
2009	 0.351048042711536 
2010	 0.351854261923475 
2011	 0.352493365256722 
2012	 0.353063039898994 
2013	 0.353501121681098 
2014	 0.353847560729851 
2015	 0.354026986850741 
2016	 0.354100235517656 
2017	 0.353979665642954 
2018	 0.353686950800073 
2019	 0.35324991984426 
2020	 0.352665371971877 
2021	 0.351878257113028 
2022	 0.350983038316653 
2023	 0.349923789320273 
2024	 0.348607876884868 
2025	 0.347202958305846 
2026	 0.34565426525942 
2027	 0.343837822676445 
2028	 0.342103162955087 
2029	 0.340286214267985 
2030	 0.338452318894153 
2031	 0.336596220372628 
2032	 0.33471946621167 
2033	 0.332687334984753 
2034	 0.330848321023334 
2035	 0.329026363157455 
2036	 0.327286411219765 
2037	 0.325808750114862 
2038	 0.324439539856859 
2039	 0.323301811210912 
2040	 0.322336741196982 
2041	 0.321620004215078 
2042	 0.321077181622638 
2043	 0.320846467042087 
2044	 0.320903726806309 
2045	 0.32115843776813 
2046	 0.321749542909893 
2047	 0.322424180776451 
2048	 0.323304429699984 
2049	 0.324286673772148 
2050	 0.325472888162358 
2051	 0.326679407662851 
2052	 0.327999945501396 
2053	 0.329419376241502 
2054	 0.330818993924172 
2055	 0.332243389905946 
2056	 0.333735568861359 
2057	 0.335205106845059 
2058	 0.336854403487513 
2059	 0.338630438244393 
2060	 0.340433817498356 
2061	 0.342425467310342 
2062	 0.344334878438589 
2063	 0.346219973037338 
2064	 0.348157753966014 
2065	 0.350131707891411 
2066	 0.352057726262635 
2067	 0.354119353080739 
2068	 0.356123648153562 
2069	 0.358080891673697 
2070	 0.360078279986753 
2071	 0.361910953804961 
2072	 0.363645339806945 
2073	 0.36532957706225 
2074	 0.366902788800143 
2075	 0.368450333828262 
2076	 0.369967814897771 
2077	 0.371387351181761 
2078	 0.372774249633361 
2079	 0.374033684470912 
2080	 0.37516468860425 
2081	 0.376247116442339 
2082	 0.377245076309239 
2083	 0.378136667768132 
2084	 0.379024084775017 
2085	 0.379827632453199 
2086	 0.38054873294302 
2087	 0.381196813755628 
2088	 0.381773427953819 
2089	 0.382242587973243 
2090	 0.382693131808667 
2091	 0.383088540839085 
2092	 0.383431510512028 
2093	 0.383726030272209 
2094	 0.383968333187826 
2095	 0.384143634733671 
2096	 0.384285613418313 
2097	 0.384386192739926 
2098	 0.384434786825009 
2099	 0.384441966231381 
2100	 0.384407521680558 
2101	 0.384320791235867 
2102	 0.384180960731229 
2103	 0.38400474994329 
2104	 0.383767687147695 
2105	 0.383522659051236 
2106	 0.38324639719214 
2107	 0.382938889351647 
2108	 0.38260648677514 
2109	 0.382242239322047 
2110	 0.381835699411996 
2111	 0.381413621457926 
2112	 0.380960968036411 
2113	 0.380492403653939 
2114	 0.379998129362028 
2115	 0.379487572143988 
2116	 0.378954063451714 
2117	 0.378426536084784 
2118	 0.377843830458424 
2119	 0.377239305475592 
2120	 0.376593202129496 
2121	 0.375896061587017 
2122	 0.375183965248605 
2123	 0.374461324933297 
2124	 0.373671406445739 
2125	 0.372878907075527 
2126	 0.37196758848082 
2127	 0.370972382412154 
2128	 0.36991839146735 
2129	 0.368751171426184 
2130	 0.36756582377654 
2131	 0.366366103584987 
2132	 0.365060371518224 
2133	 0.363690075854175 
2134	 0.362266894250402 
2135	 0.360647706167613 
2136	 0.359025573337544 
2137	 0.357319796821581 
2138	 0.355479480144502 
2139	 0.353702732696901 
2140	 0.351902595092883 
2141	 0.350088672987525 
2142	 0.348325684560772 
2143	 0.346429492214017 
2144	 0.344442559571988 
2145	 0.342474709325519 
2146	 0.340386454352382 
2147	 0.3383889074097 
2148	 0.336463728512022 
2149	 0.334486258020551 
2150	 0.332557582567151 
2151	 0.330549719281403 
2152	 0.328444731031402 
2153	 0.326385870905062 
2154	 0.324295471049427 
2155	 0.32216665136884 
2156	 0.32017247258632 
2157	 0.318245101568378 
2158	 0.316336500766016 
2159	 0.314514139133145 
2160	 0.312664877535164 
2161	 0.31077683654377 
2162	 0.309033215401485 
2163	 0.307278262376438 
2164	 0.305734457507242 
2165	 0.304335647480788 
2166	 0.303043419620367 
2167	 0.301911248828655 
2168	 0.300858671908375 
2169	 0.299887707591621 
2170	 0.299064062198008 
2171	 0.298349091197765 
2172	 0.297772518827949 
2173	 0.297356789579914 
2174	 0.297045549860629 
2175	 0.296838499401619 
2176	 0.296765079969262 
2177	 0.296756560280717 
2178	 0.296837899557067 
2179	 0.297027734571643 
2180	 0.297318086565114 
2181	 0.297697571250083 
2182	 0.298199090059711 
2183	 0.298760896199407 
2184	 0.299398471222493 
2185	 0.300133674534409 
2186	 0.300978712174317 
2187	 0.301864009200557 
2188	 0.302875582441326 
2189	 0.303866832446186 
2190	 0.304905150081573 
2191	 0.3059488728994 
2192	 0.307003592061089 
2193	 0.308076466727785 
2194	 0.309197109363003 
2195	 0.310282452737482 
2196	 0.311365717407211 
2197	 0.312477121940513 
2198	 0.313472014536456 
2199	 0.314448572599224 
2200	 0.315369651303246 
2201	 0.316227194877135 
2202	 0.317053419237016 
2203	 0.31785687734009 
2204	 0.318574600474183 
2205	 0.319220037735112 
2206	 0.319832696056554 
2207	 0.320353854096047 
2208	 0.320908126777776 
2209	 0.32137403990753 
2210	 0.321983364914276 
2211	 0.322616497984752 
2212	 0.323341113826278 
2213	 0.324211606662412 
2214	 0.325054878872974 
2215	 0.325957066841098 
2216	 0.326840656537966 
2217	 0.327759134287364 
2218	 0.328621013393727 
2219	 0.329546792548418 
2220	 0.330305647783025 
2221	 0.331004381110008 
2222	 0.331574869579981 
2223	 0.331964783211242 
2224	 0.33221871080796 
2225	 0.332381338367877 
2226	 0.33241751259175 
2227	 0.332334525712705 
2228	 0.332161094355857 
2229	 0.331816813423518 
2230	 0.331323465390625 
2231	 0.330687183650397 
2232	 0.329918518755878 
2233	 0.328952742873725 
2234	 0.327853070152404 
2235	 0.326510367271356 
2236	 0.324962167174748 
2237	 0.323222096130615 
2238	 0.321192713592058 
2239	 0.319102430686363 
2240	 0.316862672992438 
2241	 0.314452580854799 
2242	 0.311962697024109 
2243	 0.309226170215242 
2244	 0.306209635323227 
2245	 0.303134809906669 
2246	 0.299759794870613 
2247	 0.296469723392561 
2248	 0.293145190179287 
2249	 0.289776348555962 
2250	 0.286405183147056 
2251	 0.283034006763528 
2252	 0.279389660410963 
2253	 0.275896684268961 
2254	 0.272395947445353 
2255	 0.268902034063813 
2256	 0.26580773301797 
2257	 0.262750918257307 
2258	 0.259888067159148 
2259	 0.257275132496247 
2260	 0.254650289832253 
2261	 0.252104827631004 
2262	 0.2497232509726 
2263	 0.247418752139489 
2264	 0.245266460851276 
2265	 0.243390443369727 
2266	 0.241343297898087 
2267	 0.239465806780487 
2268	 0.237276991855628 
2269	 0.234996596508925 
2270	 0.232504116966821 
2271	 0.229761377647548 
2272	 0.226910908400407 
2273	 0.223888176893639 
2274	 0.220724574852094 
2275	 0.217381454794598 
2276	 0.213973455330746 
2277	 0.210190003754231 
2278	 0.206780173574085 
2279	 0.203175467131096 
2280	 0.200148380850562 
2281	 0.197451333823529 
2282	 0.195182239728282 
2283	 0.193269047807594 
2284	 0.191931987832152 
2285	 0.190965991644903 
2286	 0.19047564799761 
2287	 0.190446241395576 
2288	 0.190830614001224 
2289	 0.191584055536654 
2290	 0.19269663874528 
2291	 0.194075622091602 
2292	 0.195707115095467 
2293	 0.197594894357792 
2294	 0.19950275060782 
2295	 0.20151188926486 
2296	 0.203528829353679 
2297	 0.205358703772774 
2298	 0.207124928565072 
2299	 0.208774967838944 
2300	 0.210238309181892 
2301	 0.211713484537201 
2302	 0.213122574535345 
2303	 0.214470569769271 
2304	 0.21575945199784 
2305	 0.217019939544485 
2306	 0.218197155489166 
2307	 0.219409566023975 
2308	 0.220556283751683 
2309	 0.221806427417622 
2310	 0.22309825930597 
2311	 0.22439674749091 
2312	 0.225818459770019 
2313	 0.227121480408023 
2314	 0.22842565500655 
2315	 0.229617036843128 
2316	 0.230748664040505 
2317	 0.231750982845481 
2318	 0.232703484002501 
2319	 0.23342063801002 
2320	 0.234029568855517 
2321	 0.234363235113505 
2322	 0.234446267181729 
2323	 0.23432920335245 
2324	 0.233983744957399 
2325	 0.233408148137152 
2326	 0.23263611896038 
2327	 0.231560214986719 
2328	 0.230155717454756 
2329	 0.22855082784589 
2330	 0.226704816394152 
2331	 0.224540053099618 
2332	 0.222183168872617 
2333	 0.219556625769964 
2334	 0.21650371278994 
2335	 0.213308457651747 
2336	 0.209874466068022 
2337	 0.206258998716435 
2338	 0.202817209548573 
2339	 0.199257955804248 
2340	 0.195841893824235 
2341	 0.192722269670985 
2342	 0.189675020626564 
2343	 0.187125176925193 
2344	 0.184967128830304 
2345	 0.183264084524583 
2346	 0.182107729183745 
2347	 0.181310874383079 
2348	 0.180747248474058 
2349	 0.180402771098149 
2350	 0.180072078301472 
2351	 0.179636307848583 
2352	 0.179374356370149 
2353	 0.179103933874251 
2354	 0.179116495810407 
2355	 0.179517817353708 
2356	 0.180220062690301 
2357	 0.1816456590093 
2358	 0.183769095959808 
2359	 0.186545419274666 
2360	 0.189952425297657 
2361	 0.193829064646771 
2362	 0.197626328035433 
2363	 0.201585188408887 
2364	 0.205434141531589 
2365	 0.208876232977346 
2366	 0.212326093263639 
2367	 0.215291279470521 
2368	 0.217932432257095 
2369	 0.22032553590557 
2370	 0.222229230151989 
2371	 0.223892556505798 
2372	 0.225266015851563 
2373	 0.226299849140754 
2374	 0.227196700242248 
2375	 0.227927769998225 
2376	 0.228512063801153 
2377	 0.22894356253954 
2378	 0.229253462103531 
2379	 0.2295220710424 
2380	 0.229700275451377 
2381	 0.229878643209204 
2382	 0.230105912090986 
2383	 0.230283354925704 
2384	 0.230629979430823 
2385	 0.231103676307098 
2386	 0.231599668017283 
2387	 0.23222262226338 
2388	 0.232807581964935 
2389	 0.233424073760587 
2390	 0.233981483905918 
2391	 0.234572009551825 
2392	 0.235036885511409 
2393	 0.235409917513371 
2394	 0.235748901175694 
2395	 0.236005973961067 
2396	 0.236259571788406 
2397	 0.236477606549808 
2398	 0.236632947737922 
2399	 0.236720027496785 
2400	 0.236852776881119 
2401	 0.236943767553029 
2402	 0.237063964096521 
2403	 0.237228102810052 
2404	 0.237296777998066 
2405	 0.237408010551073 
2406	 0.237582851444276 
2407	 0.237685542084793 
2408	 0.237817064643284 
2409	 0.237913929454678 
2410	 0.237880493283778 
2411	 0.237747892605066 
2412	 0.237639218697522 
2413	 0.237496662958287 
2414	 0.237279974676011 
2415	 0.237130629069426 
2416	 0.236961842028924 
2417	 0.236704802978823 
2418	 0.236471953798946 
2419	 0.23625177590028 
2420	 0.235945715556707 
2421	 0.235584828626649 
2422	 0.235257615495166 
2423	 0.234869609167188 
2424	 0.234429911295284 
2425	 0.233998582217004 
2426	 0.233511865240058 
2427	 0.233050909639727 
2428	 0.232525498189393 
2429	 0.231952774112535 
2430	 0.231343874875878 
2431	 0.230716878157865 
2432	 0.23004407909547 
2433	 0.229273043472492 
2434	 0.228633329605329 
2435	 0.227773862505803 
2436	 0.226714412457436 
2437	 0.225733352617434 
2438	 0.224579242407347 
2439	 0.223510818114246 
2440	 0.22260472002731 
2441	 0.221649657457446 
2442	 0.220690384412191 
2443	 0.219612619689413 
2444	 0.218485443488293 
2445	 0.217336384080126 
2446	 0.216133701662849 
2447	 0.214980696391932 
2448	 0.213830757338893 
2449	 0.212726913262752 
2450	 0.211745589929974 
2451	 0.210808092309011 
2452	 0.209950229816307 
2453	 0.209017494085916 
2454	 0.207939608663389 
2455	 0.207050108345093 
2456	 0.206128779464386 
2457	 0.205169114890299 
2458	 0.204438081142544 
2459	 0.203638419209166 
2460	 0.202764690666761 
2461	 0.20200190903863 
2462	 0.20122220229799 
2463	 0.200441943687044 
2464	 0.199704466375333 
2465	 0.198977405638817 
2466	 0.19839069714157 
2467	 0.197735014004307 
2468	 0.197051166210516 
2469	 0.196707469783696 
2470	 0.19634655795742 
2471	 0.195864708683945 
2472	 0.195489198447666 
2473	 0.194967659774478 
2474	 0.194430916973205 
2475	 0.194053357840451 
2476	 0.193637261248995 
2477	 0.193267513764411 
2478	 0.192952860346048 
2479	 0.192688440936107 
2480	 0.192515617432066 
2481	 0.192182588353511 
2482	 0.191722650727764 
2483	 0.19124374346664 
2484	 0.191031712959632 
2485	 0.190945512130785 
2486	 0.190679702037082 
2487	 0.190486747799475 
2488	 0.1902690540375 
2489	 0.189899381421623 
2490	 0.189547244763632 
2491	 0.189069826593732 
2492	 0.188499826020361 
2493	 0.188150702136424 
2494	 0.188086782575778 
2495	 0.187967941615282 
2496	 0.187781860739876 
2497	 0.187585316293869 
2498	 0.187137599446116 
2499	 0.186978619017143 
2500	 0.186907790950251 
