Wavelength	spectrum00018.asd
350	 8.90162128468678E-02 
351	 8.72263688719262E-02 
352	 8.49537258032882E-02 
353	 8.30974130751878E-02 
354	 8.12927393931215E-02 
355	 8.09272208889559E-02 
356	 8.04658240082979E-02 
357	 7.85870407088907E-02 
358	 7.63942074308051E-02 
359	 7.42860202396608E-02 
360	 7.34775055982649E-02 
361	 7.49398861209098E-02 
362	 7.50511639871616E-02 
363	 0.074857279286975 
364	 7.45428907938331E-02 
365	 7.24792105186797E-02 
366	 7.40585349002526E-02 
367	 0.075625522851232 
368	 0.074075288723168 
369	 7.54774165150244E-02 
370	 7.71827962872735E-02 
371	 7.75241522594234E-02 
372	 7.59517161703647E-02 
373	 7.57571640032006E-02 
374	 7.65852589897804E-02 
375	 7.77059547621106E-02 
376	 0.078549429335099 
377	 7.85533842524969E-02 
378	 7.85317102619464E-02 
379	 7.91857105300749E-02 
380	 7.93919800518395E-02 
381	 8.02412288954327E-02 
382	 8.13391736319341E-02 
383	 8.15694218446244E-02 
384	 8.21192427660553E-02 
385	 8.30032472269566E-02 
386	 8.37806156103973E-02 
387	 8.35167004030982E-02 
388	 8.40169386357003E-02 
389	 8.50969738396806E-02 
390	 8.60287352350776E-02 
391	 8.63279869313698E-02 
392	 8.67628578767632E-02 
393	 8.77731088713785E-02 
394	 8.93917101858787E-02 
395	 9.02552200773305E-02 
396	 9.07009237918685E-02 
397	 9.12933815446789E-02 
398	 9.25884911482786E-02 
399	 9.37237148165988E-02 
400	 9.47315318479505E-02 
401	 9.57872932775738E-02 
402	 9.63857053369569E-02 
403	 9.76433769394658E-02 
404	 9.92686687438354E-02 
405	 0.100024307398639 
406	 0.101222398212242 
407	 0.102373808394164 
408	 0.103250488992047 
409	 0.104677363693461 
410	 0.105760400332013 
411	 0.106725391590981 
412	 0.108058468978741 
413	 0.109615402452141 
414	 0.111002477133772 
415	 0.11233647757045 
416	 0.114136841438505 
417	 0.115353436133327 
418	 0.11663702539908 
419	 0.118369848900658 
420	 0.11960321277064 
421	 0.120851269541631 
422	 0.122374494041929 
423	 0.124227559394346 
424	 0.125897520550938 
425	 0.12744445934044 
426	 0.128983141038129 
427	 0.130628240415829 
428	 0.132209007527077 
429	 0.133871934855236 
430	 0.135695642473129 
431	 0.137336740650027 
432	 0.139204259311492 
433	 0.141136011125187 
434	 0.142722375459288 
435	 0.144402828805358 
436	 0.146128563021556 
437	 0.14787889280628 
438	 0.149765191473265 
439	 0.151618586527615 
440	 0.153412635054761 
441	 0.155183488292874 
442	 0.157026098056358 
443	 0.15888115309413 
444	 0.160723083362242 
445	 0.162571335328639 
446	 0.164624092167956 
447	 0.166515658719061 
448	 0.168110355080729 
449	 0.169955163614228 
450	 0.171921632149289 
451	 0.173846691976113 
452	 0.175600905667193 
453	 0.17744839465626 
454	 0.17928770164792 
455	 0.181064779876649 
456	 0.182814661561228 
457	 0.184566313431912 
458	 0.186250678955393 
459	 0.187875268436939 
460	 0.189752410001902 
461	 0.191465393020937 
462	 0.19300540860283 
463	 0.194581792975331 
464	 0.196071095085027 
465	 0.197650127511859 
466	 0.199293345214185 
467	 0.200621679364258 
468	 0.20190650211782 
469	 0.203214926994119 
470	 0.204556417324896 
471	 0.205973655612231 
472	 0.20715036047082 
473	 0.208144988510854 
474	 0.209293497934197 
475	 0.210303085120129 
476	 0.211061540049257 
477	 0.211655935284235 
478	 0.212571365215568 
479	 0.213262285641209 
480	 0.213781160905761 
481	 0.214371778759653 
482	 0.214886230613293 
483	 0.215293457097152 
484	 0.215577097725541 
485	 0.21572908665565 
486	 0.21583583958667 
487	 0.215862064822424 
488	 0.215781074735383 
489	 0.215702123856568 
490	 0.215441048052685 
491	 0.215055157355808 
492	 0.21471882897654 
493	 0.214241433118082 
494	 0.213634378589708 
495	 0.212944552648315 
496	 0.212241734458096 
497	 0.211389248526453 
498	 0.210437339512746 
499	 0.209463600463406 
500	 0.208369099428943 
501	 0.207229738055417 
502	 0.206024842228284 
503	 0.204653490291859 
504	 0.203282395963059 
505	 0.201881773966407 
506	 0.200426912560503 
507	 0.199006240115372 
508	 0.19751719214328 
509	 0.195932653772179 
510	 0.19427542314675 
511	 0.192637161204945 
512	 0.190950597250075 
513	 0.189206682518762 
514	 0.187485565364716 
515	 0.185721408357998 
516	 0.183970741506487 
517	 0.182274406228017 
518	 0.180518797097911 
519	 0.178728459768413 
520	 0.176944587658376 
521	 0.175210868466568 
522	 0.173483147527311 
523	 0.171709858846552 
524	 0.169909888057847 
525	 0.168242399371286 
526	 0.166551416824451 
527	 0.164870342611403 
528	 0.163271821159791 
529	 0.161663594883316 
530	 0.160026126927325 
531	 0.158391924539251 
532	 0.156842566321544 
533	 0.155266442249791 
534	 0.153689374663624 
535	 0.152158543983639 
536	 0.150686050841412 
537	 0.149229911053225 
538	 0.147779221177061 
539	 0.146346763790279 
540	 0.14499117119262 
541	 0.143702162997665 
542	 0.142447634466373 
543	 0.141174921799293 
544	 0.139949239846609 
545	 0.138752582302894 
546	 0.137563904773808 
547	 0.136462735517813 
548	 0.135390247910518 
549	 0.134346096896744 
550	 0.133383486791963 
551	 0.132446158623229 
552	 0.131517156941916 
553	 0.13059209921898 
554	 0.129677097343265 
555	 0.12879665928235 
556	 0.127960322104784 
557	 0.127165099262637 
558	 0.126373974259781 
559	 0.12562259260408 
560	 0.124905599908688 
561	 0.124151182981466 
562	 0.123459597191508 
563	 0.122804347398339 
564	 0.122142808047585 
565	 0.1215154726988 
566	 0.120879215746806 
567	 0.120282584825324 
568	 0.119829149639253 
569	 0.119375524639137 
570	 0.118944952576594 
571	 0.118586699126523 
572	 0.118362542139329 
573	 0.118102682216424 
574	 0.117806044037303 
575	 0.117531994533243 
576	 0.117264884373561 
577	 0.116942660710539 
578	 0.116580055877565 
579	 0.116280939137916 
580	 0.116018078578073 
581	 0.115770210459139 
582	 0.115525810365265 
583	 0.115301890508472 
584	 0.115134762467781 
585	 0.114989387435511 
586	 0.114803618980716 
587	 0.114694153902395 
588	 0.114642884358482 
589	 0.114614884781633 
590	 0.11457748049281 
591	 0.114541653521713 
592	 0.114505336306199 
593	 0.114466109517707 
594	 0.114432633231343 
595	 0.114400833679301 
596	 0.114365250343331 
597	 0.114323582693725 
598	 0.114340444539176 
599	 0.1143939344258 
600	 0.114463334550053 
601	 0.114572173426826 
602	 0.114713782207794 
603	 0.114866752181112 
604	 0.115013792735299 
605	 0.115214184230491 
606	 0.115433584581457 
607	 0.11566738268803 
608	 0.115956932228872 
609	 0.116188125376801 
610	 0.11643974118918 
611	 0.116781551952899 
612	 0.117084227736028 
613	 0.11738122030873 
614	 0.117700628005842 
615	 0.118063340337464 
616	 0.11844686365474 
617	 0.118842559420622 
618	 0.119255587260758 
619	 0.119714644628478 
620	 0.120192682714494 
621	 0.120669993295976 
622	 0.121137340340692 
623	 0.121614916488217 
624	 0.12214991836675 
625	 0.122733286687516 
626	 0.123306606145963 
627	 0.123912505983061 
628	 0.124556863628385 
629	 0.125231039357614 
630	 0.125906336475218 
631	 0.126608394142053 
632	 0.127340985010234 
633	 0.128097898637699 
634	 0.128889117751752 
635	 0.129670510061609 
636	 0.130463824424432 
637	 0.131372779542797 
638	 0.132261550473593 
639	 0.133162848074404 
640	 0.134118283920742 
641	 0.135047402073927 
642	 0.136040303646163 
643	 0.137097392478708 
644	 0.138164620131352 
645	 0.139243586777937 
646	 0.14037588513689 
647	 0.141569234756713 
648	 0.142768724879363 
649	 0.144031999016248 
650	 0.145330473940711 
651	 0.146624028617244 
652	 0.147938452136691 
653	 0.149334736941265 
654	 0.150817415631704 
655	 0.152342457428872 
656	 0.153895367003728 
657	 0.155467992307553 
658	 0.157078263423685 
659	 0.158803509803987 
660	 0.160542227362359 
661	 0.162311878572963 
662	 0.164162939230641 
663	 0.166073110751201 
664	 0.167998548936238 
665	 0.169972862326595 
666	 0.172096981516903 
667	 0.174209462366019 
668	 0.176345268265694 
669	 0.178562581911685 
670	 0.180882721017297 
671	 0.183269305846766 
672	 0.18569674130366 
673	 0.188158224725902 
674	 0.190707340095684 
675	 0.193305166268782 
676	 0.195961625520393 
677	 0.198752487561725 
678	 0.201561916899853 
679	 0.204415763838469 
680	 0.207354177836116 
681	 0.210345695681752 
682	 0.213431896351816 
683	 0.216578880080684 
684	 0.219725964407221 
685	 0.222922576938901 
686	 0.226248265491081 
687	 0.229686038517751 
688	 0.233084694111951 
689	 0.236557674601516 
690	 0.240117801979283 
691	 0.24374742739224 
692	 0.247408223784276 
693	 0.251100476183772 
694	 0.254842130584261 
695	 0.258648671818214 
696	 0.26249043717784 
697	 0.266357837878448 
698	 0.270262433268254 
699	 0.274246971008649 
700	 0.278258387880595 
701	 0.282301562423867 
702	 0.286379933761572 
703	 0.290415197077596 
704	 0.294491164623911 
705	 0.298614039224162 
706	 0.30273279241005 
707	 0.306842694938184 
708	 0.310972032235772 
709	 0.315107022401929 
710	 0.319150513930155 
711	 0.323217812245545 
712	 0.327311140323731 
713	 0.331401097136705 
714	 0.335510093884829 
715	 0.339500743897844 
716	 0.343386570844206 
717	 0.347286653370545 
718	 0.351223941206358 
719	 0.355109374147469 
720	 0.358908098332652 
721	 0.362702038647151 
722	 0.366449586503264 
723	 0.37012937416531 
724	 0.373740476791255 
725	 0.377360116021214 
726	 0.38090665623506 
727	 0.384357555460771 
728	 0.387733418053181 
729	 0.390987365096434 
730	 0.394218751886222 
731	 0.397438896517249 
732	 0.400484219957038 
733	 0.40354814545095 
734	 0.406560179962346 
735	 0.409440925775494 
736	 0.412383785462904 
737	 0.415172253623352 
738	 0.417816543759141 
739	 0.420463953605294 
740	 0.422998045824245 
741	 0.425464983023882 
742	 0.427899908391924 
743	 0.430299329366495 
744	 0.432628681840214 
745	 0.434884976319863 
746	 0.437068846391067 
747	 0.439162953219589 
748	 0.441173318405813 
749	 0.443154527945149 
750	 0.445157090755126 
751	 0.446987309329494 
752	 0.448718520539374 
753	 0.450449211038755 
754	 0.452266352260766 
755	 0.454099871215119 
756	 0.455818326515052 
757	 0.457363114897198 
758	 0.458908388344024 
759	 0.460362969563983 
760	 0.461761295522108 
761	 0.46318661443876 
762	 0.464643491649437 
763	 0.466019021452755 
764	 0.467292162960278 
765	 0.468554750706131 
766	 0.469819422121808 
767	 0.47109167799207 
768	 0.472341690855209 
769	 0.473460230782239 
770	 0.474582021544817 
771	 0.475677451240498 
772	 0.476685996736303 
773	 0.47769781220935 
774	 0.478803626899217 
775	 0.479918514974512 
776	 0.480844109640146 
777	 0.481800933018475 
778	 0.482771395094089 
779	 0.483716163497284 
780	 0.484615845112842 
781	 0.485552849588039 
782	 0.486466870941651 
783	 0.487297688962049 
784	 0.488131420565056 
785	 0.488981690916696 
786	 0.489832263961146 
787	 0.490649099676022 
788	 0.491425490272173 
789	 0.492181201517997 
790	 0.492920382845225 
791	 0.493628485682504 
792	 0.494370232965087 
793	 0.495116580940931 
794	 0.495830842383565 
795	 0.496507375352914 
796	 0.497158766339726 
797	 0.497873934291667 
798	 0.498701939063044 
799	 0.499383722860786 
800	 0.50000656266887 
801	 0.500630016194348 
802	 0.501279183341252 
803	 0.501978661685473 
804	 0.502665208769959 
805	 0.503312430505879 
806	 0.503966855752663 
807	 0.504587476786703 
808	 0.50519109958192 
809	 0.505812388263159 
810	 0.506500535470016 
811	 0.507142422586498 
812	 0.507753869686989 
813	 0.508395799062475 
814	 0.509017313371257 
815	 0.509573358020403 
816	 0.51009687858362 
817	 0.510677922212064 
818	 0.511233700821594 
819	 0.511822560884577 
820	 0.512462332451337 
821	 0.513072609279922 
822	 0.513725558806224 
823	 0.514341602762151 
824	 0.514861021713826 
825	 0.515400722148024 
826	 0.515995443482225 
827	 0.516597094310174 
828	 0.51714151446 
829	 0.517739890926986 
830	 0.518305960172 
831	 0.518806099966903 
832	 0.519269752423109 
833	 0.519744930645302 
834	 0.520296338045545 
835	 0.520901338951759 
836	 0.521410373813019 
837	 0.521924698001603 
838	 0.522448875928154 
839	 0.522974278636061 
840	 0.523531066804681 
841	 0.524023858967098 
842	 0.524509188145694 
843	 0.52507155297853 
844	 0.525598654819369 
845	 0.526107683247064 
846	 0.526589425921201 
847	 0.527025265109639 
848	 0.52751370364885 
849	 0.527990295128564 
850	 0.528448788690418 
851	 0.528972184317066 
852	 0.52944044462177 
853	 0.529917908329495 
854	 0.530438076232276 
855	 0.530886107327539 
856	 0.531351446641542 
857	 0.531848165483745 
858	 0.532360881505571 
859	 0.532867882711853 
860	 0.533349376429695 
861	 0.533801002229005 
862	 0.534228717454851 
863	 0.53464466728677 
864	 0.535009401708984 
865	 0.535415651864835 
866	 0.536025132382183 
867	 0.53648660142745 
868	 0.536898465387684 
869	 0.537349438705983 
870	 0.537821328927258 
871	 0.538211913450318 
872	 0.538603158038708 
873	 0.539054424523312 
874	 0.53948179637061 
875	 0.539911738536005 
876	 0.54039637028594 
877	 0.540935968325644 
878	 0.541329191629709 
879	 0.541663818634004 
880	 0.541986823068496 
881	 0.542318964253085 
882	 0.542646295888507 
883	 0.543060557166319 
884	 0.543539677953024 
885	 0.543972475428026 
886	 0.544316171938334 
887	 0.544645101033208 
888	 0.544977394981053 
889	 0.545257123139361 
890	 0.545631313422767 
891	 0.546017799032809 
892	 0.546329745057828 
893	 0.546549045562182 
894	 0.546857270737744 
895	 0.547260520236483 
896	 0.54767962404869 
897	 0.547953814900064 
898	 0.54822918145012 
899	 0.5485230961519 
900	 0.548809098107829 
901	 0.549067952938485 
902	 0.549367779330532 
903	 0.549669207822674 
904	 0.549902334698884 
905	 0.550149069500867 
906	 0.550396893662905 
907	 0.550661446225389 
908	 0.550974971020085 
909	 0.551318584543358 
910	 0.551675981908019 
911	 0.552025269359176 
912	 0.552345069010792 
913	 0.55266697263144 
914	 0.552975193462326 
915	 0.553261379213473 
916	 0.553538452019465 
917	 0.553820514539103 
918	 0.554144318031442 
919	 0.554512842823739 
920	 0.554865263571379 
921	 0.555127699764496 
922	 0.555417815820462 
923	 0.55581317655788 
924	 0.556157763460919 
925	 0.556515015272608 
926	 0.556877445264934 
927	 0.557224887360467 
928	 0.557554643517929 
929	 0.557990065574856 
930	 0.558500648718156 
931	 0.558974608284961 
932	 0.559277183691614 
933	 0.559673851399941 
934	 0.560153680194036 
935	 0.560570043868256 
936	 0.560993477501659 
937	 0.561410646869199 
938	 0.561800069279228 
939	 0.562167390499299 
940	 0.562719714097731 
941	 0.563217669762048 
942	 0.563600209690694 
943	 0.56398919421615 
944	 0.564342124684668 
945	 0.564684979960121 
946	 0.565028776798595 
947	 0.565364273439567 
948	 0.565738154241577 
949	 0.566034415916547 
950	 0.566247393569409 
951	 0.566525177907754 
952	 0.566741429666193 
953	 0.567020790021968 
954	 0.567391585130567 
955	 0.567685101082333 
956	 0.567914665734269 
957	 0.568059429166488 
958	 0.568173210746601 
959	 0.568426561199992 
960	 0.568709564003953 
961	 0.568934663211803 
962	 0.569075734139025 
963	 0.569213653503651 
964	 0.569370907795822 
965	 0.569607649486104 
966	 0.569915240981147 
967	 0.570128339960586 
968	 0.570348438294975 
969	 0.570571295733117 
970	 0.570795980994676 
971	 0.571107924738596 
972	 0.571295906068779 
973	 0.571496456821391 
974	 0.571828196179532 
975	 0.572041193380756 
976	 0.572364692230388 
977	 0.572666013650564 
978	 0.572822099007101 
979	 0.573085255316128 
980	 0.573473696062407 
981	 0.573804611987549 
982	 0.57395587800812 
983	 0.574238640630942 
984	 0.574451904694885 
985	 0.574706907405798 
986	 0.575112801875207 
987	 0.575423171730061 
988	 0.575643875411191 
989	 0.575770521982756 
990	 0.575853426140062 
991	 0.576100244788648 
992	 0.576288593368246 
993	 0.576475681061769 
994	 0.576768721933584 
995	 0.577093571796586 
996	 0.577248313425277 
997	 0.577348057371372 
998	 0.577567667730965 
999	 0.577852009374807 
1000	 0.578060874689115 
1001	 0.582718926534321 
1002	 0.582915400232834 
1003	 0.583093183752192 
1004	 0.583275288360275 
1005	 0.583428027308243 
1006	 0.583604372605206 
1007	 0.583780577299445 
1008	 0.583987636226427 
1009	 0.58421028423879 
1010	 0.584424447002255 
1011	 0.584680879643534 
1012	 0.584899298754764 
1013	 0.585083681013923 
1014	 0.585280107127433 
1015	 0.585483770308352 
1016	 0.585643630111623 
1017	 0.585866150885807 
1018	 0.586091632183475 
1019	 0.586269549428354 
1020	 0.586484104972246 
1021	 0.586682320387398 
1022	 0.586833360244018 
1023	 0.587043595641019 
1024	 0.587304380237682 
1025	 0.587532138220427 
1026	 0.587767121490675 
1027	 0.587980775818241 
1028	 0.588185614008073 
1029	 0.588376921938923 
1030	 0.58852464138691 
1031	 0.588717964333568 
1032	 0.588900056312636 
1033	 0.589052240707639 
1034	 0.589262224082466 
1035	 0.589479419035813 
1036	 0.58968204965198 
1037	 0.58987326678132 
1038	 0.590111275845701 
1039	 0.590373617134053 
1040	 0.590600660325188 
1041	 0.590837897262343 
1042	 0.591080035017604 
1043	 0.591295329418765 
1044	 0.591525956304864 
1045	 0.591799180333659 
1046	 0.592068919663341 
1047	 0.592317499831619 
1048	 0.592595963592044 
1049	 0.592834166841171 
1050	 0.593038419756659 
1051	 0.593260668946138 
1052	 0.593474834798487 
1053	 0.593754120683261 
1054	 0.594130921548053 
1055	 0.594426133851123 
1056	 0.594740015391461 
1057	 0.595027230328204 
1058	 0.595261673010876 
1059	 0.595481634007238 
1060	 0.595761374948627 
1061	 0.595985032145173 
1062	 0.596248968789716 
1063	 0.596525363014136 
1064	 0.596756664081551 
1065	 0.597054589621792 
1066	 0.597302303988338 
1067	 0.597533665914699 
1068	 0.597821047042616 
1069	 0.598049808321234 
1070	 0.598304045321268 
1071	 0.598566513247761 
1072	 0.598834751860402 
1073	 0.599067995694213 
1074	 0.599342871030714 
1075	 0.59959617377216 
1076	 0.599848237359932 
1077	 0.600149284771108 
1078	 0.600409358486426 
1079	 0.600635909400273 
1080	 0.600877899179432 
1081	 0.601117181808909 
1082	 0.601378769142314 
1083	 0.601642132805251 
1084	 0.601888386518142 
1085	 0.602120074864637 
1086	 0.602341022684176 
1087	 0.602538316457502 
1088	 0.602753192375938 
1089	 0.602950938148347 
1090	 0.603122049269486 
1091	 0.603308141623982 
1092	 0.603488562803576 
1093	 0.603681927566561 
1094	 0.603881616279497 
1095	 0.604053292464606 
1096	 0.604242676651891 
1097	 0.604414656594373 
1098	 0.604564202322676 
1099	 0.604745907439639 
1100	 0.604887755409484 
1101	 0.604994281437479 
1102	 0.605112744044473 
1103	 0.605236899124307 
1104	 0.605347011374855 
1105	 0.605471208766135 
1106	 0.605614184090812 
1107	 0.605747928897609 
1108	 0.605858479603478 
1109	 0.605945179431853 
1110	 0.60602745180051 
1111	 0.606116057558666 
1112	 0.606192260589891 
1113	 0.606272673159133 
1114	 0.606348574480429 
1115	 0.606392952715705 
1116	 0.606435107334436 
1117	 0.606474480872821 
1118	 0.606515929910089 
1119	 0.606564306265733 
1120	 0.606597630619789 
1121	 0.60663752616748 
1122	 0.606643124248357 
1123	 0.606624872568308 
1124	 0.606588678942525 
1125	 0.606532019732464 
1126	 0.606470249702409 
1127	 0.606383094565313 
1128	 0.606247967689556 
1129	 0.606090815208834 
1130	 0.605905494370909 
1131	 0.605697045876861 
1132	 0.60549953297932 
1133	 0.605270074443837 
1134	 0.605002456090952 
1135	 0.604708499157471 
1136	 0.604355736367294 
1137	 0.604033377696625 
1138	 0.603719012576927 
1139	 0.603365555712998 
1140	 0.603002580076861 
1141	 0.602646965663838 
1142	 0.602220945324226 
1143	 0.601785677487926 
1144	 0.601352436544652 
1145	 0.600854809059747 
1146	 0.600368170776292 
1147	 0.599862527220981 
1148	 0.599342150148876 
1149	 0.598879525289019 
1150	 0.59840329934285 
1151	 0.597937375181419 
1152	 0.597452854255508 
1153	 0.596975760887483 
1154	 0.596456592174827 
1155	 0.595917682907811 
1156	 0.595345609397074 
1157	 0.594756365216939 
1158	 0.594148625398988 
1159	 0.593501344782529 
1160	 0.592846628422291 
1161	 0.592208810304559 
1162	 0.591503435438955 
1163	 0.590831994667607 
1164	 0.5901880548522 
1165	 0.589519911493722 
1166	 0.588888095422979 
1167	 0.588240633220043 
1168	 0.587601766185178 
1169	 0.586967025661161 
1170	 0.586340582519833 
1171	 0.585703288881849 
1172	 0.585091453107033 
1173	 0.584415745580451 
1174	 0.583697878233209 
1175	 0.583007255844975 
1176	 0.582293635211988 
1177	 0.581581953785174 
1178	 0.580888152720055 
1179	 0.580164808420955 
1180	 0.579487126894577 
1181	 0.578777985528671 
1182	 0.578048739744727 
1183	 0.577402153820652 
1184	 0.576704508425253 
1185	 0.575992121241614 
1186	 0.575333762578662 
1187	 0.574679163778994 
1188	 0.574110875112416 
1189	 0.57357888374077 
1190	 0.57311584617515 
1191	 0.572760436059737 
1192	 0.572395482293189 
1193	 0.572060613343402 
1194	 0.571750899953523 
1195	 0.57146048860626 
1196	 0.571196445847399 
1197	 0.570961663232755 
1198	 0.570751065889823 
1199	 0.570550281888402 
1200	 0.570396030792317 
1201	 0.570267795580766 
1202	 0.570152777588691 
1203	 0.57008155256749 
1204	 0.57006295809244 
1205	 0.570118122906074 
1206	 0.570208986511654 
1207	 0.570416461333641 
1208	 0.570699856667489 
1209	 0.571079471221932 
1210	 0.571532611406282 
1211	 0.572111594685108 
1212	 0.572797134345717 
1213	 0.573588116605316 
1214	 0.574482720663071 
1215	 0.575501751506895 
1216	 0.576669207871013 
1217	 0.577870653904134 
1218	 0.579193620938983 
1219	 0.580557718720604 
1220	 0.581940567460735 
1221	 0.583418310615066 
1222	 0.584882292038617 
1223	 0.586380537825309 
1224	 0.587805239098994 
1225	 0.589215835304825 
1226	 0.590539796237931 
1227	 0.591820036024912 
1228	 0.593035291053106 
1229	 0.594200827222446 
1230	 0.595287475444639 
1231	 0.5963007965929 
1232	 0.597269201749381 
1233	 0.598155423749958 
1234	 0.59899958218125 
1235	 0.599794825506525 
1236	 0.600550724935124 
1237	 0.601248249169669 
1238	 0.601916363677331 
1239	 0.602548865109441 
1240	 0.603139373028354 
1241	 0.603721216441665 
1242	 0.604242846226544 
1243	 0.604743408087269 
1244	 0.605216630702397 
1245	 0.605666865979387 
1246	 0.606069437229152 
1247	 0.606482906476034 
1248	 0.606901966043708 
1249	 0.607272699009437 
1250	 0.607614487692091 
1251	 0.607942159250962 
1252	 0.608242876517527 
1253	 0.608520561847837 
1254	 0.608775632575643 
1255	 0.609025056142112 
1256	 0.609243738620489 
1257	 0.609460201343354 
1258	 0.60967074205985 
1259	 0.609878679279031 
1260	 0.610083718766895 
1261	 0.610271422452589 
1262	 0.610444176932956 
1263	 0.610625753914619 
1264	 0.610789809460756 
1265	 0.610925286102579 
1266	 0.611084730256918 
1267	 0.611257940578412 
1268	 0.611408327850121 
1269	 0.611556536536834 
1270	 0.611695811575453 
1271	 0.611800791412626 
1272	 0.611948213972983 
1273	 0.612118290102655 
1274	 0.612274604064996 
1275	 0.612451980019048 
1276	 0.61260911829861 
1277	 0.612738183277046 
1278	 0.612886499672458 
1279	 0.613031602403472 
1280	 0.613192874866685 
1281	 0.613377115842598 
1282	 0.613548014514465 
1283	 0.613725150165617 
1284	 0.61389594877911 
1285	 0.614060830505393 
1286	 0.614210891676875 
1287	 0.614376616188615 
1288	 0.61454316689351 
1289	 0.614718371948129 
1290	 0.614910626533719 
1291	 0.615074867892201 
1292	 0.615233070081252 
1293	 0.615387650898488 
1294	 0.615525732390298 
1295	 0.615665585563872 
1296	 0.615811938031138 
1297	 0.615944219962587 
1298	 0.616054186077452 
1299	 0.616180886585425 
1300	 0.616328855605918 
1301	 0.616441759355861 
1302	 0.616544453758109 
1303	 0.616640613756197 
1304	 0.616724537141605 
1305	 0.616783397169829 
1306	 0.616823161036455 
1307	 0.616865642729337 
1308	 0.616884433587215 
1309	 0.616898252105194 
1310	 0.616922134288797 
1311	 0.616961369282129 
1312	 0.616983334974129 
1313	 0.617010947063811 
1314	 0.616995932628422 
1315	 0.616956375480065 
1316	 0.616924823017245 
1317	 0.616864697990381 
1318	 0.616817731211545 
1319	 0.616794492138644 
1320	 0.616738676197053 
1321	 0.616671706200208 
1322	 0.616582588532466 
1323	 0.616480319947844 
1324	 0.616357381702394 
1325	 0.616207534025144 
1326	 0.616052054673533 
1327	 0.61589624899363 
1328	 0.615705497532422 
1329	 0.615491974859893 
1330	 0.615264648512319 
1331	 0.615012599813099 
1332	 0.614743129273042 
1333	 0.614464245353912 
1334	 0.614159021418164 
1335	 0.613852728321467 
1336	 0.613533229713758 
1337	 0.613187201392909 
1338	 0.612833037402828 
1339	 0.612457312758927 
1340	 0.612064232132455 
1341	 0.611628646961381 
1342	 0.61117080789895 
1343	 0.61069103522504 
1344	 0.610185489240742 
1345	 0.6096287797605 
1346	 0.609046552710439 
1347	 0.608436114525063 
1348	 0.607765569944529 
1349	 0.60709218035746 
1350	 0.606406245503907 
1351	 0.605701144185536 
1352	 0.604965564134371 
1353	 0.60422031294341 
1354	 0.603457556332468 
1355	 0.602695952718848 
1356	 0.601910604835191 
1357	 0.601136541938799 
1358	 0.600364086745066 
1359	 0.599595319556895 
1360	 0.598836860656835 
1361	 0.598068903318673 
1362	 0.597305006294218 
1363	 0.596563026102962 
1364	 0.595763200868004 
1365	 0.594964851880283 
1366	 0.59409063326174 
1367	 0.593167473032402 
1368	 0.592207479220289 
1369	 0.591217216242441 
1370	 0.590149708636003 
1371	 0.58902213277432 
1372	 0.587874816793149 
1373	 0.586651667083341 
1374	 0.585441077524705 
1375	 0.584200855752123 
1376	 0.58296929332219 
1377	 0.581715809171465 
1378	 0.580464734874923 
1379	 0.579221261750976 
1380	 0.577965054746058 
1381	 0.576715604077301 
1382	 0.575425965802452 
1383	 0.574114971200319 
1384	 0.572790856539244 
1385	 0.571422174585462 
1386	 0.57007824540859 
1387	 0.568715512934817 
1388	 0.567407669451927 
1389	 0.566107319620118 
1390	 0.564858107767275 
1391	 0.563680981215006 
1392	 0.562484355323186 
1393	 0.561378303744109 
1394	 0.560253856096771 
1395	 0.559114958170189 
1396	 0.558032762245522 
1397	 0.556799487395729 
1398	 0.555554777460569 
1399	 0.554108744811779 
1400	 0.552545286352588 
1401	 0.550843468784715 
1402	 0.549006418727006 
1403	 0.547026161894323 
1404	 0.54489447777621 
1405	 0.542702476975448 
1406	 0.540312052076714 
1407	 0.537998400394945 
1408	 0.535544012629424 
1409	 0.533299253321922 
1410	 0.531013902670207 
1411	 0.529026028514637 
1412	 0.527186347337998 
1413	 0.525603247400579 
1414	 0.524278476736094 
1415	 0.523089364523089 
1416	 0.52217082600648 
1417	 0.521281963169974 
1418	 0.520587613874029 
1419	 0.519853146212174 
1420	 0.519184282476877 
1421	 0.518510903404604 
1422	 0.517825047753278 
1423	 0.517169508214732 
1424	 0.516549391099026 
1425	 0.515907800727607 
1426	 0.515342518675219 
1427	 0.514802233775802 
1428	 0.514290668017557 
1429	 0.513878963693049 
1430	 0.513480325077922 
1431	 0.513116522836362 
1432	 0.51279255537233 
1433	 0.512511884900628 
1434	 0.512267672172914 
1435	 0.512049429190466 
1436	 0.511898628597261 
1437	 0.511806182958014 
1438	 0.511742185321873 
1439	 0.51173876656322 
1440	 0.51174027817007 
1441	 0.511771583632905 
1442	 0.511816515552009 
1443	 0.511883048579218 
1444	 0.511967172255509 
1445	 0.512073129337684 
1446	 0.512189506942583 
1447	 0.512320883225954 
1448	 0.512469778623492 
1449	 0.512633595587668 
1450	 0.512813851498042 
1451	 0.513025872359151 
1452	 0.513228652698902 
1453	 0.513454600133595 
1454	 0.513651061361973 
1455	 0.513825617444359 
1456	 0.514010236981115 
1457	 0.514181354662808 
1458	 0.514360692557459 
1459	 0.514556701820851 
1460	 0.514742963912638 
1461	 0.51490487655834 
1462	 0.515095158773664 
1463	 0.515291125940291 
1464	 0.51550408433791 
1465	 0.515736507568743 
1466	 0.51599406097591 
1467	 0.516247369046282 
1468	 0.516503726343996 
1469	 0.516771904423757 
1470	 0.51702800434421 
1471	 0.517281308364574 
1472	 0.517538493534552 
1473	 0.517772493150132 
1474	 0.518003906186511 
1475	 0.518198001135888 
1476	 0.518368642705476 
1477	 0.518521427650982 
1478	 0.518648196287428 
1479	 0.518754842312242 
1480	 0.518849336085172 
1481	 0.518909491107414 
1482	 0.518939448283575 
1483	 0.51894676691315 
1484	 0.5189221832849 
1485	 0.518889101660238 
1486	 0.518837332126568 
1487	 0.5187639757323 
1488	 0.518660208799827 
1489	 0.518568633449667 
1490	 0.518438236270503 
1491	 0.518359922896569 
1492	 0.518305464134287 
1493	 0.518266745842203 
1494	 0.518248610687676 
1495	 0.51825357265061 
1496	 0.518279227517075 
1497	 0.518320489542204 
1498	 0.518386155249136 
1499	 0.518468602466429 
1500	 0.518558719051501 
1501	 0.518679634998054 
1502	 0.518825865527921 
1503	 0.518994076704711 
1504	 0.519188982056082 
1505	 0.51940383753784 
1506	 0.519663148365846 
1507	 0.519904473024416 
1508	 0.520155657399946 
1509	 0.520405169874124 
1510	 0.520642754602695 
1511	 0.520888226024199 
1512	 0.521127336160548 
1513	 0.52139351677872 
1514	 0.52167605192378 
1515	 0.521964569071502 
1516	 0.522280350857904 
1517	 0.522594849747414 
1518	 0.522907201153037 
1519	 0.523225276152422 
1520	 0.523554733458534 
1521	 0.52387959205691 
1522	 0.524204352442933 
1523	 0.524562031025723 
1524	 0.524920309716264 
1525	 0.525294682510425 
1526	 0.525662934067948 
1527	 0.526038382319824 
1528	 0.526409674532337 
1529	 0.526766656957448 
1530	 0.527169474076736 
1531	 0.527600446806869 
1532	 0.528006571345877 
1533	 0.528435178701233 
1534	 0.528839950739073 
1535	 0.529211237871692 
1536	 0.529609313032973 
1537	 0.530024921710002 
1538	 0.530422900447484 
1539	 0.530821951182918 
1540	 0.531204878151378 
1541	 0.531576606669773 
1542	 0.531944051918232 
1543	 0.532298130549793 
1544	 0.532655598144338 
1545	 0.533016538054547 
1546	 0.533359290477575 
1547	 0.533704406064827 
1548	 0.534015842018461 
1549	 0.534300192622528 
1550	 0.53458255750263 
1551	 0.534846780546518 
1552	 0.535101773158736 
1553	 0.535367708394366 
1554	 0.535578595262426 
1555	 0.535754057469027 
1556	 0.535915852420062 
1557	 0.536034624556881 
1558	 0.536159223300168 
1559	 0.536264508782922 
1560	 0.536385004496829 
1561	 0.536491065727192 
1562	 0.536625007959964 
1563	 0.536781260557239 
1564	 0.536936185468474 
1565	 0.537106414497973 
1566	 0.537271233406864 
1567	 0.537435126351652 
1568	 0.537604267262726 
1569	 0.537773914607789 
1570	 0.537950520270071 
1571	 0.538137615228282 
1572	 0.538318331712557 
1573	 0.538495528031488 
1574	 0.538682555535897 
1575	 0.538875555794471 
1576	 0.539062825208938 
1577	 0.539256687713796 
1578	 0.539445946607854 
1579	 0.539619938180794 
1580	 0.539809154538446 
1581	 0.540009772623193 
1582	 0.540206638641633 
1583	 0.540405389781188 
1584	 0.540609310158231 
1585	 0.540809125076334 
1586	 0.541021115322285 
1587	 0.54124750273147 
1588	 0.541469425188564 
1589	 0.541684215560384 
1590	 0.541922313142046 
1591	 0.542175245338771 
1592	 0.542426813256505 
1593	 0.542699158722535 
1594	 0.542962310373314 
1595	 0.543222165837474 
1596	 0.543474275788776 
1597	 0.543731416806644 
1598	 0.543972042914889 
1599	 0.544195279405254 
1600	 0.544418566309644 
1601	 0.544636811807984 
1602	 0.544845588054624 
1603	 0.545051959971247 
1604	 0.545244081501094 
1605	 0.545405580968827 
1606	 0.545591359206365 
1607	 0.545797326198407 
1608	 0.54597511022659 
1609	 0.546165280604986 
1610	 0.546324676609495 
1611	 0.54643691873685 
1612	 0.546559383195563 
1613	 0.546680139431229 
1614	 0.546787759722313 
1615	 0.546896245901728 
1616	 0.546983064271692 
1617	 0.547051005952783 
1618	 0.547108108206589 
1619	 0.547142794088924 
1620	 0.547175523398433 
1621	 0.547206069161794 
1622	 0.547217952931323 
1623	 0.547221739313627 
1624	 0.547209782929566 
1625	 0.547180351796087 
1626	 0.547135821402788 
1627	 0.547067017310214 
1628	 0.547001785895092 
1629	 0.546923093649092 
1630	 0.546845222527331 
1631	 0.546770811264497 
1632	 0.546689999143257 
1633	 0.546599503475633 
1634	 0.546510932047659 
1635	 0.546426383848463 
1636	 0.546332507908814 
1637	 0.546257110054515 
1638	 0.54613654645756 
1639	 0.545987574727834 
1640	 0.545821976387814 
1641	 0.545617570727479 
1642	 0.545408373911384 
1643	 0.545192394444122 
1644	 0.544961478986546 
1645	 0.544714264111308 
1646	 0.544453218186367 
1647	 0.544193736533732 
1648	 0.543888083377172 
1649	 0.543568522386182 
1650	 0.543194205361347 
1651	 0.542789647995413 
1652	 0.542317457159726 
1653	 0.541792953768363 
1654	 0.541212294528428 
1655	 0.540557030320539 
1656	 0.539859282687516 
1657	 0.539125906429736 
1658	 0.538310835213971 
1659	 0.537431657214034 
1660	 0.536499692078271 
1661	 0.535506895178029 
1662	 0.534437224986847 
1663	 0.53330523243329 
1664	 0.532087578008183 
1665	 0.530812994392351 
1666	 0.529399408684175 
1667	 0.527894248324991 
1668	 0.526289575118783 
1669	 0.52455265644514 
1670	 0.522735398219139 
1671	 0.520817159997001 
1672	 0.518806332672903 
1673	 0.516713143162243 
1674	 0.514488897572434 
1675	 0.512136653123352 
1676	 0.509771124365476 
1677	 0.507311568462638 
1678	 0.504788889242872 
1679	 0.502217428571873 
1680	 0.499556789063432 
1681	 0.496787492447094 
1682	 0.49396782612377 
1683	 0.491086019214745 
1684	 0.488202669539986 
1685	 0.48525455997502 
1686	 0.482295300641923 
1687	 0.479270403324628 
1688	 0.47629369164652 
1689	 0.473307082361657 
1690	 0.470321397964408 
1691	 0.467391807259068 
1692	 0.464484792885679 
1693	 0.461582363993879 
1694	 0.458659257339914 
1695	 0.455766080625011 
1696	 0.452786985450164 
1697	 0.449752219585304 
1698	 0.446655165133232 
1699	 0.443492861461543 
1700	 0.440439468112399 
1701	 0.437329107848046 
1702	 0.434374469292623 
1703	 0.43147708143821 
1704	 0.428723945457856 
1705	 0.426043500596567 
1706	 0.423473544112524 
1707	 0.421222788889274 
1708	 0.419034880305172 
1709	 0.41695701258261 
1710	 0.415051120180278 
1711	 0.413112075012305 
1712	 0.411266455948985 
1713	 0.409444019304755 
1714	 0.407584614010904 
1715	 0.405855422530379 
1716	 0.404111698411394 
1717	 0.402442917441627 
1718	 0.400889030349819 
1719	 0.399342850817915 
1720	 0.397936589341774 
1721	 0.39666609210012 
1722	 0.39554250110543 
1723	 0.394681428545958 
1724	 0.39404442470467 
1725	 0.393651084211462 
1726	 0.393580405409997 
1727	 0.393827288926182 
1728	 0.394380592063716 
1729	 0.39529255398867 
1730	 0.396562462971535 
1731	 0.398008917227864 
1732	 0.399737199557681 
1733	 0.401609379720464 
1734	 0.40354680641978 
1735	 0.405626031526652 
1736	 0.407604254667215 
1737	 0.40944366770222 
1738	 0.411127298475019 
1739	 0.412531365592885 
1740	 0.413744869823805 
1741	 0.414706599824545 
1742	 0.415370305951264 
1743	 0.415904558444325 
1744	 0.416197541648992 
1745	 0.416400982599826 
1746	 0.416398347287842 
1747	 0.416383710285876 
1748	 0.416221973838062 
1749	 0.416107065475213 
1750	 0.415949422278043 
1751	 0.415847572382091 
1752	 0.415725339093697 
1753	 0.415716893657221 
1754	 0.415735488276034 
1755	 0.415909876018513 
1756	 0.416158540391628 
1757	 0.416586791403128 
1758	 0.417196394371435 
1759	 0.417949839061121 
1760	 0.418925353248991 
1761	 0.420116348770554 
1762	 0.42143316313543 
1763	 0.422968455872101 
1764	 0.424659507332934 
1765	 0.426486300653061 
1766	 0.42852373145567 
1767	 0.430587035399653 
1768	 0.432721796530996 
1769	 0.43487568907098 
1770	 0.43687207809079 
1771	 0.438859180736733 
1772	 0.440723138279284 
1773	 0.44243793826016 
1774	 0.444135089437625 
1775	 0.445667954111306 
1776	 0.447119288789296 
1777	 0.448454044705461 
1778	 0.449569113036951 
1779	 0.450624421036041 
1780	 0.451567739478085 
1781	 0.452408042624643 
1782	 0.453235729586555 
1783	 0.453930088576892 
1784	 0.45451990775755 
1785	 0.455006123718104 
1786	 0.45543537661682 
1787	 0.455774564550176 
1788	 0.456102882606118 
1789	 0.456371010332765 
1790	 0.456614877910784 
1791	 0.456821631423369 
1792	 0.457030886971686 
1793	 0.45720716094996 
1794	 0.457366850369494 
1795	 0.457527359566284 
1796	 0.457701040304002 
1797	 0.457897878974907 
1798	 0.458102911572403 
1799	 0.458319069457433 
1800	 0.458522805535185 
1801	 0.46176803983305 
1802	 0.461982185105043 
1803	 0.46221674609515 
1804	 0.462468761499798 
1805	 0.462742174793307 
1806	 0.46298835911187 
1807	 0.463240241121585 
1808	 0.463486420874458 
1809	 0.463704301418165 
1810	 0.463947297859925 
1811	 0.464209495482333 
1812	 0.464468255779555 
1813	 0.464703348235619 
1814	 0.464995349080305 
1815	 0.465302751762289 
1816	 0.465610809411788 
1817	 0.465924712576232 
1818	 0.466261207401039 
1819	 0.46658573199356 
1820	 0.466879840221618 
1821	 0.467222287527604 
1822	 0.467587463718091 
1823	 0.467977825039167 
1824	 0.468349172873916 
1825	 0.468751348040392 
1826	 0.469131868633408 
1827	 0.469498800964677 
1828	 0.469851451405494 
1829	 0.470191718080482 
1830	 0.470546628072419 
1831	 0.470884864608711 
1832	 0.471245701277535 
1833	 0.471618458704516 
1834	 0.472006997372456 
1835	 0.472373495931751 
1836	 0.4727297058259 
1837	 0.473105321485851 
1838	 0.473494093889755 
1839	 0.47386179994726 
1840	 0.474245678721873 
1841	 0.474609329810188 
1842	 0.474961529927183 
1843	 0.475280715933082 
1844	 0.475620151976038 
1845	 0.475945229933549 
1846	 0.476238375662345 
1847	 0.476511972985719 
1848	 0.476756012042357 
1849	 0.476977843139642 
1850	 0.477154842843753 
1851	 0.477289973030013 
1852	 0.477429207273848 
1853	 0.477522336098749 
1854	 0.477557463141253 
1855	 0.477574251946715 
1856	 0.477555752829243 
1857	 0.477494048820339 
1858	 0.477386548200998 
1859	 0.477230118692728 
1860	 0.477032291290017 
1861	 0.476778680557671 
1862	 0.47647786004699 
1863	 0.476125583324353 
1864	 0.475700091386473 
1865	 0.475246320116095 
1866	 0.474728558167659 
1867	 0.474088470437079 
1868	 0.47342518974605 
1869	 0.472655581766085 
1870	 0.471791205591821 
1871	 0.470837280082311 
1872	 0.469845643832148 
1873	 0.468776573697003 
1874	 0.467652293835779 
1875	 0.466488741388244 
1876	 0.465124675737641 
1877	 0.463721004354627 
1878	 0.462151795085476 
1879	 0.46039279166131 
1880	 0.458629049905671 
1881	 0.456657572061972 
1882	 0.454508006548969 
1883	 0.452235555081753 
1884	 0.449794805021032 
1885	 0.447013090403277 
1886	 0.444130290773353 
1887	 0.440987563002332 
1888	 0.437586272117602 
1889	 0.434294188100392 
1890	 0.430756591236093 
1891	 0.42715859033306 
1892	 0.423573638929854 
1893	 0.419833708622809 
1894	 0.415879901969007 
1895	 0.412065662201568 
1896	 0.408170857643322 
1897	 0.404213566439063 
1898	 0.400559390013493 
1899	 0.396841790151946 
1900	 0.393231890452119 
1901	 0.389798272525377 
1902	 0.386219308610471 
1903	 0.382840645159432 
1904	 0.379565190418037 
1905	 0.376343203809031 
1906	 0.373235623536541 
1907	 0.370497405663958 
1908	 0.367777571922613 
1909	 0.365215642685707 
1910	 0.36285865345499 
1911	 0.360428147184178 
1912	 0.35819167550705 
1913	 0.356074861557341 
1914	 0.354010857066251 
1915	 0.352127682473427 
1916	 0.350450607574421 
1917	 0.34878878599034 
1918	 0.347226493726765 
1919	 0.345785321019831 
1920	 0.344317078301269 
1921	 0.342981481504157 
1922	 0.341708497562963 
1923	 0.340473337071115 
1924	 0.339424241342759 
1925	 0.338424542252057 
1926	 0.337491415237448 
1927	 0.336664088075028 
1928	 0.335881450524358 
1929	 0.33514097295982 
1930	 0.334474643535405 
1931	 0.333894333140349 
1932	 0.333384791072871 
1933	 0.332989268536101 
1934	 0.332683104302804 
1935	 0.332444984657376 
1936	 0.332283475132594 
1937	 0.33217825216817 
1938	 0.33212877993657 
1939	 0.332150807776184 
1940	 0.332246012562902 
1941	 0.332401264910096 
1942	 0.332599862902234 
1943	 0.332857030519274 
1944	 0.333145524563229 
1945	 0.333475052399157 
1946	 0.33387719139308 
1947	 0.334310989016005 
1948	 0.334808060493497 
1949	 0.335362636471874 
1950	 0.335896705677544 
1951	 0.336449278433718 
1952	 0.337013046314614 
1953	 0.337581413585314 
1954	 0.33814270058778 
1955	 0.338762773500067 
1956	 0.339369936828162 
1957	 0.339984207890455 
1958	 0.340622394593671 
1959	 0.34121583459378 
1960	 0.341811417934801 
1961	 0.342389974205046 
1962	 0.34293968219362 
1963	 0.343498571046301 
1964	 0.344053947281986 
1965	 0.344597376046727 
1966	 0.345140158401517 
1967	 0.345687397608328 
1968	 0.34617734167101 
1969	 0.346683019468119 
1970	 0.347201450194876 
1971	 0.347705202315236 
1972	 0.348248010817181 
1973	 0.348797027641465 
1974	 0.349340317352157 
1975	 0.349896662772201 
1976	 0.350427726886274 
1977	 0.350934230700905 
1978	 0.351473430357821 
1979	 0.352012260429761 
1980	 0.35254575790949 
1981	 0.353150953319245 
1982	 0.353724036249065 
1983	 0.354280766295311 
1984	 0.354864899115082 
1985	 0.355383969203238 
1986	 0.35589739415496 
1987	 0.356443868772876 
1988	 0.357003696089685 
1989	 0.357552759844624 
1990	 0.358128175059761 
1991	 0.358687871175312 
1992	 0.359247927868957 
1993	 0.35977912785762 
1994	 0.36028672141862 
1995	 0.360783543660575 
1996	 0.361220706086177 
1997	 0.361637057142362 
1998	 0.362070054169615 
1999	 0.362512637186703 
2000	 0.362912123450372 
2001	 0.363315921144428 
2002	 0.363670789077355 
2003	 0.363969790053627 
2004	 0.364274284334317 
2005	 0.364559841967872 
2006	 0.364827119691973 
2007	 0.365086318594629 
2008	 0.365323296732704 
2009	 0.365535219029445 
2010	 0.365708997717319 
2011	 0.365831876709546 
2012	 0.365931031271121 
2013	 0.365972751646105 
2014	 0.365957455362236 
2015	 0.365915218329742 
2016	 0.365844447240098 
2017	 0.365704122451739 
2018	 0.365529387142328 
2019	 0.365284340015053 
2020	 0.364965756997237 
2021	 0.364593641145153 
2022	 0.364213824446975 
2023	 0.363742092237352 
2024	 0.363178610563813 
2025	 0.362587144547803 
2026	 0.361929422257038 
2027	 0.36115660831268 
2028	 0.360411874270184 
2029	 0.35964217480896 
2030	 0.358842645980658 
2031	 0.358029249324247 
2032	 0.357169752037323 
2033	 0.356244647911646 
2034	 0.355350880347468 
2035	 0.354432188058723 
2036	 0.3534925049378 
2037	 0.352637730419688 
2038	 0.351804187553159 
2039	 0.350995560730907 
2040	 0.350227921094389 
2041	 0.349468186945141 
2042	 0.348695315390499 
2043	 0.348014163999822 
2044	 0.347363716941499 
2045	 0.346786632300146 
2046	 0.346299589506384 
2047	 0.345830526589281 
2048	 0.34539042758063 
2049	 0.345019877356024 
2050	 0.344687838603065 
2051	 0.344423477186615 
2052	 0.344246598531412 
2053	 0.344150870249972 
2054	 0.344136280295574 
2055	 0.344203548708111 
2056	 0.344356467033091 
2057	 0.344587931179212 
2058	 0.344913431351708 
2059	 0.345350150339293 
2060	 0.345831075658245 
2061	 0.346432005649582 
2062	 0.347027645074323 
2063	 0.347663900770769 
2064	 0.348335345963493 
2065	 0.349051362763338 
2066	 0.349771498880968 
2067	 0.350562932737133 
2068	 0.351327204759503 
2069	 0.352071772655743 
2070	 0.35282481831228 
2071	 0.353539577727606 
2072	 0.354231169959514 
2073	 0.354898609854988 
2074	 0.355535241424384 
2075	 0.356161724138334 
2076	 0.356783055644488 
2077	 0.357349424133775 
2078	 0.35790624035158 
2079	 0.358407455688185 
2080	 0.358844978297339 
2081	 0.35925370405895 
2082	 0.359625807082245 
2083	 0.359951842731519 
2084	 0.360263036514382 
2085	 0.360547453367692 
2086	 0.360796213756742 
2087	 0.361028973679705 
2088	 0.361208163699994 
2089	 0.361326286243745 
2090	 0.361443342803374 
2091	 0.361528755810939 
2092	 0.361598489197701 
2093	 0.361670676493285 
2094	 0.361685426849153 
2095	 0.361663223778965 
2096	 0.361608518191688 
2097	 0.36151242636762 
2098	 0.36137121095614 
2099	 0.361228969730528 
2100	 0.361067390909343 
2101	 0.360869440487731 
2102	 0.36065436953177 
2103	 0.360393764478666 
2104	 0.360081312373443 
2105	 0.359764826487235 
2106	 0.359421841300822 
2107	 0.35905758337157 
2108	 0.358682790451428 
2109	 0.358270438520865 
2110	 0.357826258777826 
2111	 0.357356237790072 
2112	 0.356843891566471 
2113	 0.35632326590402 
2114	 0.355770007420257 
2115	 0.355216054282963 
2116	 0.354656148642063 
2117	 0.354093772391733 
2118	 0.353486741878355 
2119	 0.352850556738972 
2120	 0.352222324442276 
2121	 0.351540341639698 
2122	 0.350921081997417 
2123	 0.350348724524412 
2124	 0.349737346968542 
2125	 0.349135099226176 
2126	 0.348521592787403 
2127	 0.347877153966804 
2128	 0.347251888877074 
2129	 0.346628419803972 
2130	 0.346017223489783 
2131	 0.345416708468439 
2132	 0.344816437892556 
2133	 0.344243233993598 
2134	 0.343650443431976 
2135	 0.343014146486129 
2136	 0.342393611409251 
2137	 0.341744316435829 
2138	 0.341059541251027 
2139	 0.340387303189226 
2140	 0.339706865125836 
2141	 0.339033342115545 
2142	 0.338363594801913 
2143	 0.337680197926384 
2144	 0.336988011860889 
2145	 0.3363129924423 
2146	 0.335609994721297 
2147	 0.334956330051911 
2148	 0.334340867309663 
2149	 0.333727579476281 
2150	 0.333169668002817 
2151	 0.33256757565442 
2152	 0.331944498657352 
2153	 0.331332975819152 
2154	 0.330688854783776 
2155	 0.330034017835884 
2156	 0.329425524673502 
2157	 0.328849073334123 
2158	 0.328242546259285 
2159	 0.327652756082325 
2160	 0.327042567511951 
2161	 0.326386019722501 
2162	 0.325796385915063 
2163	 0.325205549638787 
2164	 0.324682302196264 
2165	 0.32420649104437 
2166	 0.323764786052762 
2167	 0.323369204067625 
2168	 0.323009680613991 
2169	 0.322680262772724 
2170	 0.322401752630773 
2171	 0.322168080683294 
2172	 0.321981215019596 
2173	 0.321852646474812 
2174	 0.321751040861819 
2175	 0.321686802848235 
2176	 0.321659290921763 
2177	 0.321654219533211 
2178	 0.321676613432522 
2179	 0.321727173989998 
2180	 0.321806682350658 
2181	 0.321917155372938 
2182	 0.322073538922614 
2183	 0.322221526635436 
2184	 0.322394393094385 
2185	 0.322568154900145 
2186	 0.322747671368782 
2187	 0.322929345479727 
2188	 0.323130243492754 
2189	 0.323321466965772 
2190	 0.323518939548172 
2191	 0.323693244308125 
2192	 0.323843098137958 
2193	 0.3240111132906 
2194	 0.324182395066659 
2195	 0.324339811852643 
2196	 0.324509747466891 
2197	 0.324673794798131 
2198	 0.324785609169012 
2199	 0.324875776024537 
2200	 0.324931453719484 
2201	 0.324941420626173 
2202	 0.324966588853698 
2203	 0.324970786288918 
2204	 0.32496974372001 
2205	 0.324969073517314 
2206	 0.324958258849131 
2207	 0.324925866973832 
2208	 0.32489549831134 
2209	 0.324869505913965 
2210	 0.324827456443126 
2211	 0.324774456709129 
2212	 0.324715399359273 
2213	 0.324643270303104 
2214	 0.32457042723059 
2215	 0.324509218348052 
2216	 0.324409184784297 
2217	 0.324315439156227 
2218	 0.324166574518031 
2219	 0.323994063389722 
2220	 0.323753152681589 
2221	 0.323466418038746 
2222	 0.323114845107768 
2223	 0.322714687164206 
2224	 0.322220136539219 
2225	 0.321674592180278 
2226	 0.321061174754824 
2227	 0.32030101208831 
2228	 0.319442324563678 
2229	 0.318465478163271 
2230	 0.317325349717653 
2231	 0.31615313143857 
2232	 0.314905120438926 
2233	 0.313543342072913 
2234	 0.312148654067076 
2235	 0.310534245182069 
2236	 0.308744345013472 
2237	 0.306871465402698 
2238	 0.304767672552689 
2239	 0.302699491815718 
2240	 0.30060088818042 
2241	 0.298392026219401 
2242	 0.296193778624943 
2243	 0.293789074361387 
2244	 0.291161954007701 
2245	 0.288558586043689 
2246	 0.285761871552323 
2247	 0.283035392389529 
2248	 0.280353928436352 
2249	 0.277624550620077 
2250	 0.274876656406712 
2251	 0.272150607037206 
2252	 0.269244272925304 
2253	 0.26644010758886 
2254	 0.26358714126883 
2255	 0.260745455893928 
2256	 0.258148679931428 
2257	 0.255542958927604 
2258	 0.25306467567453 
2259	 0.250760117800024 
2260	 0.248363947953832 
2261	 0.245981928592339 
2262	 0.243677399945635 
2263	 0.241315675082906 
2264	 0.239148399135815 
2265	 0.237143130739685 
2266	 0.235131312444791 
2267	 0.233250921611809 
2268	 0.231317896058325 
2269	 0.229358057540495 
2270	 0.227499063201215 
2271	 0.225637473322858 
2272	 0.223888541542842 
2273	 0.222289063920263 
2274	 0.220651627828141 
2275	 0.219107615338618 
2276	 0.217491574427261 
2277	 0.215863985747965 
2278	 0.21420671074447 
2279	 0.212482931436083 
2280	 0.210777844252553 
2281	 0.209084126275222 
2282	 0.207342302365069 
2283	 0.205591132110413 
2284	 0.203830433922624 
2285	 0.201941334274078 
2286	 0.200052106955231 
2287	 0.198067288613619 
2288	 0.19605850817258 
2289	 0.194141996505565 
2290	 0.19212520967471 
2291	 0.190136340587203 
2292	 0.188146538504383 
2293	 0.186024653497842 
2294	 0.1839812079186 
2295	 0.181997063455274 
2296	 0.180080687880071 
2297	 0.178386172775738 
2298	 0.176853053217729 
2299	 0.175453439386873 
2300	 0.174214590552887 
2301	 0.173174811945584 
2302	 0.172242206502042 
2303	 0.171656696261567 
2304	 0.171310167233392 
2305	 0.171261249768716 
2306	 0.171546889469449 
2307	 0.172026199296393 
2308	 0.17274994158679 
2309	 0.173783843040368 
2310	 0.175133724919705 
2311	 0.176669048891266 
2312	 0.1786595689573 
2313	 0.180548135710641 
2314	 0.182602879832076 
2315	 0.184626652769252 
2316	 0.186772030773473 
2317	 0.188716619623054 
2318	 0.190711810533034 
2319	 0.192397022207011 
2320	 0.193918988475286 
2321	 0.195167709170334 
2322	 0.196161954704211 
2323	 0.196955123991082 
2324	 0.197450497544841 
2325	 0.197790273575274 
2326	 0.19791823952023 
2327	 0.197873042586162 
2328	 0.197568800768525 
2329	 0.197176408468124 
2330	 0.196621677572907 
2331	 0.195918173396211 
2332	 0.1951232726886 
2333	 0.194201327838201 
2334	 0.193044150630822 
2335	 0.191769195987249 
2336	 0.190329838653625 
2337	 0.188787300380333 
2338	 0.187292732104105 
2339	 0.185714306617004 
2340	 0.184208647141437 
2341	 0.182787385231096 
2342	 0.181422545527962 
2343	 0.180277892243746 
2344	 0.179314362967986 
2345	 0.17857649010158 
2346	 0.178129641126727 
2347	 0.178042874769679 
2348	 0.178265750519431 
2349	 0.178901704320587 
2350	 0.179920128451255 
2351	 0.181163441654076 
2352	 0.182601697434371 
2353	 0.184185152495367 
2354	 0.18575280166035 
2355	 0.187323084306177 
2356	 0.188814543608408 
2357	 0.190162078057645 
2358	 0.191421573583808 
2359	 0.192390284366763 
2360	 0.193166768117149 
2361	 0.19379874512928 
2362	 0.194222798475047 
2363	 0.194566738049033 
2364	 0.194851805242822 
2365	 0.195013959665582 
2366	 0.195144836457817 
2367	 0.195239703504191 
2368	 0.195274084152993 
2369	 0.195346686031107 
2370	 0.195464786105621 
2371	 0.195624633860716 
2372	 0.195796155678241 
2373	 0.195973693430175 
2374	 0.196140405053928 
2375	 0.196182091931538 
2376	 0.196153418152688 
2377	 0.196186850047689 
2378	 0.196258878306606 
2379	 0.196357884532428 
2380	 0.196502750322691 
2381	 0.196613650425375 
2382	 0.196723205812033 
2383	 0.196781828878129 
2384	 0.196856367689132 
2385	 0.196968003176167 
2386	 0.197062697281545 
2387	 0.197085426057727 
2388	 0.197189242419496 
2389	 0.197338807651189 
2390	 0.197487385185307 
2391	 0.197685530173233 
2392	 0.197839217844804 
2393	 0.198004752519993 
2394	 0.198131331221157 
2395	 0.198208731485696 
2396	 0.19832062917479 
2397	 0.198419844658404 
2398	 0.198523878989504 
2399	 0.19862233165317 
2400	 0.198761674814208 
2401	 0.198938824317311 
2402	 0.199020994993924 
2403	 0.19913478085898 
2404	 0.19921009479869 
2405	 0.199423062892478 
2406	 0.199666375767441 
2407	 0.199820040120697 
2408	 0.199927911329358 
2409	 0.199894442633231 
2410	 0.199924110047893 
2411	 0.200028512773923 
2412	 0.200074871045758 
2413	 0.200103188435415 
2414	 0.200120996283799 
2415	 0.200176092338086 
2416	 0.200264887968992 
2417	 0.200435207877232 
2418	 0.200557625411327 
2419	 0.200484900433298 
2420	 0.200426090961357 
2421	 0.200383459174502 
2422	 0.200341339926659 
2423	 0.200422788183058 
2424	 0.200474838267884 
2425	 0.200453892595907 
2426	 0.200341480291862 
2427	 0.200216484651886 
2428	 0.200143147494318 
2429	 0.19999007229511 
2430	 0.199870832070717 
2431	 0.199754449085352 
2432	 0.199662786372572 
2433	 0.199577455807242 
2434	 0.199278381882921 
2435	 0.199012863019322 
2436	 0.198760485701101 
2437	 0.198436331229126 
2438	 0.198379021517982 
2439	 0.19828079986658 
2440	 0.197968639677846 
2441	 0.197739713398634 
2442	 0.19746351455521 
2443	 0.197183873821863 
2444	 0.197018796793819 
2445	 0.196682281825659 
2446	 0.196221887934985 
2447	 0.195904049061525 
2448	 0.195519264699471 
2449	 0.195120271338498 
2450	 0.194851637052458 
2451	 0.194396592393969 
2452	 0.193847621116646 
2453	 0.19340200616283 
2454	 0.193137000300875 
2455	 0.192976361985753 
2456	 0.192650441358166 
2457	 0.192301091558825 
2458	 0.191811002110626 
2459	 0.191138531565799 
2460	 0.190673314806446 
2461	 0.190249315934856 
2462	 0.189774657507284 
2463	 0.189353655731357 
2464	 0.189011973200367 
2465	 0.188930121884676 
2466	 0.188918694507577 
2467	 0.188777728020973 
2468	 0.18854787652512 
2469	 0.188135861993273 
2470	 0.187747369689544 
2471	 0.18761289649846 
2472	 0.187532448469299 
2473	 0.187634497520404 
2474	 0.187740136396864 
2475	 0.187847289299604 
2476	 0.188107327695477 
2477	 0.188065464428426 
2478	 0.187973903851656 
2479	 0.187791455782949 
2480	 0.187796935485481 
2481	 0.187817369783801 
2482	 0.187901674423699 
2483	 0.187921712235554 
2484	 0.187881142255323 
2485	 0.188204802618421 
2486	 0.188576779502257 
2487	 0.188946858763828 
2488	 0.189313640277061 
2489	 0.189411990491793 
2490	 0.189460818991369 
2491	 0.18953256122393 
2492	 0.189684112799331 
2493	 0.189733765319666 
2494	 0.189713533008671 
2495	 0.189858147224319 
2496	 0.189988866224819 
2497	 0.190262597144213 
2498	 0.190764091233438 
2499	 0.191337447388111 
2500	 0.191692451576922 
