Wavelength	spectrum00000.asd
350	 0.160531831234995 
351	 0.159932607095161 
352	 0.15760290633416 
353	 0.153857412726935 
354	 0.15346037017367 
355	 0.153452097912624 
356	 0.152355008815303 
357	 0.150169085968687 
358	 0.150051141952902 
359	 0.150350217263795 
360	 0.150339516549269 
361	 0.149955400799219 
362	 0.150006047517436 
363	 0.150318463328058 
364	 0.150693026391184 
365	 0.150987860818966 
366	 0.154280323583249 
367	 0.157375998165604 
368	 0.157780306114061 
369	 0.16035357069415 
370	 0.162341542605501 
371	 0.16385787536801 
372	 0.166434811329822 
373	 0.168583482636951 
374	 0.170594316817668 
375	 0.172784023444229 
376	 0.175224779717259 
377	 0.177771848171272 
378	 0.180162070756551 
379	 0.182217025463635 
380	 0.183885604183115 
381	 0.187443349872765 
382	 0.191430936707217 
383	 0.192760675382648 
384	 0.195569950411241 
385	 0.199570768539638 
386	 0.203354050082228 
387	 0.204625471086075 
388	 0.207241863077977 
389	 0.210858487659416 
390	 0.21411910378366 
391	 0.216578730653538 
392	 0.219768861208064 
393	 0.223580603565264 
394	 0.226854013703198 
395	 0.229775487101579 
396	 0.23295774482833 
397	 0.236553926419183 
398	 0.239923657649021 
399	 0.242559713619332 
400	 0.245308985896764 
401	 0.248957962266838 
402	 0.252303899879503 
403	 0.25580849973181 
404	 0.25942588503341 
405	 0.262739805182054 
406	 0.266039893777681 
407	 0.269357538604313 
408	 0.272760546168709 
409	 0.276509309003031 
410	 0.279974563641444 
411	 0.283327142507138 
412	 0.286914974066156 
413	 0.29056005832175 
414	 0.293945495993895 
415	 0.29727878219436 
416	 0.301166530356475 
417	 0.304815513603792 
418	 0.308408474223612 
419	 0.312167375092113 
420	 0.316065452346109 
421	 0.31959492590187 
422	 0.32297376243804 
423	 0.32666067424113 
424	 0.330477606260357 
425	 0.33414804551603 
426	 0.337640450758964 
427	 0.341206720793242 
428	 0.344809831302777 
429	 0.34856413774822 
430	 0.352451912709163 
431	 0.356010341648956 
432	 0.35967012082343 
433	 0.363386777276605 
434	 0.366896461427751 
435	 0.370423295711568 
436	 0.37413535582609 
437	 0.377949314122903 
438	 0.381384340214584 
439	 0.38494093433341 
440	 0.388652055835166 
441	 0.392371864090683 
442	 0.395815861142185 
443	 0.399432472184076 
444	 0.403174816744095 
445	 0.406624075764841 
446	 0.410182663953627 
447	 0.413840218131302 
448	 0.417522152900197 
449	 0.421172045343998 
450	 0.424715790636991 
451	 0.428239614008411 
452	 0.431858923000194 
453	 0.435436313526625 
454	 0.438911485111825 
455	 0.442376473611497 
456	 0.446085116506787 
457	 0.449560794789621 
458	 0.452915911211534 
459	 0.456385809248479 
460	 0.460164615810005 
461	 0.463652855989765 
462	 0.466943527071186 
463	 0.470483006407471 
464	 0.474031150669131 
465	 0.477456882744575 
466	 0.480765369418113 
467	 0.484159081750743 
468	 0.48752345025295 
469	 0.490903630265402 
470	 0.494328009660929 
471	 0.497519284268242 
472	 0.500815838086907 
473	 0.504183482505559 
474	 0.507301086054112 
475	 0.510559900918418 
476	 0.513806519047984 
477	 0.516906066292092 
478	 0.519947774889903 
479	 0.523091891109849 
480	 0.526284866069005 
481	 0.529390022996057 
482	 0.532366354833796 
483	 0.53536827240426 
484	 0.538444419921279 
485	 0.541497059315951 
486	 0.54454001023029 
487	 0.547541873901112 
488	 0.550468776647292 
489	 0.553288955580814 
490	 0.556157691758245 
491	 0.559130630525256 
492	 0.562163253708088 
493	 0.56489475119164 
494	 0.567679920928236 
495	 0.57063360676096 
496	 0.573316075712381 
497	 0.576058018600374 
498	 0.578784140861895 
499	 0.58137709507023 
500	 0.584135882983459 
501	 0.586895601475114 
502	 0.589525056812461 
503	 0.591964746395628 
504	 0.594568026135788 
505	 0.597180123402771 
506	 0.599683724540983 
507	 0.602298226378849 
508	 0.604854622307324 
509	 0.607296361352533 
510	 0.609644566372383 
511	 0.612079912512245 
512	 0.614548076351063 
513	 0.616999851018491 
514	 0.619431386274293 
515	 0.621754160874587 
516	 0.624040061621522 
517	 0.626374530799875 
518	 0.628735328645979 
519	 0.631009750007511 
520	 0.633239697733215 
521	 0.635563685193128 
522	 0.637886488611633 
523	 0.640169892087041 
524	 0.642401421243547 
525	 0.644604806643957 
526	 0.646790872181273 
527	 0.648961518724076 
528	 0.651121692822287 
529	 0.653313719053917 
530	 0.655473270997698 
531	 0.657585251983857 
532	 0.659688647146505 
533	 0.661783007374798 
534	 0.663889338540342 
535	 0.666020298016793 
536	 0.668178852806826 
537	 0.670267288169425 
538	 0.672286339732963 
539	 0.674293969659596 
540	 0.676265247833011 
541	 0.678254735513099 
542	 0.680277757443925 
543	 0.68227645526968 
544	 0.684240670384434 
545	 0.686102675787806 
546	 0.687832171743999 
547	 0.689624002802662 
548	 0.691453146124008 
549	 0.693276595523343 
550	 0.695046466145126 
551	 0.696796247974277 
552	 0.698582800531346 
553	 0.700403951189838 
554	 0.702083437831273 
555	 0.70379276842041 
556	 0.705583508881366 
557	 0.707429622986621 
558	 0.709222625537443 
559	 0.71097854393702 
560	 0.712712304803608 
561	 0.714417551209929 
562	 0.716118290037421 
563	 0.717824640727283 
564	 0.719519729594324 
565	 0.721110864125567 
566	 0.722633795514753 
567	 0.724134310727505 
568	 0.725657306859083 
569	 0.727167591739443 
570	 0.72855834409084 
571	 0.729855909641941 
572	 0.731396985573812 
573	 0.732918429614513 
574	 0.734449295355825 
575	 0.736069401107403 
576	 0.737476332216169 
577	 0.738837362546263 
578	 0.74025028713936 
579	 0.741690596855973 
580	 0.743107328266433 
581	 0.74447321395005 
582	 0.745798531000987 
583	 0.747183174084579 
584	 0.748506883744897 
585	 0.749823918702957 
586	 0.751280824562793 
587	 0.752821354600355 
588	 0.754291118505609 
589	 0.75564220327653 
590	 0.757015295300548 
591	 0.758368756430993 
592	 0.759721516041372 
593	 0.76107720352506 
594	 0.762304968583434 
595	 0.763585746485323 
596	 0.764917659873104 
597	 0.766136013961459 
598	 0.767402091330364 
599	 0.768670532051256 
600	 0.769905858252549 
601	 0.771175762701905 
602	 0.772489175072247 
603	 0.773761518360852 
604	 0.774912813137258 
605	 0.776203417211955 
606	 0.777547787889463 
607	 0.778867810247235 
608	 0.780132300295831 
609	 0.781258737100775 
610	 0.782352484791533 
611	 0.783515459759822 
612	 0.784650248904277 
613	 0.785827459333976 
614	 0.787020876843507 
615	 0.788156688214298 
616	 0.789364535471635 
617	 0.790487710456243 
618	 0.7914996831463 
619	 0.792670988578406 
620	 0.793924290497958 
621	 0.79508287676348 
622	 0.796024702148918 
623	 0.79706583210516 
624	 0.798163688469984 
625	 0.799267293364882 
626	 0.800339287486217 
627	 0.801485433269437 
628	 0.802540098658431 
629	 0.803440401065551 
630	 0.804495350363028 
631	 0.805623138213171 
632	 0.806683726029714 
633	 0.807575533377739 
634	 0.80873316134533 
635	 0.80973192453283 
636	 0.810498278230759 
637	 0.811475000177011 
638	 0.812535035655127 
639	 0.813634442477184 
640	 0.814697495683537 
641	 0.815491513541804 
642	 0.816336241620654 
643	 0.81727961127171 
644	 0.818194921115356 
645	 0.819067288533245 
646	 0.819945052155136 
647	 0.820857221204015 
648	 0.821791553518639 
649	 0.822667695252141 
650	 0.823470095139096 
651	 0.824243481732046 
652	 0.825190570396581 
653	 0.826020543835129 
654	 0.826776838404041 
655	 0.827753699136148 
656	 0.828630973456387 
657	 0.829391942661215 
658	 0.830110837623117 
659	 0.830949879210324 
660	 0.831775592040996 
661	 0.832554120536072 
662	 0.833293798623512 
663	 0.834012258801593 
664	 0.834826856029658 
665	 0.835704994310502 
666	 0.836465328484912 
667	 0.837212559618491 
668	 0.837884382737311 
669	 0.838489098636103 
670	 0.839304835482645 
671	 0.840106423204146 
672	 0.840807888950299 
673	 0.841419796991407 
674	 0.842116269557897 
675	 0.842844639744289 
676	 0.843586837056034 
677	 0.844389678529159 
678	 0.845077711370173 
679	 0.845622286848673 
680	 0.846110042734343 
681	 0.846854877667355 
682	 0.847529091230275 
683	 0.848114960835315 
684	 0.848750685067885 
685	 0.849298440652319 
686	 0.849916484472731 
687	 0.850631208454071 
688	 0.851249121129607 
689	 0.85174689260812 
690	 0.852271557301507 
691	 0.852921530382277 
692	 0.853445534227175 
693	 0.854016254979194 
694	 0.854623445276376 
695	 0.855157904567718 
696	 0.855788515903088 
697	 0.856393916962631 
698	 0.856906035209173 
699	 0.857389898940277 
700	 0.857955520173595 
701	 0.858544548746818 
702	 0.859082694661658 
703	 0.859645586025231 
704	 0.86022533747914 
705	 0.860822020034888 
706	 0.861433059661073 
707	 0.861980862842075 
708	 0.862459118639019 
709	 0.862904409118684 
710	 0.86340519078601 
711	 0.863858599454082 
712	 0.864322975082914 
713	 0.864868456492872 
714	 0.865422056637567 
715	 0.86596006443327 
716	 0.866405369981253 
717	 0.866682856110342 
718	 0.8671336353882 
719	 0.867682136034741 
720	 0.868229767197849 
721	 0.868752131012058 
722	 0.869151602094149 
723	 0.869507881113803 
724	 0.869935725615001 
725	 0.870446651532158 
726	 0.870973330347774 
727	 0.871423242589483 
728	 0.871715350618843 
729	 0.872003368287898 
730	 0.872429800062603 
731	 0.872947315250752 
732	 0.873207645461341 
733	 0.873554073315106 
734	 0.874019971194494 
735	 0.874526274690761 
736	 0.874961145975854 
737	 0.875237442512355 
738	 0.875473916831017 
739	 0.875889848979323 
740	 0.876285445486703 
741	 0.876666738582209 
742	 0.877018518444468 
743	 0.877254121222623 
744	 0.877725408005524 
745	 0.878206032538969 
746	 0.878442297273315 
747	 0.878629453050847 
748	 0.878929736817586 
749	 0.879342297629301 
750	 0.879747865531303 
751	 0.879997424574781 
752	 0.880097326102834 
753	 0.880251242826906 
754	 0.880868018296246 
755	 0.881320066436062 
756	 0.881603908319684 
757	 0.881847265058459 
758	 0.882081347110161 
759	 0.882292061561537 
760	 0.882583264030662 
761	 0.88305868880804 
762	 0.883506204351902 
763	 0.883724980919623 
764	 0.883818261772678 
765	 0.884181543411652 
766	 0.884480032137833 
767	 0.884831703570278 
768	 0.885292169779199 
769	 0.885577705739962 
770	 0.885831253494842 
771	 0.886104272504044 
772	 0.88639204759595 
773	 0.886550473503881 
774	 0.886844932521035 
775	 0.887250872776267 
776	 0.887508452842156 
777	 0.887673241463198 
778	 0.887981945085492 
779	 0.888414174940806 
780	 0.888472593870297 
781	 0.888681574873364 
782	 0.88902797162784 
783	 0.889372954338243 
784	 0.889732411657558 
785	 0.890016099613993 
786	 0.890192698047963 
787	 0.890283537759358 
788	 0.890368962729611 
789	 0.890540189917867 
790	 0.890799609571581 
791	 0.89104806011371 
792	 0.891260042236738 
793	 0.89142111064703 
794	 0.891550141590303 
795	 0.89172933453064 
796	 0.891895052207014 
797	 0.892121736345989 
798	 0.892471478397128 
799	 0.892728548832007 
800	 0.892813222397521 
801	 0.892875940876637 
802	 0.893184643092627 
803	 0.893336781832439 
804	 0.893509803818278 
805	 0.893786580547367 
806	 0.893995278776093 
807	 0.89419126638232 
808	 0.894298445302359 
809	 0.894321414739806 
810	 0.894581490948028 
811	 0.894859386309845 
812	 0.895108553549615 
813	 0.895341492469867 
814	 0.89543610971094 
815	 0.895555196210766 
816	 0.895737305585322 
817	 0.895898307002133 
818	 0.896080652475007 
819	 0.896257408168006 
820	 0.896412753177946 
821	 0.896561976663877 
822	 0.896851601864229 
823	 0.897110445697087 
824	 0.897171984972289 
825	 0.897112742741845 
826	 0.897464698893038 
827	 0.897911240185085 
828	 0.897912994426887 
829	 0.898190307844814 
830	 0.898409514731527 
831	 0.898459763834853 
832	 0.898485563476479 
833	 0.898559204497202 
834	 0.898697838550934 
835	 0.898876963062057 
836	 0.899031435514352 
837	 0.899173409957208 
838	 0.899293858773152 
839	 0.899412975778317 
840	 0.899664972912222 
841	 0.899703299442285 
842	 0.89968366995614 
843	 0.899890872384773 
844	 0.900132233470923 
845	 0.900319476491842 
846	 0.900429486621254 
847	 0.900503819449221 
848	 0.900682080213845 
849	 0.900812237180774 
850	 0.900821780679232 
851	 0.900788763506591 
852	 0.900890756011578 
853	 0.901088751053131 
854	 0.901291882020604 
855	 0.901418007367974 
856	 0.901480269080188 
857	 0.901548938143699 
858	 0.901697897747877 
859	 0.901942549915414 
860	 0.902180939186368 
861	 0.902339481259385 
862	 0.90239284762398 
863	 0.902465805640053 
864	 0.902465142282716 
865	 0.902492087238309 
866	 0.902758886909535 
867	 0.902730039996469 
868	 0.902622193290971 
869	 0.90267998722224 
870	 0.903014381847067 
871	 0.903314960246756 
872	 0.903370952648516 
873	 0.903200176105288 
874	 0.903226205606833 
875	 0.903403462401411 
876	 0.903604454604529 
877	 0.903701097862313 
878	 0.90369933893005 
879	 0.903737894685445 
880	 0.903788565762063 
881	 0.903756145502352 
882	 0.903672445193951 
883	 0.903685877608879 
884	 0.903751411340096 
885	 0.903696925959377 
886	 0.90364715752699 
887	 0.903654761889141 
888	 0.90362873439086 
889	 0.903368575806265 
890	 0.903466105138355 
891	 0.903622954226206 
892	 0.903564198171362 
893	 0.903348193578761 
894	 0.903264691579995 
895	 0.903342898316519 
896	 0.90344851288285 
897	 0.903244642360578 
898	 0.902973229207294 
899	 0.902801089069975 
900	 0.902786328941417 
901	 0.902701922876321 
902	 0.902579691662094 
903	 0.902392432503197 
904	 0.90212702834085 
905	 0.901965701838838 
906	 0.901903194218808 
907	 0.90183978834437 
908	 0.901684505927045 
909	 0.901884982786717 
910	 0.902042754063829 
911	 0.901977855451697 
912	 0.901842375555179 
913	 0.90187492303787 
914	 0.90186652029631 
915	 0.901746100375321 
916	 0.901722665541292 
917	 0.901769482961152 
918	 0.901763117061614 
919	 0.9016712975555 
920	 0.901664432313144 
921	 0.901671567126841 
922	 0.901798520009372 
923	 0.902032469397765 
924	 0.901949982784845 
925	 0.902096940652493 
926	 0.902339208307613 
927	 0.902444322140396 
928	 0.902651033501674 
929	 0.902876515288031 
930	 0.903132555924724 
931	 0.903418452110063 
932	 0.903513980731107 
933	 0.903659284130349 
934	 0.903979730182956 
935	 0.904459765067475 
936	 0.904820159447414 
937	 0.905074312710201 
938	 0.905289653805162 
939	 0.905544001248079 
940	 0.90579863818243 
941	 0.906001108306542 
942	 0.906192940691804 
943	 0.906472342254504 
944	 0.906690086630731 
945	 0.906935185731149 
946	 0.907171112280194 
947	 0.907232454124921 
948	 0.907330144929166 
949	 0.907393040748237 
950	 0.907395268635168 
951	 0.907412932234529 
952	 0.907375134072831 
953	 0.907363461355124 
954	 0.907364755873976 
955	 0.907204543993392 
956	 0.907059340372584 
957	 0.906915815261938 
958	 0.906783620280153 
959	 0.906771223729205 
960	 0.906658516934893 
961	 0.906483368289389 
962	 0.906312748983076 
963	 0.90613793259643 
964	 0.905945559085387 
965	 0.905876947379018 
966	 0.905968917865279 
967	 0.905959159924114 
968	 0.905688413663767 
969	 0.905531471477702 
970	 0.905736244193977 
971	 0.905842652966871 
972	 0.905750941422233 
973	 0.905733714648747 
974	 0.905963855273376 
975	 0.905990308034077 
976	 0.905928979340107 
977	 0.905924990662557 
978	 0.906022828061581 
979	 0.905914610763519 
980	 0.90588265486281 
981	 0.905923383220757 
982	 0.905967571567644 
983	 0.906076135854477 
984	 0.906137163649982 
985	 0.906246268713942 
986	 0.906466011843272 
987	 0.906501840783462 
988	 0.906590810839853 
989	 0.906604654186915 
990	 0.906400087105076 
991	 0.906208951391717 
992	 0.906204252240704 
993	 0.906398271507786 
994	 0.906674243056428 
995	 0.906788806019293 
996	 0.906788231787202 
997	 0.906714383025306 
998	 0.906601610329375 
999	 0.906411527059579 
1000	 0.906495673633627 
1001	 0.907209311928017 
1002	 0.90724423250335 
1003	 0.907310176988378 
1004	 0.907371117940612 
1005	 0.907459457083389 
1006	 0.907456958416798 
1007	 0.907402930505156 
1008	 0.907403730512243 
1009	 0.907356083874557 
1010	 0.907368017175948 
1011	 0.907479352907113 
1012	 0.90751055823447 
1013	 0.907483414270333 
1014	 0.907494430767944 
1015	 0.907492666078259 
1016	 0.907518996142543 
1017	 0.907595244390732 
1018	 0.907668482257972 
1019	 0.907668141796839 
1020	 0.907661256536151 
1021	 0.907713917494464 
1022	 0.907767263011472 
1023	 0.907838195624789 
1024	 0.907990894326433 
1025	 0.908085691688961 
1026	 0.908133374229023 
1027	 0.908182240990904 
1028	 0.908216262508391 
1029	 0.908292540323392 
1030	 0.908320807555522 
1031	 0.908380043171774 
1032	 0.908453971835105 
1033	 0.908514737803217 
1034	 0.908616291634781 
1035	 0.908695623430429 
1036	 0.908761218773314 
1037	 0.908805722400706 
1038	 0.908880962633224 
1039	 0.908949798909048 
1040	 0.909057357973604 
1041	 0.909202808837692 
1042	 0.909353087707504 
1043	 0.909541150552324 
1044	 0.909663485160873 
1045	 0.909793785765612 
1046	 0.909927436006719 
1047	 0.9100579270853 
1048	 0.910236707246829 
1049	 0.910416042817916 
1050	 0.910618223222457 
1051	 0.910827492815567 
1052	 0.910981761960036 
1053	 0.911147169640765 
1054	 0.911321271688129 
1055	 0.91148040597576 
1056	 0.911615586273442 
1057	 0.911782810140015 
1058	 0.911955686885757 
1059	 0.912127276661448 
1060	 0.912332829755612 
1061	 0.912520645109327 
1062	 0.912728505103185 
1063	 0.912946243911978 
1064	 0.913153140924394 
1065	 0.913343193731161 
1066	 0.913486511341458 
1067	 0.913645602093276 
1068	 0.913781443240544 
1069	 0.913857990755455 
1070	 0.91397025683638 
1071	 0.914088070949427 
1072	 0.914207307401545 
1073	 0.914324202334638 
1074	 0.914514232458812 
1075	 0.914722390335206 
1076	 0.914886013944616 
1077	 0.91506440206705 
1078	 0.915241885732567 
1079	 0.915417446389675 
1080	 0.915578960680844 
1081	 0.915701937462602 
1082	 0.915844438686242 
1083	 0.915938248654493 
1084	 0.916022320040854 
1085	 0.916153020527313 
1086	 0.916260921423937 
1087	 0.916345737101621 
1088	 0.916472202888403 
1089	 0.916587289589758 
1090	 0.916658180560287 
1091	 0.91678347839866 
1092	 0.916855541761116 
1093	 0.916883507546498 
1094	 0.916941658470135 
1095	 0.916958153360618 
1096	 0.916969684256051 
1097	 0.917014783076163 
1098	 0.917058381276512 
1099	 0.917119772883964 
1100	 0.91717676296059 
1101	 0.917181577778938 
1102	 0.91718271019406 
1103	 0.917178437981144 
1104	 0.917156023017118 
1105	 0.917100225485254 
1106	 0.917064303107653 
1107	 0.917032495106001 
1108	 0.916978595548288 
1109	 0.916941324304738 
1110	 0.916917797056713 
1111	 0.916875708302403 
1112	 0.9168322369236 
1113	 0.91675888091495 
1114	 0.916657254427196 
1115	 0.916552751002961 
1116	 0.91641516847068 
1117	 0.916283694069163 
1118	 0.916150765278564 
1119	 0.916033508975068 
1120	 0.91587164448476 
1121	 0.91570208979619 
1122	 0.915495676333594 
1123	 0.915248316991393 
1124	 0.914979807153874 
1125	 0.914693644513918 
1126	 0.914378957367703 
1127	 0.914012919810852 
1128	 0.913582733644295 
1129	 0.913103444052531 
1130	 0.912561038221853 
1131	 0.912007041422374 
1132	 0.911488170580162 
1133	 0.910913898783159 
1134	 0.910312218381828 
1135	 0.909641522353216 
1136	 0.90887455994797 
1137	 0.908105591845816 
1138	 0.907317891710983 
1139	 0.90648184792176 
1140	 0.905591432515338 
1141	 0.904746366751341 
1142	 0.903843559015696 
1143	 0.902878771520924 
1144	 0.901911720678583 
1145	 0.90087056480639 
1146	 0.899799158793968 
1147	 0.898690576264395 
1148	 0.89755215437626 
1149	 0.89645251753057 
1150	 0.895333241533316 
1151	 0.894213936603146 
1152	 0.893056770882402 
1153	 0.891875535242432 
1154	 0.890678359559904 
1155	 0.889460357640615 
1156	 0.888198607342368 
1157	 0.886947032698633 
1158	 0.885650551263748 
1159	 0.884288267185781 
1160	 0.882909750109051 
1161	 0.881555867149638 
1162	 0.880095705436079 
1163	 0.878707363254272 
1164	 0.877327818474379 
1165	 0.875922764252604 
1166	 0.874606243727989 
1167	 0.87325739994545 
1168	 0.871942601397846 
1169	 0.870629390154908 
1170	 0.869338747408048 
1171	 0.868024555428503 
1172	 0.866723152233892 
1173	 0.865375141686287 
1174	 0.863993547322431 
1175	 0.862649948649998 
1176	 0.861303733641094 
1177	 0.859948388892576 
1178	 0.858626108073489 
1179	 0.857240220133151 
1180	 0.85589171632728 
1181	 0.854491641738601 
1182	 0.853077807972291 
1183	 0.85177952951212 
1184	 0.850442679967118 
1185	 0.849173189556276 
1186	 0.847963236963746 
1187	 0.846783962981578 
1188	 0.845702691851992 
1189	 0.84469099915124 
1190	 0.84374611948163 
1191	 0.842902356447343 
1192	 0.842111019582794 
1193	 0.841378150544795 
1194	 0.840685678844092 
1195	 0.840052984779373 
1196	 0.839457306852917 
1197	 0.83889431175408 
1198	 0.838396955658948 
1199	 0.837905399784943 
1200	 0.837526275987927 
1201	 0.83720098732442 
1202	 0.836903504180609 
1203	 0.836715642333551 
1204	 0.836626449299105 
1205	 0.836650645436211 
1206	 0.836750103276953 
1207	 0.83701140475824 
1208	 0.837363700631465 
1209	 0.837920130733253 
1210	 0.838599701352615 
1211	 0.8395050986116 
1212	 0.84062330177131 
1213	 0.841906169865944 
1214	 0.843389462270869 
1215	 0.845030159566277 
1216	 0.846898988300685 
1217	 0.848813666779676 
1218	 0.850900455574981 
1219	 0.853027734193027 
1220	 0.85521219703787 
1221	 0.857558800574318 
1222	 0.859826401268879 
1223	 0.862127790531883 
1224	 0.86432679460458 
1225	 0.866477171232826 
1226	 0.86850880817386 
1227	 0.870483723045211 
1228	 0.872364844847963 
1229	 0.874157198447596 
1230	 0.875852454523907 
1231	 0.877471991387963 
1232	 0.878998121351418 
1233	 0.880400352553052 
1234	 0.881722141154873 
1235	 0.882962493596332 
1236	 0.884127534102994 
1237	 0.88517933481652 
1238	 0.886194319396755 
1239	 0.887144238662753 
1240	 0.888034012830697 
1241	 0.888920157831237 
1242	 0.889705670172359 
1243	 0.890441291049442 
1244	 0.891126218839905 
1245	 0.891758389015699 
1246	 0.892292174238037 
1247	 0.892859047794161 
1248	 0.893417623262372 
1249	 0.893932686266975 
1250	 0.894441889936839 
1251	 0.894882754327214 
1252	 0.895262745289414 
1253	 0.895626082481644 
1254	 0.89594574369528 
1255	 0.896247004908351 
1256	 0.896532396880048 
1257	 0.896777670247306 
1258	 0.896964885470187 
1259	 0.897160363481579 
1260	 0.897331288176205 
1261	 0.897496803582296 
1262	 0.897642725102096 
1263	 0.89781583655867 
1264	 0.897975617305516 
1265	 0.8981255778034 
1266	 0.898271737706159 
1267	 0.898420817989479 
1268	 0.898566017634636 
1269	 0.898696459443084 
1270	 0.89883459259148 
1271	 0.898983933640964 
1272	 0.899122048446728 
1273	 0.899254961657371 
1274	 0.899381590701196 
1275	 0.899493075319199 
1276	 0.899620997480771 
1277	 0.899746543527872 
1278	 0.899880236655557 
1279	 0.900027186719865 
1280	 0.900175745284603 
1281	 0.900332914294327 
1282	 0.900482025932943 
1283	 0.900638709562923 
1284	 0.900783476534181 
1285	 0.900919691408079 
1286	 0.901037152718904 
1287	 0.901177925137649 
1288	 0.901324523886929 
1289	 0.9014622632714 
1290	 0.901607650593889 
1291	 0.901744345744275 
1292	 0.9018710762285 
1293	 0.901995496201214 
1294	 0.902133616697972 
1295	 0.902237446267363 
1296	 0.902313691167823 
1297	 0.902397924343803 
1298	 0.902482047158323 
1299	 0.902538225690991 
1300	 0.902597318187088 
1301	 0.902621536966505 
1302	 0.90258701572351 
1303	 0.902580723950196 
1304	 0.902583364080258 
1305	 0.902564314651292 
1306	 0.902573777626607 
1307	 0.902528092698542 
1308	 0.90243997191216 
1309	 0.902327878574032 
1310	 0.902206981950922 
1311	 0.902051202047734 
1312	 0.901905947236126 
1313	 0.901762286142159 
1314	 0.901595946308745 
1315	 0.901414140403438 
1316	 0.90122899312763 
1317	 0.901023767093102 
1318	 0.900832617689686 
1319	 0.90065215322734 
1320	 0.900448734024994 
1321	 0.900265115460358 
1322	 0.900021766599937 
1323	 0.899745552575293 
1324	 0.89944587520569 
1325	 0.899100530391349 
1326	 0.898753283331428 
1327	 0.898417963100713 
1328	 0.898019684610725 
1329	 0.897585019785924 
1330	 0.897126302997694 
1331	 0.896618809261737 
1332	 0.896093128467924 
1333	 0.895558278539953 
1334	 0.894981975658887 
1335	 0.894401900455613 
1336	 0.893810875477316 
1337	 0.893154573690887 
1338	 0.892483666574537 
1339	 0.891746478712324 
1340	 0.890946687110308 
1341	 0.890111833641893 
1342	 0.889237246692208 
1343	 0.888324394948471 
1344	 0.887379943014378 
1345	 0.886360705771173 
1346	 0.885295696586724 
1347	 0.884182698602307 
1348	 0.882981656812487 
1349	 0.881783488861908 
1350	 0.880550213433339 
1351	 0.879303877734885 
1352	 0.878029110718932 
1353	 0.876745330675986 
1354	 0.875429277780531 
1355	 0.874134479272307 
1356	 0.872833588965662 
1357	 0.871538283723055 
1358	 0.870248333223942 
1359	 0.868964469792239 
1360	 0.867717348170117 
1361	 0.866422496763232 
1362	 0.865070236289902 
1363	 0.863782429732821 
1364	 0.862399783945887 
1365	 0.86098577338382 
1366	 0.859479922116364 
1367	 0.857932626818218 
1368	 0.856300468677108 
1369	 0.854595106850642 
1370	 0.852796250723796 
1371	 0.850910998821222 
1372	 0.84900934157104 
1373	 0.84702375247881 
1374	 0.845007257453753 
1375	 0.842955298127213 
1376	 0.840861949949321 
1377	 0.83869004516764 
1378	 0.836496910830988 
1379	 0.834282131481525 
1380	 0.832029463954819 
1381	 0.829758646937611 
1382	 0.827402731353939 
1383	 0.824967523914123 
1384	 0.822537721026351 
1385	 0.820023643638225 
1386	 0.817557198417775 
1387	 0.815061571491706 
1388	 0.812686985951236 
1389	 0.810342124590171 
1390	 0.808081773856869 
1391	 0.805979597615421 
1392	 0.803825013261137 
1393	 0.801821455392856 
1394	 0.799764222801456 
1395	 0.797629942203206 
1396	 0.795556983234479 
1397	 0.79323529665299 
1398	 0.790845023455154 
1399	 0.788145089101383 
1400	 0.785269289303888 
1401	 0.782136698451394 
1402	 0.778761901915575 
1403	 0.775141591660428 
1404	 0.771254913968201 
1405	 0.767281658442865 
1406	 0.762978960430786 
1407	 0.75878975987582 
1408	 0.754334221149753 
1409	 0.750297030081945 
1410	 0.746190654431698 
1411	 0.742630511446915 
1412	 0.739381817095286 
1413	 0.736580246470717 
1414	 0.734242629931681 
1415	 0.732133128594653 
1416	 0.730532922920217 
1417	 0.728943411153168 
1418	 0.727670525970821 
1419	 0.726309144068655 
1420	 0.725049784615352 
1421	 0.723752597578136 
1422	 0.722398537716915 
1423	 0.721093771289706 
1424	 0.719829671208352 
1425	 0.718516109177445 
1426	 0.717329109909852 
1427	 0.716177917567982 
1428	 0.715072013622258 
1429	 0.714122460966964 
1430	 0.713210562247492 
1431	 0.712356530458812 
1432	 0.711593726769648 
1433	 0.710924133755652 
1434	 0.710300415168436 
1435	 0.709738543996931 
1436	 0.709256643690362 
1437	 0.708844509929768 
1438	 0.708501705365485 
1439	 0.708242898709674 
1440	 0.708029176123708 
1441	 0.707890639098436 
1442	 0.707772830500388 
1443	 0.707703287181634 
1444	 0.707672621437777 
1445	 0.707683778017104 
1446	 0.70772055721506 
1447	 0.70779319853534 
1448	 0.707910282532422 
1449	 0.708062758080608 
1450	 0.708244808555813 
1451	 0.708486387912852 
1452	 0.708730341075172 
1453	 0.709001758823104 
1454	 0.709270889172819 
1455	 0.709565152322434 
1456	 0.709846905451724 
1457	 0.710126189106532 
1458	 0.710405392214438 
1459	 0.710668933939549 
1460	 0.71095491169125 
1461	 0.71123649435437 
1462	 0.711545058069167 
1463	 0.711880895315488 
1464	 0.712226479625862 
1465	 0.712574160592374 
1466	 0.712973306478745 
1467	 0.71334875486009 
1468	 0.713747624341536 
1469	 0.714200817094806 
1470	 0.714617736450071 
1471	 0.71504529732628 
1472	 0.715510837176335 
1473	 0.715900414819995 
1474	 0.716252475439922 
1475	 0.716596896480788 
1476	 0.716914036978227 
1477	 0.717206986034536 
1478	 0.71748676773297 
1479	 0.71773083258016 
1480	 0.717943346271697 
1481	 0.718123883362894 
1482	 0.718270385376531 
1483	 0.71840734045485 
1484	 0.718506591471851 
1485	 0.71860826055926 
1486	 0.718710952346609 
1487	 0.718782689734499 
1488	 0.718809655409713 
1489	 0.718875182677146 
1490	 0.71890924346848 
1491	 0.719014522724909 
1492	 0.719166700520168 
1493	 0.719335796964698 
1494	 0.71954666320655 
1495	 0.71976568026536 
1496	 0.720006715008854 
1497	 0.720258838144121 
1498	 0.72051994383226 
1499	 0.7208145433451 
1500	 0.721117984357523 
1501	 0.721464376458585 
1502	 0.721856504606432 
1503	 0.722259522097473 
1504	 0.722687737572526 
1505	 0.723141901103563 
1506	 0.723631733804864 
1507	 0.724120453759707 
1508	 0.724644225672901 
1509	 0.725151298783302 
1510	 0.725649495251873 
1511	 0.726147649201302 
1512	 0.726630597653513 
1513	 0.727134964164522 
1514	 0.727663626186303 
1515	 0.728174889472278 
1516	 0.728687319580323 
1517	 0.72920252578057 
1518	 0.729703343767289 
1519	 0.730205695521811 
1520	 0.730722982035065 
1521	 0.73123230344862 
1522	 0.731692366235511 
1523	 0.732203304836677 
1524	 0.732724530372761 
1525	 0.733248837396769 
1526	 0.73380318382074 
1527	 0.734392209965061 
1528	 0.734982233203124 
1529	 0.735579925346808 
1530	 0.736199253023724 
1531	 0.736850055411208 
1532	 0.737476334069438 
1533	 0.738101826777878 
1534	 0.738743444635307 
1535	 0.739382679330914 
1536	 0.740025500850584 
1537	 0.740703005420566 
1538	 0.741324859399358 
1539	 0.741937220668242 
1540	 0.742495676330432 
1541	 0.743017488994222 
1542	 0.743509584361686 
1543	 0.743959952951944 
1544	 0.74438374168188 
1545	 0.744789276335658 
1546	 0.745139568578136 
1547	 0.745448224829671 
1548	 0.745715372210042 
1549	 0.745926293390894 
1550	 0.746126320518582 
1551	 0.746293712652192 
1552	 0.746434535438415 
1553	 0.746549732135775 
1554	 0.746641556197836 
1555	 0.746678573676624 
1556	 0.746749327072319 
1557	 0.746812421657702 
1558	 0.74688622586551 
1559	 0.746958797028846 
1560	 0.747065707991271 
1561	 0.747166434445081 
1562	 0.747326220384734 
1563	 0.747537354881829 
1564	 0.747763055999286 
1565	 0.748020393970879 
1566	 0.74830381665863 
1567	 0.748614128020076 
1568	 0.748946450741822 
1569	 0.749325995215135 
1570	 0.749689667798341 
1571	 0.75007098208005 
1572	 0.750439928130956 
1573	 0.750803626421394 
1574	 0.751165456334619 
1575	 0.751537501831518 
1576	 0.751880455903908 
1577	 0.752198114102497 
1578	 0.752528198554013 
1579	 0.752849554358464 
1580	 0.753163861830477 
1581	 0.753478842066756 
1582	 0.753796705325714 
1583	 0.754100769106184 
1584	 0.754412891943706 
1585	 0.754728487120173 
1586	 0.755060311712396 
1587	 0.755410222228251 
1588	 0.755739615418781 
1589	 0.756073495325738 
1590	 0.756405667257072 
1591	 0.756708694981379 
1592	 0.757037677882616 
1593	 0.757386391829993 
1594	 0.757738504277622 
1595	 0.758099291239622 
1596	 0.758460857488939 
1597	 0.758834865882763 
1598	 0.75920140547422 
1599	 0.759582880954152 
1600	 0.759933576180002 
1601	 0.760277787625927 
1602	 0.760594069462473 
1603	 0.760857492234445 
1604	 0.761147174430995 
1605	 0.761438966609608 
1606	 0.761720225259565 
1607	 0.762020912918095 
1608	 0.762292329155893 
1609	 0.762550981671989 
1610	 0.762778567455544 
1611	 0.762983362364625 
1612	 0.76316472102634 
1613	 0.763304064054948 
1614	 0.763443158274222 
1615	 0.763584177865926 
1616	 0.76368652469147 
1617	 0.763775383419184 
1618	 0.763826451668209 
1619	 0.763820334048662 
1620	 0.763820912220277 
1621	 0.763802358183185 
1622	 0.763772598986941 
1623	 0.763740456360437 
1624	 0.763688265647202 
1625	 0.763623883389586 
1626	 0.763534462821146 
1627	 0.763411864966162 
1628	 0.763293343384036 
1629	 0.763151522965416 
1630	 0.76301613560029 
1631	 0.762887385537971 
1632	 0.762753387082593 
1633	 0.762620791475436 
1634	 0.76247379629031 
1635	 0.762319882509641 
1636	 0.762160043656585 
1637	 0.762013945614419 
1638	 0.761812422398125 
1639	 0.761587954004434 
1640	 0.761335284808886 
1641	 0.76102440145374 
1642	 0.760710279937564 
1643	 0.760394935695208 
1644	 0.76004055718234 
1645	 0.75967367628423 
1646	 0.759251300022514 
1647	 0.758788934323922 
1648	 0.758281738875281 
1649	 0.75773913744323 
1650	 0.757124488663993 
1651	 0.756469833184653 
1652	 0.755739092432437 
1653	 0.754937864803044 
1654	 0.754063363519349 
1655	 0.75310460145412 
1656	 0.752091339478119 
1657	 0.751033508240793 
1658	 0.749856977686137 
1659	 0.748621915551022 
1660	 0.747268315794063 
1661	 0.745825510637947 
1662	 0.744220765658983 
1663	 0.742496794597635 
1664	 0.740599793744896 
1665	 0.738551862138767 
1666	 0.736304677917786 
1667	 0.733894303346958 
1668	 0.731336085441684 
1669	 0.728593999774627 
1670	 0.725685430179735 
1671	 0.722576052844458 
1672	 0.719348414004452 
1673	 0.715963909333538 
1674	 0.712418786057439 
1675	 0.708710980180416 
1676	 0.704991814524232 
1677	 0.701142299839132 
1678	 0.697217466988516 
1679	 0.693211546035167 
1680	 0.689129911295846 
1681	 0.684920385006374 
1682	 0.680661956470389 
1683	 0.676359769917729 
1684	 0.672080336703915 
1685	 0.667726008408158 
1686	 0.663378813444156 
1687	 0.658988935659168 
1688	 0.654647539123055 
1689	 0.650282821644276 
1690	 0.645959744339362 
1691	 0.641755759417874 
1692	 0.637538148679189 
1693	 0.633345917663946 
1694	 0.629082106653826 
1695	 0.624805897872627 
1696	 0.620419197135589 
1697	 0.615945479873469 
1698	 0.611396049502405 
1699	 0.606753577529029 
1700	 0.602260998727887 
1701	 0.597681135489156 
1702	 0.593345712125037 
1703	 0.589084569715408 
1704	 0.585045797980007 
1705	 0.581154553038148 
1706	 0.577370098275108 
1707	 0.574044054302915 
1708	 0.570846309162142 
1709	 0.567824687386541 
1710	 0.565044281697742 
1711	 0.562234271288681 
1712	 0.559581105359337 
1713	 0.55694350881695 
1714	 0.554311890259415 
1715	 0.551948288478932 
1716	 0.549567212750682 
1717	 0.547288846861822 
1718	 0.545206915749967 
1719	 0.543145944671903 
1720	 0.541304551232033 
1721	 0.53971218670547 
1722	 0.53832828927237 
1723	 0.537321159138601 
1724	 0.536679095622782 
1725	 0.53639487212314 
1726	 0.536614678302636 
1727	 0.537311466400485 
1728	 0.538410473527769 
1729	 0.539981678009329 
1730	 0.542005119528955 
1731	 0.544208801598917 
1732	 0.546711664199275 
1733	 0.549324424104873 
1734	 0.551952091454216 
1735	 0.554696248437655 
1736	 0.557252058319343 
1737	 0.559607939755357 
1738	 0.561701524716686 
1739	 0.563412892664176 
1740	 0.564833802260626 
1741	 0.565929129059836 
1742	 0.566621618094192 
1743	 0.567120456621368 
1744	 0.567276619096139 
1745	 0.567323136257586 
1746	 0.567070716705167 
1747	 0.566844598800606 
1748	 0.566447690789123 
1749	 0.566131779056084 
1750	 0.565768889227128 
1751	 0.565518302016548 
1752	 0.565274036894683 
1753	 0.565183995686332 
1754	 0.565155545096126 
1755	 0.565360472295771 
1756	 0.565676681110789 
1757	 0.566257315672608 
1758	 0.567125691737798 
1759	 0.568233203156598 
1760	 0.569639184601754 
1761	 0.571358124108253 
1762	 0.573221828066258 
1763	 0.575382371907045 
1764	 0.57776629872722 
1765	 0.580317788802323 
1766	 0.583163009493312 
1767	 0.586010459040276 
1768	 0.588922885671045 
1769	 0.591863378859125 
1770	 0.594555764766225 
1771	 0.597220680595005 
1772	 0.599725370929771 
1773	 0.602021613954414 
1774	 0.604292525797089 
1775	 0.606295943420112 
1776	 0.608201898988001 
1777	 0.609981108802883 
1778	 0.611481090039771 
1779	 0.612952466583351 
1780	 0.614273668486252 
1781	 0.615421908680381 
1782	 0.616547229504784 
1783	 0.61753345816684 
1784	 0.61839175331683 
1785	 0.619086727422657 
1786	 0.619704750993326 
1787	 0.620172436329963 
1788	 0.620620569536297 
1789	 0.621001132578164 
1790	 0.621362989360101 
1791	 0.621688726190652 
1792	 0.621962713806525 
1793	 0.622147852476828 
1794	 0.622346079269847 
1795	 0.622573636712269 
1796	 0.622862586839437 
1797	 0.623198349999626 
1798	 0.623509844414438 
1799	 0.623810519791478 
1800	 0.624107213316901 
1801	 0.626741084146473 
1802	 0.627085592250128 
1803	 0.62741701570845 
1804	 0.627726060701348 
1805	 0.628063289343662 
1806	 0.628388818020926 
1807	 0.628699572198446 
1808	 0.629038048135357 
1809	 0.629398181204212 
1810	 0.629743979563722 
1811	 0.630081316291621 
1812	 0.630445232227168 
1813	 0.630795575354522 
1814	 0.631184514223356 
1815	 0.631617844707629 
1816	 0.632091605024621 
1817	 0.632560192913653 
1818	 0.633058166918802 
1819	 0.633539456809055 
1820	 0.634003399704949 
1821	 0.634502486932239 
1822	 0.635015469814282 
1823	 0.635564066888962 
1824	 0.636060956993633 
1825	 0.636586904800102 
1826	 0.637084813762954 
1827	 0.637540117037283 
1828	 0.63800927692195 
1829	 0.638482390625118 
1830	 0.638951309177104 
1831	 0.639389714411815 
1832	 0.639887517703622 
1833	 0.640380837080708 
1834	 0.640861228500848 
1835	 0.641357204304989 
1836	 0.641833353970262 
1837	 0.642294704222826 
1838	 0.642742325397477 
1839	 0.643186794317062 
1840	 0.643619031761084 
1841	 0.644047138358923 
1842	 0.64447965953473 
1843	 0.644890522324491 
1844	 0.645282912755531 
1845	 0.645652163286116 
1846	 0.645972415118637 
1847	 0.646259407371686 
1848	 0.646507774633539 
1849	 0.64672739868485 
1850	 0.64688669717834 
1851	 0.646995380636521 
1852	 0.647088851444866 
1853	 0.647112984421031 
1854	 0.647059633106292 
1855	 0.64695487409656 
1856	 0.646784436387454 
1857	 0.646544385746672 
1858	 0.646254961826805 
1859	 0.645904735527569 
1860	 0.645501699564947 
1861	 0.645017073393741 
1862	 0.644482385858923 
1863	 0.643862163125497 
1864	 0.643103129251747 
1865	 0.642313649559866 
1866	 0.641439228856631 
1867	 0.640389230217252 
1868	 0.639326874479823 
1869	 0.638105553212055 
1870	 0.636736971687994 
1871	 0.635263936009911 
1872	 0.633659561184185 
1873	 0.631910413142818 
1874	 0.630063545894036 
1875	 0.628088367026203 
1876	 0.625827090080683 
1877	 0.623509590607887 
1878	 0.62096466043962 
1879	 0.618184803911049 
1880	 0.615437192163129 
1881	 0.612414327241 
1882	 0.609174758689202 
1883	 0.60576140587304 
1884	 0.602133634491986 
1885	 0.598009008821749 
1886	 0.593750335465402 
1887	 0.589165585550571 
1888	 0.584201070790639 
1889	 0.579374180049423 
1890	 0.57423994020448 
1891	 0.569045823817208 
1892	 0.563861087653189 
1893	 0.558434178147123 
1894	 0.552712238297241 
1895	 0.547156091741077 
1896	 0.54147302902487 
1897	 0.535714221407344 
1898	 0.530424743844338 
1899	 0.525048977294148 
1900	 0.51978748805675 
1901	 0.514749487220795 
1902	 0.509479859702333 
1903	 0.504511705505407 
1904	 0.499656032077104 
1905	 0.494859895005121 
1906	 0.49019294935762 
1907	 0.486055602750154 
1908	 0.481882449326517 
1909	 0.477916258550778 
1910	 0.47423499159326 
1911	 0.470403998983798 
1912	 0.466839069613093 
1913	 0.463432944912475 
1914	 0.460079303320852 
1915	 0.456993489803994 
1916	 0.454198723703459 
1917	 0.451431961774494 
1918	 0.448806105491095 
1919	 0.4463591358103 
1920	 0.44386663164913 
1921	 0.441545239849018 
1922	 0.439286984830595 
1923	 0.437096740576206 
1924	 0.435197961761727 
1925	 0.433344872706908 
1926	 0.431600641720691 
1927	 0.430033347116901 
1928	 0.428506012381665 
1929	 0.427010372344692 
1930	 0.425665304142713 
1931	 0.424456174477398 
1932	 0.423331512436013 
1933	 0.422394759426774 
1934	 0.421584062071614 
1935	 0.420882367458372 
1936	 0.420311110739347 
1937	 0.419850170264389 
1938	 0.419504987610411 
1939	 0.41928747076443 
1940	 0.419196694472726 
1941	 0.419208787570849 
1942	 0.419332289235312 
1943	 0.419547505554809 
1944	 0.419796764411533 
1945	 0.420141100344582 
1946	 0.420609341470302 
1947	 0.421123148289888 
1948	 0.421752412303844 
1949	 0.422476933577003 
1950	 0.423207343714691 
1951	 0.423988431194195 
1952	 0.424805999380899 
1953	 0.425652115051549 
1954	 0.426538038345343 
1955	 0.427511611264334 
1956	 0.428462120279046 
1957	 0.429467817428508 
1958	 0.4304742893516 
1959	 0.43139183723769 
1960	 0.432382188338811 
1961	 0.433366743224903 
1962	 0.434334782848812 
1963	 0.435317417967159 
1964	 0.436340105937088 
1965	 0.437321054777979 
1966	 0.438282803079262 
1967	 0.439268647169077 
1968	 0.440196507180614 
1969	 0.441116864192366 
1970	 0.442024975724577 
1971	 0.44289800525124 
1972	 0.443819839077036 
1973	 0.444774414945201 
1974	 0.445726785853155 
1975	 0.446741994943698 
1976	 0.447666458369909 
1977	 0.44854290659805 
1978	 0.44944085817385 
1979	 0.450298832913197 
1980	 0.451150904092911 
1981	 0.452099294459622 
1982	 0.452991342850375 
1983	 0.453894018940581 
1984	 0.454839894034575 
1985	 0.455666563978464 
1986	 0.456516715463615 
1987	 0.457362266177649 
1988	 0.458167034694504 
1989	 0.458978120213304 
1990	 0.459826716958529 
1991	 0.460623231072948 
1992	 0.461392101104185 
1993	 0.462147400778124 
1994	 0.462848236052335 
1995	 0.463571656530453 
1996	 0.464243170211534 
1997	 0.464881457862677 
1998	 0.465549861745833 
1999	 0.466221893784001 
2000	 0.466873712277934 
2001	 0.467561828136908 
2002	 0.468178443904244 
2003	 0.46875162848988 
2004	 0.469310964268203 
2005	 0.469843473594152 
2006	 0.470337396761627 
2007	 0.47082860279244 
2008	 0.471246245936509 
2009	 0.47161368642603 
2010	 0.471924634121948 
2011	 0.472152851892051 
2012	 0.472338639749966 
2013	 0.47245480695767 
2014	 0.472522614294991 
2015	 0.472488986208259 
2016	 0.472401398403961 
2017	 0.472192678045982 
2018	 0.471860608926031 
2019	 0.4714648226031 
2020	 0.470985302253667 
2021	 0.470402831752464 
2022	 0.469776149044759 
2023	 0.469071618713131 
2024	 0.468198703391241 
2025	 0.467298797224643 
2026	 0.466300086357558 
2027	 0.465126656324511 
2028	 0.464026058702756 
2029	 0.462885967234509 
2030	 0.461736063082858 
2031	 0.460593099590393 
2032	 0.45942968417411 
2033	 0.458162702147247 
2034	 0.457027044630825 
2035	 0.455911133951796 
2036	 0.454837993957337 
2037	 0.45393921895121 
2038	 0.453133666885249 
2039	 0.452425374837586 
2040	 0.451824984272885 
2041	 0.451333360075708 
2042	 0.450931085840293 
2043	 0.450655741458857 
2044	 0.450540689382015 
2045	 0.450456624216633 
2046	 0.450472967488307 
2047	 0.450549292523893 
2048	 0.450699176157889 
2049	 0.450895786704591 
2050	 0.451167051039185 
2051	 0.451502295911712 
2052	 0.451857191739229 
2053	 0.452264775115768 
2054	 0.452726561054808 
2055	 0.453255226034314 
2056	 0.453794376011698 
2057	 0.454376126944192 
2058	 0.454994488357112 
2059	 0.455669296892155 
2060	 0.456318305578897 
2061	 0.45702119904009 
2062	 0.457679505600079 
2063	 0.458293771068775 
2064	 0.458929179576644 
2065	 0.459583737910656 
2066	 0.460204014891885 
2067	 0.460820920881298 
2068	 0.461415196534747 
2069	 0.46199697004422 
2070	 0.462573408961365 
2071	 0.463088641747823 
2072	 0.463571102570297 
2073	 0.464041942347309 
2074	 0.464454084381746 
2075	 0.464872449907335 
2076	 0.465312496207882 
2077	 0.46569297941911 
2078	 0.466038583015513 
2079	 0.466353942877679 
2080	 0.466622828518384 
2081	 0.466881926073671 
2082	 0.467126955905315 
2083	 0.467322615024088 
2084	 0.467518233039255 
2085	 0.467687970837463 
2086	 0.467819055558447 
2087	 0.467913233949646 
2088	 0.467991303130306 
2089	 0.468030710301944 
2090	 0.468066577885531 
2091	 0.468080671566523 
2092	 0.468089260402948 
2093	 0.46810092409803 
2094	 0.468070488741147 
2095	 0.46801169359689 
2096	 0.46794519672535 
2097	 0.467875012587091 
2098	 0.467743451203844 
2099	 0.467593998231647 
2100	 0.467433419385051 
2101	 0.467203278902191 
2102	 0.466908844731068 
2103	 0.466596284834993 
2104	 0.466231548434886 
2105	 0.465866023077049 
2106	 0.465479428255985 
2107	 0.465064293915252 
2108	 0.464639882664294 
2109	 0.464171843098955 
2110	 0.463649140976905 
2111	 0.463127301269287 
2112	 0.462577159433652 
2113	 0.462018841864225 
2114	 0.461442956510655 
2115	 0.460861384839013 
2116	 0.460253952257121 
2117	 0.459667849330169 
2118	 0.45907083804605 
2119	 0.458479242938142 
2120	 0.457869655672372 
2121	 0.457227119589278 
2122	 0.456636432263886 
2123	 0.456059382918171 
2124	 0.455477826083443 
2125	 0.454939567172263 
2126	 0.454371866275467 
2127	 0.453773479848087 
2128	 0.453193740344177 
2129	 0.452607389771301 
2130	 0.452045507686167 
2131	 0.451510559654932 
2132	 0.450958077279894 
2133	 0.450422631961427 
2134	 0.449877061905215 
2135	 0.44929875605627 
2136	 0.448730216590653 
2137	 0.44811645338343 
2138	 0.44747432018346 
2139	 0.446831313519064 
2140	 0.446151182391912 
2141	 0.445488072157767 
2142	 0.444837624603202 
2143	 0.444170738656268 
2144	 0.443490026257471 
2145	 0.442815414792992 
2146	 0.442097508099639 
2147	 0.441454225483651 
2148	 0.440858114730459 
2149	 0.440251620760621 
2150	 0.43971185503457 
2151	 0.43913196090584 
2152	 0.438515337148115 
2153	 0.437907616793108 
2154	 0.437335694474921 
2155	 0.436722567369513 
2156	 0.436113321282637 
2157	 0.435512374235582 
2158	 0.434888314278948 
2159	 0.434243437687737 
2160	 0.433591981735625 
2161	 0.432918091233238 
2162	 0.432279674422057 
2163	 0.431613532806654 
2164	 0.431013034579472 
2165	 0.43045200175376 
2166	 0.42991836930831 
2167	 0.429406226850586 
2168	 0.428953491947123 
2169	 0.42852206794947 
2170	 0.428170938519175 
2171	 0.427883549161098 
2172	 0.427653607134231 
2173	 0.427478983929438 
2174	 0.427389647976762 
2175	 0.427357419104767 
2176	 0.427361644723185 
2177	 0.427409233119514 
2178	 0.427515239788866 
2179	 0.427642095745258 
2180	 0.427804540668552 
2181	 0.428004318888251 
2182	 0.428247401282092 
2183	 0.428516329239826 
2184	 0.428824933195466 
2185	 0.42915336347346 
2186	 0.429513117583979 
2187	 0.429888371885212 
2188	 0.43031576765143 
2189	 0.430712210803744 
2190	 0.431108420398782 
2191	 0.431516171671826 
2192	 0.431923092883741 
2193	 0.432317361609826 
2194	 0.432742911834849 
2195	 0.433124221430327 
2196	 0.433459195220281 
2197	 0.433813339236789 
2198	 0.434134067129398 
2199	 0.434420798091512 
2200	 0.434699847229746 
2201	 0.43495369327151 
2202	 0.435219620674721 
2203	 0.435501859989633 
2204	 0.435703557516864 
2205	 0.435882931459868 
2206	 0.436027106796343 
2207	 0.43611162024458 
2208	 0.436166273404099 
2209	 0.436178656930117 
2210	 0.436209588380196 
2211	 0.436220724097649 
2212	 0.43619060803935 
2213	 0.436198209199441 
2214	 0.436108945537221 
2215	 0.435909735569209 
2216	 0.435716556383555 
2217	 0.435518820983181 
2218	 0.435248058983631 
2219	 0.434952872432733 
2220	 0.434584142609905 
2221	 0.434171678385652 
2222	 0.433636660079836 
2223	 0.433051142216355 
2224	 0.432385222195779 
2225	 0.431672745194096 
2226	 0.430871516520384 
2227	 0.429904833831022 
2228	 0.428844303952022 
2229	 0.427644380291382 
2230	 0.426238369454976 
2231	 0.42482220998647 
2232	 0.423388131913858 
2233	 0.421700228699905 
2234	 0.419946936035505 
2235	 0.417877139498261 
2236	 0.415532173050401 
2237	 0.413046397043002 
2238	 0.410261830476747 
2239	 0.407440850164811 
2240	 0.404500187924125 
2241	 0.401395025612115 
2242	 0.398286291555802 
2243	 0.394813678446147 
2244	 0.390998820711282 
2245	 0.387138904920895 
2246	 0.38286285778824 
2247	 0.378744359564162 
2248	 0.374703599881221 
2249	 0.370531978379016 
2250	 0.366315693830872 
2251	 0.362141460260941 
2252	 0.357571294722504 
2253	 0.353081333102181 
2254	 0.348569565658922 
2255	 0.344052170969255 
2256	 0.339999008540356 
2257	 0.335993515003133 
2258	 0.332116244676615 
2259	 0.32848239961332 
2260	 0.324789571517884 
2261	 0.321093424928077 
2262	 0.317610448569187 
2263	 0.314150785462172 
2264	 0.310989250425937 
2265	 0.30810638997188 
2266	 0.305212340905906 
2267	 0.302587862415256 
2268	 0.299835297353327 
2269	 0.297023660563754 
2270	 0.294351346775357 
2271	 0.291675708666353 
2272	 0.289128330968505 
2273	 0.286778367243415 
2274	 0.28435216017004 
2275	 0.282000326986545 
2276	 0.279601346076908 
2277	 0.277211538110809 
2278	 0.274754785239759 
2279	 0.272189194946391 
2280	 0.269692467726696 
2281	 0.267217596363011 
2282	 0.26467583174589 
2283	 0.262167849419009 
2284	 0.259656917074032 
2285	 0.256860437489361 
2286	 0.254075476692339 
2287	 0.251172605105375 
2288	 0.248178103616164 
2289	 0.245432527407107 
2290	 0.242559921771863 
2291	 0.239724439267865 
2292	 0.236951973072981 
2293	 0.233878375189018 
2294	 0.230914123165212 
2295	 0.228078785433993 
2296	 0.225308202457261 
2297	 0.222922544765588 
2298	 0.220811609180265 
2299	 0.218967571960816 
2300	 0.217380657134343 
2301	 0.216181861010939 
2302	 0.215260893370689 
2303	 0.214813549072117 
2304	 0.214805263048925 
2305	 0.215106177946775 
2306	 0.215847588644543 
2307	 0.216908413391439 
2308	 0.218302035622528 
2309	 0.220105872237492 
2310	 0.222498296546366 
2311	 0.224852687405451 
2312	 0.227686211021155 
2313	 0.230263428889373 
2314	 0.232881426373921 
2315	 0.235393898715346 
2316	 0.237923343453168 
2317	 0.240181468987508 
2318	 0.242408379122228 
2319	 0.244219669150539 
2320	 0.245733766808291 
2321	 0.246977547979784 
2322	 0.24786377471908 
2323	 0.248546774859531 
2324	 0.248943304866162 
2325	 0.249109580181819 
2326	 0.248976163467936 
2327	 0.248681372974857 
2328	 0.248134787844648 
2329	 0.24740375884414 
2330	 0.246495055889035 
2331	 0.245323648141373 
2332	 0.243927944573612 
2333	 0.24244547720197 
2334	 0.240702059061432 
2335	 0.238898545725085 
2336	 0.237022968440067 
2337	 0.234879394416578 
2338	 0.232762945379404 
2339	 0.230610275003156 
2340	 0.228492063704189 
2341	 0.226595005036244 
2342	 0.224884073303154 
2343	 0.22336302483169 
2344	 0.222125294592163 
2345	 0.221324829718626 
2346	 0.220923706463661 
2347	 0.22107585071521 
2348	 0.221659354225285 
2349	 0.222672498023441 
2350	 0.224148714766496 
2351	 0.225922807605997 
2352	 0.227922539344657 
2353	 0.230067416082042 
2354	 0.232092543726785 
2355	 0.234077549007063 
2356	 0.23592329724029 
2357	 0.237425839416875 
2358	 0.238841078041855 
2359	 0.239987697674085 
2360	 0.240828643305949 
2361	 0.241472778153036 
2362	 0.241936164976256 
2363	 0.242233100871627 
2364	 0.242533933246099 
2365	 0.242867506403389 
2366	 0.243061113282378 
2367	 0.243197529826613 
2368	 0.243278058041957 
2369	 0.24327223102519 
2370	 0.243245726677315 
2371	 0.243324804652009 
2372	 0.243488789277925 
2373	 0.243635710355129 
2374	 0.243796449406831 
2375	 0.2439196573204 
2376	 0.244025476277702 
2377	 0.244154536138002 
2378	 0.244324360186199 
2379	 0.244519429521882 
2380	 0.24457664053483 
2381	 0.244675258680677 
2382	 0.244845486176129 
2383	 0.245030316143595 
2384	 0.245243861950167 
2385	 0.245578707752831 
2386	 0.245801052821169 
2387	 0.245992836943965 
2388	 0.246206052174678 
2389	 0.246397767555612 
2390	 0.246558236042924 
2391	 0.246695071843672 
2392	 0.246826913742541 
2393	 0.246924284242714 
2394	 0.247132817651006 
2395	 0.247399251863541 
2396	 0.247571308272899 
2397	 0.247805288904173 
2398	 0.24785329384663 
2399	 0.247710038889095 
2400	 0.247775962753689 
2401	 0.247804716293498 
2402	 0.247999781420296 
2403	 0.248241612630576 
2404	 0.248319228681953 
2405	 0.24843609240612 
2406	 0.248488473864703 
2407	 0.248489127985005 
2408	 0.248600640976392 
2409	 0.248708189695556 
2410	 0.248763236888877 
2411	 0.248826573803886 
2412	 0.248876090718706 
2413	 0.248807401784067 
2414	 0.248839991746744 
2415	 0.248953905724974 
2416	 0.248872748401994 
2417	 0.248916529340139 
2418	 0.24886409620295 
2419	 0.248625080375171 
2420	 0.248705448096492 
2421	 0.248761541895494 
2422	 0.248688399094803 
2423	 0.248626119082344 
2424	 0.248459124437006 
2425	 0.248478089321527 
2426	 0.248545802028852 
2427	 0.248570157461623 
2428	 0.248660436257354 
2429	 0.24838470801893 
2430	 0.248037605952977 
2431	 0.247969043484676 
2432	 0.247764759669145 
2433	 0.247571805304334 
2434	 0.247586388161767 
2435	 0.247510834759624 
2436	 0.247420639255722 
2437	 0.247196403143457 
2438	 0.246604428870453 
2439	 0.245983663417212 
2440	 0.245319267561432 
2441	 0.244690100421853 
2442	 0.244273202612886 
2443	 0.24380623969416 
2444	 0.243251974162609 
2445	 0.242568479995525 
2446	 0.24187329624407 
2447	 0.241325755001953 
2448	 0.240703591813147 
2449	 0.240140605099314 
2450	 0.23969158594729 
2451	 0.238994913153695 
2452	 0.238272117081713 
2453	 0.237507625590218 
2454	 0.236526700943576 
2455	 0.235619647599586 
2456	 0.234885299234255 
2457	 0.234364433437572 
2458	 0.233949962239431 
2459	 0.233480639420734 
2460	 0.23308220309073 
2461	 0.232623001602482 
2462	 0.232005212110338 
2463	 0.231570313745623 
2464	 0.231049287547888 
2465	 0.230372664708643 
2466	 0.229890321459088 
2467	 0.229481893266048 
2468	 0.228986130452752 
2469	 0.228526185290837 
2470	 0.228150407836389 
2471	 0.227663471630937 
2472	 0.227248958584916 
2473	 0.2271047943641 
2474	 0.227068327649783 
2475	 0.226889321821906 
2476	 0.22663684006042 
2477	 0.226381066573338 
2478	 0.225917860381054 
2479	 0.225774437340831 
2480	 0.225572149196891 
2481	 0.225337518022371 
2482	 0.22547058511108 
2483	 0.225206162471199 
2484	 0.225031713252783 
2485	 0.225099646241359 
2486	 0.224895603942657 
2487	 0.224880774624319 
2488	 0.224889429758373 
2489	 0.224569143135764 
2490	 0.224218777418392 
2491	 0.224223091494811 
2492	 0.224679452021417 
2493	 0.225139346902188 
2494	 0.225372445048061 
2495	 0.225482612230641 
2496	 0.225384119922352 
2497	 0.225769923465752 
2498	 0.226560571143891 
2499	 0.226714645811749 
2500	 0.226665896665853 
