Wavelength	spectrum00024.asd
350	 6.68899313363525E-02 
351	 6.49791528867307E-02 
352	 6.16596006628176E-02 
353	 5.92122558657234E-02 
354	 6.13361722147398E-02 
355	 5.94295884631477E-02 
356	 5.65147780793368E-02 
357	 5.58224129305355E-02 
358	 5.28902541214529E-02 
359	 5.05989031365082E-02 
360	 4.99564895904875E-02 
361	 5.05705866976443E-02 
362	 5.02862913866163E-02 
363	 4.87247488793007E-02 
364	 4.69360849573232E-02 
365	 4.74862921023365E-02 
366	 4.78981198412131E-02 
367	 4.73044410317488E-02 
368	 4.59250638435936E-02 
369	 4.60503653246091E-02 
370	 4.57682594246848E-02 
371	 4.52488966543573E-02 
372	 4.56750962810339E-02 
373	 4.57925229949857E-02 
374	 4.56060603177266E-02 
375	 4.52393303872297E-02 
376	 4.47527147104306E-02 
377	 4.49616820885471E-02 
378	 4.53506882658052E-02 
379	 4.51207556546965E-02 
380	 4.36829999852743E-02 
381	 4.31694235678373E-02 
382	 4.32680351363255E-02 
383	 0.042386344829665 
384	 4.24088744863803E-02 
385	 4.27030339218284E-02 
386	 4.26750704806753E-02 
387	 4.22258876927938E-02 
388	 0.042138815272441 
389	 4.17122530366887E-02 
390	 0.040534259851318 
391	 0.040681463882265 
392	 4.15225950351478E-02 
393	 4.21703050203674E-02 
394	 4.17882957543182E-02 
395	 4.13450457652095E-02 
396	 4.09415859074821E-02 
397	 4.07373131766186E-02 
398	 4.12958195349639E-02 
399	 4.06054473955018E-02 
400	 0.039772889281252 
401	 4.01167152879484E-02 
402	 3.96830829518667E-02 
403	 3.98999626460566E-02 
404	 4.04038101292216E-02 
405	 3.96119363580751E-02 
406	 3.92984501388235E-02 
407	 3.92693187807018E-02 
408	 0.039266844510058 
409	 0.039569932951046 
410	 3.94082282334483E-02 
411	 3.90681724583683E-02 
412	 3.90628078276665E-02 
413	 3.91138985985246E-02 
414	 3.90758131145839E-02 
415	 3.90431382830627E-02 
416	 3.92863010552775E-02 
417	 3.92152981331466E-02 
418	 3.91289543682118E-02 
419	 3.92208120765884E-02 
420	 3.90333474363055E-02 
421	 0.039043033074856 
422	 3.91763378428353E-02 
423	 3.91967232705362E-02 
424	 3.94731272374799E-02 
425	 3.93895118327777E-02 
426	 0.039024278210877 
427	 3.93020223976041E-02 
428	 3.91867737174126E-02 
429	 3.90557002416956E-02 
430	 3.92718870520432E-02 
431	 3.91690573223583E-02 
432	 0.039109290108352 
433	 3.92068361139974E-02 
434	 3.93904935752848E-02 
435	 3.93133804861059E-02 
436	 3.92361111074959E-02 
437	 3.92835190675237E-02 
438	 3.92550434091377E-02 
439	 3.93370462224993E-02 
440	 3.93673104889217E-02 
441	 3.92115740448253E-02 
442	 3.92741837052635E-02 
443	 3.93714969825662E-02 
444	 3.94400434067481E-02 
445	 3.95128287732629E-02 
446	 3.93079996749998E-02 
447	 3.91629258687288E-02 
448	 3.92681064086391E-02 
449	 3.92752943407169E-02 
450	 3.93303635697898E-02 
451	 3.93846807552972E-02 
452	 3.93511305092411E-02 
453	 3.93487368518241E-02 
454	 3.93231494316967E-02 
455	 3.92356687993278E-02 
456	 3.90821853716936E-02 
457	 3.90914773280425E-02 
458	 0.039076061424155 
459	 3.89306022053187E-02 
460	 3.91203998689032E-02 
461	 3.90997487244071E-02 
462	 3.88895067730705E-02 
463	 3.88208030520204E-02 
464	 3.88795521934739E-02 
465	 3.88961479392278E-02 
466	 3.88038416574296E-02 
467	 3.87222344880946E-02 
468	 3.86484712479138E-02 
469	 3.85927503291909E-02 
470	 0.038550371289688 
471	 3.84641068143754E-02 
472	 3.83275813147275E-02 
473	 3.82412145035875E-02 
474	 0.038356661148791 
475	 3.82846102083641E-02 
476	 3.82294953409345E-02 
477	 3.82952975651624E-02 
478	 0.038127597100419 
479	 0.038027535866162 
480	 3.80204147226415E-02 
481	 3.80175287044734E-02 
482	 3.79469037843632E-02 
483	 3.78864619364581E-02 
484	 3.78580196070309E-02 
485	 3.78070995286967E-02 
486	 3.78487513842754E-02 
487	 3.78674789046826E-02 
488	 3.77681694335368E-02 
489	 3.76695865126218E-02 
490	 0.037672275340206 
491	 3.76892742246621E-02 
492	 0.037554432608717 
493	 3.75066781301533E-02 
494	 3.75184594664626E-02 
495	 3.75252500023776E-02 
496	 3.74566487953701E-02 
497	 3.73824852681885E-02 
498	 3.73470912630177E-02 
499	 3.73500644107803E-02 
500	 0.037233235019286 
501	 3.71131827044271E-02 
502	 3.70430564132888E-02 
503	 3.70040373837928E-02 
504	 3.69055613891003E-02 
505	 3.67952055636396E-02 
506	 3.67215146633713E-02 
507	 3.66736849703978E-02 
508	 3.66145973521935E-02 
509	 3.65451270969689E-02 
510	 3.64832391824829E-02 
511	 3.64321984693219E-02 
512	 3.63393373751762E-02 
513	 3.62231691418944E-02 
514	 3.61994180187772E-02 
515	 3.60923275872515E-02 
516	 3.59751943612338E-02 
517	 3.59328486793752E-02 
518	 3.58576910089656E-02 
519	 3.57476431594342E-02 
520	 3.56497941010446E-02 
521	 3.56288093877807E-02 
522	 3.55375491970467E-02 
523	 3.54146250311094E-02 
524	 3.53117008385212E-02 
525	 3.52583977885403E-02 
526	 3.51465798123565E-02 
527	 3.50271462630595E-02 
528	 3.49815141826071E-02 
529	 3.49131044983513E-02 
530	 3.48195127088552E-02 
531	 3.47259436196792E-02 
532	 3.46777247534598E-02 
533	 3.45866648439997E-02 
534	 3.44947595098438E-02 
535	 3.44340224275589E-02 
536	 3.43184324217251E-02 
537	 3.42136903753004E-02 
538	 3.41338448203296E-02 
539	 3.40630026023502E-02 
540	 3.40042274673861E-02 
541	 3.39410673019962E-02 
542	 3.38726880893592E-02 
543	 3.38289309645389E-02 
544	 3.37423518787684E-02 
545	 3.36504788378898E-02 
546	 3.36007551439553E-02 
547	 3.35247589117277E-02 
548	 3.34623973600038E-02 
549	 3.34212220878256E-02 
550	 3.33759836302313E-02 
551	 3.33083764846039E-02 
552	 3.32656721928103E-02 
553	 3.32675939766571E-02 
554	 3.32334764576578E-02 
555	 3.32020578092723E-02 
556	 3.31741772778928E-02 
557	 3.31393019515299E-02 
558	 3.31309031106864E-02 
559	 3.31488884277715E-02 
560	 3.31595618053556E-02 
561	 3.30885002498884E-02 
562	 3.30106902234468E-02 
563	 3.29446100028045E-02 
564	 3.28904191983425E-02 
565	 3.28474108195705E-02 
566	 3.27699635452402E-02 
567	 3.26629732586155E-02 
568	 3.25699673193296E-02 
569	 3.24981059886749E-02 
570	 3.23959418686467E-02 
571	 3.22588735094559E-02 
572	 0.032207567006677 
573	 3.21235176431945E-02 
574	 3.20285291459119E-02 
575	 3.19834535391293E-02 
576	 3.19453716857911E-02 
577	 3.18701458355923E-02 
578	 3.17646409117712E-02 
579	 3.16925034869635E-02 
580	 3.16303361237352E-02 
581	 3.15780372061687E-02 
582	 0.031540374985809 
583	 3.15285393795151E-02 
584	 3.14966176203881E-02 
585	 3.14581283827796E-02 
586	 3.14515463947951E-02 
587	 3.13845589075413E-02 
588	 3.13255666796014E-02 
589	 3.13066033990582E-02 
590	 3.12718650903407E-02 
591	 3.11928027290347E-02 
592	 3.11077588595087E-02 
593	 3.10531625360349E-02 
594	 3.09478823594743E-02 
595	 0.030851852116297 
596	 3.07820293645116E-02 
597	 3.07129146827214E-02 
598	 3.06224399228821E-02 
599	 3.05624890734495E-02 
600	 3.05516191715748E-02 
601	 3.04934178430374E-02 
602	 3.04632337608005E-02 
603	 3.04509387842552E-02 
604	 0.030417362146346 
605	 3.03926061242192E-02 
606	 3.03778640487177E-02 
607	 0.030368930267419 
608	 3.03581606748161E-02 
609	 3.03080678118315E-02 
610	 3.02626275718447E-02 
611	 3.02609930206769E-02 
612	 3.02620104963451E-02 
613	 3.02112346239767E-02 
614	 3.01409264297701E-02 
615	 3.01282622261095E-02 
616	 0.030073525587267 
617	 3.00335803019176E-02 
618	 3.00332924666494E-02 
619	 3.00051262142548E-02 
620	 2.99757350816154E-02 
621	 0.029941124659244 
622	 2.98930266680812E-02 
623	 0.029839209068639 
624	 2.98306609410486E-02 
625	 2.98443853852184E-02 
626	 2.97936770569416E-02 
627	 2.97662240107208E-02 
628	 2.97506369358124E-02 
629	 2.97292188810408E-02 
630	 0.029717507080638 
631	 2.96965831371747E-02 
632	 2.96695031102968E-02 
633	 2.96479942725233E-02 
634	 0.02962766089209 
635	 2.96009850996847E-02 
636	 2.95874682378689E-02 
637	 2.96389805101153E-02 
638	 2.96215349641943E-02 
639	 2.95690040319189E-02 
640	 2.95418479437229E-02 
641	 2.95398145875827E-02 
642	 2.95222919989041E-02 
643	 2.94990241444413E-02 
644	 0.029506383616811 
645	 2.95081236140062E-02 
646	 2.95120064975257E-02 
647	 2.95219381880733E-02 
648	 2.95266741020472E-02 
649	 2.95350524122269E-02 
650	 2.95404847766298E-02 
651	 0.029536650879454 
652	 2.95353914338636E-02 
653	 2.95555638588483E-02 
654	 2.95861704001167E-02 
655	 2.95964706297221E-02 
656	 2.96429655988522E-02 
657	 2.96687283397065E-02 
658	 2.96518600746598E-02 
659	 2.96793847960495E-02 
660	 2.97383969364381E-02 
661	 2.98020648206488E-02 
662	 2.98414605480195E-02 
663	 2.98643800643891E-02 
664	 2.98960767532491E-02 
665	 2.99479124004899E-02 
666	 3.00144198548035E-02 
667	 3.00645311790419E-02 
668	 3.01105000803374E-02 
669	 3.01703757289943E-02 
670	 3.02521254552089E-02 
671	 3.03522665785856E-02 
672	 3.04477480106943E-02 
673	 3.05196862865207E-02 
674	 3.06430939375496E-02 
675	 3.07452282419036E-02 
676	 3.08260982594105E-02 
677	 3.09851847374263E-02 
678	 3.11278827638258E-02 
679	 3.12473161035499E-02 
680	 3.13711196385566E-02 
681	 3.15680866763392E-02 
682	 3.17506122519718E-02 
683	 3.19196324466651E-02 
684	 3.21209182465291E-02 
685	 3.23228996776137E-02 
686	 3.25459302341328E-02 
687	 3.28016223998034E-02 
688	 3.30829391344118E-02 
689	 3.33609394909272E-02 
690	 3.36516558651332E-02 
691	 3.39814829009396E-02 
692	 3.43659681474727E-02 
693	 3.47704392084174E-02 
694	 3.51839539491797E-02 
695	 3.56143918029621E-02 
696	 3.60906922838813E-02 
697	 3.66048830333122E-02 
698	 3.71548574653826E-02 
699	 3.77549283589375E-02 
700	 3.84212265777986E-02 
701	 3.91501806397134E-02 
702	 0.03992966144785 
703	 4.07396134183445E-02 
704	 4.16125451788074E-02 
705	 4.25710022557662E-02 
706	 4.36233266711864E-02 
707	 4.47271152960159E-02 
708	 4.58994224983788E-02 
709	 4.71601770602979E-02 
710	 4.85180532001483E-02 
711	 4.99827128526915E-02 
712	 5.15433336965353E-02 
713	 5.31914219168335E-02 
714	 5.49576084829686E-02 
715	 5.68390687782643E-02 
716	 5.88341501807916E-02 
717	 6.09453966347026E-02 
718	 6.32265419313042E-02 
719	 6.56496252360887E-02 
720	 6.81884710142697E-02 
721	 7.08353710749737E-02 
722	 7.36726113615992E-02 
723	 7.66801517369145E-02 
724	 7.98193168163019E-02 
725	 8.31285969246282E-02 
726	 0.086618040656541 
727	 9.02855790253708E-02 
728	 9.41179121542281E-02 
729	 9.80808789773309E-02 
730	 0.102201397848826 
731	 0.106490276931405 
732	 0.110917411532623 
733	 0.115536445351628 
734	 0.120300226047004 
735	 0.12517180454117 
736	 0.130259218820435 
737	 0.135443990545162 
738	 0.140696932321368 
739	 0.146053635022665 
740	 0.151555210133691 
741	 0.157143785417523 
742	 0.162778967122314 
743	 0.168478096378535 
744	 0.174256295413727 
745	 0.18009200304011 
746	 0.185948882819309 
747	 0.191791800986957 
748	 0.197636295904227 
749	 0.203503690998567 
750	 0.209401961966156 
751	 0.215242309960207 
752	 0.220981333715752 
753	 0.226660835206525 
754	 0.232417328306024 
755	 0.23811488274068 
756	 0.243692282570573 
757	 0.24914967708457 
758	 0.254577850410999 
759	 0.25992875919515 
760	 0.265194136245078 
761	 0.270382879146339 
762	 0.275503673487539 
763	 0.280481086455866 
764	 0.285328662884291 
765	 0.290173774066244 
766	 0.294907093375 
767	 0.299565264089602 
768	 0.304158925371894 
769	 0.308556192196705 
770	 0.312914923977449 
771	 0.317224452036382 
772	 0.321427834959159 
773	 0.32558207142128 
774	 0.329668796158759 
775	 0.333663652089891 
776	 0.337547815178309 
777	 0.341386516202719 
778	 0.345191002351531 
779	 0.348937185358446 
780	 0.352546435657494 
781	 0.356149400728188 
782	 0.359727768037246 
783	 0.363231272049486 
784	 0.366659675566012 
785	 0.370015899642773 
786	 0.373304228941602 
787	 0.376533296333954 
788	 0.379756763265154 
789	 0.382972649871428 
790	 0.386149980504385 
791	 0.389238689321752 
792	 0.392234474162544 
793	 0.395238555434713 
794	 0.39829306129001 
795	 0.401251693278981 
796	 0.404122611616292 
797	 0.406996796825764 
798	 0.409943826519855 
799	 0.412763030479928 
800	 0.415529474827077 
801	 0.418278654779142 
802	 0.421007142685026 
803	 0.42374588220488 
804	 0.426449020307986 
805	 0.42909205715943 
806	 0.431697091834632 
807	 0.434345471724149 
808	 0.436970523446959 
809	 0.439513914722451 
810	 0.442062429125582 
811	 0.444573383029051 
812	 0.447050019319125 
813	 0.449511764120532 
814	 0.451932529703651 
815	 0.454348537322794 
816	 0.456772015736722 
817	 0.45918170297295 
818	 0.461505312402641 
819	 0.463832668862717 
820	 0.466192044364258 
821	 0.468469735772292 
822	 0.470820877187061 
823	 0.473151305107649 
824	 0.475367724191859 
825	 0.477599296575947 
826	 0.479799928175213 
827	 0.481994848685487 
828	 0.484216601953584 
829	 0.486375540074853 
830	 0.488497267887709 
831	 0.49056640261236 
832	 0.49254306915032 
833	 0.494563756738282 
834	 0.496662459383064 
835	 0.498790968726675 
836	 0.500812511333369 
837	 0.502799013153461 
838	 0.504755673692955 
839	 0.5067126998102 
840	 0.508836458783193 
841	 0.510810469267241 
842	 0.512734016230424 
843	 0.514795654055125 
844	 0.516690219405156 
845	 0.518616409277605 
846	 0.520593593047607 
847	 0.52249796644938 
848	 0.524326809316661 
849	 0.526167001065568 
850	 0.528060136622063 
851	 0.529971127504369 
852	 0.53189836532993 
853	 0.533859333677854 
854	 0.53581928381738 
855	 0.537623603064775 
856	 0.539411681522881 
857	 0.541244278124114 
858	 0.543133384179415 
859	 0.545023626549366 
860	 0.546974980628668 
861	 0.54890799361359 
862	 0.550707198073579 
863	 0.552512454136543 
864	 0.554316552277364 
865	 0.556201950249158 
866	 0.558282411771201 
867	 0.560088932923618 
868	 0.561816162706236 
869	 0.563647777295325 
870	 0.565606437841677 
871	 0.567570367739427 
872	 0.569456696307361 
873	 0.571245214647426 
874	 0.57301503123005 
875	 0.57489628620022 
876	 0.576834684598925 
877	 0.578725772894852 
878	 0.580522627257724 
879	 0.582348767199074 
880	 0.584206652773164 
881	 0.586025869359942 
882	 0.587711399067953 
883	 0.58952398211943 
884	 0.59145257963809 
885	 0.59327564659603 
886	 0.594978530488966 
887	 0.596766776503096 
888	 0.59864561556756 
889	 0.600373067449721 
890	 0.602131270793844 
891	 0.603862171051303 
892	 0.605495133884428 
893	 0.607009441040568 
894	 0.608760558116427 
895	 0.610580403164575 
896	 0.612256910476945 
897	 0.613831811881485 
898	 0.615468897240759 
899	 0.617227872235948 
900	 0.61904214413796 
901	 0.62054805430695 
902	 0.622168177646362 
903	 0.623888070555837 
904	 0.625479996385494 
905	 0.62691562708686 
906	 0.62839993418404 
907	 0.630004792478224 
908	 0.631684618396022 
909	 0.633436344918055 
910	 0.635100153666607 
911	 0.636681725377369 
912	 0.638350877824978 
913	 0.639986889869392 
914	 0.641531386546849 
915	 0.643024859801262 
916	 0.644621784663772 
917	 0.646226261173434 
918	 0.647832763668678 
919	 0.649440774463041 
920	 0.651029764809841 
921	 0.65245390999795 
922	 0.653836686341269 
923	 0.655310059688694 
924	 0.656830354430463 
925	 0.6584019546082 
926	 0.659906868585599 
927	 0.661289254275065 
928	 0.662819856447143 
929	 0.664352137875067 
930	 0.665763813616467 
931	 0.667015619046074 
932	 0.668341343135686 
933	 0.669758425829369 
934	 0.671220077023817 
935	 0.672639702191064 
936	 0.673941680400333 
937	 0.675178644877661 
938	 0.676423341658872 
939	 0.677736261641861 
940	 0.679072762996654 
941	 0.680346572655751 
942	 0.68151040257084 
943	 0.682588228385728 
944	 0.68380886944358 
945	 0.685091239554977 
946	 0.686312762490963 
947	 0.6873800906858 
948	 0.688498825807708 
949	 0.689581343141428 
950	 0.690649793824196 
951	 0.691885308274806 
952	 0.692897611394324 
953	 0.693908514858956 
954	 0.695009077419938 
955	 0.695944432228366 
956	 0.696799528924818 
957	 0.697707661629124 
958	 0.698718825169312 
959	 0.699721465973747 
960	 0.700697417564314 
961	 0.701573317571433 
962	 0.702349119193065 
963	 0.703174215280989 
964	 0.704013940802131 
965	 0.704947507686738 
966	 0.705996996333083 
967	 0.707018865651975 
968	 0.707795359282944 
969	 0.708600393341177 
970	 0.709642472753405 
971	 0.710600405324161 
972	 0.71130467405905 
973	 0.711996302914955 
974	 0.712920449237328 
975	 0.713943875764781 
976	 0.714819730811553 
977	 0.71565699395897 
978	 0.716602690104316 
979	 0.717514246416902 
980	 0.718437627492433 
981	 0.719330901824987 
982	 0.720131201042 
983	 0.720786254600532 
984	 0.721559243917239 
985	 0.722480603064235 
986	 0.723457352775655 
987	 0.72434201590906 
988	 0.72513259577355 
989	 0.725835202250168 
990	 0.726477216172194 
991	 0.727093867204872 
992	 0.727950294104375 
993	 0.72884637707819 
994	 0.729559916725286 
995	 0.730439635173857 
996	 0.731175726107081 
997	 0.731749470481203 
998	 0.732289123095884 
999	 0.733003865539116 
1000	 0.733655282423271 
1001	 0.742351453707707 
1002	 0.743077325681227 
1003	 0.743836554053854 
1004	 0.744542975291523 
1005	 0.745262001295504 
1006	 0.74590837337139 
1007	 0.746477539328818 
1008	 0.747106480226884 
1009	 0.747728583119402 
1010	 0.748349906356468 
1011	 0.749007671008 
1012	 0.7496080654828 
1013	 0.750152211499002 
1014	 0.750735211811588 
1015	 0.751338394003095 
1016	 0.751903794649579 
1017	 0.752453805237877 
1018	 0.753015824321978 
1019	 0.75357603153348 
1020	 0.75413086687959 
1021	 0.75471309414608 
1022	 0.755346089719885 
1023	 0.75594411639998 
1024	 0.756535137632654 
1025	 0.757126185176808 
1026	 0.757715832110907 
1027	 0.758293845945295 
1028	 0.758860941193128 
1029	 0.759443901765019 
1030	 0.760002218523316 
1031	 0.760546444039528 
1032	 0.761068726383982 
1033	 0.761582530652288 
1034	 0.762126386689943 
1035	 0.762652993350047 
1036	 0.763188882970668 
1037	 0.763721780423881 
1038	 0.764287016524124 
1039	 0.764885916290783 
1040	 0.765467965694107 
1041	 0.766051272499236 
1042	 0.766661674361132 
1043	 0.767300068935626 
1044	 0.76786735822645 
1045	 0.768463232999522 
1046	 0.769075935623587 
1047	 0.769639334135604 
1048	 0.770259689336448 
1049	 0.770888456550693 
1050	 0.771491075934705 
1051	 0.772117100514385 
1052	 0.772715929587039 
1053	 0.773344689823788 
1054	 0.774019649131804 
1055	 0.774649610588147 
1056	 0.775262449109248 
1057	 0.775902260012681 
1058	 0.776520894610773 
1059	 0.777156604452948 
1060	 0.777868696564868 
1061	 0.778471715671186 
1062	 0.779080525425774 
1063	 0.779702555781425 
1064	 0.780237750115401 
1065	 0.780852855820273 
1066	 0.781409391979 
1067	 0.781913993046247 
1068	 0.782508567070736 
1069	 0.783032224539793 
1070	 0.783590893798748 
1071	 0.784166290890245 
1072	 0.784800859060959 
1073	 0.785364379657178 
1074	 0.785960905193809 
1075	 0.786559283743428 
1076	 0.787090510728639 
1077	 0.787641827413173 
1078	 0.788192953578061 
1079	 0.788729209739073 
1080	 0.789262874240949 
1081	 0.789781568742708 
1082	 0.790294883862789 
1083	 0.790775475485477 
1084	 0.791230852421108 
1085	 0.79167172226171 
1086	 0.792103793134064 
1087	 0.792506289778681 
1088	 0.792930119009115 
1089	 0.793363744534797 
1090	 0.793752492679887 
1091	 0.794138575406808 
1092	 0.794501252260087 
1093	 0.794838242957484 
1094	 0.795194858596601 
1095	 0.795535837120235 
1096	 0.795901361902404 
1097	 0.796242055410476 
1098	 0.796529716312327 
1099	 0.796852164483804 
1100	 0.797137799985326 
1101	 0.797390317347 
1102	 0.797693137492645 
1103	 0.797974721468911 
1104	 0.798249751803018 
1105	 0.798488847483845 
1106	 0.798719353285909 
1107	 0.798904911314199 
1108	 0.799057457576646 
1109	 0.799237390308119 
1110	 0.799431315241261 
1111	 0.799610543104742 
1112	 0.79978442049517 
1113	 0.799932543118976 
1114	 0.800071097559623 
1115	 0.800207466249558 
1116	 0.80027896760584 
1117	 0.800295291186338 
1118	 0.800322834553308 
1119	 0.800319578187526 
1120	 0.800305576506247 
1121	 0.800305044537563 
1122	 0.800272811715923 
1123	 0.800157972537591 
1124	 0.799977840664535 
1125	 0.799751004944513 
1126	 0.79949622417771 
1127	 0.799170527941095 
1128	 0.79875509038896 
1129	 0.798284363232718 
1130	 0.797738090562267 
1131	 0.797174125830681 
1132	 0.796631560870965 
1133	 0.79603695929372 
1134	 0.795425121868858 
1135	 0.794793943869434 
1136	 0.794089940945544 
1137	 0.793443505623818 
1138	 0.792793690318162 
1139	 0.79218517992306 
1140	 0.791583159503558 
1141	 0.791078451418713 
1142	 0.790599479724456 
1143	 0.790147403410238 
1144	 0.789737925384742 
1145	 0.789293760020599 
1146	 0.788854907358332 
1147	 0.788411373437048 
1148	 0.78794813107054 
1149	 0.78750074138617 
1150	 0.786985754491176 
1151	 0.786429863582264 
1152	 0.785816907595107 
1153	 0.785139297543334 
1154	 0.784428014540306 
1155	 0.783684671026011 
1156	 0.782873137509924 
1157	 0.782024496916362 
1158	 0.781123436095966 
1159	 0.780148689929454 
1160	 0.779140499528421 
1161	 0.778123102357811 
1162	 0.777016735274484 
1163	 0.775937741691333 
1164	 0.774861724538048 
1165	 0.773758489728484 
1166	 0.772756235939752 
1167	 0.771751595796361 
1168	 0.77078083093688 
1169	 0.76985878806867 
1170	 0.768957939634412 
1171	 0.768124591629754 
1172	 0.767328433657346 
1173	 0.766607058561318 
1174	 0.765947076687217 
1175	 0.7653736605354 
1176	 0.764872903981301 
1177	 0.764435227908859 
1178	 0.764082629877027 
1179	 0.763762985677941 
1180	 0.763508942122332 
1181	 0.763304390891789 
1182	 0.763151288874287 
1183	 0.763071603850584 
1184	 0.763028483506834 
1185	 0.763036109656084 
1186	 0.763132180552136 
1187	 0.763304906004114 
1188	 0.763517440453838 
1189	 0.763809399295732 
1190	 0.764141930726409 
1191	 0.764517213400879 
1192	 0.764931954904842 
1193	 0.765414877832719 
1194	 0.765903697279687 
1195	 0.766436065652601 
1196	 0.76697464283482 
1197	 0.767520217207319 
1198	 0.768107430829014 
1199	 0.768729643893058 
1200	 0.769321391557274 
1201	 0.769951422583749 
1202	 0.770595489127827 
1203	 0.771227734642291 
1204	 0.771900448301246 
1205	 0.772567905697593 
1206	 0.773257049927972 
1207	 0.773939939876187 
1208	 0.774627010930755 
1209	 0.77529579080172 
1210	 0.77596963494786 
1211	 0.776621358668888 
1212	 0.777245681349999 
1213	 0.777895227670069 
1214	 0.778538990154968 
1215	 0.779196522150751 
1216	 0.779896880302559 
1217	 0.780546631183499 
1218	 0.781185676392801 
1219	 0.78180427865862 
1220	 0.782381544522945 
1221	 0.782964063881737 
1222	 0.783531082471055 
1223	 0.784077087996615 
1224	 0.784604826183641 
1225	 0.785097729945568 
1226	 0.785605315926045 
1227	 0.786101200254277 
1228	 0.786603887049343 
1229	 0.78711304214001 
1230	 0.787617981286343 
1231	 0.788107538799369 
1232	 0.788624081361191 
1233	 0.789161870110911 
1234	 0.789678568527064 
1235	 0.790211122286891 
1236	 0.790721902794994 
1237	 0.791238715113485 
1238	 0.79170847872861 
1239	 0.792154299708124 
1240	 0.792566906416337 
1241	 0.792979198300599 
1242	 0.793322843655205 
1243	 0.793686748753721 
1244	 0.794057208873683 
1245	 0.794399828315321 
1246	 0.79472763935778 
1247	 0.795025810036235 
1248	 0.795321230887214 
1249	 0.795556430809012 
1250	 0.795748475954711 
1251	 0.795910902268565 
1252	 0.796029766467856 
1253	 0.79612797088929 
1254	 0.796194245867451 
1255	 0.796238058851899 
1256	 0.796249481063779 
1257	 0.796244700733033 
1258	 0.796200388595738 
1259	 0.796164767767037 
1260	 0.796113470554521 
1261	 0.796064927594885 
1262	 0.796013210923373 
1263	 0.79596769333596 
1264	 0.795923232200594 
1265	 0.795863659255749 
1266	 0.795847919581789 
1267	 0.795855591931394 
1268	 0.795862266167032 
1269	 0.79588521149106 
1270	 0.795925653236665 
1271	 0.795967545532063 
1272	 0.796033646880727 
1273	 0.796148699975369 
1274	 0.796229665640386 
1275	 0.796292349860456 
1276	 0.796380535043957 
1277	 0.796452209884243 
1278	 0.796564781514013 
1279	 0.796717033293468 
1280	 0.796870513247436 
1281	 0.797046547103621 
1282	 0.797223256522704 
1283	 0.797397584085359 
1284	 0.797590853808221 
1285	 0.797796344840674 
1286	 0.79801439762404 
1287	 0.798234801937073 
1288	 0.798475098292408 
1289	 0.798697582505446 
1290	 0.798921543747524 
1291	 0.799127227456416 
1292	 0.799327907172464 
1293	 0.799510849345062 
1294	 0.799692264396544 
1295	 0.799831231197775 
1296	 0.799932755925463 
1297	 0.800043358769173 
1298	 0.800143132123868 
1299	 0.800212846247132 
1300	 0.800290494427814 
1301	 0.800322915201341 
1302	 0.800299551216388 
1303	 0.800276097414732 
1304	 0.800262377285056 
1305	 0.800189814463559 
1306	 0.80008693596194 
1307	 0.799950943451229 
1308	 0.799768308338484 
1309	 0.799543325171255 
1310	 0.799335957658763 
1311	 0.79911906341404 
1312	 0.798881656726929 
1313	 0.798640700537341 
1314	 0.798372394659021 
1315	 0.798072123250843 
1316	 0.797779177997905 
1317	 0.79748107460882 
1318	 0.797166090034121 
1319	 0.796852522531111 
1320	 0.796504724534885 
1321	 0.796151318190838 
1322	 0.795746216416866 
1323	 0.795318433417668 
1324	 0.79484073737541 
1325	 0.794311846589506 
1326	 0.793757788113299 
1327	 0.793177550272591 
1328	 0.792549976990722 
1329	 0.791879275243555 
1330	 0.791185718437338 
1331	 0.790483920638231 
1332	 0.789704929220474 
1333	 0.788878864229924 
1334	 0.788001219462568 
1335	 0.787117119734078 
1336	 0.786178816714407 
1337	 0.785215747306228 
1338	 0.784249906570545 
1339	 0.783240709810079 
1340	 0.782180387042878 
1341	 0.781093163200822 
1342	 0.779987176221732 
1343	 0.77884978278243 
1344	 0.777672923238196 
1345	 0.776457173654843 
1346	 0.775210735774799 
1347	 0.773954843186581 
1348	 0.772653298884415 
1349	 0.771344415082723 
1350	 0.770006832667139 
1351	 0.768693751677941 
1352	 0.767361778297337 
1353	 0.766042447574586 
1354	 0.764733326502726 
1355	 0.763453037778401 
1356	 0.762169285141272 
1357	 0.760912106440001 
1358	 0.75968313782498 
1359	 0.758479214933142 
1360	 0.757309277454866 
1361	 0.75612611146426 
1362	 0.754947909183281 
1363	 0.753871038521277 
1364	 0.752787761249701 
1365	 0.751736563515779 
1366	 0.750670822942956 
1367	 0.749632752184599 
1368	 0.748578859619899 
1369	 0.747508589041916 
1370	 0.746448178913927 
1371	 0.745416228166023 
1372	 0.74434838191797 
1373	 0.743299665312396 
1374	 0.742154682608096 
1375	 0.740994749237702 
1376	 0.73971314894441 
1377	 0.73838140143424 
1378	 0.736882812622221 
1379	 0.735294428945038 
1380	 0.733542123067978 
1381	 0.731665840547533 
1382	 0.729600102494698 
1383	 0.727375668497696 
1384	 0.72500102040129 
1385	 0.722478925335115 
1386	 0.719779551028056 
1387	 0.716893822134986 
1388	 0.713935575541976 
1389	 0.710821594531009 
1390	 0.707605250469472 
1391	 0.70434644915258 
1392	 0.70083780921731 
1393	 0.697404786151277 
1394	 0.693811413731446 
1395	 0.690211704723318 
1396	 0.686597588017986 
1397	 0.682942116804144 
1398	 0.679232942807439 
1399	 0.675430991529199 
1400	 0.671607831124781 
1401	 0.667654197957563 
1402	 0.663580164313738 
1403	 0.659423232559015 
1404	 0.655175056741071 
1405	 0.650913129515828 
1406	 0.646535300638335 
1407	 0.642179570454125 
1408	 0.637717001573037 
1409	 0.633425574495461 
1410	 0.629093526465594 
1411	 0.624971525961457 
1412	 0.620957373722398 
1413	 0.617191240759081 
1414	 0.613583797167322 
1415	 0.610152244006982 
1416	 0.606957326154977 
1417	 0.603869565074454 
1418	 0.600958228625897 
1419	 0.598110934367174 
1420	 0.595392123305917 
1421	 0.592786866265952 
1422	 0.590272003908251 
1423	 0.587844443585552 
1424	 0.585584420882304 
1425	 0.58328941438032 
1426	 0.581185345152922 
1427	 0.579161944270797 
1428	 0.577224777519142 
1429	 0.57553172308505 
1430	 0.57386709087195 
1431	 0.572298367551215 
1432	 0.570799629311032 
1433	 0.569413200935512 
1434	 0.568055726265313 
1435	 0.566757999297842 
1436	 0.565507947535296 
1437	 0.564308136887318 
1438	 0.563197471330711 
1439	 0.562160801219938 
1440	 0.561153722675438 
1441	 0.560228911566174 
1442	 0.559312202584044 
1443	 0.558422107862681 
1444	 0.557553549790521 
1445	 0.556729379461928 
1446	 0.5559187086006 
1447	 0.555111689050954 
1448	 0.554346672129505 
1449	 0.553624406534102 
1450	 0.55290703400547 
1451	 0.552210978185512 
1452	 0.55153266354625 
1453	 0.550874894047909 
1454	 0.550228509508919 
1455	 0.54960291725661 
1456	 0.548986468356509 
1457	 0.548362906241796 
1458	 0.547776906820012 
1459	 0.547220359326606 
1460	 0.546676923932932 
1461	 0.546142702694276 
1462	 0.54565796507418 
1463	 0.545196089710918 
1464	 0.544768431857416 
1465	 0.544399803028067 
1466	 0.544043876477829 
1467	 0.543706488658872 
1468	 0.543400492884327 
1469	 0.543089659069828 
1470	 0.542780914913213 
1471	 0.542445328220216 
1472	 0.542108981383621 
1473	 0.541717207540888 
1474	 0.541303532985235 
1475	 0.540838602382453 
1476	 0.540343254751412 
1477	 0.539761576852111 
1478	 0.539126567159953 
1479	 0.538438775833577 
1480	 0.537674524341158 
1481	 0.536871649096056 
1482	 0.536014896977931 
1483	 0.535130065620544 
1484	 0.534166778625429 
1485	 0.53323421248699 
1486	 0.532265446872229 
1487	 0.531358403190979 
1488	 0.530432771974485 
1489	 0.529609474333803 
1490	 0.52883122063401 
1491	 0.528138800334501 
1492	 0.527519568283653 
1493	 0.526976626500277 
1494	 0.526494236250292 
1495	 0.526120180709775 
1496	 0.525827630074434 
1497	 0.525638491603401 
1498	 0.525551784627094 
1499	 0.525561833006741 
1500	 0.525677282684941 
1501	 0.525874282333254 
1502	 0.526185415300757 
1503	 0.526550265673617 
1504	 0.527002312314263 
1505	 0.527505208288262 
1506	 0.528088832673819 
1507	 0.5287053558424 
1508	 0.529387761869455 
1509	 0.530091742796225 
1510	 0.530842080200451 
1511	 0.531603306299466 
1512	 0.532389047624682 
1513	 0.533196802047706 
1514	 0.53404604578996 
1515	 0.534882624234642 
1516	 0.535716733254668 
1517	 0.536578223108143 
1518	 0.537426121204209 
1519	 0.538311731037992 
1520	 0.539230449816075 
1521	 0.54018217612973 
1522	 0.541131958349285 
1523	 0.542177814517188 
1524	 0.54324535449617 
1525	 0.544353200447734 
1526	 0.545520936919848 
1527	 0.546735712110747 
1528	 0.548003901912163 
1529	 0.549324768276359 
1530	 0.550706352215618 
1531	 0.552161078139384 
1532	 0.553614757767627 
1533	 0.555117096243948 
1534	 0.556638558022363 
1535	 0.55819402835165 
1536	 0.559710971476182 
1537	 0.561272326432547 
1538	 0.562751888032764 
1539	 0.564198475787031 
1540	 0.565572016952228 
1541	 0.566914964815891 
1542	 0.568168046873949 
1543	 0.56933930879812 
1544	 0.570447807569006 
1545	 0.571502018845617 
1546	 0.572462562949154 
1547	 0.57335330920781 
1548	 0.574138539789643 
1549	 0.574820783286542 
1550	 0.575444879308561 
1551	 0.575974875396598 
1552	 0.576445564213962 
1553	 0.576839501997396 
1554	 0.577194900132221 
1555	 0.577440557460931 
1556	 0.577735920165767 
1557	 0.577999612306954 
1558	 0.578298163614001 
1559	 0.578588815942178 
1560	 0.578944900214349 
1561	 0.579317615774163 
1562	 0.579757630428664 
1563	 0.580258785308983 
1564	 0.580803508477862 
1565	 0.58139792507703 
1566	 0.582036440616784 
1567	 0.582733489900648 
1568	 0.5834583514234 
1569	 0.58423935909392 
1570	 0.585023356121754 
1571	 0.585859049700285 
1572	 0.586661360292271 
1573	 0.587460433430052 
1574	 0.5882590530428 
1575	 0.589047883088457 
1576	 0.589836735740986 
1577	 0.590629684688397 
1578	 0.591418241551781 
1579	 0.592211666340767 
1580	 0.592977454111676 
1581	 0.593721156255657 
1582	 0.594477602091152 
1583	 0.595216496896481 
1584	 0.595965503839705 
1585	 0.596710404075692 
1586	 0.597492036254781 
1587	 0.598293304028161 
1588	 0.5990914643079 
1589	 0.599899329909349 
1590	 0.600745528735339 
1591	 0.601602085486924 
1592	 0.602476777319704 
1593	 0.60340507109758 
1594	 0.60432421976934 
1595	 0.605238553834819 
1596	 0.606160207661282 
1597	 0.607091367471951 
1598	 0.60803537930401 
1599	 0.608987702116632 
1600	 0.609944956049043 
1601	 0.610927386604221 
1602	 0.611895056067967 
1603	 0.612856528487004 
1604	 0.613811355497906 
1605	 0.614770423310217 
1606	 0.615708300974105 
1607	 0.616645521079176 
1608	 0.617552298613485 
1609	 0.618428122496243 
1610	 0.619297017992426 
1611	 0.620162160724793 
1612	 0.620979996618292 
1613	 0.621767411438809 
1614	 0.622538523487512 
1615	 0.623259545466666 
1616	 0.623986054517094 
1617	 0.624733444990905 
1618	 0.625422992771465 
1619	 0.626075274255159 
1620	 0.626706181171014 
1621	 0.627297146951902 
1622	 0.627865494601681 
1623	 0.628411573920243 
1624	 0.628941147084193 
1625	 0.6294297011583 
1626	 0.629920489304701 
1627	 0.630397494052573 
1628	 0.630872658668821 
1629	 0.631342500273555 
1630	 0.631804636878962 
1631	 0.632260819834037 
1632	 0.632718113755204 
1633	 0.633184094611259 
1634	 0.633620252671322 
1635	 0.634033751395279 
1636	 0.634449183606997 
1637	 0.634851001931873 
1638	 0.635238423698035 
1639	 0.635647719508015 
1640	 0.636009309754755 
1641	 0.636345584705491 
1642	 0.636636412189768 
1643	 0.636919614762357 
1644	 0.637106344664141 
1645	 0.637247555170669 
1646	 0.637288069457295 
1647	 0.637299858371893 
1648	 0.637110746594003 
1649	 0.636819889690429 
1650	 0.636325017607339 
1651	 0.635591234634498 
1652	 0.634774490087138 
1653	 0.633795690348012 
1654	 0.632727408935822 
1655	 0.631508982559181 
1656	 0.630246047576597 
1657	 0.62889142651956 
1658	 0.627454377562368 
1659	 0.625968476693563 
1660	 0.624381920649885 
1661	 0.622740773850581 
1662	 0.620912785404033 
1663	 0.618982509023972 
1664	 0.616842590564596 
1665	 0.614500600381444 
1666	 0.611997976166943 
1667	 0.60928401951805 
1668	 0.606527434550288 
1669	 0.603618170137556 
1670	 0.600644364415535 
1671	 0.597532919581142 
1672	 0.594432409608568 
1673	 0.591231202385068 
1674	 0.588069555826248 
1675	 0.584909641585781 
1676	 0.581840285855713 
1677	 0.578742206638341 
1678	 0.575803215389488 
1679	 0.572918778653594 
1680	 0.570206357687619 
1681	 0.567588015908227 
1682	 0.565185752057728 
1683	 0.562921863827717 
1684	 0.560978295718503 
1685	 0.559236689437106 
1686	 0.557795246966323 
1687	 0.556669645144835 
1688	 0.555751279556188 
1689	 0.555121804563944 
1690	 0.554654706486158 
1691	 0.55448604719798 
1692	 0.554352104089062 
1693	 0.554420085609741 
1694	 0.554455367963113 
1695	 0.55460769011625 
1696	 0.554665629660501 
1697	 0.554746584463198 
1698	 0.554722538627461 
1699	 0.554635041663734 
1700	 0.554494273047947 
1701	 0.554301216095094 
1702	 0.554037986652513 
1703	 0.553719855089316 
1704	 0.553309241443584 
1705	 0.552828005938515 
1706	 0.552220288009491 
1707	 0.551570471692564 
1708	 0.550809724349028 
1709	 0.549911213978781 
1710	 0.548847265952212 
1711	 0.547525608095585 
1712	 0.546002247451703 
1713	 0.54418280447954 
1714	 0.542093107915393 
1715	 0.539941241522866 
1716	 0.537547108066853 
1717	 0.535080640146182 
1718	 0.53254775655922 
1719	 0.529837867718513 
1720	 0.52727862371065 
1721	 0.524785537491199 
1722	 0.522444949745644 
1723	 0.520471123770851 
1724	 0.518650766470761 
1725	 0.517094002120122 
1726	 0.515903958894194 
1727	 0.514935948520804 
1728	 0.514308215296342 
1729	 0.513993355537415 
1730	 0.51394228247071 
1731	 0.514126560337662 
1732	 0.514487586875231 
1733	 0.514969835073481 
1734	 0.51563211717141 
1735	 0.516440171521591 
1736	 0.517290504377709 
1737	 0.518231791544029 
1738	 0.519151272489108 
1739	 0.520119241012385 
1740	 0.521169270390655 
1741	 0.522229015064762 
1742	 0.523330139477693 
1743	 0.524457879586987 
1744	 0.525610485028705 
1745	 0.526803710406434 
1746	 0.528058295264611 
1747	 0.529231872981006 
1748	 0.530432070323054 
1749	 0.531542791806805 
1750	 0.532608840766267 
1751	 0.533619021084354 
1752	 0.534579078960117 
1753	 0.535453478163693 
1754	 0.536216971477395 
1755	 0.536965546812269 
1756	 0.537637639701118 
1757	 0.53832237401539 
1758	 0.53902123770862 
1759	 0.539679387885779 
1760	 0.540397204373307 
1761	 0.541165006634207 
1762	 0.541917597248241 
1763	 0.542750542014097 
1764	 0.543629677613014 
1765	 0.544534741418196 
1766	 0.545520955848756 
1767	 0.546505607696593 
1768	 0.547504325789368 
1769	 0.548504509429371 
1770	 0.549379479081982 
1771	 0.550236173543123 
1772	 0.551061752719487 
1773	 0.551816906437628 
1774	 0.552587413601066 
1775	 0.55327776927496 
1776	 0.553919230950141 
1777	 0.554497287080066 
1778	 0.554979284854634 
1779	 0.555464106492047 
1780	 0.555883809732735 
1781	 0.556251657372646 
1782	 0.556618654163258 
1783	 0.55693150102529 
1784	 0.55722550781612 
1785	 0.557484191052177 
1786	 0.557714030273971 
1787	 0.55789522070049 
1788	 0.558101065692982 
1789	 0.558290287221709 
1790	 0.558498990675304 
1791	 0.558727508190558 
1792	 0.558968158871839 
1793	 0.55921088860029 
1794	 0.559462652953765 
1795	 0.559712385271855 
1796	 0.559968581643764 
1797	 0.560273862758918 
1798	 0.560599559048626 
1799	 0.560949648166971 
1800	 0.561310873239072 
1801	 0.564770956681347 
1802	 0.565233554141578 
1803	 0.565687405835957 
1804	 0.566164783418188 
1805	 0.566675303490503 
1806	 0.56717404579521 
1807	 0.567656377412226 
1808	 0.568173937029676 
1809	 0.568743507724871 
1810	 0.569263723980266 
1811	 0.569794154486798 
1812	 0.57029565290508 
1813	 0.570747623866583 
1814	 0.571233913449511 
1815	 0.571714034948375 
1816	 0.572185484002813 
1817	 0.572656279264799 
1818	 0.573128352135091 
1819	 0.573587452546751 
1820	 0.574042934626933 
1821	 0.57448917254293 
1822	 0.574911308537286 
1823	 0.575373409738792 
1824	 0.575797969579458 
1825	 0.576219194206534 
1826	 0.576652328888942 
1827	 0.577082799830792 
1828	 0.577510481187415 
1829	 0.577936136505543 
1830	 0.57837755677829 
1831	 0.578819147257838 
1832	 0.579282920618605 
1833	 0.579736011814808 
1834	 0.580207053875768 
1835	 0.580664469504529 
1836	 0.581069714137882 
1837	 0.581474784638813 
1838	 0.58188412132101 
1839	 0.582239464161779 
1840	 0.582586443776223 
1841	 0.582882658869248 
1842	 0.583149030199852 
1843	 0.583345354428672 
1844	 0.583530905790478 
1845	 0.583647746453408 
1846	 0.583657134482575 
1847	 0.583649283712763 
1848	 0.583559490866788 
1849	 0.583388992912789 
1850	 0.583144599334497 
1851	 0.582864317267979 
1852	 0.582469681805714 
1853	 0.581944619374654 
1854	 0.581380812739915 
1855	 0.580707682246463 
1856	 0.579966234319602 
1857	 0.579148713412523 
1858	 0.578170658933141 
1859	 0.57709507619692 
1860	 0.575933791185657 
1861	 0.574589970556408 
1862	 0.573105467680754 
1863	 0.571545596990616 
1864	 0.569731449139603 
1865	 0.567799864557543 
1866	 0.565694881184013 
1867	 0.563252263591457 
1868	 0.56075125117047 
1869	 0.557959360524201 
1870	 0.554933133949398 
1871	 0.551746004483936 
1872	 0.548348688677618 
1873	 0.54469794111708 
1874	 0.540911560356073 
1875	 0.536950122484869 
1876	 0.532427176501948 
1877	 0.527835713335814 
1878	 0.522819534745429 
1879	 0.517298083877159 
1880	 0.511886227151461 
1881	 0.506022162053303 
1882	 0.499726979930848 
1883	 0.493250084830716 
1884	 0.486514910185761 
1885	 0.47897567572113 
1886	 0.471406922398224 
1887	 0.463334979658317 
1888	 0.454756291784984 
1889	 0.446616725932515 
1890	 0.438026163262171 
1891	 0.429407142175569 
1892	 0.42093705416285 
1893	 0.412160345408639 
1894	 0.402978839954756 
1895	 0.394160266661102 
1896	 0.385244662228437 
1897	 0.376301251875937 
1898	 0.368151522009695 
1899	 0.359878290764655 
1900	 0.351846890914228 
1901	 0.34424687796711 
1902	 0.336326516804121 
1903	 0.328903673090217 
1904	 0.321749661379103 
1905	 0.314775075190253 
1906	 0.308040251312729 
1907	 0.302129725099421 
1908	 0.296280854777161 
1909	 0.290747614980222 
1910	 0.285619473634008 
1911	 0.280367742222454 
1912	 0.275501687726593 
1913	 0.270834289642967 
1914	 0.266281697501958 
1915	 0.262104233468815 
1916	 0.258343263634826 
1917	 0.254594197566998 
1918	 0.251060662118094 
1919	 0.247784868542422 
1920	 0.244444354803503 
1921	 0.241376211788961 
1922	 0.238438511654614 
1923	 0.235598317978031 
1924	 0.23313068139938 
1925	 0.230748088138496 
1926	 0.228511359173201 
1927	 0.226510165369616 
1928	 0.224555637627063 
1929	 0.222660372947191 
1930	 0.220948524451227 
1931	 0.2193819095624 
1932	 0.217944702166428 
1933	 0.216764455890933 
1934	 0.215713691655493 
1935	 0.214785071388437 
1936	 0.214021673216544 
1937	 0.213370463213357 
1938	 0.212821224066865 
1939	 0.21244848166666 
1940	 0.212228465210945 
1941	 0.212140626245954 
1942	 0.212190188708372 
1943	 0.212382099574945 
1944	 0.212655001108174 
1945	 0.213042515925558 
1946	 0.21358112176874 
1947	 0.214202797587122 
1948	 0.214945326645998 
1949	 0.215799887257281 
1950	 0.21668470877146 
1951	 0.2176460616368 
1952	 0.218655942376837 
1953	 0.219705796212721 
1954	 0.220820528959663 
1955	 0.222082745510033 
1956	 0.223343348642283 
1957	 0.224684985592707 
1958	 0.226106037733239 
1959	 0.227431828035308 
1960	 0.228820244943901 
1961	 0.230222941627615 
1962	 0.231609092689316 
1963	 0.233059088133288 
1964	 0.23458187509912 
1965	 0.236063010432995 
1966	 0.237565124128663 
1967	 0.239102309561217 
1968	 0.240531074623993 
1969	 0.242014360071166 
1970	 0.24349307737788 
1971	 0.244944612360256 
1972	 0.246485789178682 
1973	 0.247996245831215 
1974	 0.24953281919598 
1975	 0.251134295523899 
1976	 0.25266949261149 
1977	 0.254175741176234 
1978	 0.255706338180384 
1979	 0.257213497837507 
1980	 0.258711410652822 
1981	 0.260328417039812 
1982	 0.261881022969442 
1983	 0.263473934499418 
1984	 0.265113061945868 
1985	 0.266606867323508 
1986	 0.268124870257875 
1987	 0.269640156295686 
1988	 0.271092334931454 
1989	 0.272603870641507 
1990	 0.274181420394858 
1991	 0.27570171485971 
1992	 0.277234542480348 
1993	 0.278750053103412 
1994	 0.280128869021052 
1995	 0.281527996590305 
1996	 0.282881266395618 
1997	 0.284199702173623 
1998	 0.285559438634998 
1999	 0.286965061914486 
2000	 0.288286124716796 
2001	 0.289632447200012 
2002	 0.290863725376939 
2003	 0.292015301633588 
2004	 0.293136319961054 
2005	 0.294175492540847 
2006	 0.295193448684035 
2007	 0.296212362536611 
2008	 0.297128038572568 
2009	 0.297980169948434 
2010	 0.298761923671708 
2011	 0.299400976228727 
2012	 0.299971761623004 
2013	 0.300429955708024 
2014	 0.300807769694828 
2015	 0.301038957075233 
2016	 0.301174624527551 
2017	 0.301145723386117 
2018	 0.300976591719252 
2019	 0.300665069042315 
2020	 0.300226402108298 
2021	 0.299597935415683 
2022	 0.298852761302052 
2023	 0.297942841384775 
2024	 0.296793872611432 
2025	 0.29554193438795 
2026	 0.294135828307605 
2027	 0.292473471244594 
2028	 0.290852959953137 
2029	 0.289107767193111 
2030	 0.287365650511834 
2031	 0.285582228639106 
2032	 0.283792173563601 
2033	 0.281836758331304 
2034	 0.28011136371176 
2035	 0.278426614880975 
2036	 0.2768233706451 
2037	 0.275493179813784 
2038	 0.274339725796358 
2039	 0.273370945006368 
2040	 0.272591284027475 
2041	 0.27199364020009 
2042	 0.271580498394881 
2043	 0.271360006686732 
2044	 0.271363069897053 
2045	 0.271482613274312 
2046	 0.271811587493577 
2047	 0.272232232958383 
2048	 0.272765721218145 
2049	 0.273446457852466 
2050	 0.274315142938957 
2051	 0.275240019141821 
2052	 0.276278367901922 
2053	 0.277438361903507 
2054	 0.278612188845515 
2055	 0.279835707619668 
2056	 0.28114637407081 
2057	 0.282490859963082 
2058	 0.283975901388099 
2059	 0.285594291398956 
2060	 0.287222663168239 
2061	 0.289008590773563 
2062	 0.290733663607386 
2063	 0.292444278826183 
2064	 0.29419737104077 
2065	 0.295984291958069 
2066	 0.297735070518214 
2067	 0.299609374671989 
2068	 0.301428875626876 
2069	 0.303205172252853 
2070	 0.305019880057705 
2071	 0.306695197083898 
2072	 0.308271062008274 
2073	 0.309828734357295 
2074	 0.311306595252261 
2075	 0.312768734065501 
2076	 0.314230845781 
2077	 0.315580660613692 
2078	 0.316910262226375 
2079	 0.318108512949565 
2080	 0.319166321494728 
2081	 0.320187159091828 
2082	 0.321137984692298 
2083	 0.321978141217411 
2084	 0.322804984590581 
2085	 0.32353709009595 
2086	 0.324188184643828 
2087	 0.324757531544629 
2088	 0.325252242780697 
2089	 0.325651776803052 
2090	 0.326000260269125 
2091	 0.32625560322946 
2092	 0.326490616848194 
2093	 0.326667786008712 
2094	 0.326807752302403 
2095	 0.326911727339588 
2096	 0.326970691827803 
2097	 0.326995253449086 
2098	 0.326942425736355 
2099	 0.326860001463157 
2100	 0.326748562432709 
2101	 0.326584959615804 
2102	 0.326357620567388 
2103	 0.326138999970081 
2104	 0.325883486927965 
2105	 0.325618067963199 
2106	 0.325362984192563 
2107	 0.325042514603951 
2108	 0.32467334610476 
2109	 0.324291353744272 
2110	 0.323871221313065 
2111	 0.323428419496611 
2112	 0.322964639026564 
2113	 0.322478294138 
2114	 0.321965970818829 
2115	 0.321419980210912 
2116	 0.320859813372054 
2117	 0.320263567998034 
2118	 0.319612365776176 
2119	 0.318919642420092 
2120	 0.318185906574973 
2121	 0.317396136535003 
2122	 0.316583906520201 
2123	 0.315764672828931 
2124	 0.314833982175691 
2125	 0.313880033642556 
2126	 0.312789549465325 
2127	 0.311573268964363 
2128	 0.310304163341056 
2129	 0.308915213043342 
2130	 0.307498765751303 
2131	 0.306035896796174 
2132	 0.304495431785185 
2133	 0.302897110722535 
2134	 0.301241615519511 
2135	 0.299433342129788 
2136	 0.297645053857997 
2137	 0.295795801119117 
2138	 0.293825371000987 
2139	 0.291974697961178 
2140	 0.290146642899797 
2141	 0.288311698889591 
2142	 0.286562750387385 
2143	 0.284704459971214 
2144	 0.282776897410012 
2145	 0.280876763934641 
2146	 0.278892839192821 
2147	 0.277002815939912 
2148	 0.275178879487732 
2149	 0.273329202315617 
2150	 0.271551619767265 
2151	 0.269712543668576 
2152	 0.267796589345644 
2153	 0.265939319405537 
2154	 0.264051739972723 
2155	 0.262172727029168 
2156	 0.260432204431844 
2157	 0.258767514961053 
2158	 0.257141959009566 
2159	 0.255620853811228 
2160	 0.254102861115321 
2161	 0.252567927333591 
2162	 0.251195827880371 
2163	 0.249867030774058 
2164	 0.248706165436754 
2165	 0.247704805492161 
2166	 0.2467683260728 
2167	 0.245961761591128 
2168	 0.245224497102579 
2169	 0.24454066862264 
2170	 0.243997090586866 
2171	 0.24354711313792 
2172	 0.243231279481539 
2173	 0.243059875607508 
2174	 0.243000129466048 
2175	 0.243012895390014 
2176	 0.24315878746389 
2177	 0.243361021354709 
2178	 0.243646967656687 
2179	 0.244001759803383 
2180	 0.244454124643725 
2181	 0.244949674336658 
2182	 0.245514903613089 
2183	 0.246138655205082 
2184	 0.246819551704266 
2185	 0.247574353394549 
2186	 0.248411772311596 
2187	 0.249281176982612 
2188	 0.250252094017608 
2189	 0.251202147665233 
2190	 0.252179257236873 
2191	 0.253171530159356 
2192	 0.254166241124527 
2193	 0.255192192513727 
2194	 0.25628539578115 
2195	 0.257329268551061 
2196	 0.258383674590039 
2197	 0.259424034248265 
2198	 0.260378152775709 
2199	 0.26132136171215 
2200	 0.262228480199676 
2201	 0.263095702516475 
2202	 0.263938446804093 
2203	 0.264747908359606 
2204	 0.265538898609353 
2205	 0.266286618125479 
2206	 0.267051608376707 
2207	 0.267804716503413 
2208	 0.268561390487659 
2209	 0.269299459606418 
2210	 0.270071390396784 
2211	 0.270846026572614 
2212	 0.271639135889468 
2213	 0.272518169473287 
2214	 0.273296109163416 
2215	 0.274049788135266 
2216	 0.274762157492626 
2217	 0.27539777132022 
2218	 0.276022123497847 
2219	 0.276687441927345 
2220	 0.277215858247606 
2221	 0.27767497690002 
2222	 0.278055018942177 
2223	 0.278316257885403 
2224	 0.27851620225651 
2225	 0.278659585962361 
2226	 0.278717688475281 
2227	 0.278656852827667 
2228	 0.278497623359396 
2229	 0.278230239877183 
2230	 0.277861573338061 
2231	 0.277361977634845 
2232	 0.276748161423478 
2233	 0.276006816306819 
2234	 0.275155890895556 
2235	 0.27412479022729 
2236	 0.27295032330506 
2237	 0.271642798050379 
2238	 0.270111058779872 
2239	 0.268550698045468 
2240	 0.266911480498208 
2241	 0.265129134388583 
2242	 0.263316173372196 
2243	 0.261253509186268 
2244	 0.258919146533657 
2245	 0.256583166777728 
2246	 0.254014099022224 
2247	 0.251485982655347 
2248	 0.248951232838342 
2249	 0.246377653787659 
2250	 0.243760357326905 
2251	 0.24115879976017 
2252	 0.238360748035638 
2253	 0.235656666399409 
2254	 0.232945439222943 
2255	 0.230257743643718 
2256	 0.227933197028445 
2257	 0.225680248380249 
2258	 0.223596787446774 
2259	 0.221723694918858 
2260	 0.219916080084371 
2261	 0.218196467574866 
2262	 0.216686486927328 
2263	 0.215310204790156 
2264	 0.214107560023749 
2265	 0.21315752949413 
2266	 0.212208841181488 
2267	 0.211438391207636 
2268	 0.210622961043885 
2269	 0.209845182120769 
2270	 0.209097555761706 
2271	 0.208362457851648 
2272	 0.207670008567131 
2273	 0.207055539000695 
2274	 0.206404736268552 
2275	 0.205757041742194 
2276	 0.205129120511486 
2277	 0.204462533813788 
2278	 0.203886473156072 
2279	 0.203329219308311 
2280	 0.20287052549442 
2281	 0.202460139768497 
2282	 0.202174859454111 
2283	 0.201976428526157 
2284	 0.201911857709513 
2285	 0.201971536085339 
2286	 0.202140560235857 
2287	 0.202434586563365 
2288	 0.202813525489386 
2289	 0.203259996600716 
2290	 0.203816117088666 
2291	 0.20441357331103 
2292	 0.205101313276918 
2293	 0.205892224571102 
2294	 0.206650401721375 
2295	 0.207449267328964 
2296	 0.208319843120168 
2297	 0.209142513896267 
2298	 0.209974733721235 
2299	 0.21078313087254 
2300	 0.211556816359661 
2301	 0.212346640130813 
2302	 0.213148778117201 
2303	 0.213908589402871 
2304	 0.214678310822991 
2305	 0.215388795969739 
2306	 0.216033408690056 
2307	 0.216696812453655 
2308	 0.217290858867933 
2309	 0.217987306109015 
2310	 0.218728333565999 
2311	 0.219462365100035 
2312	 0.220284887553026 
2313	 0.221039533970761 
2314	 0.221746965030599 
2315	 0.222490797226593 
2316	 0.223249117686033 
2317	 0.223966916223599 
2318	 0.224750846840384 
2319	 0.225363270880269 
2320	 0.225894740816447 
2321	 0.226335680479046 
2322	 0.226616925755471 
2323	 0.226879861068976 
2324	 0.227069932968862 
2325	 0.227221123895877 
2326	 0.227324684461072 
2327	 0.227382760637894 
2328	 0.227425469866259 
2329	 0.227357047813206 
2330	 0.227170416101575 
2331	 0.226968018841393 
2332	 0.226755855925882 
2333	 0.226498698122594 
2334	 0.226264992864086 
2335	 0.225983778137628 
2336	 0.22560111343312 
2337	 0.225164399547797 
2338	 0.224730394904433 
2339	 0.22424491637897 
2340	 0.223751062335957 
2341	 0.223263679945834 
2342	 0.222772623056661 
2343	 0.222335891566881 
2344	 0.221898805711743 
2345	 0.221493222040508 
2346	 0.221166703720492 
2347	 0.220934041798153 
2348	 0.220802844223253 
2349	 0.220810638383704 
2350	 0.220939179698218 
2351	 0.221130537465119 
2352	 0.221409967092584 
2353	 0.221755284239084 
2354	 0.222092657492568 
2355	 0.222463911743958 
2356	 0.222826911490152 
2357	 0.223179506449391 
2358	 0.223588284351344 
2359	 0.223951879327106 
2360	 0.224288471983345 
2361	 0.224655323581928 
2362	 0.224970593156481 
2363	 0.225251570444202 
2364	 0.225541327711586 
2365	 0.225722027904395 
2366	 0.22583099304906 
2367	 0.22594729118523 
2368	 0.226052905418982 
2369	 0.22619001024189 
2370	 0.226291333947146 
2371	 0.226357614219894 
2372	 0.226387091196008 
2373	 0.226322924525993 
2374	 0.226297865840431 
2375	 0.226263717922672 
2376	 0.226171026909583 
2377	 0.226099106231544 
2378	 0.226001242692066 
2379	 0.225927285108426 
2380	 0.225896756015806 
2381	 0.225854802923834 
2382	 0.225866072585129 
2383	 0.225930987010558 
2384	 0.22598574341422 
2385	 0.2260781153605 
2386	 0.226179662139574 
2387	 0.226300709257847 
2388	 0.226367382133446 
2389	 0.226430428923048 
2390	 0.226449500955669 
2391	 0.226426866432865 
2392	 0.226372008586948 
2393	 0.226307809068951 
2394	 0.226165907560942 
2395	 0.225964195945714 
2396	 0.225728131034821 
2397	 0.225425901535155 
2398	 0.225076557045326 
2399	 0.224668608091838 
2400	 0.224252751635102 
2401	 0.223786280702854 
2402	 0.223318270562205 
2403	 0.222813226913661 
2404	 0.222279758303947 
2405	 0.221788309016116 
2406	 0.221413602510847 
2407	 0.221108612266433 
2408	 0.22085001903452 
2409	 0.220657520726989 
2410	 0.220408227583525 
2411	 0.220142927743459 
2412	 0.219956224482892 
2413	 0.219822611670988 
2414	 0.219625547479396 
2415	 0.219389380914815 
2416	 0.219100255215333 
2417	 0.218735511814095 
2418	 0.218473055230113 
2419	 0.218128884135046 
2420	 0.217763255400783 
2421	 0.21741764306366 
2422	 0.216859819868093 
2423	 0.216285642410798 
2424	 0.21568822182069 
2425	 0.215037349869358 
2426	 0.214416891980286 
2427	 0.213776564810045 
2428	 0.213163417885697 
2429	 0.212414909474616 
2430	 0.211591258761703 
2431	 0.210827874453179 
2432	 0.209791793589199 
2433	 0.208603174760567 
2434	 0.207514805479108 
2435	 0.20633128503353 
2436	 0.205136790660118 
2437	 0.203911544340021 
2438	 0.202572996456292 
2439	 0.201309694129723 
2440	 0.200116712551549 
2441	 0.198971218126397 
2442	 0.197782029125762 
2443	 0.196386337773987 
2444	 0.195016365919981 
2445	 0.193843135723979 
2446	 0.192648186016395 
2447	 0.191405547161199 
2448	 0.190137793801473 
2449	 0.188824854560579 
2450	 0.187592268169801 
2451	 0.186483377177061 
2452	 0.185424609185158 
2453	 0.184287511737448 
2454	 0.183192040205008 
2455	 0.182156949611599 
2456	 0.181121904652471 
2457	 0.180205656969465 
2458	 0.179258303413627 
2459	 0.178301238771394 
2460	 0.177455112714541 
2461	 0.17668527071126 
2462	 0.175904668001402 
2463	 0.175168976820746 
2464	 0.174490673851577 
2465	 0.173778385114757 
2466	 0.173227174819955 
2467	 0.172760759705977 
2468	 0.172245704738162 
2469	 0.171657641580623 
2470	 0.170982691712551 
2471	 0.170353620055005 
2472	 0.169807874103211 
2473	 0.169503630132956 
2474	 0.169455846077499 
2475	 0.169329386854938 
2476	 0.169147775202014 
2477	 0.168926040137618 
2478	 0.168533188181016 
2479	 0.168089245038733 
2480	 0.167681355697427 
2481	 0.167306467302198 
2482	 0.166778345971533 
2483	 0.166571604345787 
2484	 0.166188031379145 
2485	 0.165746985081746 
2486	 0.165528802542963 
2487	 0.165257499515892 
2488	 0.164877177571654 
2489	 0.164383380259803 
2490	 0.16377575255089 
2491	 0.163218053944817 
2492	 0.162806780771212 
2493	 0.162596755521764 
2494	 0.162412447039919 
2495	 0.162025295918746 
2496	 0.161590527456214 
2497	 0.161091422767004 
2498	 0.160564592173549 
2499	 0.160081459972728 
2500	 0.1596733710806 
