Wavelength	spectrum00008.asd
350	 4.52520494243397E-02 
351	 4.56736382253366E-02 
352	 4.53923950367127E-02 
353	 4.42368115963391E-02 
354	 4.26050133093038E-02 
355	 4.33441054404691E-02 
356	 4.46280166608994E-02 
357	 4.40704859477419E-02 
358	 4.03824097573845E-02 
359	 3.95920468664556E-02 
360	 4.12453250552129E-02 
361	 4.17147034883191E-02 
362	 4.23133693280583E-02 
363	 4.22661238752536E-02 
364	 4.15157333876556E-02 
365	 4.11109526520963E-02 
366	 4.12971635337755E-02 
367	 4.11741031704683E-02 
368	 4.04243958344941E-02 
369	 4.17197206760519E-02 
370	 0.041943836179553 
371	 4.14209129863617E-02 
372	 4.21613191714363E-02 
373	 4.20024410721339E-02 
374	 4.20088814027184E-02 
375	 4.26494104118494E-02 
376	 0.043088470572652 
377	 4.28477896749528E-02 
378	 4.26760643841599E-02 
379	 4.32012973623047E-02 
380	 0.043344166339599 
381	 4.43422960302889E-02 
382	 4.49007382660399E-02 
383	 4.29125970720761E-02 
384	 4.38019616639835E-02 
385	 4.51236048772909E-02 
386	 4.52329652496509E-02 
387	 4.51111532518832E-02 
388	 4.50810531532019E-02 
389	 4.53789111609023E-02 
390	 4.59228115612274E-02 
391	 4.57208953074269E-02 
392	 4.58142375105501E-02 
393	 4.64861956517855E-02 
394	 4.73660355397696E-02 
395	 4.72165480880571E-02 
396	 4.70912006830121E-02 
397	 4.75570213186479E-02 
398	 4.79327257017725E-02 
399	 4.76220244522203E-02 
400	 4.76024987938679E-02 
401	 4.86100337108577E-02 
402	 0.048261513067566 
403	 4.87927656890557E-02 
404	 0.049980076215471 
405	 4.98265645581226E-02 
406	 4.97458923938958E-02 
407	 4.99872091448171E-02 
408	 5.04498691766409E-02 
409	 0.050747711272829 
410	 5.07520909565236E-02 
411	 0.050919491187938 
412	 5.16868183528766E-02 
413	 0.052474265007632 
414	 5.24317499308733E-02 
415	 5.21537914996844E-02 
416	 5.33690549028655E-02 
417	 5.39557877488642E-02 
418	 5.41769017677122E-02 
419	 5.45096836303609E-02 
420	 5.49015553620676E-02 
421	 5.50975812225481E-02 
422	 5.54115956146157E-02 
423	 5.62138369504254E-02 
424	 5.66370525784395E-02 
425	 5.70035754814118E-02 
426	 0.057468986453759 
427	 5.78885474391154E-02 
428	 5.83587362793058E-02 
429	 5.88648094510369E-02 
430	 5.93586754962257E-02 
431	 5.97426399779857E-02 
432	 6.03594384947624E-02 
433	 6.10889032682722E-02 
434	 6.15939991042116E-02 
435	 6.21594906864113E-02 
436	 6.26967930219444E-02 
437	 6.31953214820625E-02 
438	 6.38284236564353E-02 
439	 6.44642376908036E-02 
440	 6.50709707164452E-02 
441	 6.56576576118638E-02 
442	 6.62544993450453E-02 
443	 6.70217119643654E-02 
444	 6.78218542428928E-02 
445	 6.83165247461694E-02 
446	 6.88923877228214E-02 
447	 6.95240030187518E-02 
448	 7.01794093642939E-02 
449	 7.09779769757052E-02 
450	 7.17685241418219E-02 
451	 7.25134511076268E-02 
452	 7.32314839323307E-02 
453	 7.39717728105534E-02 
454	 0.074781143772562 
455	 7.55912457157738E-02 
456	 7.62214256284535E-02 
457	 7.70470024472755E-02 
458	 7.78734867984176E-02 
459	 7.85300435275868E-02 
460	 7.93041648874468E-02 
461	 8.00849416128796E-02 
462	 8.08894864195924E-02 
463	 8.17721581469247E-02 
464	 8.24677440695705E-02 
465	 0.083210851606535 
466	 8.40419267706515E-02 
467	 8.46056509447689E-02 
468	 8.54092139265649E-02 
469	 8.62714761817145E-02 
470	 8.69464385278795E-02 
471	 0.087829456205383 
472	 8.85806802355353E-02 
473	 8.92141701023311E-02 
474	 9.00180125674579E-02 
475	 9.07185367450716E-02 
476	 9.13721967585357E-02 
477	 9.20483445374959E-02 
478	 9.27261621612374E-02 
479	 9.34092908134636E-02 
480	 9.40925615540712E-02 
481	 9.47676923805306E-02 
482	 0.095439823485723 
483	 9.60089590551755E-02 
484	 9.65164408017582E-02 
485	 9.71644357044214E-02 
486	 9.78696595328178E-02 
487	 9.84585939565579E-02 
488	 9.88601355288226E-02 
489	 9.93692220104406E-02 
490	 9.99069985714888E-02 
491	 0.100420029097881 
492	 0.100871844928681 
493	 0.101251904880614 
494	 0.101602526719657 
495	 0.101969764918143 
496	 0.102407719188999 
497	 0.10264331435353 
498	 0.102843261204246 
499	 0.103211864214023 
500	 0.103444043172724 
501	 0.103655960656168 
502	 0.103873254117133 
503	 0.104032173085206 
504	 0.104213876179484 
505	 0.104366772099425 
506	 0.104463654062069 
507	 0.104598825439565 
508	 0.104689089094178 
509	 0.104707060262166 
510	 0.10467161856981 
511	 0.104725726261752 
512	 0.104768215455822 
513	 0.104758234837428 
514	 0.104763477152542 
515	 0.104642368553119 
516	 0.10453478268735 
517	 0.104551979806741 
518	 0.10444164632195 
519	 0.104334043722751 
520	 0.104240577874412 
521	 0.104092359889441 
522	 0.103953826077016 
523	 0.103802839284339 
524	 0.103628087147804 
525	 0.103464983070988 
526	 0.103280396602658 
527	 0.103092245157923 
528	 0.102925402081367 
529	 0.102741637585886 
530	 0.102524534234839 
531	 0.102298222859748 
532	 0.102124801553006 
533	 0.101889770679049 
534	 0.1016588414755 
535	 0.101474225614175 
536	 0.101184608603587 
537	 0.100930310722468 
538	 0.100707458910776 
539	 0.100438592959417 
540	 0.100177695531079 
541	 9.99387045310381E-02 
542	 9.97099955506925E-02 
543	 9.94442019410454E-02 
544	 0.099223476063587 
545	 9.89938419756582E-02 
546	 9.86979409970745E-02 
547	 9.84563123480425E-02 
548	 9.82498441605581E-02 
549	 9.80445539339513E-02 
550	 9.78025846135662E-02 
551	 9.75845215346833E-02 
552	 9.73815379280382E-02 
553	 9.71775271104233E-02 
554	 0.096979909134954 
555	 9.67281089551816E-02 
556	 9.64626560080298E-02 
557	 9.62598940030276E-02 
558	 9.60565665955984E-02 
559	 9.58460395088614E-02 
560	 9.56226316490201E-02 
561	 9.53750315935289E-02 
562	 9.51036720844191E-02 
563	 9.48451626164471E-02 
564	 9.46296296135781E-02 
565	 9.44310431057589E-02 
566	 9.41976078363458E-02 
567	 9.39430399711678E-02 
568	 9.37286893282248E-02 
569	 9.35382980830261E-02 
570	 9.33384305945738E-02 
571	 9.31264379924099E-02 
572	 9.29743057185738E-02 
573	 9.28267849887766E-02 
574	 9.26574698737005E-02 
575	 9.24578452736438E-02 
576	 9.22638154432053E-02 
577	 9.20393458368117E-02 
578	 9.17884807315434E-02 
579	 0.091565519305646 
580	 0.091352635735156 
581	 9.11752511435397E-02 
582	 9.10364805437149E-02 
583	 9.08477089438234E-02 
584	 9.06466410198104E-02 
585	 9.04500424160359E-02 
586	 0.090261575597411 
587	 9.00828066562557E-02 
588	 8.99132895203545E-02 
589	 8.97552135051182E-02 
590	 8.96185676236274E-02 
591	 8.94408328392952E-02 
592	 8.92425998408073E-02 
593	 8.90586209011301E-02 
594	 8.88536880248859E-02 
595	 8.86624158862677E-02 
596	 8.84967957235822E-02 
597	 8.83449941703055E-02 
598	 8.81576607424711E-02 
599	 8.79856304463326E-02 
600	 8.78537537455421E-02 
601	 8.76767645924661E-02 
602	 0.087527067071393 
603	 8.73924962908268E-02 
604	 8.72343287132145E-02 
605	 8.70956923138861E-02 
606	 8.69768470937769E-02 
607	 8.68767411167453E-02 
608	 8.67977311231724E-02 
609	 8.66501189872832E-02 
610	 8.64954445239303E-02 
611	 8.63949066558131E-02 
612	 8.62721919234417E-02 
613	 8.61629903870258E-02 
614	 8.60570911228093E-02 
615	 8.59218109532544E-02 
616	 8.58209905366256E-02 
617	 8.57282361749302E-02 
618	 8.56230800532845E-02 
619	 8.55147675680163E-02 
620	 8.54369101075866E-02 
621	 8.53739140268003E-02 
622	 8.52930482186983E-02 
623	 8.51671258782824E-02 
624	 8.50821822554235E-02 
625	 8.50355082431324E-02 
626	 8.49419512507064E-02 
627	 8.48708784944019E-02 
628	 8.48095834494136E-02 
629	 8.47455367971148E-02 
630	 8.47082899731703E-02 
631	 8.46481302936534E-02 
632	 8.45918050429297E-02 
633	 8.45847507779011E-02 
634	 8.45453864806848E-02 
635	 8.44898293259706E-02 
636	 8.44457681359223E-02 
637	 8.44435209491368E-02 
638	 8.44310423167395E-02 
639	 8.44020508725775E-02 
640	 8.43638454990253E-02 
641	 8.43183899107691E-02 
642	 8.43312987061807E-02 
643	 8.43671866080504E-02 
644	 8.43399714403628E-02 
645	 8.43319448296699E-02 
646	 8.43365816614025E-02 
647	 8.43453808240089E-02 
648	 8.43643114462867E-02 
649	 8.43988114157705E-02 
650	 0.084424220760495 
651	 8.44237334083329E-02 
652	 8.44541684664238E-02 
653	 8.44784520281741E-02 
654	 8.45033264066092E-02 
655	 8.45670326399679E-02 
656	 0.084598473778861 
657	 8.46347515646066E-02 
658	 8.46985720024118E-02 
659	 8.47436890699314E-02 
660	 8.48052795057122E-02 
661	 8.48628716338999E-02 
662	 8.48933233131331E-02 
663	 8.49765455024698E-02 
664	 8.50427300601494E-02 
665	 8.50849688404531E-02 
666	 0.085165809033495 
667	 8.52479454881403E-02 
668	 8.53238785564531E-02 
669	 8.53945585622695E-02 
670	 8.54642330463022E-02 
671	 8.55659676378863E-02 
672	 8.56759874358843E-02 
673	 8.57538497999027E-02 
674	 8.58441284020322E-02 
675	 8.59400984123777E-02 
676	 8.60414231575797E-02 
677	 8.61599169865032E-02 
678	 8.62332415198591E-02 
679	 8.63217452579571E-02 
680	 8.64673909071459E-02 
681	 8.65646605593719E-02 
682	 8.66801381040092E-02 
683	 8.68049082558209E-02 
684	 8.68954077875664E-02 
685	 8.69830755674956E-02 
686	 8.70917510605211E-02 
687	 8.72267278979953E-02 
688	 8.73703218329468E-02 
689	 8.74585176543689E-02 
690	 8.75508248626242E-02 
691	 8.77030786508657E-02 
692	 8.78372882590117E-02 
693	 8.79608803225273E-02 
694	 8.80826703027271E-02 
695	 8.82084846925782E-02 
696	 8.83052216591556E-02 
697	 8.84066776512634E-02 
698	 8.85285490136604E-02 
699	 8.86454640777957E-02 
700	 8.87795082688402E-02 
701	 8.89112178542041E-02 
702	 8.90218444119025E-02 
703	 8.91374023097578E-02 
704	 8.92778410684608E-02 
705	 8.94199197098689E-02 
706	 8.95199514841158E-02 
707	 8.96541389681257E-02 
708	 8.97825690657054E-02 
709	 8.98870937322372E-02 
710	 9.00105703920409E-02 
711	 9.01475857595454E-02 
712	 9.02809260288187E-02 
713	 9.03998021718155E-02 
714	 9.05419105169986E-02 
715	 0.090650798885136 
716	 0.090737805145205 
717	 9.08596927597935E-02 
718	 9.09889695749667E-02 
719	 0.09111475594368 
720	 0.091234315380051 
721	 9.13553637522181E-02 
722	 0.091469460937326 
723	 9.15901345452437E-02 
724	 9.17249222268718E-02 
725	 9.18300945572613E-02 
726	 9.19517816452129E-02 
727	 0.09209189769848 
728	 9.22198626687059E-02 
729	 9.23325023838885E-02 
730	 9.24444740650982E-02 
731	 9.25657848937162E-02 
732	 9.26945172591991E-02 
733	 9.28223885913776E-02 
734	 9.29427967729642E-02 
735	 9.30568141855364E-02 
736	 9.31923728937673E-02 
737	 9.33053113375564E-02 
738	 9.33956192454767E-02 
739	 0.093495182919771 
740	 9.36275302774111E-02 
741	 9.37668061164221E-02 
742	 9.38889866407588E-02 
743	 9.39827801378879E-02 
744	 9.41178627318099E-02 
745	 9.42464109032856E-02 
746	 9.43216189379764E-02 
747	 0.094410172226035 
748	 9.45162324813339E-02 
749	 9.46368671410223E-02 
750	 9.47607541400854E-02 
751	 9.48587371806434E-02 
752	 9.49470614910636E-02 
753	 9.50455953119196E-02 
754	 9.51707775569136E-02 
755	 9.52816189391629E-02 
756	 9.53741577475123E-02 
757	 0.095456554544355 
758	 9.55409002595936E-02 
759	 9.56273282986196E-02 
760	 9.57184194979409E-02 
761	 9.58174536256152E-02 
762	 9.59313201728866E-02 
763	 9.60211897597192E-02 
764	 9.60928777839508E-02 
765	 9.62001010570067E-02 
766	 9.63045885401965E-02 
767	 9.63972860610551E-02 
768	 9.64843038812084E-02 
769	 9.65944222076288E-02 
770	 9.67002497653383E-02 
771	 9.67839703089146E-02 
772	 9.68443034485184E-02 
773	 9.69364481859901E-02 
774	 9.70392689175585E-02 
775	 9.71341674643977E-02 
776	 9.72128225452141E-02 
777	 9.73245475486046E-02 
778	 9.74456059229186E-02 
779	 0.097551579513422 
780	 9.76357744754722E-02 
781	 9.77231983869971E-02 
782	 9.78129501430288E-02 
783	 9.79030098239983E-02 
784	 9.80193510947278E-02 
785	 9.81142307922254E-02 
786	 9.81987682494301E-02 
787	 9.83093947096137E-02 
788	 9.83930356163739E-02 
789	 9.84818733440401E-02 
790	 9.85853723667352E-02 
791	 9.86782293764079E-02 
792	 9.87894784574584E-02 
793	 9.88974478301757E-02 
794	 9.89882702159931E-02 
795	 9.90918288405792E-02 
796	 9.91966652152024E-02 
797	 0.099307274499925 
798	 9.94240618564896E-02 
799	 9.95016189023941E-02 
800	 9.95923421686917E-02 
801	 9.97120436579326E-02 
802	 9.98401946161236E-02 
803	 9.99323662064208E-02 
804	 0.100036522878119 
805	 0.100168484401215 
806	 0.100277576765369 
807	 0.100389307829179 
808	 0.100500884736461 
809	 0.100610878084381 
810	 0.100741222061873 
811	 0.100875164886419 
812	 0.101014784302317 
813	 0.101165441125379 
814	 0.101302587387103 
815	 0.101430019041327 
816	 0.101553876505514 
817	 0.101681143985975 
818	 0.101825445478106 
819	 0.101969891647096 
820	 0.102110375023449 
821	 0.102271561462319 
822	 0.102418301867542 
823	 0.102569720016002 
824	 0.102739101200779 
825	 0.102873559583089 
826	 0.103024920769465 
827	 0.10320032877611 
828	 0.103381009772268 
829	 0.103538014431078 
830	 0.103699589042416 
831	 0.103867579601012 
832	 0.104021394997865 
833	 0.104193808914208 
834	 0.104388246677911 
835	 0.104597610434627 
836	 0.104807082654713 
837	 0.105007091634658 
838	 0.105190325600941 
839	 0.105361374588726 
840	 0.10555090596149 
841	 0.105761563802951 
842	 0.105971207707165 
843	 0.106158058010876 
844	 0.106355283079246 
845	 0.10657513857578 
846	 0.10679922371222 
847	 0.106997452726157 
848	 0.107243100331983 
849	 0.107477172706257 
850	 0.1076852938067 
851	 0.107925366123478 
852	 0.108176111394957 
853	 0.108434251562879 
854	 0.108697974303478 
855	 0.108963695242319 
856	 0.109213379346787 
857	 0.109456348724353 
858	 0.109714798412709 
859	 0.110022529664603 
860	 0.110324655739192 
861	 0.110630027414847 
862	 0.11096666186701 
863	 0.111264096063899 
864	 0.111560637780038 
865	 0.111881714659736 
866	 0.112228288023011 
867	 0.11253500925062 
868	 0.112863319859062 
869	 0.113222594634404 
870	 0.113531185984655 
871	 0.113879480307669 
872	 0.114247012159655 
873	 0.114604062537045 
874	 0.114955102845441 
875	 0.115331203955865 
876	 0.115719788276216 
877	 0.116106125138 
878	 0.11652292512997 
879	 0.116923345691959 
880	 0.117328160162049 
881	 0.117773894104835 
882	 0.118193403061043 
883	 0.118600440339844 
884	 0.119018651111951 
885	 0.119473238766635 
886	 0.11996791190117 
887	 0.120439148434246 
888	 0.120875097665709 
889	 0.121331136554457 
890	 0.121848332782169 
891	 0.122369366132592 
892	 0.12285585868288 
893	 0.123335065304942 
894	 0.123841234074655 
895	 0.124370457757166 
896	 0.124911877121993 
897	 0.125468589615687 
898	 0.1260310516556 
899	 0.126590026697489 
900	 0.127147864498406 
901	 0.127741820169667 
902	 0.128352838518384 
903	 0.128963292707221 
904	 0.129561031913946 
905	 0.13015570775089 
906	 0.130755791931115 
907	 0.13139135774049 
908	 0.13209133008432 
909	 0.132773542045257 
910	 0.133432967310674 
911	 0.134099343629797 
912	 0.13482086148485 
913	 0.135539773352855 
914	 0.136263083308376 
915	 0.137000764817993 
916	 0.137754706020304 
917	 0.138514631569627 
918	 0.139260867832267 
919	 0.140003388773405 
920	 0.140805388379991 
921	 0.141598270973108 
922	 0.142413005249774 
923	 0.143260859606244 
924	 0.144035291341358 
925	 0.144849664398707 
926	 0.145710380970649 
927	 0.146594626237661 
928	 0.147515324713932 
929	 0.148414191155724 
930	 0.149304750886212 
931	 0.150223718917283 
932	 0.151162068572623 
933	 0.152115403601001 
934	 0.153082920329884 
935	 0.154058175629812 
936	 0.154989801418673 
937	 0.155977385500861 
938	 0.156999912651704 
939	 0.157972430861619 
940	 0.159023862833206 
941	 0.160089471053467 
942	 0.161137661402473 
943	 0.162185357752435 
944	 0.163257687478311 
945	 0.164298006861011 
946	 0.165351362976512 
947	 0.166547258025393 
948	 0.167658081435819 
949	 0.168749124205131 
950	 0.169877902505917 
951	 0.171032789022285 
952	 0.172166512087792 
953	 0.17333087066745 
954	 0.174532320119068 
955	 0.175688342301654 
956	 0.176814963492838 
957	 0.178000502083663 
958	 0.179267885889898 
959	 0.180505782544928 
960	 0.181718812332799 
961	 0.182945280143121 
962	 0.184207707660514 
963	 0.185476148957006 
964	 0.186687936721012 
965	 0.187937025562511 
966	 0.189284876037491 
967	 0.190626931493859 
968	 0.191993872203785 
969	 0.193324891189016 
970	 0.194595981646374 
971	 0.195924581058368 
972	 0.197304476544786 
973	 0.198679575193011 
974	 0.20003528648537 
975	 0.201521074215691 
976	 0.202923899523113 
977	 0.204306405217698 
978	 0.20575789435256 
979	 0.207144975339905 
980	 0.208651171407946 
981	 0.210152549373656 
982	 0.211517883803097 
983	 0.21293825862561 
984	 0.214449793826457 
985	 0.215999959470562 
986	 0.217521870865848 
987	 0.21902738563445 
988	 0.220605187210677 
989	 0.222144637115958 
990	 0.223542551052167 
991	 0.224967840561826 
992	 0.226432053722491 
993	 0.227973483204533 
994	 0.229590191237575 
995	 0.231148361886495 
996	 0.232752232004956 
997	 0.23431438998635 
998	 0.235777629287647 
999	 0.237406990388543 
1000	 0.239063297592283 
1001	 0.242621967266093 
1002	 0.244219841487596 
1003	 0.245860696617223 
1004	 0.247443514122363 
1005	 0.249004330336968 
1006	 0.250587902146495 
1007	 0.252122612054521 
1008	 0.253733792984952 
1009	 0.255377657905818 
1010	 0.257021127238545 
1011	 0.258746337399104 
1012	 0.260382901816872 
1013	 0.261958829446847 
1014	 0.263575460560196 
1015	 0.265172119311029 
1016	 0.266746710751576 
1017	 0.268424023599049 
1018	 0.270082792644977 
1019	 0.271753312767549 
1020	 0.273502127726494 
1021	 0.275177344119255 
1022	 0.276833476310029 
1023	 0.278508676948169 
1024	 0.280112335218276 
1025	 0.281821840774064 
1026	 0.283631020573656 
1027	 0.285365834885021 
1028	 0.287127009540871 
1029	 0.288894176878459 
1030	 0.290508467462188 
1031	 0.29218715529661 
1032	 0.293878666821132 
1033	 0.295549725925472 
1034	 0.297335591672077 
1035	 0.299060279323412 
1036	 0.300802865861072 
1037	 0.302591607419666 
1038	 0.304344641930915 
1039	 0.306074577136907 
1040	 0.30782203564895 
1041	 0.309537828916049 
1042	 0.311297816209356 
1043	 0.313102091835735 
1044	 0.314866188437207 
1045	 0.316656773722184 
1046	 0.318450668059967 
1047	 0.320117003711203 
1048	 0.321856773031306 
1049	 0.32357624547439 
1050	 0.325260650389872 
1051	 0.327098781443435 
1052	 0.328863044730117 
1053	 0.330644758697224 
1054	 0.332522959878012 
1055	 0.334290191039811 
1056	 0.33595044098405 
1057	 0.337698980769563 
1058	 0.3394523351529 
1059	 0.341138954400104 
1060	 0.342960873687574 
1061	 0.344725473681156 
1062	 0.346461322261226 
1063	 0.348229338158382 
1064	 0.349892861335616 
1065	 0.351584163665923 
1066	 0.353256413851244 
1067	 0.354913449061409 
1068	 0.356650344763405 
1069	 0.358329939605586 
1070	 0.360042856776115 
1071	 0.361785437386977 
1072	 0.363542760637185 
1073	 0.365182631135817 
1074	 0.36684063115722 
1075	 0.368463362334402 
1076	 0.370031376187556 
1077	 0.37170036988946 
1078	 0.373361333050327 
1079	 0.375059539550638 
1080	 0.376772654278291 
1081	 0.378343321367484 
1082	 0.379935751034391 
1083	 0.38150646227079 
1084	 0.383062732719138 
1085	 0.384719986045834 
1086	 0.38631740333143 
1087	 0.387902164527212 
1088	 0.389504000729655 
1089	 0.391078683968139 
1090	 0.39255530440873 
1091	 0.394105466516088 
1092	 0.395599119694251 
1093	 0.397060099304683 
1094	 0.398607520711002 
1095	 0.400091885902955 
1096	 0.401625404822217 
1097	 0.403172813871705 
1098	 0.404602138551446 
1099	 0.406081001095324 
1100	 0.407501142847947 
1101	 0.408889717605398 
1102	 0.410384429079295 
1103	 0.41181878814446 
1104	 0.413221759764785 
1105	 0.414652878063847 
1106	 0.416091996470184 
1107	 0.417410649440919 
1108	 0.418772595313288 
1109	 0.420130808656827 
1110	 0.421459751434582 
1111	 0.422855531218394 
1112	 0.424186906111053 
1113	 0.425526671715255 
1114	 0.426893616033948 
1115	 0.428149727246428 
1116	 0.429421890416326 
1117	 0.430670819282222 
1118	 0.431915619626579 
1119	 0.433140757187842 
1120	 0.434379484705981 
1121	 0.435616882272482 
1122	 0.436877639954775 
1123	 0.438118254433069 
1124	 0.439233731611963 
1125	 0.440377216952651 
1126	 0.441461809559963 
1127	 0.442488360964515 
1128	 0.443602083743367 
1129	 0.444661563646653 
1130	 0.44569393681231 
1131	 0.446721325187213 
1132	 0.447653707252291 
1133	 0.448592706741522 
1134	 0.449514382921156 
1135	 0.450404745375864 
1136	 0.451287381855524 
1137	 0.452135567416428 
1138	 0.452938580276658 
1139	 0.453735379780057 
1140	 0.45452500711955 
1141	 0.455259531788473 
1142	 0.455986128545789 
1143	 0.456669351079251 
1144	 0.457322897269787 
1145	 0.457972624336658 
1146	 0.458570673882861 
1147	 0.459187050978471 
1148	 0.459799201922889 
1149	 0.460363917295233 
1150	 0.460942896179328 
1151	 0.461496559241045 
1152	 0.462019194527815 
1153	 0.462517074636105 
1154	 0.4629871400655 
1155	 0.463435225739328 
1156	 0.463853758755274 
1157	 0.464244962277103 
1158	 0.464598050576626 
1159	 0.464920666015444 
1160	 0.4652029929566 
1161	 0.46547177166644 
1162	 0.465756587969199 
1163	 0.466030984159692 
1164	 0.466299365876242 
1165	 0.466547959145283 
1166	 0.466759108221448 
1167	 0.466969848746578 
1168	 0.467163291865325 
1169	 0.467342001266493 
1170	 0.46751548695332 
1171	 0.467663638279426 
1172	 0.467793487775591 
1173	 0.467902059853471 
1174	 0.467996162644175 
1175	 0.468055470190329 
1176	 0.468090957905061 
1177	 0.468098428268299 
1178	 0.46807102005219 
1179	 0.46802516915328 
1180	 0.467973715255527 
1181	 0.467910713530956 
1182	 0.467833917328072 
1183	 0.467754665565224 
1184	 0.467648519807253 
1185	 0.467540470724032 
1186	 0.467473886072816 
1187	 0.467418171252977 
1188	 0.467390629142837 
1189	 0.467379189413863 
1190	 0.467420076739741 
1191	 0.467492161541586 
1192	 0.467594356470081 
1193	 0.467746569662691 
1194	 0.467921210378427 
1195	 0.468124241798463 
1196	 0.46833688037414 
1197	 0.4685806676211 
1198	 0.468844353675549 
1199	 0.469088415451987 
1200	 0.469338624159729 
1201	 0.469617727870234 
1202	 0.469905579983534 
1203	 0.470222162617765 
1204	 0.470604338184851 
1205	 0.471018621363665 
1206	 0.471446601403928 
1207	 0.471977742494658 
1208	 0.472549558081137 
1209	 0.473223929214205 
1210	 0.473962122090034 
1211	 0.474830870946436 
1212	 0.475798218846156 
1213	 0.476883048978965 
1214	 0.478077671409081 
1215	 0.479398841570992 
1216	 0.480869988357313 
1217	 0.482375569753738 
1218	 0.484004503285885 
1219	 0.485683822677565 
1220	 0.4873721369231 
1221	 0.489175701243721 
1222	 0.490943628875374 
1223	 0.492747333490389 
1224	 0.494501293699535 
1225	 0.49624920250441 
1226	 0.497914703405096 
1227	 0.499557515570886 
1228	 0.501129501090043 
1229	 0.502645142669182 
1230	 0.504093198250486 
1231	 0.505495557099384 
1232	 0.506824757087369 
1233	 0.508058681605821 
1234	 0.509251963110961 
1235	 0.510375613486409 
1236	 0.511472541869695 
1237	 0.512528237702133 
1238	 0.513540012047981 
1239	 0.514500446807094 
1240	 0.515438742567785 
1241	 0.516367842271088 
1242	 0.51720958371511 
1243	 0.518050591886149 
1244	 0.518873310339773 
1245	 0.519671495232036 
1246	 0.520434310522937 
1247	 0.521181295350816 
1248	 0.521915489951472 
1249	 0.522623092931796 
1250	 0.523308315858096 
1251	 0.52395386101066 
1252	 0.524571642253455 
1253	 0.52516993722964 
1254	 0.525719243579733 
1255	 0.526275555168065 
1256	 0.526831102767283 
1257	 0.527364831406971 
1258	 0.527879466700027 
1259	 0.528383923385636 
1260	 0.528878245917279 
1261	 0.529353127931478 
1262	 0.529801328858797 
1263	 0.530259832490089 
1264	 0.530696454553186 
1265	 0.531109583569599 
1266	 0.531532231314926 
1267	 0.53195420778724 
1268	 0.532361003588676 
1269	 0.532757680085799 
1270	 0.533154009865899 
1271	 0.533537293816351 
1272	 0.533927069438533 
1273	 0.534313648125691 
1274	 0.534709813668718 
1275	 0.535117752822807 
1276	 0.535505862061701 
1277	 0.535883588179177 
1278	 0.536271337518679 
1279	 0.536644891933638 
1280	 0.537029311924459 
1281	 0.537421290551541 
1282	 0.537825809983513 
1283	 0.538255939306692 
1284	 0.53865587801086 
1285	 0.539047111539248 
1286	 0.539443517063551 
1287	 0.539822380805181 
1288	 0.540172771404462 
1289	 0.540529975351762 
1290	 0.540895439943388 
1291	 0.54123793030046 
1292	 0.541569095780436 
1293	 0.541876791783038 
1294	 0.542167848431174 
1295	 0.542449194820802 
1296	 0.542701495412576 
1297	 0.542961508710536 
1298	 0.543238580865574 
1299	 0.543471244704201 
1300	 0.543690396007691 
1301	 0.54388072173125 
1302	 0.544018585967496 
1303	 0.544171454955623 
1304	 0.544334404219534 
1305	 0.544459347191862 
1306	 0.54459317245745 
1307	 0.544672521574091 
1308	 0.544694579218114 
1309	 0.544701626679002 
1310	 0.544690221551938 
1311	 0.544627532312377 
1312	 0.544620359646033 
1313	 0.544595408469151 
1314	 0.544646861757085 
1315	 0.544698806149816 
1316	 0.544884899381519 
1317	 0.54515885600301 
1318	 0.545463464733116 
1319	 0.545895728367427 
1320	 0.546265797541629 
1321	 0.546684658130324 
1322	 0.547009622461966 
1323	 0.547325925281826 
1324	 0.547562056001925 
1325	 0.547744289948908 
1326	 0.547847221964984 
1327	 0.547892616720416 
1328	 0.54786675280482 
1329	 0.547757830561839 
1330	 0.547594358296076 
1331	 0.547356100224217 
1332	 0.547088887197726 
1333	 0.546752479703857 
1334	 0.546380655221012 
1335	 0.546066096740721 
1336	 0.545716513392267 
1337	 0.545487198530675 
1338	 0.545292237237353 
1339	 0.545210895997802 
1340	 0.545208278871364 
1341	 0.545276445795153 
1342	 0.545481872039051 
1343	 0.545614573255172 
1344	 0.545831479119746 
1345	 0.545919488816524 
1346	 0.545986658999098 
1347	 0.545941870049368 
1348	 0.545820054952727 
1349	 0.54562510997527 
1350	 0.545317564524397 
1351	 0.544998032883139 
1352	 0.54461830303459 
1353	 0.544212954938094 
1354	 0.543754184051872 
1355	 0.543299543230258 
1356	 0.542807659119411 
1357	 0.542322862207704 
1358	 0.541831835252165 
1359	 0.541346534620903 
1360	 0.540874161809547 
1361	 0.54038083914584 
1362	 0.539872979248275 
1363	 0.539376312720521 
1364	 0.538813672747483 
1365	 0.538231767774554 
1366	 0.537568097887824 
1367	 0.536858308593872 
1368	 0.536086558453562 
1369	 0.53524674421624 
1370	 0.534365453611549 
1371	 0.533429996913168 
1372	 0.532468464858174 
1373	 0.531470924576639 
1374	 0.530415389020119 
1375	 0.52930916632228 
1376	 0.528168730049498 
1377	 0.526955114112361 
1378	 0.525735326106091 
1379	 0.524487188789285 
1380	 0.523224933078259 
1381	 0.521951266503569 
1382	 0.52063183065747 
1383	 0.519255164881014 
1384	 0.517907836087855 
1385	 0.516521879612386 
1386	 0.515177898806359 
1387	 0.513791032769583 
1388	 0.512559751932353 
1389	 0.511344518143223 
1390	 0.510288136027021 
1391	 0.509406670539184 
1392	 0.508587095831493 
1393	 0.507924651854875 
1394	 0.507310279705345 
1395	 0.506713228274061 
1396	 0.506240795419923 
1397	 0.505622197605928 
1398	 0.50504606329322 
1399	 0.504226286813567 
1400	 0.503320231521702 
1401	 0.50221615663793 
1402	 0.500920911478782 
1403	 0.499521078158664 
1404	 0.49795703577475 
1405	 0.496344507333288 
1406	 0.494577382987284 
1407	 0.492824795372674 
1408	 0.490926840136827 
1409	 0.489182940643645 
1410	 0.487386062949857 
1411	 0.485793270673509 
1412	 0.484286534395371 
1413	 0.482982611412083 
1414	 0.481820016885379 
1415	 0.480826417452982 
1416	 0.480066283107787 
1417	 0.47935120767222 
1418	 0.478826677982311 
1419	 0.478279301361866 
1420	 0.47781010366359 
1421	 0.47733216696 
1422	 0.476869234799224 
1423	 0.476408284027313 
1424	 0.475960024914279 
1425	 0.475497118401731 
1426	 0.475077950672452 
1427	 0.474681491337525 
1428	 0.474324638119285 
1429	 0.474035708485294 
1430	 0.47376431200672 
1431	 0.473525832390414 
1432	 0.473322425188181 
1433	 0.473160942629618 
1434	 0.473011029618957 
1435	 0.472890235441908 
1436	 0.472788683390418 
1437	 0.472700230953036 
1438	 0.472652029708741 
1439	 0.472643372911381 
1440	 0.472638982430741 
1441	 0.472675443479387 
1442	 0.472689574175457 
1443	 0.472712070203368 
1444	 0.472718427533514 
1445	 0.472725174726583 
1446	 0.472706920079437 
1447	 0.472680106992277 
1448	 0.472626400112164 
1449	 0.472559489420942 
1450	 0.472455060613351 
1451	 0.472335901966044 
1452	 0.472163991191318 
1453	 0.471963558429175 
1454	 0.471701703142164 
1455	 0.471382593253853 
1456	 0.471025927294896 
1457	 0.470603516250038 
1458	 0.470162284483358 
1459	 0.469703316123629 
1460	 0.469187597289929 
1461	 0.468654097382292 
1462	 0.468043327164052 
1463	 0.467403789309438 
1464	 0.466646832416529 
1465	 0.465828183735957 
1466	 0.464870350953496 
1467	 0.463840910290065 
1468	 0.462662939016034 
1469	 0.461324170270343 
1470	 0.459947554133559 
1471	 0.458438553995359 
1472	 0.456801565459986 
1473	 0.455067345204959 
1474	 0.453235759087041 
1475	 0.451295062027568 
1476	 0.449236889141383 
1477	 0.447060737317 
1478	 0.444768647223116 
1479	 0.442424179257844 
1480	 0.439953735418837 
1481	 0.437445419151792 
1482	 0.434853845348874 
1483	 0.432258141769355 
1484	 0.42957101921941 
1485	 0.426925480830875 
1486	 0.424240386992388 
1487	 0.421681234081222 
1488	 0.419068685294824 
1489	 0.416709595228591 
1490	 0.41442190739434 
1491	 0.412433787690279 
1492	 0.41062080485675 
1493	 0.409099945873578 
1494	 0.407873296854106 
1495	 0.406847767367103 
1496	 0.406056293293401 
1497	 0.405505579644732 
1498	 0.405112677052542 
1499	 0.405105757890889 
1500	 0.405215375516796 
1501	 0.405987060516498 
1502	 0.407115751450727 
1503	 0.408900736826479 
1504	 0.41135736631878 
1505	 0.414242214042916 
1506	 0.418017007332305 
1507	 0.421659973286467 
1508	 0.425942310579605 
1509	 0.429769416901827 
1510	 0.433655992535585 
1511	 0.43704106946515 
1512	 0.440105662344364 
1513	 0.442835884914397 
1514	 0.445044963435435 
1515	 0.447149343536223 
1516	 0.448853251227193 
1517	 0.450601833588427 
1518	 0.452175435563938 
1519	 0.453788023099294 
1520	 0.455400275355221 
1521	 0.45700454035248 
1522	 0.458604817064118 
1523	 0.460302477808568 
1524	 0.461939575761838 
1525	 0.463608422196564 
1526	 0.465212643241883 
1527	 0.466789611221421 
1528	 0.468305128767844 
1529	 0.469796403575 
1530	 0.471206645848298 
1531	 0.472553131517739 
1532	 0.473843864269643 
1533	 0.475067662770764 
1534	 0.476263906233054 
1535	 0.477394139425637 
1536	 0.478515734126124 
1537	 0.47959707594071 
1538	 0.480687255436418 
1539	 0.481765480522191 
1540	 0.482815210599565 
1541	 0.483852421730559 
1542	 0.48487692164969 
1543	 0.485873956676649 
1544	 0.486854965453249 
1545	 0.487836281930769 
1546	 0.48878265356273 
1547	 0.489696261486505 
1548	 0.490591079603129 
1549	 0.491469009992841 
1550	 0.492321613959173 
1551	 0.493155923675168 
1552	 0.493943474308738 
1553	 0.494718416279394 
1554	 0.49542163848509 
1555	 0.496068866564587 
1556	 0.496671497912483 
1557	 0.497219640840751 
1558	 0.4977276512987 
1559	 0.498172057490424 
1560	 0.498611745370808 
1561	 0.499011785978446 
1562	 0.499401304096715 
1563	 0.499781349628598 
1564	 0.500128942830063 
1565	 0.500444034409348 
1566	 0.500747615327192 
1567	 0.501022063618585 
1568	 0.501295277504613 
1569	 0.501546376861086 
1570	 0.50180928567851 
1571	 0.502066873634076 
1572	 0.502330917188311 
1573	 0.502595353370438 
1574	 0.502872811254908 
1575	 0.503157687925285 
1576	 0.503446711105977 
1577	 0.503739240538867 
1578	 0.50405064122132 
1579	 0.504374251989602 
1580	 0.504700819161327 
1581	 0.505048045722387 
1582	 0.505389925934032 
1583	 0.505723074255939 
1584	 0.506072568431954 
1585	 0.506429576754826 
1586	 0.506797830228295 
1587	 0.507191007964584 
1588	 0.507564379278015 
1589	 0.507931947691207 
1590	 0.508307135541819 
1591	 0.508679958818942 
1592	 0.509048130645419 
1593	 0.509428278319016 
1594	 0.509794401563376 
1595	 0.510155474890383 
1596	 0.510494746849116 
1597	 0.510818244392687 
1598	 0.511137285690106 
1599	 0.511423277357333 
1600	 0.511730326324068 
1601	 0.512066508652269 
1602	 0.51236649208861 
1603	 0.512663262448055 
1604	 0.512935670012671 
1605	 0.513171998502481 
1606	 0.513404056278763 
1607	 0.513638713090268 
1608	 0.513837867852952 
1609	 0.513992977666739 
1610	 0.51416625118334 
1611	 0.514309756900858 
1612	 0.51447856743041 
1613	 0.514678664966931 
1614	 0.51486508106031 
1615	 0.515079238404516 
1616	 0.515243515025739 
1617	 0.515385606641531 
1618	 0.515504969606635 
1619	 0.515581149684596 
1620	 0.515649038273541 
1621	 0.515715195048833 
1622	 0.515742575730036 
1623	 0.515732090892294 
1624	 0.515714543716153 
1625	 0.515669181673214 
1626	 0.515614371452945 
1627	 0.515546393472684 
1628	 0.515472001655035 
1629	 0.515381094576855 
1630	 0.515283551186096 
1631	 0.51516239220764 
1632	 0.515066987146365 
1633	 0.514969271860396 
1634	 0.51488856296102 
1635	 0.514845931943171 
1636	 0.514784655254964 
1637	 0.514734315295487 
1638	 0.514655072699241 
1639	 0.51457406637019 
1640	 0.514454574717827 
1641	 0.514306355488611 
1642	 0.514132175947979 
1643	 0.51393318802712 
1644	 0.513695083999479 
1645	 0.513429062625896 
1646	 0.513124079833035 
1647	 0.512775749315354 
1648	 0.512397097193415 
1649	 0.512005879611853 
1650	 0.5115385573135 
1651	 0.511030464224551 
1652	 0.510454293597121 
1653	 0.509816318612708 
1654	 0.509101852565791 
1655	 0.508332440212804 
1656	 0.507462826185755 
1657	 0.506495416518079 
1658	 0.50545619812853 
1659	 0.504319443864594 
1660	 0.50313893999318 
1661	 0.501896039786642 
1662	 0.500586316003287 
1663	 0.499191305202348 
1664	 0.497755644390867 
1665	 0.496280901713468 
1666	 0.494698540686123 
1667	 0.493057860859845 
1668	 0.491354955032336 
1669	 0.489574342037981 
1670	 0.487692850209644 
1671	 0.485750282341297 
1672	 0.483669808759068 
1673	 0.481463484451958 
1674	 0.479157815133389 
1675	 0.476755044867854 
1676	 0.474277671484384 
1677	 0.471707372756991 
1678	 0.469019671618633 
1679	 0.46620534076158 
1680	 0.463310820332311 
1681	 0.460314691156258 
1682	 0.457201107295852 
1683	 0.45397902094929 
1684	 0.450746680448129 
1685	 0.447394037247179 
1686	 0.444039470642976 
1687	 0.440627062035304 
1688	 0.437224551315469 
1689	 0.433753777728483 
1690	 0.430343291911057 
1691	 0.426975082054474 
1692	 0.423693945087146 
1693	 0.420476676627524 
1694	 0.417241563891288 
1695	 0.414051541186592 
1696	 0.410818795521946 
1697	 0.407556882177177 
1698	 0.404287812734759 
1699	 0.401019827725591 
1700	 0.397839906107197 
1701	 0.394629092921966 
1702	 0.391562900131424 
1703	 0.388539222134779 
1704	 0.385708670523766 
1705	 0.382975720881109 
1706	 0.38037607422152 
1707	 0.378103623418117 
1708	 0.375938747072794 
1709	 0.373910250530233 
1710	 0.37203166331581 
1711	 0.370147824326367 
1712	 0.368372299706022 
1713	 0.366605316407224 
1714	 0.364870528643786 
1715	 0.363300873649856 
1716	 0.361698876413938 
1717	 0.360171445149245 
1718	 0.358738199530901 
1719	 0.357323380497143 
1720	 0.356052971451963 
1721	 0.354915154271318 
1722	 0.35394257002962 
1723	 0.353216327597462 
1724	 0.352690769364581 
1725	 0.352402181138844 
1726	 0.352453069504402 
1727	 0.352822912218615 
1728	 0.35349280070337 
1729	 0.354531349801817 
1730	 0.35589816327164 
1731	 0.357439337645538 
1732	 0.359260204128019 
1733	 0.361201421961534 
1734	 0.363208528758251 
1735	 0.365310041136265 
1736	 0.367291763684888 
1737	 0.3691713066272 
1738	 0.370868036106889 
1739	 0.372297996863953 
1740	 0.373561121076773 
1741	 0.374564348012715 
1742	 0.375286156961536 
1743	 0.375852179400285 
1744	 0.376138199514085 
1745	 0.376345552488707 
1746	 0.376331720965872 
1747	 0.3763330809543 
1748	 0.376222947866789 
1749	 0.376139384475885 
1750	 0.376000836351967 
1751	 0.375932573021452 
1752	 0.375841611347917 
1753	 0.375879098321917 
1754	 0.375970220389992 
1755	 0.376196892232738 
1756	 0.376488148003536 
1757	 0.376968238416744 
1758	 0.37762910459227 
1759	 0.378457019095098 
1760	 0.379539253307034 
1761	 0.380865007365255 
1762	 0.382318353597808 
1763	 0.384053005896493 
1764	 0.385942637999861 
1765	 0.387952741363968 
1766	 0.39022393941568 
1767	 0.392487296932656 
1768	 0.394845142520226 
1769	 0.397284852277412 
1770	 0.39953744920747 
1771	 0.401811548774932 
1772	 0.403974216311178 
1773	 0.405937955494853 
1774	 0.407929033322656 
1775	 0.409722464734967 
1776	 0.411389538284278 
1777	 0.413005763962809 
1778	 0.414358304419951 
1779	 0.415617818982461 
1780	 0.416792418868073 
1781	 0.417777789652056 
1782	 0.418745062927847 
1783	 0.419642771568996 
1784	 0.420425145298773 
1785	 0.421131940503574 
1786	 0.421717589751102 
1787	 0.422169984510184 
1788	 0.422608279948137 
1789	 0.422956650740552 
1790	 0.423282382246812 
1791	 0.423557825532586 
1792	 0.423818854024972 
1793	 0.424013911208041 
1794	 0.424251369885383 
1795	 0.42449963306494 
1796	 0.424767091828059 
1797	 0.425023282219659 
1798	 0.425265138498681 
1799	 0.425526314350832 
1800	 0.425785512973423 
1801	 0.426381928163271 
1802	 0.426662424931712 
1803	 0.426941187768382 
1804	 0.427222284339325 
1805	 0.427528552373733 
1806	 0.427813335717498 
1807	 0.428092996267692 
1808	 0.428376239766595 
1809	 0.428650689877097 
1810	 0.42893540549748 
1811	 0.429210180470928 
1812	 0.429513568034496 
1813	 0.429814845736536 
1814	 0.430170348489653 
1815	 0.430524711248275 
1816	 0.430886515322313 
1817	 0.431272087205441 
1818	 0.431660668594876 
1819	 0.432076987022952 
1820	 0.432531061364967 
1821	 0.432983362532244 
1822	 0.433441387022379 
1823	 0.433927925593599 
1824	 0.434417387998416 
1825	 0.434915286020537 
1826	 0.435396974405693 
1827	 0.435881130470408 
1828	 0.436346925999909 
1829	 0.436789494966171 
1830	 0.437250507112969 
1831	 0.43769590269687 
1832	 0.438185473052859 
1833	 0.438672882862208 
1834	 0.439151168262703 
1835	 0.439665215937956 
1836	 0.440163417230264 
1837	 0.440676015911077 
1838	 0.441209376630287 
1839	 0.441728096448501 
1840	 0.442246698304005 
1841	 0.442767612713612 
1842	 0.44328394058303 
1843	 0.443803088072725 
1844	 0.444349213052176 
1845	 0.444846080551706 
1846	 0.445314896229224 
1847	 0.445768218997095 
1848	 0.446195519641499 
1849	 0.446603888884694 
1850	 0.446965101032818 
1851	 0.447299127339008 
1852	 0.447607354731603 
1853	 0.447872094205271 
1854	 0.448081999568369 
1855	 0.448280528518989 
1856	 0.448447110366384 
1857	 0.448556309749465 
1858	 0.448619462751713 
1859	 0.448632300743883 
1860	 0.448601447976443 
1861	 0.448514523018816 
1862	 0.448377259288558 
1863	 0.448191714177101 
1864	 0.447941991379482 
1865	 0.447654123419652 
1866	 0.447301083843865 
1867	 0.446863231250754 
1868	 0.446409960349236 
1869	 0.445853355098991 
1870	 0.445203077052567 
1871	 0.444497941511848 
1872	 0.443689874423744 
1873	 0.44277870960466 
1874	 0.441802461325479 
1875	 0.44074542735271 
1876	 0.439468981975641 
1877	 0.438115771993452 
1878	 0.436551647879425 
1879	 0.434739312061999 
1880	 0.432900725863853 
1881	 0.430836280984203 
1882	 0.428551487582428 
1883	 0.426151966552674 
1884	 0.423573661901526 
1885	 0.420707367883552 
1886	 0.417815509929301 
1887	 0.414768959697863 
1888	 0.41163052576316 
1889	 0.408665326119674 
1890	 0.405641770319912 
1891	 0.402661779841261 
1892	 0.39978922932407 
1893	 0.396813748126692 
1894	 0.39375296924913 
1895	 0.390792934867744 
1896	 0.387749703221848 
1897	 0.384633024219319 
1898	 0.381755762281726 
1899	 0.378778410229989 
1900	 0.37587515806129 
1901	 0.373095572972996 
1902	 0.370163665001191 
1903	 0.367376214957093 
1904	 0.364689482815365 
1905	 0.362044682727332 
1906	 0.359495338559059 
1907	 0.357241833337685 
1908	 0.355020041479595 
1909	 0.352918280163624 
1910	 0.350976648535497 
1911	 0.349013464786439 
1912	 0.347227855850324 
1913	 0.345548507028677 
1914	 0.343944287542755 
1915	 0.342502226417483 
1916	 0.341241594077924 
1917	 0.340017206887461 
1918	 0.338899940994644 
1919	 0.337907226212858 
1920	 0.336939178197968 
1921	 0.336092199792013 
1922	 0.335317312361185 
1923	 0.334606228061663 
1924	 0.334021389226947 
1925	 0.333506838502267 
1926	 0.333074161082352 
1927	 0.332746334433888 
1928	 0.332472394064771 
1929	 0.332271010034617 
1930	 0.332131438750885 
1931	 0.332056670491731 
1932	 0.332025348759975 
1933	 0.332052270712975 
1934	 0.332136479191439 
1935	 0.332257870513394 
1936	 0.33242890863428 
1937	 0.332654913779691 
1938	 0.332935764909445 
1939	 0.333247340752962 
1940	 0.333614644876816 
1941	 0.334020041774041 
1942	 0.334410353346184 
1943	 0.33484619694548 
1944	 0.335289429631272 
1945	 0.335734042331216 
1946	 0.336236130564387 
1947	 0.336738925871094 
1948	 0.337248086438013 
1949	 0.337770712634606 
1950	 0.338268619038501 
1951	 0.338756989393815 
1952	 0.339230331980309 
1953	 0.339693992658238 
1954	 0.340139407043388 
1955	 0.340569830684441 
1956	 0.340952953926253 
1957	 0.34131487493028 
1958	 0.34165241723601 
1959	 0.341948422293406 
1960	 0.342218281357894 
1961	 0.342439611777605 
1962	 0.342620349031186 
1963	 0.342760468071154 
1964	 0.342848240786494 
1965	 0.342910805190123 
1966	 0.34293959524846 
1967	 0.342929340712567 
1968	 0.342890611895749 
1969	 0.342855079200547 
1970	 0.34281701001722 
1971	 0.342765070763806 
1972	 0.342707449816216 
1973	 0.342650801302963 
1974	 0.342620921603868 
1975	 0.342578059074533 
1976	 0.342590142726393 
1977	 0.34260380230935 
1978	 0.342712455364929 
1979	 0.342856773056161 
1980	 0.34308699913361 
1981	 0.343422925740038 
1982	 0.343858315020275 
1983	 0.344392935204742 
1984	 0.345047437320238 
1985	 0.345714875742174 
1986	 0.346429256585756 
1987	 0.347115975743862 
1988	 0.347816128852183 
1989	 0.348478046875567 
1990	 0.349166076521611 
1991	 0.349757241805697 
1992	 0.350315355636628 
1993	 0.35080013562104 
1994	 0.351188270118117 
1995	 0.351559722858794 
1996	 0.351886627781435 
1997	 0.352165136302847 
1998	 0.352434705826877 
1999	 0.352692144155358 
2000	 0.352894013107816 
2001	 0.353073180528889 
2002	 0.353194732209326 
2003	 0.35325596009331 
2004	 0.353289019528123 
2005	 0.353280806905448 
2006	 0.353231859752674 
2007	 0.353142338173168 
2008	 0.35302754575587 
2009	 0.352847665740465 
2010	 0.352624352057797 
2011	 0.352374039340483 
2012	 0.352058373461906 
2013	 0.351681443133627 
2014	 0.351274205245985 
2015	 0.35076295378445 
2016	 0.350166947619287 
2017	 0.34950761128344 
2018	 0.348733958911954 
2019	 0.347953794840159 
2020	 0.347144235605379 
2021	 0.346241567149372 
2022	 0.345330017463125 
2023	 0.344379473371455 
2024	 0.343326749009899 
2025	 0.342300170551145 
2026	 0.341247219276004 
2027	 0.340137080548851 
2028	 0.339072618216637 
2029	 0.338051965148718 
2030	 0.336956033614647 
2031	 0.335935976678595 
2032	 0.334727877795662 
2033	 0.333458897632224 
2034	 0.332037961152491 
2035	 0.330493301854549 
2036	 0.328746964835463 
2037	 0.327021073688072 
2038	 0.325094198204041 
2039	 0.323227825229998 
2040	 0.321261040396705 
2041	 0.319441682245038 
2042	 0.317508139606547 
2043	 0.315960961865055 
2044	 0.314540032535364 
2045	 0.313403045012732 
2046	 0.312613003961196 
2047	 0.311885875853104 
2048	 0.311431384094203 
2049	 0.310961733431409 
2050	 0.310616245973492 
2051	 0.310279919608863 
2052	 0.309984796857739 
2053	 0.30971040947971 
2054	 0.309540031631341 
2055	 0.309401233128652 
2056	 0.309417025730156 
2057	 0.309487771461126 
2058	 0.309779535176531 
2059	 0.310200141214652 
2060	 0.310823779245381 
2061	 0.31168521790714 
2062	 0.312635781940656 
2063	 0.313782056877807 
2064	 0.314994435584346 
2065	 0.316329369617589 
2066	 0.317730949859106 
2067	 0.319295879775476 
2068	 0.320859542845641 
2069	 0.322414779069177 
2070	 0.324090583486521 
2071	 0.325584573864489 
2072	 0.32701947595786 
2073	 0.328384927220531 
2074	 0.329647254173212 
2075	 0.330886821894807 
2076	 0.33211608499006 
2077	 0.333212369563058 
2078	 0.334261545361748 
2079	 0.335184764315118 
2080	 0.335941654099603 
2081	 0.336674763372683 
2082	 0.337333387521094 
2083	 0.337903247650351 
2084	 0.338467044747237 
2085	 0.33896253972103 
2086	 0.339390080256361 
2087	 0.339753942596167 
2088	 0.340068214370312 
2089	 0.340307566935549 
2090	 0.340509534944417 
2091	 0.340665817243136 
2092	 0.34077213481357 
2093	 0.340807419899735 
2094	 0.340823964134126 
2095	 0.340817815503844 
2096	 0.34074657286362 
2097	 0.340628355820538 
2098	 0.340465029586412 
2099	 0.34025079425153 
2100	 0.339998660072648 
2101	 0.339699271552488 
2102	 0.339370027105933 
2103	 0.338977769885245 
2104	 0.338505428284601 
2105	 0.338037000454643 
2106	 0.337542543902146 
2107	 0.33700239605571 
2108	 0.33644878735343 
2109	 0.335830712781932 
2110	 0.335152947220001 
2111	 0.334438220781619 
2112	 0.333637968050211 
2113	 0.332861304926235 
2114	 0.332070804342407 
2115	 0.331251113412944 
2116	 0.330428912074097 
2117	 0.329601140473326 
2118	 0.3287028498359 
2119	 0.32773772994121 
2120	 0.326797393298693 
2121	 0.325800064221529 
2122	 0.324868541081541 
2123	 0.32395964988529 
2124	 0.323056266504516 
2125	 0.322209377395219 
2126	 0.321301405380807 
2127	 0.320357998290202 
2128	 0.319444481603495 
2129	 0.31848362628845 
2130	 0.317581680310006 
2131	 0.316765058088888 
2132	 0.315891975580505 
2133	 0.315003217572695 
2134	 0.314149379956705 
2135	 0.313210776941883 
2136	 0.312269249327105 
2137	 0.311340813811044 
2138	 0.310392391250007 
2139	 0.309480098327648 
2140	 0.308578432332397 
2141	 0.307704563732605 
2142	 0.306867955096246 
2143	 0.306015876914063 
2144	 0.305169499796222 
2145	 0.304349986498615 
2146	 0.303507072831009 
2147	 0.302730779512403 
2148	 0.302019373237783 
2149	 0.301299977001742 
2150	 0.300645595523403 
2151	 0.299945446581835 
2152	 0.299220725223961 
2153	 0.298501900838163 
2154	 0.297786913575619 
2155	 0.297049624621852 
2156	 0.296360588145988 
2157	 0.295707929439904 
2158	 0.295039471714716 
2159	 0.294390207280915 
2160	 0.293723594207419 
2161	 0.293029226727724 
2162	 0.292390562460523 
2163	 0.291738325014698 
2164	 0.291164242512041 
2165	 0.290634314210004 
2166	 0.290159623602229 
2167	 0.289740392612469 
2168	 0.289367740126504 
2169	 0.289043003155792 
2170	 0.288778780822218 
2171	 0.288570589202273 
2172	 0.288410909416054 
2173	 0.288322622670152 
2174	 0.288264244004427 
2175	 0.288260496945977 
2176	 0.288269562322737 
2177	 0.288264247584777 
2178	 0.288274989539515 
2179	 0.288284008953051 
2180	 0.288276117452025 
2181	 0.288298064303624 
2182	 0.288348994102742 
2183	 0.288387188186154 
2184	 0.288430159335098 
2185	 0.288471692498306 
2186	 0.288517476902382 
2187	 0.288554787095444 
2188	 0.288600766622812 
2189	 0.28862378428042 
2190	 0.288643656200465 
2191	 0.288632966068358 
2192	 0.288613372336893 
2193	 0.288553092486528 
2194	 0.288462084039776 
2195	 0.288340948537725 
2196	 0.288196782107349 
2197	 0.287997527436342 
2198	 0.287778539547266 
2199	 0.287521803084927 
2200	 0.287176652858238 
2201	 0.286795563815322 
2202	 0.286275773442599 
2203	 0.285654790334973 
2204	 0.284950804786436 
2205	 0.284078287028539 
2206	 0.283273890743071 
2207	 0.28238265730147 
2208	 0.28157744284449 
2209	 0.280705138665297 
2210	 0.280079784833053 
2211	 0.279470576446711 
2212	 0.279165265004606 
2213	 0.279145167698935 
2214	 0.279219918424808 
2215	 0.279585432439002 
2216	 0.279905759642978 
2217	 0.280421862064215 
2218	 0.280786043932332 
2219	 0.281217141110437 
2220	 0.281435009442003 
2221	 0.281540474140756 
2222	 0.281481733558742 
2223	 0.281283107783734 
2224	 0.280923809570055 
2225	 0.280465082066182 
2226	 0.279863963993375 
2227	 0.279082500266123 
2228	 0.278137675901707 
2229	 0.277062047064234 
2230	 0.275763479370319 
2231	 0.274463218373865 
2232	 0.273068425052473 
2233	 0.271563114392068 
2234	 0.270010523533511 
2235	 0.268279353348563 
2236	 0.266367251619355 
2237	 0.264422566525678 
2238	 0.262290269267064 
2239	 0.260221905127315 
2240	 0.258163975916116 
2241	 0.255994796259759 
2242	 0.253838988903477 
2243	 0.251536317025703 
2244	 0.249032043485245 
2245	 0.246593405179432 
2246	 0.244022331317879 
2247	 0.241557746040062 
2248	 0.239189347283602 
2249	 0.236772338954817 
2250	 0.234369497163309 
2251	 0.232011654519297 
2252	 0.22948535351754 
2253	 0.227052709493346 
2254	 0.224581689704894 
2255	 0.222112350255679 
2256	 0.21985778772067 
2257	 0.217544315018114 
2258	 0.215253976569822 
2259	 0.213085850635254 
2260	 0.210732192936123 
2261	 0.208297001806481 
2262	 0.205836121491628 
2263	 0.203258815106954 
2264	 0.200730242712547 
2265	 0.198262149872748 
2266	 0.195598265323044 
2267	 0.192998166057851 
2268	 0.190023862878991 
2269	 0.186829517169756 
2270	 0.183431789757136 
2271	 0.179644568598476 
2272	 0.175902092572653 
2273	 0.172039566902654 
2274	 0.168035136170212 
2275	 0.163910606997711 
2276	 0.159753656559516 
2277	 0.155183608303528 
2278	 0.151104114954493 
2279	 0.146930691742113 
2280	 0.143377913759829 
2281	 0.140277036093832 
2282	 0.137550788544229 
2283	 0.135222451547341 
2284	 0.133448129763816 
2285	 0.131969063135414 
2286	 0.130904107172698 
2287	 0.130299832118703 
2288	 0.130023487288455 
2289	 0.130062779760282 
2290	 0.130389256142137 
2291	 0.130866095585352 
2292	 0.131532396435718 
2293	 0.132355565621818 
2294	 0.133184792146796 
2295	 0.134079859600474 
2296	 0.134939293894055 
2297	 0.135674688061555 
2298	 0.136347491201122 
2299	 0.136951462089617 
2300	 0.137399983695231 
2301	 0.137928020145309 
2302	 0.13840540084972 
2303	 0.138967040977744 
2304	 0.139519567505472 
2305	 0.140224338393867 
2306	 0.140968423385058 
2307	 0.141921539090343 
2308	 0.142975963015683 
2309	 0.144292499223798 
2310	 0.145874283136571 
2311	 0.147510351005568 
2312	 0.149469909719595 
2313	 0.151270931070472 
2314	 0.153140336204643 
2315	 0.154900146356469 
2316	 0.156664144419957 
2317	 0.158221167734494 
2318	 0.159769600326186 
2319	 0.16094827944712 
2320	 0.161899645810948 
2321	 0.162576820231759 
2322	 0.162948341165525 
2323	 0.163075854386261 
2324	 0.162976974115801 
2325	 0.162537137132435 
2326	 0.161793452121622 
2327	 0.160709392069534 
2328	 0.159186272172849 
2329	 0.157477361980254 
2330	 0.155520962861547 
2331	 0.153169924363922 
2332	 0.150591329089158 
2333	 0.147784245040935 
2334	 0.144561548776932 
2335	 0.141310878338859 
2336	 0.137947744679652 
2337	 0.13445137591389 
2338	 0.131175753583315 
2339	 0.127817044097598 
2340	 0.124618862383227 
2341	 0.121824927348999 
2342	 0.119151193893872 
2343	 0.116957001651979 
2344	 0.115138779274868 
2345	 0.113676809756327 
2346	 0.112700805376298 
2347	 0.11208078662488 
2348	 0.111705437162893 
2349	 0.111559269382823 
2350	 0.111516793687628 
2351	 0.111457740485793 
2352	 0.111540146431065 
2353	 0.111647900812282 
2354	 0.111954200325823 
2355	 0.112526524661011 
2356	 0.113354482895887 
2357	 0.114736800212315 
2358	 0.116710507550064 
2359	 0.119218236406997 
2360	 0.122211585656603 
2361	 0.125662595052464 
2362	 0.129063811926185 
2363	 0.132565538598472 
2364	 0.135990000985419 
2365	 0.139116293053943 
2366	 0.142342086128468 
2367	 0.145175884241791 
2368	 0.147783618441516 
2369	 0.150220169540969 
2370	 0.152076115709578 
2371	 0.153770105910944 
2372	 0.155281509394292 
2373	 0.156456093675455 
2374	 0.157553488073917 
2375	 0.1584438694007 
2376	 0.159129068311685 
2377	 0.159684202553684 
2378	 0.16011689794012 
2379	 0.160416518224558 
2380	 0.160682820868106 
2381	 0.160972059968356 
2382	 0.16127763128097 
2383	 0.161572492424596 
2384	 0.161987718366384 
2385	 0.162442065246199 
2386	 0.162985903846858 
2387	 0.163705493119901 
2388	 0.164315243349563 
2389	 0.164928572167903 
2390	 0.165517633577484 
2391	 0.16608148197179 
2392	 0.166564563027921 
2393	 0.167026747491575 
2394	 0.167461591650684 
2395	 0.16777999748173 
2396	 0.168169399131035 
2397	 0.168576367029336 
2398	 0.169004691985956 
2399	 0.169394576946514 
2400	 0.169923013846782 
2401	 0.170565891946716 
2402	 0.17115881954809 
2403	 0.171906826087661 
2404	 0.172508279402189 
2405	 0.173067356124758 
2406	 0.173756611649712 
2407	 0.174221070804214 
2408	 0.174709458474103 
2409	 0.175281595859188 
2410	 0.175607481245067 
2411	 0.175939919758292 
2412	 0.176302939163422 
2413	 0.176550009538368 
2414	 0.176856194720868 
2415	 0.177135820314664 
2416	 0.177359661405899 
2417	 0.177545789627725 
2418	 0.177609617670251 
2419	 0.177683118925942 
2420	 0.17772992747533 
2421	 0.177739565035113 
2422	 0.177872600379155 
2423	 0.177993584067072 
2424	 0.178130161174426 
2425	 0.178299510104113 
2426	 0.178322819228068 
2427	 0.178321837222608 
2428	 0.178310363669474 
2429	 0.178247285266482 
2430	 0.178331581720096 
2431	 0.178433478770983 
2432	 0.178412677965786 
2433	 0.178473247749396 
2434	 0.17849494711085 
2435	 0.178369646111346 
2436	 0.178317123379144 
2437	 0.178338593158872 
2438	 0.178182939872752 
2439	 0.177995329341288 
2440	 0.177889639847813 
2441	 0.177626894117041 
2442	 0.177368275223128 
2443	 0.177191308120928 
2444	 0.177012162229664 
2445	 0.176835327579583 
2446	 0.176622166547444 
2447	 0.176348324073387 
2448	 0.175989427953582 
2449	 0.175675806322732 
2450	 0.175405187519098 
2451	 0.175130986463581 
2452	 0.174785952878307 
2453	 0.174271218502698 
2454	 0.173713183249276 
2455	 0.173324681470466 
2456	 0.173033204913613 
2457	 0.172611879804354 
2458	 0.172166451784076 
2459	 0.171687476284203 
2460	 0.171256738409959 
2461	 0.171027377731448 
2462	 0.170873450865519 
2463	 0.170698906583929 
2464	 0.170378321606075 
2465	 0.17008595646849 
2466	 0.169918182962516 
2467	 0.169670502472407 
2468	 0.16953088253481 
2469	 0.169483889386966 
2470	 0.169379661722653 
2471	 0.169366736497928 
2472	 0.16935576206711 
2473	 0.169325441665964 
2474	 0.169303179993268 
2475	 0.169295231920538 
2476	 0.169471960101736 
2477	 0.169723239004453 
2478	 0.169936919310495 
2479	 0.170257922698716 
2480	 0.170104339347063 
2481	 0.17018948875702 
2482	 0.170422461576225 
2483	 0.170666188482912 
2484	 0.170974590368709 
2485	 0.171184588823378 
2486	 0.171209002212039 
2487	 0.17115605490363 
2488	 0.17133937482358 
2489	 0.171680426423237 
2490	 0.171813653375476 
2491	 0.171985958339704 
2492	 0.172220834859723 
2493	 0.172375724707582 
2494	 0.172603897175456 
2495	 0.172658308325197 
2496	 0.172676073122799 
2497	 0.173002338336619 
2498	 0.173159040615 
2499	 0.173368975266749 
2500	 0.173759626967712 
