Wavelength	spectrum00022.asd
350	 8.41049065010301E-02 
351	 8.07652199561344E-02 
352	 7.91488526550344E-02 
353	 7.84440403593705E-02 
354	 7.60705113808427E-02 
355	 7.54273747095606E-02 
356	 7.38974350657322E-02 
357	 6.98402480299373E-02 
358	 6.81590031349914E-02 
359	 6.78629081834365E-02 
360	 6.75635746882999E-02 
361	 6.60828712783188E-02 
362	 6.57150221354526E-02 
363	 6.47240599761151E-02 
364	 6.28289506307084E-02 
365	 6.20818693123231E-02 
366	 6.29977856507476E-02 
367	 6.33040512253398E-02 
368	 6.16070086453079E-02 
369	 6.15216777929701E-02 
370	 6.18131775784407E-02 
371	 6.19819019460181E-02 
372	 6.19495109878431E-02 
373	 6.13114405873145E-02 
374	 6.12025360547014E-02 
375	 6.15802135131001E-02 
376	 6.05180125331559E-02 
377	 6.02357510100774E-02 
378	 6.05412641125516E-02 
379	 6.06748013043364E-02 
380	 6.02043928246327E-02 
381	 6.04425283608148E-02 
382	 6.06737898924808E-02 
383	 5.93757090442133E-02 
384	 5.99653222719867E-02 
385	 6.04569468418838E-02 
386	 5.97916159771376E-02 
387	 5.92045213577118E-02 
388	 5.94953698596271E-02 
389	 6.00901094332083E-02 
390	 6.01427424253937E-02 
391	 5.93119592120581E-02 
392	 5.95939466956577E-02 
393	 6.06738680774302E-02 
394	 6.07793516638884E-02 
395	 6.02934213705366E-02 
396	 6.01902022766745E-02 
397	 6.07602760342096E-02 
398	 6.11109289786904E-02 
399	 0.060878393406497 
400	 6.07420060889423E-02 
401	 6.12427995136451E-02 
402	 6.08372733317817E-02 
403	 6.12424463938476E-02 
404	 6.22088135818292E-02 
405	 6.20950370595292E-02 
406	 6.21948560118067E-02 
407	 6.25146078561213E-02 
408	 0.062904056439406 
409	 6.33142730480886E-02 
410	 6.35486832020091E-02 
411	 6.37964476770313E-02 
412	 6.43071233206788E-02 
413	 6.49940406911125E-02 
414	 6.52866057864683E-02 
415	 6.53142782067537E-02 
416	 6.58034720420391E-02 
417	 6.63000901528251E-02 
418	 0.066652511192985 
419	 6.68722019450724E-02 
420	 6.71846620157782E-02 
421	 6.77239995161298E-02 
422	 6.83789200223066E-02 
423	 6.89122966574654E-02 
424	 6.90319284256852E-02 
425	 6.93032744750304E-02 
426	 6.98706743708047E-02 
427	 7.03317660702053E-02 
428	 0.07074977113376 
429	 7.11958715803604E-02 
430	 7.16545787801511E-02 
431	 7.17860682367773E-02 
432	 7.21665567536078E-02 
433	 7.27265831100777E-02 
434	 7.30725583644898E-02 
435	 7.35206091226917E-02 
436	 7.39178340192455E-02 
437	 7.42155004643922E-02 
438	 7.46042154640455E-02 
439	 7.49345769714923E-02 
440	 7.52411569052282E-02 
441	 7.55994894887418E-02 
442	 0.076028234549463 
443	 7.64442561170837E-02 
444	 7.68516858783817E-02 
445	 7.73112050747666E-02 
446	 7.75593763174875E-02 
447	 7.78239639520126E-02 
448	 7.82232334986727E-02 
449	 7.84428654752535E-02 
450	 7.87634002489081E-02 
451	 7.91539654529727E-02 
452	 7.94739197535851E-02 
453	 0.079692123424307 
454	 8.00000170634442E-02 
455	 8.04081991032931E-02 
456	 8.07147576525619E-02 
457	 0.080988883739083 
458	 8.11953475802804E-02 
459	 8.13651831499698E-02 
460	 8.17962903891449E-02 
461	 8.21569212709412E-02 
462	 8.23362022811056E-02 
463	 0.08239792363058 
464	 8.26970189247419E-02 
465	 8.30156607805873E-02 
466	 8.32115730143196E-02 
467	 8.33645436431238E-02 
468	 8.34867378171971E-02 
469	 8.36391363738288E-02 
470	 8.38760419195364E-02 
471	 0.084192657124691 
472	 8.44431384104191E-02 
473	 8.45840602420441E-02 
474	 8.46613381278599E-02 
475	 8.46659191213743E-02 
476	 8.47815502390787E-02 
477	 0.085071055969186 
478	 0.085291855836825 
479	 8.54029148964802E-02 
480	 8.55053774345491E-02 
481	 8.57175986392911E-02 
482	 8.58181238813348E-02 
483	 8.59181141333986E-02 
484	 8.60790477496211E-02 
485	 8.62763279520658E-02 
486	 8.64653315990414E-02 
487	 8.65659442622373E-02 
488	 8.65792624382819E-02 
489	 8.67682318640892E-02 
490	 8.69478322112108E-02 
491	 8.70750846728551E-02 
492	 8.71931096517714E-02 
493	 8.72919541693938E-02 
494	 8.73645363222678E-02 
495	 8.74295064147675E-02 
496	 8.75546191892416E-02 
497	 8.75745930878588E-02 
498	 8.75896810085488E-02 
499	 8.77123440449194E-02 
500	 8.77060509098224E-02 
501	 8.77066921501758E-02 
502	 0.087700097662184 
503	 8.75457291179323E-02 
504	 8.75565000599046E-02 
505	 8.75924117799271E-02 
506	 8.75262836825216E-02 
507	 8.74699104055669E-02 
508	 8.73786616541603E-02 
509	 8.72631831059516E-02 
510	 8.71562857768428E-02 
511	 8.70711419645008E-02 
512	 8.69552871265592E-02 
513	 0.08681935831074 
514	 8.67645397888039E-02 
515	 8.65259876530286E-02 
516	 8.62872246612774E-02 
517	 8.62249996158453E-02 
518	 8.60730135357398E-02 
519	 8.58654344878254E-02 
520	 8.56498260896549E-02 
521	 8.54732889239714E-02 
522	 8.52859737265813E-02 
523	 8.50593419133343E-02 
524	 8.48163186315602E-02 
525	 8.46862874217138E-02 
526	 0.084468167411682 
527	 0.08420221190299 
528	 8.40003148820399E-02 
529	 8.38503043402932E-02 
530	 8.36435137772378E-02 
531	 8.33687548716982E-02 
532	 8.31232580896887E-02 
533	 8.29085063335179E-02 
534	 8.27003565456117E-02 
535	 8.24797341165169E-02 
536	 0.082264087856814 
537	 8.20524711616872E-02 
538	 8.18447267630701E-02 
539	 8.16374783223019E-02 
540	 8.13904664340474E-02 
541	 8.11967812639642E-02 
542	 8.10721066366732E-02 
543	 8.08851943138585E-02 
544	 8.07148834377914E-02 
545	 8.05167900463165E-02 
546	 8.02597219975556E-02 
547	 8.01295610586185E-02 
548	 8.00368604251088E-02 
549	 7.99227622337182E-02 
550	 7.97707492200178E-02 
551	 7.96449192237447E-02 
552	 7.95298371813126E-02 
553	 7.94056423937261E-02 
554	 7.92804659566946E-02 
555	 7.91665179733266E-02 
556	 7.90760988517086E-02 
557	 7.90167882817468E-02 
558	 7.89699011836768E-02 
559	 0.078919859579136 
560	 7.88524403239313E-02 
561	 7.87557175929569E-02 
562	 7.85882262095317E-02 
563	 7.83911194630882E-02 
564	 0.078204910177375 
565	 7.79666945428435E-02 
566	 7.77404106649912E-02 
567	 7.75324765868627E-02 
568	 7.73080690232357E-02 
569	 7.71248685033966E-02 
570	 7.69329547671839E-02 
571	 7.67015940929162E-02 
572	 7.64674357420658E-02 
573	 7.63108808989916E-02 
574	 7.61643652483958E-02 
575	 7.59332128363372E-02 
576	 7.57656319203452E-02 
577	 7.55429578215618E-02 
578	 7.52631482131182E-02 
579	 7.50732003790728E-02 
580	 7.49031422234407E-02 
581	 7.46967282975935E-02 
582	 0.074442924460007 
583	 7.42667328199656E-02 
584	 7.40639104400764E-02 
585	 7.38353941360866E-02 
586	 7.36382497464048E-02 
587	 7.34155529738212E-02 
588	 7.32513266466304E-02 
589	 7.31512160334722E-02 
590	 7.29704075670959E-02 
591	 7.27686892332638E-02 
592	 7.25497950562754E-02 
593	 7.23063866664253E-02 
594	 7.20455785832398E-02 
595	 7.17659942526768E-02 
596	 7.14824805126762E-02 
597	 7.12243562263351E-02 
598	 7.09930401910429E-02 
599	 7.07888090173709E-02 
600	 7.06074677952334E-02 
601	 7.04400022274842E-02 
602	 7.02789384987548E-02 
603	 7.01100016186971E-02 
604	 6.99261579585357E-02 
605	 6.97773154663606E-02 
606	 6.96514449364184E-02 
607	 6.95327874208526E-02 
608	 6.94089018667927E-02 
609	 6.92432196525298E-02 
610	 6.90890143938351E-02 
611	 6.89826409666677E-02 
612	 0.068829492219779 
613	 6.86541412037554E-02 
614	 6.84771147875812E-02 
615	 6.83116745573193E-02 
616	 6.81215891727673E-02 
617	 6.79458608198055E-02 
618	 6.78012058126717E-02 
619	 6.76496037354029E-02 
620	 6.74672504347888E-02 
621	 6.72840044867058E-02 
622	 6.71295007121466E-02 
623	 0.066925422651082 
624	 6.67676079718727E-02 
625	 6.66243043365545E-02 
626	 0.06635380359379 
627	 6.61950666831399E-02 
628	 0.066061719265401 
629	 6.58706368197878E-02 
630	 6.57058129564465E-02 
631	 6.55363305659275E-02 
632	 6.53652284230836E-02 
633	 6.52097291223328E-02 
634	 6.50860716107021E-02 
635	 0.064922597941076 
636	 0.064726928118428 
637	 6.46121319843666E-02 
638	 6.44937327849556E-02 
639	 6.43708174727158E-02 
640	 6.42538666483807E-02 
641	 6.41196057565475E-02 
642	 6.40123125851318E-02 
643	 6.39300192709107E-02 
644	 6.38436526753065E-02 
645	 6.37702121259218E-02 
646	 6.36945369285005E-02 
647	 6.36207672793888E-02 
648	 6.35910868773087E-02 
649	 6.35601443333091E-02 
650	 6.35057666101352E-02 
651	 6.34364938534414E-02 
652	 0.063455734510158 
653	 6.34581157696566E-02 
654	 6.34422723513671E-02 
655	 6.34898065550045E-02 
656	 6.35340877836468E-02 
657	 6.35771028138961E-02 
658	 6.36352081664872E-02 
659	 6.37297913208477E-02 
660	 6.38729385821695E-02 
661	 6.40197965127254E-02 
662	 6.41296264587922E-02 
663	 6.43139990489499E-02 
664	 6.45003457446004E-02 
665	 6.46838444419306E-02 
666	 6.49344146022351E-02 
667	 6.51826521099079E-02 
668	 6.54469453782658E-02 
669	 6.57529201820901E-02 
670	 6.61004009972433E-02 
671	 6.64816027679921E-02 
672	 6.68919843304085E-02 
673	 6.73326498637429E-02 
674	 6.78278641259594E-02 
675	 6.83403892342056E-02 
676	 0.068875165510897 
677	 6.94921223008678E-02 
678	 7.01063716513968E-02 
679	 7.07700311515503E-02 
680	 7.15317939435953E-02 
681	 7.23318832602484E-02 
682	 7.31709352893032E-02 
683	 7.40555416133728E-02 
684	 7.50010536422017E-02 
685	 7.60415405104328E-02 
686	 0.077159945350272 
687	 7.83482072382507E-02 
688	 7.96198421984079E-02 
689	 8.09575379473789E-02 
690	 0.082397105806155 
691	 8.39713785890164E-02 
692	 0.085651246850471 
693	 8.74176585775132E-02 
694	 8.92959146545781E-02 
695	 9.13304546680614E-02 
696	 9.34945747284185E-02 
697	 9.58093890233826E-02 
698	 9.82942904556833E-02 
699	 0.100959060099177 
700	 0.103795391268092 
701	 0.106809340308819 
702	 0.11002205732473 
703	 0.113486346776954 
704	 0.1171722166909 
705	 0.121072875328237 
706	 0.125201523325263 
707	 0.129597658440708 
708	 0.134268517795555 
709	 0.139213653563107 
710	 0.144423704508406 
711	 0.149946027729179 
712	 0.155755466584098 
713	 0.161824792589539 
714	 0.168227310154836 
715	 0.174938864935413 
716	 0.181943284873281 
717	 0.189233815764719 
718	 0.196902506819952 
719	 0.204880645740809 
720	 0.213129608237373 
721	 0.221697892809156 
722	 0.230496617338283 
723	 0.239546796706587 
724	 0.248876385284534 
725	 0.258442779864672 
726	 0.268242351029718 
727	 0.27826205047357 
728	 0.288465811335355 
729	 0.298650448495987 
730	 0.308954309798796 
731	 0.31943898008091 
732	 0.329968242736118 
733	 0.340529791319968 
734	 0.351054865080772 
735	 0.361515306896997 
736	 0.372053849171143 
737	 0.382454969768257 
738	 0.392694244505559 
739	 0.402865567922259 
740	 0.41291398499793 
741	 0.422734101215454 
742	 0.432299701707954 
743	 0.441732381772019 
744	 0.45092680450247 
745	 0.459868686069915 
746	 0.468545812994555 
747	 0.476882155662027 
748	 0.484940905906988 
749	 0.492829027368991 
750	 0.500616086133056 
751	 0.507954107797326 
752	 0.514845443561655 
753	 0.521457930292162 
754	 0.52810285208519 
755	 0.534478439040367 
756	 0.540545834102206 
757	 0.546353452249367 
758	 0.551991475224857 
759	 0.557319995048732 
760	 0.562360216568354 
761	 0.567216859621839 
762	 0.571978815561859 
763	 0.576511352051144 
764	 0.580799285968393 
765	 0.584988574667463 
766	 0.589043670639988 
767	 0.592928684935967 
768	 0.596621248466529 
769	 0.600108433120717 
770	 0.603589936461904 
771	 0.606940396816079 
772	 0.609988916741795 
773	 0.612982661565627 
774	 0.615992363693344 
775	 0.618918333824095 
776	 0.621560633853033 
777	 0.624179086003699 
778	 0.626722349766915 
779	 0.629136244280631 
780	 0.63142857385755 
781	 0.633780217253375 
782	 0.636119139452618 
783	 0.638316645993339 
784	 0.640327551125948 
785	 0.642299054048556 
786	 0.644253551540289 
787	 0.646136527858173 
788	 0.64794956341356 
789	 0.64973434703166 
790	 0.651461817257932 
791	 0.65302807752597 
792	 0.654625705065649 
793	 0.656277034496823 
794	 0.65792017334558 
795	 0.659384065084592 
796	 0.660817829830648 
797	 0.662281730460361 
798	 0.663767773663748 
799	 0.665126291221225 
800	 0.666393979336695 
801	 0.667639789743455 
802	 0.668933175442321 
803	 0.670151373735046 
804	 0.671382922979276 
805	 0.672637241013088 
806	 0.673767281645066 
807	 0.674970860035749 
808	 0.676113787943915 
809	 0.677105314063936 
810	 0.678234110319591 
811	 0.679322885466921 
812	 0.68035237830263 
813	 0.681368325609113 
814	 0.682349700024876 
815	 0.683313473678059 
816	 0.684279989701063 
817	 0.685262767249348 
818	 0.686203757743257 
819	 0.687131377644163 
820	 0.688070276251256 
821	 0.689015623692869 
822	 0.68996534562415 
823	 0.690904000893703 
824	 0.691796776205975 
825	 0.692542999017953 
826	 0.693428300966835 
827	 0.694375031834955 
828	 0.695180244140468 
829	 0.696024159287571 
830	 0.696821702124152 
831	 0.69753822208051 
832	 0.698205895522362 
833	 0.698913985740104 
834	 0.699683941374367 
835	 0.70048075006006 
836	 0.701208612691847 
837	 0.701941384182323 
838	 0.702655974444904 
839	 0.70334393387545 
840	 0.704121566073502 
841	 0.704752688484706 
842	 0.705337810653284 
843	 0.706052299417044 
844	 0.70668177752064 
845	 0.707394097242491 
846	 0.708135054014092 
847	 0.708705504729547 
848	 0.709248587441281 
849	 0.709753122940316 
850	 0.710264751210138 
851	 0.710905857903928 
852	 0.7115049710189 
853	 0.712110867425185 
854	 0.712741133947555 
855	 0.713245504033785 
856	 0.713792733610669 
857	 0.71434496096158 
858	 0.714840437084647 
859	 0.71537082041558 
860	 0.716016206958934 
861	 0.716665803178137 
862	 0.717142782062778 
863	 0.717526714219686 
864	 0.717908642715186 
865	 0.718417604164049 
866	 0.719150974797995 
867	 0.719628003769234 
868	 0.719997225252261 
869	 0.720436895550806 
870	 0.721022261792768 
871	 0.721535237706516 
872	 0.721970219677124 
873	 0.722395936307962 
874	 0.722933385654037 
875	 0.72338051618688 
876	 0.723794462438879 
877	 0.724260052550759 
878	 0.724643048459956 
879	 0.725039514689765 
880	 0.725407872546979 
881	 0.72567942059215 
882	 0.726010201764878 
883	 0.726438357215691 
884	 0.726893895479322 
885	 0.727242966503348 
886	 0.727495855251299 
887	 0.727761722717473 
888	 0.728052198680327 
889	 0.728269422953097 
890	 0.728701172537706 
891	 0.729107130233723 
892	 0.729288616120405 
893	 0.729288441582729 
894	 0.729424218050313 
895	 0.72968543045606 
896	 0.729954050863601 
897	 0.730098401362202 
898	 0.730186362959072 
899	 0.730332218712494 
900	 0.73058059886233 
901	 0.730653970677649 
902	 0.73078115515247 
903	 0.73092917893312 
904	 0.730970222008685 
905	 0.731055993022379 
906	 0.731042824710367 
907	 0.73100340964218 
908	 0.731148175604684 
909	 0.731421409036416 
910	 0.731588066343966 
911	 0.731633136597888 
912	 0.731772989089091 
913	 0.732016916794911 
914	 0.732084358621705 
915	 0.731997625082506 
916	 0.732218292510693 
917	 0.732395403085798 
918	 0.73258663550011 
919	 0.732847827961019 
920	 0.733085215625731 
921	 0.733228500204446 
922	 0.733399795726033 
923	 0.733691675222132 
924	 0.73398475443509 
925	 0.734334403701887 
926	 0.734669724936359 
927	 0.734941169595942 
928	 0.735284898302782 
929	 0.735777157755606 
930	 0.736324855373355 
931	 0.736800060962251 
932	 0.737279158945141 
933	 0.737784603709696 
934	 0.738328535236548 
935	 0.738905462321245 
936	 0.739464068872631 
937	 0.740027972489257 
938	 0.740657843364811 
939	 0.741396380440883 
940	 0.742052708865564 
941	 0.742590334139237 
942	 0.743052805843462 
943	 0.743525249751952 
944	 0.743922202638077 
945	 0.744325013108281 
946	 0.744734919214522 
947	 0.745062249163754 
948	 0.745405729705311 
949	 0.745639078508457 
950	 0.745815780437927 
951	 0.746208454602418 
952	 0.746355082451177 
953	 0.74648311384064 
954	 0.74669734117279 
955	 0.746749847901847 
956	 0.746796515472982 
957	 0.7467980384368 
958	 0.746749531768959 
959	 0.746764147830634 
960	 0.746900384703483 
961	 0.74694572553421 
962	 0.74680227328997 
963	 0.746721430627364 
964	 0.746621404526689 
965	 0.746635087913951 
966	 0.746791201077365 
967	 0.74678745161161 
968	 0.746777233021547 
969	 0.74683263470112 
970	 0.746959617854766 
971	 0.747067320120562 
972	 0.747001722315284 
973	 0.746962269590807 
974	 0.747153119026924 
975	 0.747483819101829 
976	 0.747609043424808 
977	 0.747584952367351 
978	 0.747582093497232 
979	 0.747630647043555 
980	 0.747776806088631 
981	 0.747941667010025 
982	 0.748046825704072 
983	 0.748157307863606 
984	 0.748366292609001 
985	 0.748606339996599 
986	 0.748792850798485 
987	 0.749017059592915 
988	 0.749039024931599 
989	 0.749052353308263 
990	 0.749267982025313 
991	 0.749398307476804 
992	 0.749482406486055 
993	 0.749546204791676 
994	 0.749631296740181 
995	 0.749830903320121 
996	 0.749969287235635 
997	 0.749949869667666 
998	 0.749840101547211 
999	 0.750100331241384 
1000	 0.750244856861584 
1001	 0.761062310221425 
1002	 0.76113179414639 
1003	 0.761251130043195 
1004	 0.761339918428827 
1005	 0.761389461410041 
1006	 0.761467017395525 
1007	 0.761569540247608 
1008	 0.761634122199791 
1009	 0.76168858941268 
1010	 0.761743539633878 
1011	 0.761747910689056 
1012	 0.76180955356558 
1013	 0.761905425986022 
1014	 0.761999265471441 
1015	 0.762109026723759 
1016	 0.762250678264941 
1017	 0.762374439279795 
1018	 0.762435206199969 
1019	 0.762520432713338 
1020	 0.762623911640148 
1021	 0.762723464880212 
1022	 0.762835238598476 
1023	 0.762934094832073 
1024	 0.76303014295033 
1025	 0.763122494548781 
1026	 0.763221983254123 
1027	 0.763288321039139 
1028	 0.763333921538331 
1029	 0.763381465699677 
1030	 0.763409035422667 
1031	 0.763480959009301 
1032	 0.763600768570482 
1033	 0.763669604781937 
1034	 0.763708265007395 
1035	 0.763783342520542 
1036	 0.763858621623782 
1037	 0.763902344914191 
1038	 0.764006713375512 
1039	 0.764170780890329 
1040	 0.764309379255469 
1041	 0.764433586095953 
1042	 0.764602765923074 
1043	 0.764815769947432 
1044	 0.764969095573213 
1045	 0.765162602591063 
1046	 0.765415363869352 
1047	 0.765622930011847 
1048	 0.765883862046069 
1049	 0.766127052231125 
1050	 0.766391122429483 
1051	 0.766717862620093 
1052	 0.76697396008476 
1053	 0.767246363883535 
1054	 0.767533774167633 
1055	 0.767812415168711 
1056	 0.768060355513191 
1057	 0.768368508964585 
1058	 0.768717139270559 
1059	 0.769026978092237 
1060	 0.769366655940278 
1061	 0.769728397860082 
1062	 0.770038472099218 
1063	 0.770357443782067 
1064	 0.770700186963561 
1065	 0.770975384287786 
1066	 0.771230385145668 
1067	 0.771551091111538 
1068	 0.771847390156348 
1069	 0.772121111197208 
1070	 0.772419008932032 
1071	 0.772745243584843 
1072	 0.773015292602746 
1073	 0.773282441437405 
1074	 0.773606546052465 
1075	 0.773893689186841 
1076	 0.774159646107998 
1077	 0.774455417125646 
1078	 0.774733288696031 
1079	 0.774992129186202 
1080	 0.775264089992967 
1081	 0.775528038936624 
1082	 0.775775037546973 
1083	 0.776000873183989 
1084	 0.776208546210971 
1085	 0.776411357661968 
1086	 0.776606924520622 
1087	 0.776778942078212 
1088	 0.776960792163477 
1089	 0.777161771596385 
1090	 0.777347269500815 
1091	 0.777493602242905 
1092	 0.777619696207975 
1093	 0.777735784519728 
1094	 0.777838024783344 
1095	 0.777965484187224 
1096	 0.778097389724135 
1097	 0.778200252558423 
1098	 0.778264826158255 
1099	 0.778330107254481 
1100	 0.778393386126608 
1101	 0.778408686755079 
1102	 0.778451018908013 
1103	 0.778482737202421 
1104	 0.778506153305667 
1105	 0.778488710548197 
1106	 0.778505452083914 
1107	 0.778497658842251 
1108	 0.778476417519137 
1109	 0.778471778304004 
1110	 0.778434425406272 
1111	 0.778400197599011 
1112	 0.778351377390962 
1113	 0.778239325603829 
1114	 0.778106421583187 
1115	 0.777964135429775 
1116	 0.777801343811551 
1117	 0.777637418828724 
1118	 0.777471251632585 
1119	 0.777335784328866 
1120	 0.777133397780404 
1121	 0.77691470723688 
1122	 0.776643845677802 
1123	 0.776295318350693 
1124	 0.775907919434948 
1125	 0.775471931674453 
1126	 0.775015483153956 
1127	 0.774525607386664 
1128	 0.773950175480143 
1129	 0.773352461226976 
1130	 0.772696521129141 
1131	 0.77197987327096 
1132	 0.771250241818565 
1133	 0.770442680981289 
1134	 0.769603310411663 
1135	 0.768705141007611 
1136	 0.767743621348124 
1137	 0.766754676234021 
1138	 0.765734782078142 
1139	 0.764636625178985 
1140	 0.763464575928729 
1141	 0.76233144246555 
1142	 0.761101318625851 
1143	 0.759856073608433 
1144	 0.758590644251935 
1145	 0.757201880012265 
1146	 0.755835434490232 
1147	 0.754394253016087 
1148	 0.752907239489861 
1149	 0.751520899457237 
1150	 0.750058898258683 
1151	 0.74858370702872 
1152	 0.747085740743633 
1153	 0.745561512722404 
1154	 0.744014933746835 
1155	 0.742458755697354 
1156	 0.740849300746079 
1157	 0.739226360446359 
1158	 0.737585045598639 
1159	 0.735879130785521 
1160	 0.734184950342322 
1161	 0.732515012191642 
1162	 0.730725823928448 
1163	 0.729032230741423 
1164	 0.72734326964723 
1165	 0.725636086403816 
1166	 0.72409903039061 
1167	 0.722527446323499 
1168	 0.720969427037046 
1169	 0.71940818174678 
1170	 0.717861790113941 
1171	 0.716288670275235 
1172	 0.71472974464485 
1173	 0.713104894113241 
1174	 0.711455499572466 
1175	 0.709819683654351 
1176	 0.708166539075638 
1177	 0.706468399541449 
1178	 0.704800369915368 
1179	 0.702999357190531 
1180	 0.701216079418716 
1181	 0.699351186128399 
1182	 0.697416593009212 
1183	 0.695619109919661 
1184	 0.693740548865278 
1185	 0.691890110072318 
1186	 0.690121520941232 
1187	 0.688373212177185 
1188	 0.686736113262231 
1189	 0.685153233698859 
1190	 0.683686035300099 
1191	 0.682321905918229 
1192	 0.681074584398844 
1193	 0.679945741497833 
1194	 0.678870458473327 
1195	 0.677897428170731 
1196	 0.676969561453996 
1197	 0.676104393020871 
1198	 0.67528892431493 
1199	 0.674508336119935 
1200	 0.673849437027955 
1201	 0.673212833458768 
1202	 0.672647176840528 
1203	 0.672195233719919 
1204	 0.671828932223522 
1205	 0.671639807274156 
1206	 0.671535576518011 
1207	 0.671682078327724 
1208	 0.671975193930675 
1209	 0.672530434868498 
1210	 0.673245202307517 
1211	 0.674300418498155 
1212	 0.675639455063226 
1213	 0.67722889363566 
1214	 0.679105620565473 
1215	 0.681242191694075 
1216	 0.683714450200479 
1217	 0.686275163267084 
1218	 0.689110343986513 
1219	 0.692054008645925 
1220	 0.695033097684939 
1221	 0.698233330562244 
1222	 0.701376183025185 
1223	 0.704593269199847 
1224	 0.707700735093381 
1225	 0.710807679279746 
1226	 0.713716714908577 
1227	 0.716571157351117 
1228	 0.719252750729351 
1229	 0.721787142292249 
1230	 0.724201197917925 
1231	 0.726489184580721 
1232	 0.728659533066264 
1233	 0.73067864782171 
1234	 0.732573808557791 
1235	 0.734349318516676 
1236	 0.736014045114159 
1237	 0.737530072981701 
1238	 0.73897262787926 
1239	 0.740297800045223 
1240	 0.741551722226006 
1241	 0.742779065235624 
1242	 0.743864793973815 
1243	 0.744918641071801 
1244	 0.745919649673958 
1245	 0.746854054669836 
1246	 0.74770665892279 
1247	 0.748522250361286 
1248	 0.749283515023139 
1249	 0.750006921790009 
1250	 0.75068493698867 
1251	 0.75129426066911 
1252	 0.751845810442364 
1253	 0.752369319488448 
1254	 0.752828935012441 
1255	 0.753262573181159 
1256	 0.753674078475921 
1257	 0.754042883254424 
1258	 0.754339760179626 
1259	 0.75464093727864 
1260	 0.754924717536855 
1261	 0.755189427167852 
1262	 0.755433976152026 
1263	 0.755671330618377 
1264	 0.755890240016733 
1265	 0.756071820878394 
1266	 0.756291768593845 
1267	 0.756512534669938 
1268	 0.756743203328335 
1269	 0.756998374743377 
1270	 0.757234754364084 
1271	 0.757459909977015 
1272	 0.757698618875808 
1273	 0.757936546309384 
1274	 0.758183472244015 
1275	 0.758456416892537 
1276	 0.758696988378547 
1277	 0.758908257180051 
1278	 0.759149285094977 
1279	 0.759384343558461 
1280	 0.759629881372954 
1281	 0.759898908153391 
1282	 0.760170543497926 
1283	 0.760443771024 
1284	 0.760714887232447 
1285	 0.760989554625945 
1286	 0.76128165784569 
1287	 0.761549533977573 
1288	 0.761805497870501 
1289	 0.762059278844175 
1290	 0.762309546717267 
1291	 0.76254670722226 
1292	 0.762775128266624 
1293	 0.762995947165048 
1294	 0.763209963882149 
1295	 0.763408378862403 
1296	 0.763599374919226 
1297	 0.76377455660705 
1298	 0.763929772365528 
1299	 0.764081892713918 
1300	 0.764229357965626 
1301	 0.764359773294491 
1302	 0.764481520824173 
1303	 0.76458771980434 
1304	 0.764697622810754 
1305	 0.764761551836783 
1306	 0.764814045235754 
1307	 0.764818675117029 
1308	 0.764766114597089 
1309	 0.764693514642717 
1310	 0.764612634448465 
1311	 0.764500364870871 
1312	 0.764391191195479 
1313	 0.764281682286659 
1314	 0.764146456516714 
1315	 0.763995091590461 
1316	 0.763829186032368 
1317	 0.763636379247414 
1318	 0.763456578840149 
1319	 0.763287911678211 
1320	 0.763076420298376 
1321	 0.762868984606291 
1322	 0.762611858494575 
1323	 0.762322950323373 
1324	 0.761988830903596 
1325	 0.761625396920552 
1326	 0.761217686235098 
1327	 0.760756470423714 
1328	 0.760271362845601 
1329	 0.759747032112275 
1330	 0.75920631383225 
1331	 0.758654530737202 
1332	 0.758055240274078 
1333	 0.757435105796336 
1334	 0.756764653125946 
1335	 0.756069452263035 
1336	 0.755343447576677 
1337	 0.754550267437721 
1338	 0.75372635464457 
1339	 0.752841628677656 
1340	 0.751899029003842 
1341	 0.750896559998154 
1342	 0.749854212698787 
1343	 0.748738064980706 
1344	 0.747558973238438 
1345	 0.746305312535058 
1346	 0.744976252251634 
1347	 0.743618730311198 
1348	 0.742203423419371 
1349	 0.740730570629319 
1350	 0.739208001782173 
1351	 0.737644845588324 
1352	 0.736009751454919 
1353	 0.734349408898966 
1354	 0.732638219779989 
1355	 0.730936595233568 
1356	 0.729188234244951 
1357	 0.727455207313804 
1358	 0.72571581547395 
1359	 0.72399563437283 
1360	 0.722300242914172 
1361	 0.720584599352751 
1362	 0.718850824459828 
1363	 0.717185410511444 
1364	 0.715415949735816 
1365	 0.713639550940964 
1366	 0.711735402355836 
1367	 0.709767851151448 
1368	 0.707716407144898 
1369	 0.705584563828981 
1370	 0.703350360992463 
1371	 0.701033672438385 
1372	 0.69866614238258 
1373	 0.696202766886588 
1374	 0.693681566323453 
1375	 0.691069522950941 
1376	 0.688449081902183 
1377	 0.685769878859775 
1378	 0.683018746951619 
1379	 0.680219399207811 
1380	 0.677399166298145 
1381	 0.674479186355281 
1382	 0.671576558033478 
1383	 0.668647264511333 
1384	 0.665762979418184 
1385	 0.662839464282753 
1386	 0.660016490096411 
1387	 0.657192748544467 
1388	 0.654565211019142 
1389	 0.652035506165432 
1390	 0.649638496872184 
1391	 0.647466113900942 
1392	 0.645285706163203 
1393	 0.643291755676111 
1394	 0.64128741150393 
1395	 0.63922471817251 
1396	 0.637270185315916 
1397	 0.635041913218875 
1398	 0.632780955589882 
1399	 0.630147382940889 
1400	 0.62733173352925 
1401	 0.624194974124631 
1402	 0.620766105738799 
1403	 0.61707126054558 
1404	 0.613065651010844 
1405	 0.608959382097092 
1406	 0.604500055862519 
1407	 0.600135960656774 
1408	 0.595463630502241 
1409	 0.591224873901338 
1410	 0.586894934491708 
1411	 0.583139508883228 
1412	 0.579681527099096 
1413	 0.576729006959422 
1414	 0.574254139784615 
1415	 0.572067240360273 
1416	 0.570446335282053 
1417	 0.568864457839873 
1418	 0.567653404631449 
1419	 0.566368126469777 
1420	 0.565215436174224 
1421	 0.564044077738734 
1422	 0.562850699804594 
1423	 0.561704698584768 
1424	 0.560614002873167 
1425	 0.559489951545406 
1426	 0.558463246206407 
1427	 0.557487131159531 
1428	 0.556557649842885 
1429	 0.555757338887456 
1430	 0.555020219592931 
1431	 0.554347933952503 
1432	 0.553771044480236 
1433	 0.553285255852316 
1434	 0.552883296791547 
1435	 0.552559619947968 
1436	 0.55232752849085 
1437	 0.552200505192513 
1438	 0.552127248012859 
1439	 0.552142559101243 
1440	 0.552194944795993 
1441	 0.552322068024011 
1442	 0.552471027486317 
1443	 0.552661215900767 
1444	 0.552896479754371 
1445	 0.553180154618845 
1446	 0.55348631890335 
1447	 0.553834203979269 
1448	 0.554210155570298 
1449	 0.554627321396184 
1450	 0.555048618730809 
1451	 0.555508058740005 
1452	 0.555964133714073 
1453	 0.556440378317881 
1454	 0.5568890790568 
1455	 0.557324621806066 
1456	 0.557774688551555 
1457	 0.558208324506173 
1458	 0.558658820225676 
1459	 0.559136347656783 
1460	 0.559608708850066 
1461	 0.560066523551879 
1462	 0.560543810187695 
1463	 0.561029600729749 
1464	 0.56153001615499 
1465	 0.562028203445841 
1466	 0.562584770767769 
1467	 0.563107409112311 
1468	 0.563649068291687 
1469	 0.564208658919971 
1470	 0.56472753020721 
1471	 0.565250217930462 
1472	 0.565782336468092 
1473	 0.566275588292986 
1474	 0.566748203258878 
1475	 0.567199355719695 
1476	 0.567639356158664 
1477	 0.568032474706146 
1478	 0.568400452939049 
1479	 0.568715179441092 
1480	 0.568985425259679 
1481	 0.569222703564353 
1482	 0.569404293856136 
1483	 0.569587202496658 
1484	 0.569748969572498 
1485	 0.569880577439963 
1486	 0.569986723030426 
1487	 0.570082762311921 
1488	 0.570120571368032 
1489	 0.570213025807388 
1490	 0.570313749169987 
1491	 0.570437336237946 
1492	 0.5705832603776 
1493	 0.57075230233008 
1494	 0.570936096958471 
1495	 0.571144484185146 
1496	 0.571377837946069 
1497	 0.571637043322393 
1498	 0.57191508107046 
1499	 0.572226170840829 
1500	 0.572572827324568 
1501	 0.572937256718285 
1502	 0.573325417594016 
1503	 0.573735777087091 
1504	 0.574169352178191 
1505	 0.574625865608403 
1506	 0.575130526952079 
1507	 0.575616530057343 
1508	 0.576113157201143 
1509	 0.576607840698245 
1510	 0.57708553777058 
1511	 0.577578443280436 
1512	 0.578086885443027 
1513	 0.578593271070898 
1514	 0.579114174680819 
1515	 0.579621300443666 
1516	 0.580121318025191 
1517	 0.580619311392737 
1518	 0.581098805393324 
1519	 0.581589611738359 
1520	 0.582080601886684 
1521	 0.582583767430428 
1522	 0.583077898837404 
1523	 0.583611599438926 
1524	 0.58413789874396 
1525	 0.584667629353311 
1526	 0.585222480785443 
1527	 0.585789747474278 
1528	 0.586371837921726 
1529	 0.586969428079316 
1530	 0.587592309447693 
1531	 0.588236929017829 
1532	 0.588884752349632 
1533	 0.589558063397126 
1534	 0.590227073490752 
1535	 0.590902891762855 
1536	 0.591562336909298 
1537	 0.592232833237457 
1538	 0.592874757223763 
1539	 0.593499774725406 
1540	 0.594105368478615 
1541	 0.594706128078721 
1542	 0.595263436422446 
1543	 0.595804861011181 
1544	 0.596280892294689 
1545	 0.596714431967795 
1546	 0.59710488568794 
1547	 0.597435308492397 
1548	 0.597744662974027 
1549	 0.598021840115063 
1550	 0.598261748016946 
1551	 0.598464512827848 
1552	 0.598633399374569 
1553	 0.598753911101249 
1554	 0.598870435198039 
1555	 0.59894470371121 
1556	 0.599036923154938 
1557	 0.599116457465974 
1558	 0.599213288625372 
1559	 0.599297761029853 
1560	 0.599429772731062 
1561	 0.599570173240236 
1562	 0.599766318777906 
1563	 0.600017159317776 
1564	 0.600278290457796 
1565	 0.600586210228376 
1566	 0.600888378917198 
1567	 0.601190533758411 
1568	 0.601529405086377 
1569	 0.601902081985922 
1570	 0.60226575005676 
1571	 0.602665181578822 
1572	 0.603035134407681 
1573	 0.603375819152864 
1574	 0.60373947763566 
1575	 0.604121684729536 
1576	 0.604476064520102 
1577	 0.604825190558162 
1578	 0.605171998939566 
1579	 0.605493101919648 
1580	 0.605824792173947 
1581	 0.606171169992416 
1582	 0.606504857788034 
1583	 0.606820034133755 
1584	 0.607153230278635 
1585	 0.607495480774087 
1586	 0.607833649831942 
1587	 0.6081896856705 
1588	 0.608521689047117 
1589	 0.608819269310864 
1590	 0.609150363425995 
1591	 0.609483874923197 
1592	 0.609830333396183 
1593	 0.610218090385992 
1594	 0.610577878185315 
1595	 0.610917452989703 
1596	 0.611270435699106 
1597	 0.61163392041266 
1598	 0.611976379812126 
1599	 0.612318320089498 
1600	 0.612652353123541 
1601	 0.612971107366362 
1602	 0.613277140194268 
1603	 0.613586713732127 
1604	 0.613870444678342 
1605	 0.614127119917082 
1606	 0.614374037141766 
1607	 0.614608209489268 
1608	 0.614828020548541 
1609	 0.615043994882487 
1610	 0.615224252854298 
1611	 0.615382193630896 
1612	 0.615513347580118 
1613	 0.615608686118862 
1614	 0.615688644656119 
1615	 0.615751448103648 
1616	 0.615787615301835 
1617	 0.615794050490153 
1618	 0.615785745772054 
1619	 0.615757720825274 
1620	 0.615705634380995 
1621	 0.615629946182856 
1622	 0.615542780061246 
1623	 0.615443575539606 
1624	 0.615309451942454 
1625	 0.615142251459538 
1626	 0.614973435244059 
1627	 0.61477666694521 
1628	 0.614572709860266 
1629	 0.614364997230119 
1630	 0.614149332782416 
1631	 0.613903371057629 
1632	 0.613674127296315 
1633	 0.613468664271043 
1634	 0.613233673412841 
1635	 0.612994289613712 
1636	 0.612737534050015 
1637	 0.612481612846141 
1638	 0.612170154129406 
1639	 0.611815236912221 
1640	 0.611452815864889 
1641	 0.611059047166222 
1642	 0.610632130521241 
1643	 0.610203710203924 
1644	 0.6097278516756 
1645	 0.609215124654669 
1646	 0.608643198574225 
1647	 0.608052836291886 
1648	 0.607367245834929 
1649	 0.606617625247057 
1650	 0.60576815142531 
1651	 0.604824484009694 
1652	 0.603821654736403 
1653	 0.602740452073981 
1654	 0.601571351731558 
1655	 0.600330856086951 
1656	 0.598988203856643 
1657	 0.597569371657724 
1658	 0.596011337383092 
1659	 0.594344045235162 
1660	 0.592581284664772 
1661	 0.590707500170535 
1662	 0.58869515436119 
1663	 0.586559977860238 
1664	 0.584296396170907 
1665	 0.581909332364954 
1666	 0.579344416375002 
1667	 0.576637022017157 
1668	 0.573831603600471 
1669	 0.570871787864875 
1670	 0.567781733147556 
1671	 0.5645546844503 
1672	 0.561220085294626 
1673	 0.557751440863572 
1674	 0.554142795102744 
1675	 0.550427923903747 
1676	 0.54665587466173 
1677	 0.542755159496555 
1678	 0.538755700415698 
1679	 0.534667084130436 
1680	 0.530452851231104 
1681	 0.526101055003078 
1682	 0.521633437021042 
1683	 0.517068267844543 
1684	 0.512474563685141 
1685	 0.507746692996608 
1686	 0.502998364210957 
1687	 0.498135493948238 
1688	 0.493328291586629 
1689	 0.488489057490416 
1690	 0.483649535714153 
1691	 0.478881119799129 
1692	 0.474145148079512 
1693	 0.469418946140739 
1694	 0.46463451795649 
1695	 0.459856309343105 
1696	 0.454985663141111 
1697	 0.450027563043494 
1698	 0.445013041860499 
1699	 0.439931549737777 
1700	 0.435031412578369 
1701	 0.43004326521329 
1702	 0.425346650745424 
1703	 0.420760508548899 
1704	 0.416463426209588 
1705	 0.412336553234573 
1706	 0.408424226328184 
1707	 0.405042609814138 
1708	 0.401801640132577 
1709	 0.398787794161774 
1710	 0.396092006918131 
1711	 0.393381901146313 
1712	 0.390861538840433 
1713	 0.388423087714075 
1714	 0.385968279611517 
1715	 0.383770739505501 
1716	 0.381602755401566 
1717	 0.379531318233663 
1718	 0.377658072783199 
1719	 0.375854921981042 
1720	 0.374277435931828 
1721	 0.372975448797619 
1722	 0.371944941082843 
1723	 0.371292530134174 
1724	 0.370984082377967 
1725	 0.371023985983529 
1726	 0.371559782526824 
1727	 0.372550680289792 
1728	 0.37392586863184 
1729	 0.375796658561017 
1730	 0.378076838379357 
1731	 0.380496049474328 
1732	 0.383234065972589 
1733	 0.386041472387338 
1734	 0.388818808254821 
1735	 0.391696582836149 
1736	 0.394361915956263 
1737	 0.396806113722242 
1738	 0.398942433676339 
1739	 0.400671358971869 
1740	 0.402090032483744 
1741	 0.40314274553669 
1742	 0.403750961609302 
1743	 0.404160467640596 
1744	 0.40418523071896 
1745	 0.404081164144537 
1746	 0.40367906529524 
1747	 0.403275680766021 
1748	 0.402680676345267 
1749	 0.402136075453174 
1750	 0.401493159653481 
1751	 0.400969668469848 
1752	 0.400419291301646 
1753	 0.400067403308361 
1754	 0.399803796592356 
1755	 0.399770205417522 
1756	 0.399854666083088 
1757	 0.400191482137869 
1758	 0.400818321932536 
1759	 0.401676444240568 
1760	 0.402893265915527 
1761	 0.404494720629275 
1762	 0.406277200269175 
1763	 0.408390383325109 
1764	 0.410728388045797 
1765	 0.413215166178026 
1766	 0.416029187388698 
1767	 0.418873685971754 
1768	 0.421785136681777 
1769	 0.424755519435037 
1770	 0.427472407215551 
1771	 0.430163337222548 
1772	 0.432741751167757 
1773	 0.435126470890011 
1774	 0.437511243629121 
1775	 0.4396687073951 
1776	 0.441733820081366 
1777	 0.443662723418737 
1778	 0.445293884772106 
1779	 0.446865889867577 
1780	 0.448256895713172 
1781	 0.449488372295285 
1782	 0.45068055059246 
1783	 0.451695181138646 
1784	 0.452622506388385 
1785	 0.453373387238514 
1786	 0.454023758997987 
1787	 0.454528266788124 
1788	 0.455021680965401 
1789	 0.455415026273827 
1790	 0.455804669690603 
1791	 0.45617479584386 
1792	 0.456528307498985 
1793	 0.456826060060723 
1794	 0.457164115251466 
1795	 0.457472947523636 
1796	 0.457762413924533 
1797	 0.458066750621849 
1798	 0.458376649115229 
1799	 0.458707301479465 
1800	 0.459064333057819 
1801	 0.461932510590458 
1802	 0.462327674765989 
1803	 0.46270855627359 
1804	 0.463087531469536 
1805	 0.463488014494783 
1806	 0.46386187455785 
1807	 0.464223696386984 
1808	 0.464577935778227 
1809	 0.464913967738641 
1810	 0.465268135034811 
1811	 0.465604746511161 
1812	 0.465973318958248 
1813	 0.466360610501679 
1814	 0.466769721218223 
1815	 0.467169055963691 
1816	 0.467608224891636 
1817	 0.468063249599394 
1818	 0.468532315510659 
1819	 0.469016237107839 
1820	 0.46952304357265 
1821	 0.470043125918804 
1822	 0.470572087002779 
1823	 0.471133679511007 
1824	 0.47169160928471 
1825	 0.472270487030207 
1826	 0.472816486057006 
1827	 0.473359479781444 
1828	 0.4738654808739 
1829	 0.474317227766271 
1830	 0.474816894498962 
1831	 0.475306212557603 
1832	 0.475827277602727 
1833	 0.476348640891449 
1834	 0.47688249309725 
1835	 0.477410548444184 
1836	 0.477896526955222 
1837	 0.478410941925325 
1838	 0.478939844304843 
1839	 0.4794721523651 
1840	 0.480020391082683 
1841	 0.480554489716135 
1842	 0.481097710676692 
1843	 0.481617534450976 
1844	 0.482137525425422 
1845	 0.482626711380028 
1846	 0.483093110047687 
1847	 0.483531020201509 
1848	 0.483934783762944 
1849	 0.484326547812139 
1850	 0.484635769808152 
1851	 0.484896613896989 
1852	 0.485122770486003 
1853	 0.485279871762955 
1854	 0.485380204277259 
1855	 0.485405059281935 
1856	 0.485377117560728 
1857	 0.485300005803752 
1858	 0.485135736643983 
1859	 0.484929127259319 
1860	 0.484713159670547 
1861	 0.484377909385911 
1862	 0.483964549788568 
1863	 0.48347400484822 
1864	 0.482877337078365 
1865	 0.482216422026336 
1866	 0.481464968930486 
1867	 0.480562469886115 
1868	 0.479597517637166 
1869	 0.478488962598051 
1870	 0.477263426365224 
1871	 0.475934745274185 
1872	 0.474510715686329 
1873	 0.472968715236905 
1874	 0.471356009768661 
1875	 0.469652805815221 
1876	 0.467704652733547 
1877	 0.465710072969005 
1878	 0.463496222103132 
1879	 0.461030913615573 
1880	 0.458545701502015 
1881	 0.455813009419909 
1882	 0.452861446698841 
1883	 0.449749537394488 
1884	 0.446391849299949 
1885	 0.442600923256308 
1886	 0.43869268887441 
1887	 0.434460045266395 
1888	 0.429909479146014 
1889	 0.425522999749188 
1890	 0.420848626252972 
1891	 0.416148201694945 
1892	 0.411495433367293 
1893	 0.406685388868263 
1894	 0.401655834442711 
1895	 0.396851240130354 
1896	 0.391944722365282 
1897	 0.387052921869586 
1898	 0.382612799651802 
1899	 0.378098499390871 
1900	 0.373742598809638 
1901	 0.369615876624654 
1902	 0.365291006529386 
1903	 0.361212278963944 
1904	 0.357279411405086 
1905	 0.353427349946009 
1906	 0.349704296414342 
1907	 0.34642124253078 
1908	 0.343172508360978 
1909	 0.340100266406862 
1910	 0.337255846640921 
1911	 0.334331986269239 
1912	 0.331609426154355 
1913	 0.328994177682949 
1914	 0.326423423810723 
1915	 0.324064105258024 
1916	 0.32193677256902 
1917	 0.319830171929966 
1918	 0.317822222838557 
1919	 0.315944279337478 
1920	 0.314036576517693 
1921	 0.312276034996226 
1922	 0.310575310437955 
1923	 0.308927151151686 
1924	 0.307487483137956 
1925	 0.306099438137623 
1926	 0.304800709902389 
1927	 0.303639671446846 
1928	 0.302514529491269 
1929	 0.301430129099582 
1930	 0.300455236924484 
1931	 0.299560058621167 
1932	 0.298745413304952 
1933	 0.298100824476595 
1934	 0.297522348653838 
1935	 0.29702429710443 
1936	 0.296655897429797 
1937	 0.296348363381808 
1938	 0.296100768720787 
1939	 0.295966235502117 
1940	 0.295939674124362 
1941	 0.295971942321955 
1942	 0.296078702203281 
1943	 0.296281272846265 
1944	 0.296526802301598 
1945	 0.296832275484775 
1946	 0.297229419247805 
1947	 0.2976588876094 
1948	 0.298162566242449 
1949	 0.298731912663032 
1950	 0.299290816628386 
1951	 0.299876760060566 
1952	 0.300487882871442 
1953	 0.301104257686989 
1954	 0.301747084437246 
1955	 0.302469856786997 
1956	 0.3031959676307 
1957	 0.303961887774202 
1958	 0.304733218316248 
1959	 0.305451863690758 
1960	 0.30618639250982 
1961	 0.306905539889493 
1962	 0.307574124892163 
1963	 0.308306997142236 
1964	 0.309070610862844 
1965	 0.309815630508129 
1966	 0.310587958044763 
1967	 0.311365798797393 
1968	 0.312055425567242 
1969	 0.312782058280564 
1970	 0.313515826652537 
1971	 0.314201390529326 
1972	 0.314937171603337 
1973	 0.315674479582757 
1974	 0.316396337450547 
1975	 0.317124719744021 
1976	 0.317828042683986 
1977	 0.318508380055601 
1978	 0.319196009217081 
1979	 0.31986981057262 
1980	 0.320539736635295 
1981	 0.321246292285113 
1982	 0.321902515904751 
1983	 0.322560274133103 
1984	 0.323224723911986 
1985	 0.323832904467939 
1986	 0.324440480334411 
1987	 0.325038933054549 
1988	 0.325610381640373 
1989	 0.326194330691622 
1990	 0.326784787329352 
1991	 0.327361170770053 
1992	 0.327955432452992 
1993	 0.328506539213704 
1994	 0.328998561950867 
1995	 0.329489184498374 
1996	 0.329925698172027 
1997	 0.330344173446804 
1998	 0.330774217965069 
1999	 0.331210147183981 
2000	 0.331611850266722 
2001	 0.332014337544088 
2002	 0.33237610060147 
2003	 0.332706780125927 
2004	 0.333019597601979 
2005	 0.333297955409618 
2006	 0.333568586494901 
2007	 0.333831680330677 
2008	 0.334066805401914 
2009	 0.334267251208019 
2010	 0.334417414809949 
2011	 0.334528813862243 
2012	 0.334599107139603 
2013	 0.334621509619806 
2014	 0.334629991772265 
2015	 0.33455011951632 
2016	 0.334418446048097 
2017	 0.334195473085911 
2018	 0.333888847454276 
2019	 0.333517194003385 
2020	 0.333075293494916 
2021	 0.332546955360286 
2022	 0.331962181394239 
2023	 0.331296244007845 
2024	 0.330514813763084 
2025	 0.329704222071018 
2026	 0.32881931840549 
2027	 0.327817091143576 
2028	 0.326850303135613 
2029	 0.325829846242213 
2030	 0.324815006647694 
2031	 0.323789751267719 
2032	 0.32278194152764 
2033	 0.321706085388079 
2034	 0.32074536301056 
2035	 0.31983279576381 
2036	 0.31895222851708 
2037	 0.318180001167778 
2038	 0.317484202583573 
2039	 0.316883748153586 
2040	 0.316375396135232 
2041	 0.31593338701425 
2042	 0.315580271795155 
2043	 0.315310287274534 
2044	 0.31510676079914 
2045	 0.314994200397645 
2046	 0.315009143464407 
2047	 0.315042052031459 
2048	 0.315131994918693 
2049	 0.315290392162549 
2050	 0.315517041409035 
2051	 0.315779123115233 
2052	 0.316123487810313 
2053	 0.316500392941708 
2054	 0.31688108649405 
2055	 0.317287291128532 
2056	 0.317715435679284 
2057	 0.318150959227507 
2058	 0.318636924187754 
2059	 0.319165889696641 
2060	 0.319699491650025 
2061	 0.320287891776547 
2062	 0.320851959884829 
2063	 0.321420570204064 
2064	 0.321988801418338 
2065	 0.322562659381511 
2066	 0.323116656257649 
2067	 0.323688746131007 
2068	 0.32423918097177 
2069	 0.324771624735335 
2070	 0.325308004787402 
2071	 0.325786762176945 
2072	 0.326228848977083 
2073	 0.326655129516588 
2074	 0.327031143133356 
2075	 0.327418829625845 
2076	 0.327810617923817 
2077	 0.328160480408448 
2078	 0.328503283886542 
2079	 0.32880719079548 
2080	 0.329074572862778 
2081	 0.329314280633412 
2082	 0.329525629760641 
2083	 0.32969550758064 
2084	 0.329856968935121 
2085	 0.329978680129868 
2086	 0.33009336038776 
2087	 0.330203729124116 
2088	 0.330265499533452 
2089	 0.33029493174049 
2090	 0.330301917480343 
2091	 0.330266405184928 
2092	 0.330222968933608 
2093	 0.330164253279239 
2094	 0.330084085953554 
2095	 0.329989864256718 
2096	 0.329862245706062 
2097	 0.329714437890982 
2098	 0.329526478372258 
2099	 0.329328618185488 
2100	 0.329091063792633 
2101	 0.328833190758711 
2102	 0.328560487961241 
2103	 0.328246128141486 
2104	 0.327888576232899 
2105	 0.327521689141834 
2106	 0.327135606373689 
2107	 0.326711389083379 
2108	 0.326271378440391 
2109	 0.325781590745385 
2110	 0.325231172512276 
2111	 0.324678575991593 
2112	 0.324081027566678 
2113	 0.323491129329999 
2114	 0.322913335450414 
2115	 0.322293097315446 
2116	 0.321648025770149 
2117	 0.320988387455775 
2118	 0.320309662667975 
2119	 0.31958336280675 
2120	 0.318898742998135 
2121	 0.318198665794583 
2122	 0.31754989841164 
2123	 0.316934044964858 
2124	 0.316318832853405 
2125	 0.315742538328114 
2126	 0.315150131818413 
2127	 0.314557263818979 
2128	 0.313963428597551 
2129	 0.31336025886717 
2130	 0.312777597936611 
2131	 0.312215186315927 
2132	 0.311633139474385 
2133	 0.311064415774443 
2134	 0.310488803056533 
2135	 0.309849062136192 
2136	 0.309226253776263 
2137	 0.308590253844007 
2138	 0.307934759443904 
2139	 0.307282455980794 
2140	 0.306613804615222 
2141	 0.305980979842569 
2142	 0.305348334907341 
2143	 0.304741126220786 
2144	 0.30415093853401 
2145	 0.303604044002961 
2146	 0.303071518764872 
2147	 0.302582531354998 
2148	 0.302143879467666 
2149	 0.301728013973251 
2150	 0.301369746852451 
2151	 0.300991612709259 
2152	 0.300619651757966 
2153	 0.300282614082941 
2154	 0.299929529976667 
2155	 0.299546397800308 
2156	 0.299182876364904 
2157	 0.298842762044769 
2158	 0.298454879481161 
2159	 0.298041821792222 
2160	 0.29764118695436 
2161	 0.297219355665134 
2162	 0.296814479061768 
2163	 0.296389807437521 
2164	 0.296032493606005 
2165	 0.295696024843648 
2166	 0.295388776033917 
2167	 0.295145876972739 
2168	 0.294900140043729 
2169	 0.294632456336798 
2170	 0.294436794363926 
2171	 0.294274753366624 
2172	 0.294165918170733 
2173	 0.294119182025668 
2174	 0.294109478009236 
2175	 0.294115430621947 
2176	 0.294181406233098 
2177	 0.294286549174293 
2178	 0.294426315209856 
2179	 0.294614502962562 
2180	 0.294874634260037 
2181	 0.295121097044927 
2182	 0.295405229288118 
2183	 0.295682179422983 
2184	 0.295960350644145 
2185	 0.296259132310368 
2186	 0.296573991267458 
2187	 0.296893810789116 
2188	 0.297236125765672 
2189	 0.297573466959671 
2190	 0.297931176310728 
2191	 0.29826036204847 
2192	 0.298571564926521 
2193	 0.298885530844731 
2194	 0.299194118351783 
2195	 0.299483860715995 
2196	 0.299760675216756 
2197	 0.300059769111067 
2198	 0.300301471036864 
2199	 0.300515556672889 
2200	 0.30070681509521 
2201	 0.300871360042 
2202	 0.301011978410109 
2203	 0.301131133229444 
2204	 0.301210665592183 
2205	 0.301246471821438 
2206	 0.301290359414058 
2207	 0.301299002764513 
2208	 0.301322238553704 
2209	 0.301372967193266 
2210	 0.301364033564555 
2211	 0.301329439774247 
2212	 0.301274668717619 
2213	 0.301185196087742 
2214	 0.301075677207954 
2215	 0.30096729675079 
2216	 0.300796759117734 
2217	 0.300588875227303 
2218	 0.300333709161776 
2219	 0.300044088556373 
2220	 0.299690503929114 
2221	 0.299292626989989 
2222	 0.298820190126515 
2223	 0.298306750541597 
2224	 0.29768278898852 
2225	 0.297030741043457 
2226	 0.296311553807408 
2227	 0.295453986592222 
2228	 0.294509327247497 
2229	 0.293459892865373 
2230	 0.292258936059316 
2231	 0.291016894845632 
2232	 0.289715159280649 
2233	 0.288274439429772 
2234	 0.286785595104391 
2235	 0.285075189676833 
2236	 0.283202368396879 
2237	 0.281202578491731 
2238	 0.278963531977856 
2239	 0.276709467005152 
2240	 0.274381438294721 
2241	 0.271913716767713 
2242	 0.269398810244724 
2243	 0.26668492501073 
2244	 0.263759227901115 
2245	 0.26078527806253 
2246	 0.257570574378896 
2247	 0.254422113799743 
2248	 0.251249358988864 
2249	 0.248038905042047 
2250	 0.244811592913861 
2251	 0.241621528841376 
2252	 0.238177152303355 
2253	 0.234851914691257 
2254	 0.231491481343316 
2255	 0.228075837743612 
2256	 0.224995520578187 
2257	 0.221964122074256 
2258	 0.219036173134904 
2259	 0.216310697845535 
2260	 0.21350264152967 
2261	 0.210683986925683 
2262	 0.208000985858076 
2263	 0.205303480060161 
2264	 0.202827350654062 
2265	 0.200549206102524 
2266	 0.19826747617514 
2267	 0.196162538634515 
2268	 0.193979183478315 
2269	 0.1917636035994 
2270	 0.189661301504231 
2271	 0.187541215719844 
2272	 0.185563959113151 
2273	 0.18375947226334 
2274	 0.181916798854441 
2275	 0.180200248999364 
2276	 0.178397896787218 
2277	 0.176549937133101 
2278	 0.174725617526342 
2279	 0.172830877660713 
2280	 0.171010019544832 
2281	 0.169275871779682 
2282	 0.167482350963145 
2283	 0.165704016014205 
2284	 0.163935733892131 
2285	 0.162005419575622 
2286	 0.16016042778138 
2287	 0.158219172362602 
2288	 0.156213568512746 
2289	 0.154344923262579 
2290	 0.152326047336426 
2291	 0.15034539601821 
2292	 0.148447597830724 
2293	 0.146410385647597 
2294	 0.144468846408687 
2295	 0.14258721110392 
2296	 0.140685108484207 
2297	 0.139027272158608 
2298	 0.13748690414983 
2299	 0.136158794704708 
2300	 0.135010688020376 
2301	 0.134092998109956 
2302	 0.1333325008086 
2303	 0.132907911335008 
2304	 0.13274680820525 
2305	 0.132867995242178 
2306	 0.13333539764947 
2307	 0.13398989629417 
2308	 0.134896737326362 
2309	 0.136074965524912 
2310	 0.13757409143594 
2311	 0.139186283723795 
2312	 0.141233438523455 
2313	 0.143066281002751 
2314	 0.145011069358658 
2315	 0.146814703990143 
2316	 0.148548667193439 
2317	 0.150157895366956 
2318	 0.151783372484579 
2319	 0.153089840594843 
2320	 0.154215779055963 
2321	 0.155112401797071 
2322	 0.155706862302692 
2323	 0.156184527198948 
2324	 0.156433883720732 
2325	 0.156576319610377 
2326	 0.156587817688631 
2327	 0.156401855372682 
2328	 0.155982293252298 
2329	 0.155512758660362 
2330	 0.154925617603643 
2331	 0.154130835657284 
2332	 0.153249074456356 
2333	 0.152253818402865 
2334	 0.15097262084592 
2335	 0.149625348801231 
2336	 0.14823427218839 
2337	 0.146800097432013 
2338	 0.145434288754223 
2339	 0.143999944287591 
2340	 0.14260675068069 
2341	 0.141270956529941 
2342	 0.139932241067943 
2343	 0.138822787580428 
2344	 0.137975871469911 
2345	 0.137360690043142 
2346	 0.137079744187213 
2347	 0.137156314121113 
2348	 0.137447388229171 
2349	 0.138109774249179 
2350	 0.139118576304542 
2351	 0.140286992105852 
2352	 0.1415812235353 
2353	 0.142964177628901 
2354	 0.14426207304366 
2355	 0.145540332053267 
2356	 0.146808686519817 
2357	 0.147909281804712 
2358	 0.148892921773094 
2359	 0.14963766321883 
2360	 0.150198405771103 
2361	 0.150593228889708 
2362	 0.150842549424457 
2363	 0.151066091119466 
2364	 0.151296812497342 
2365	 0.151444271150982 
2366	 0.1515158853286 
2367	 0.151612519895885 
2368	 0.151632134026407 
2369	 0.151660091100771 
2370	 0.151762722484292 
2371	 0.151847021419342 
2372	 0.151891195823188 
2373	 0.15188891842434 
2374	 0.151867931563931 
2375	 0.151851538848239 
2376	 0.151951377680836 
2377	 0.1521191168103 
2378	 0.152246590313589 
2379	 0.152439083009554 
2380	 0.152488189400379 
2381	 0.152446878553057 
2382	 0.152528110622261 
2383	 0.15261396735561 
2384	 0.152744863852227 
2385	 0.153033710378651 
2386	 0.153214494595412 
2387	 0.153375495741264 
2388	 0.1535578109644 
2389	 0.153674055714996 
2390	 0.153788576758821 
2391	 0.15394684603337 
2392	 0.154035262853293 
2393	 0.154088961283827 
2394	 0.154197078639278 
2395	 0.154276965673389 
2396	 0.154361004337757 
2397	 0.154485512744906 
2398	 0.154532765744387 
2399	 0.1545215633407 
2400	 0.154529130833766 
2401	 0.154475757540503 
2402	 0.15445004644146 
2403	 0.154575580066873 
2404	 0.154474952357018 
2405	 0.154484564601862 
2406	 0.154529265712312 
2407	 0.154465397173377 
2408	 0.154621724249377 
2409	 0.154774101395924 
2410	 0.154876753472956 
2411	 0.155035939757588 
2412	 0.155127014886821 
2413	 0.155184718949748 
2414	 0.155164355013832 
2415	 0.155158237704627 
2416	 0.155239366370045 
2417	 0.155251512860487 
2418	 0.155352188929527 
2419	 0.155431094599108 
2420	 0.155351863783943 
2421	 0.155340578803183 
2422	 0.155420181319014 
2423	 0.155520195984715 
2424	 0.155652267968184 
2425	 0.155805650151927 
2426	 0.155815313461535 
2427	 0.155771056784779 
2428	 0.155822394374884 
2429	 0.155812821401643 
2430	 0.155764412786658 
2431	 0.155676667676492 
2432	 0.155376668281762 
2433	 0.155080519114898 
2434	 0.155024231560699 
2435	 0.154982513915824 
2436	 0.154973397905362 
2437	 0.155091204028672 
2438	 0.15491321646837 
2439	 0.154535794570322 
2440	 0.154273473605983 
2441	 0.153903595197813 
2442	 0.153553449931313 
2443	 0.153303512651376 
2444	 0.15296817929461 
2445	 0.152545941500756 
2446	 0.15217963102283 
2447	 0.151918055370758 
2448	 0.151613658677937 
2449	 0.151237091271833 
2450	 0.150787676344816 
2451	 0.150242899040426 
2452	 0.149786368453775 
2453	 0.149462018753207 
2454	 0.149089380711231 
2455	 0.148766095859457 
2456	 0.148358079172088 
2457	 0.147811833998893 
2458	 0.147442735270872 
2459	 0.147169630891344 
2460	 0.146770564434429 
2461	 0.146386799590283 
2462	 0.146089900971184 
2463	 0.145637363091673 
2464	 0.145333488674866 
2465	 0.145320101089563 
2466	 0.145245552336908 
2467	 0.145179859251688 
2468	 0.145084435060239 
2469	 0.144882566162687 
2470	 0.144674756545142 
2471	 0.144399965022377 
2472	 0.144267238356281 
2473	 0.144353788388061 
2474	 0.144368105538565 
2475	 0.144325393236226 
2476	 0.144218095572017 
2477	 0.143857928826435 
2478	 0.143418462844842 
2479	 0.143276283731646 
2480	 0.143411534718856 
2481	 0.143373873688898 
2482	 0.143376152378101 
2483	 0.143355617002769 
2484	 0.1433166760837 
2485	 0.143339449841335 
2486	 0.143349829574665 
2487	 0.143304894520817 
2488	 0.143314871555748 
2489	 0.143315474559031 
2490	 0.143392030963069 
2491	 0.143573355355055 
2492	 0.143446563002613 
2493	 0.142980639059326 
2494	 0.143069573357153 
2495	 0.143257232463332 
2496	 0.143086342481695 
2497	 0.143630095489777 
2498	 0.143979444241049 
2499	 0.143875471335723 
2500	 0.144267789847554 
