Wavelength	spectrum00019.asd
350	 0.122108293404561 
351	 0.118098638636273 
352	 0.114350561597805 
353	 0.113918646313067 
354	 0.11547886860281 
355	 0.115360077069657 
356	 0.114511755489449 
357	 0.114129730939015 
358	 0.112398853412733 
359	 0.111719308688025 
360	 0.112505144398844 
361	 0.113871558613787 
362	 0.114258206644208 
363	 0.113644633827116 
364	 0.113078058747047 
365	 0.1146811732567 
366	 0.117472111043985 
367	 0.118833092273027 
368	 0.117808586025827 
369	 0.11990598178176 
370	 0.121503096857663 
371	 0.122427350365027 
372	 0.124270949247467 
373	 0.125233701202046 
374	 0.126534006084636 
375	 0.128609434500433 
376	 0.130347485043338 
377	 0.13271708873891 
378	 0.134160922118805 
379	 0.133915614764346 
380	 0.136069303686404 
381	 0.138105845521809 
382	 0.139717005874455 
383	 0.141962743347031 
384	 0.144514568729454 
385	 0.146834256302163 
386	 0.148557527200041 
387	 0.149545640048845 
388	 0.151594147367794 
389	 0.153961053278954 
390	 0.155519074664284 
391	 0.156393775746877 
392	 0.158472220657798 
393	 0.161405546122598 
394	 0.163479477243667 
395	 0.165540335840437 
396	 0.167554618896085 
397	 0.169562226544566 
398	 0.171920532138555 
399	 0.173899656156448 
400	 0.17575760634346 
401	 0.177920033690825 
402	 0.180202725314113 
403	 0.182692058828096 
404	 0.185332572048836 
405	 0.187944015163918 
406	 0.190056426375609 
407	 0.192172365999016 
408	 0.194573618492862 
409	 0.196821127049084 
410	 0.199294898852828 
411	 0.201849665242174 
412	 0.20427655805634 
413	 0.206960004504315 
414	 0.20962232554389 
415	 0.21232894311543 
416	 0.215429477019441 
417	 0.218257176756155 
418	 0.220938890354032 
419	 0.223675638143795 
420	 0.226507352465019 
421	 0.229303581917459 
422	 0.232257307519056 
423	 0.235549931533756 
424	 0.238391761203787 
425	 0.241206140748501 
426	 0.24417061682135 
427	 0.24707433995975 
428	 0.250040485957588 
429	 0.253063465952436 
430	 0.256090073314773 
431	 0.259014443701886 
432	 0.262157312824979 
433	 0.265399481831444 
434	 0.268415851178631 
435	 0.271341257402002 
436	 0.274389384965418 
437	 0.277570786382966 
438	 0.280555285251772 
439	 0.283625170357811 
440	 0.286696535669965 
441	 0.289627984032958 
442	 0.292498464435548 
443	 0.295335001236409 
444	 0.29822436197935 
445	 0.30128100374934 
446	 0.304253797691286 
447	 0.30702371256356 
448	 0.309635042461489 
449	 0.312434106625301 
450	 0.315107860475079 
451	 0.317706930553294 
452	 0.320366460354138 
453	 0.32283729572674 
454	 0.32529318353 
455	 0.32774778727494 
456	 0.330019774970663 
457	 0.332202906136825 
458	 0.334370748179787 
459	 0.33651529709363 
460	 0.338366881843301 
461	 0.340259693320869 
462	 0.342121272194003 
463	 0.34368110983793 
464	 0.345095634978151 
465	 0.346503305371609 
466	 0.34784925358614 
467	 0.348782501705234 
468	 0.349699665423968 
469	 0.350633937005325 
470	 0.351489414790692 
471	 0.352148395272325 
472	 0.35246953466565 
473	 0.352597915127228 
474	 0.352862768999718 
475	 0.35278926468852 
476	 0.352470278707628 
477	 0.352037217392967 
478	 0.351503180551891 
479	 0.350739633401905 
480	 0.349762924980466 
481	 0.34864112194405 
482	 0.347353947757573 
483	 0.345919207164823 
484	 0.344328149602436 
485	 0.342545461823338 
486	 0.340688252667407 
487	 0.338653137422736 
488	 0.336351229088339 
489	 0.333887388907876 
490	 0.33132141951368 
491	 0.328618642749636 
492	 0.325706681224365 
493	 0.322767988196771 
494	 0.319686539106822 
495	 0.316410321572795 
496	 0.313056095405575 
497	 0.309650829975791 
498	 0.306120319040527 
499	 0.302412527285601 
500	 0.298706103621878 
501	 0.294921741636323 
502	 0.291042772030966 
503	 0.287116494188826 
504	 0.283218808432916 
505	 0.279237103741684 
506	 0.275139085220724 
507	 0.271176590916498 
508	 0.267183823778919 
509	 0.263126701285235 
510	 0.259043350285091 
511	 0.255008274194071 
512	 0.251004799111161 
513	 0.247033449701341 
514	 0.243120853067753 
515	 0.23915986150401 
516	 0.235216775055205 
517	 0.231369155028741 
518	 0.227575545374137 
519	 0.223818601930088 
520	 0.220141664394195 
521	 0.216609603975575 
522	 0.213023000517578 
523	 0.209462777352642 
524	 0.206013840418273 
525	 0.202686661117944 
526	 0.199355500504902 
527	 0.196093286200602 
528	 0.19300248419548 
529	 0.189925840208816 
530	 0.18689209197284 
531	 0.183934062432839 
532	 0.181080206981236 
533	 0.178253215860473 
534	 0.175454529077024 
535	 0.172716946048629 
536	 0.170091434903354 
537	 0.167548835308769 
538	 0.1650572222755 
539	 0.162592171356233 
540	 0.160233552300259 
541	 0.157988170651421 
542	 0.155839542493821 
543	 0.153753304895457 
544	 0.151736781161798 
545	 0.149764836051027 
546	 0.147826252847417 
547	 0.145994814585408 
548	 0.144255274797652 
549	 0.142574699749657 
550	 0.14091252785585 
551	 0.139323440729781 
552	 0.137797733496874 
553	 0.136314634801318 
554	 0.134859246126906 
555	 0.133477127630717 
556	 0.132155120958761 
557	 0.130861032298275 
558	 0.129632276319429 
559	 0.128506336210217 
560	 0.127461632539862 
561	 0.12639780238476 
562	 0.125366035795097 
563	 0.124391944747797 
564	 0.123484387284211 
565	 0.122616522706475 
566	 0.121758277182427 
567	 0.120932103603943 
568	 0.120191182606683 
569	 0.119435971832662 
570	 0.118692956181039 
571	 0.118006946140058 
572	 0.11742398653994 
573	 0.116867086777888 
574	 0.116318399308073 
575	 0.115794342374759 
576	 0.115370766486687 
577	 0.114939874344667 
578	 0.114484788620453 
579	 0.114104911758195 
580	 0.113726234258615 
581	 0.113371634095449 
582	 0.113065122305997 
583	 0.112766816935573 
584	 0.112493155989498 
585	 0.112241399930243 
586	 0.111998878070273 
587	 0.111771878483955 
588	 0.111598235951094 
589	 0.111477347206879 
590	 0.11134224218304 
591	 0.111214159494894 
592	 0.111115028706114 
593	 0.111049251562863 
594	 0.110930157405795 
595	 0.110873904019866 
596	 0.110893186894937 
597	 0.110905560908648 
598	 0.110917125713429 
599	 0.110965196242848 
600	 0.111070962959696 
601	 0.111201193094394 
602	 0.111367573850809 
603	 0.111543887297814 
604	 0.111702902928896 
605	 0.111919771885941 
606	 0.112176191768727 
607	 0.112460029801429 
608	 0.112776986216341 
609	 0.113059899901576 
610	 0.11337208005446 
611	 0.113770464255715 
612	 0.114173827107242 
613	 0.114603315082809 
614	 0.115048821457327 
615	 0.115486017034748 
616	 0.115950537426367 
617	 0.116454394011259 
618	 0.116998928591925 
619	 0.117575800363406 
620	 0.118187764593194 
621	 0.118814271484668 
622	 0.119438998988673 
623	 0.120094663220934 
624	 0.120831153011103 
625	 0.121616257631473 
626	 0.122349517617134 
627	 0.123125525713102 
628	 0.123953673758736 
629	 0.12482398531195 
630	 0.125719131044369 
631	 0.126657228220025 
632	 0.127626096188514 
633	 0.128607897525848 
634	 0.129656606679403 
635	 0.130729247572321 
636	 0.131821554774538 
637	 0.132983411022379 
638	 0.134142966758223 
639	 0.135343737420051 
640	 0.136623042278238 
641	 0.13789836959894 
642	 0.13921566079333 
643	 0.140601624635889 
644	 0.142063383190444 
645	 0.143540741818642 
646	 0.145082990111374 
647	 0.146700308602272 
648	 0.148318044169666 
649	 0.150017154143735 
650	 0.15174850418484 
651	 0.153467332497517 
652	 0.155326081898273 
653	 0.157243699014454 
654	 0.159205888222227 
655	 0.161254593180854 
656	 0.163363314356265 
657	 0.165514648622996 
658	 0.167719520272597 
659	 0.170054956542382 
660	 0.172440436741708 
661	 0.174880422579747 
662	 0.177403561077089 
663	 0.179993115405697 
664	 0.18265838150378 
665	 0.185413755100649 
666	 0.188271482900318 
667	 0.191195189364951 
668	 0.194182973750836 
669	 0.19725013255391 
670	 0.200450480743709 
671	 0.203727795486679 
672	 0.207078915507326 
673	 0.210528392144357 
674	 0.214071990979794 
675	 0.217715280886271 
676	 0.221463464160381 
677	 0.225320661325336 
678	 0.229241239774503 
679	 0.233218946148328 
680	 0.237284493916842 
681	 0.241540707701341 
682	 0.245907365934204 
683	 0.250331538198079 
684	 0.254794847200599 
685	 0.259370918240393 
686	 0.264087243688494 
687	 0.268925757566319 
688	 0.273817500604282 
689	 0.278757156389204 
690	 0.283808067685058 
691	 0.28901098954091 
692	 0.294238596123561 
693	 0.299575882093336 
694	 0.30502594774155 
695	 0.310528631093717 
696	 0.316099239806967 
697	 0.321708463519057 
698	 0.327370369129085 
699	 0.333176996942937 
700	 0.339029158086579 
701	 0.34493389755374 
702	 0.350902611469436 
703	 0.356828066229258 
704	 0.36281713885674 
705	 0.368898663940447 
706	 0.375033432415281 
707	 0.381147837078824 
708	 0.387275965690655 
709	 0.39341860474792 
710	 0.39948499248434 
711	 0.405634104573815 
712	 0.411826053906254 
713	 0.417975485029526 
714	 0.424111560472611 
715	 0.430155072944856 
716	 0.43610638068505 
717	 0.442028851959666 
718	 0.448064311044291 
719	 0.454029933788192 
720	 0.459838046447188 
721	 0.465634213372289 
722	 0.471344328694919 
723	 0.477016474888037 
724	 0.482691224511973 
725	 0.488283573829548 
726	 0.493706235495534 
727	 0.498989441467758 
728	 0.504238610183211 
729	 0.509387088375775 
730	 0.514453230004417 
731	 0.519403687115799 
732	 0.524096674004119 
733	 0.528902452991064 
734	 0.533666844548609 
735	 0.538191319669596 
736	 0.54273994595639 
737	 0.547076651065746 
738	 0.551216232365656 
739	 0.555332250444883 
740	 0.559380210502166 
741	 0.56333498933451 
742	 0.567170686714526 
743	 0.570869102666439 
744	 0.574497055147631 
745	 0.578017612305016 
746	 0.581394793065447 
747	 0.584709059370067 
748	 0.587852867859566 
749	 0.590891914210697 
750	 0.593959826282181 
751	 0.596895205711617 
752	 0.599619039404799 
753	 0.6022285490212 
754	 0.605021768668678 
755	 0.607781930643917 
756	 0.610374402843376 
757	 0.612763365264754 
758	 0.6151163553036 
759	 0.617372999283018 
760	 0.619555906231114 
761	 0.621715794577441 
762	 0.623837810701559 
763	 0.625869202352962 
764	 0.627810457980646 
765	 0.629727620318619 
766	 0.631581375117499 
767	 0.633421883402848 
768	 0.635245873804943 
769	 0.636871327975138 
770	 0.638581224543504 
771	 0.640249888451197 
772	 0.641686238573491 
773	 0.64315501953653 
774	 0.64473649450954 
775	 0.646311560483329 
776	 0.647640020372284 
777	 0.648968511239979 
778	 0.650360635070691 
779	 0.651768375274569 
780	 0.653001532906964 
781	 0.654280941246178 
782	 0.655567317014106 
783	 0.656778095388071 
784	 0.657958135672403 
785	 0.659072841705576 
786	 0.660167771779044 
787	 0.661318176592865 
788	 0.662471613913609 
789	 0.663577460485849 
790	 0.664593526829303 
791	 0.665497645105647 
792	 0.666459586228295 
793	 0.667499960114612 
794	 0.668555467889275 
795	 0.669451274555491 
796	 0.670287778319745 
797	 0.671209666574932 
798	 0.672305065247171 
799	 0.673329835761215 
800	 0.674218174511729 
801	 0.675026217025114 
802	 0.6758926436734 
803	 0.676807581449628 
804	 0.677756195503651 
805	 0.678680538883161 
806	 0.679468736228844 
807	 0.680264268336512 
808	 0.681103109384175 
809	 0.681982051033228 
810	 0.682882802610363 
811	 0.683726278777324 
812	 0.684542130176407 
813	 0.685389789979162 
814	 0.686179175349295 
815	 0.686913353768234 
816	 0.687651731122242 
817	 0.688477142704443 
818	 0.689214963971054 
819	 0.689945560607413 
820	 0.690738681847079 
821	 0.691580062573232 
822	 0.692444437442988 
823	 0.693255379860274 
824	 0.693963241084522 
825	 0.694615371239768 
826	 0.695407108442615 
827	 0.696254395210644 
828	 0.696983870488638 
829	 0.69777716847852 
830	 0.698499333965005 
831	 0.699113595725675 
832	 0.69969205095494 
833	 0.700297939987552 
834	 0.701022024797674 
835	 0.701818161733689 
836	 0.702441702398426 
837	 0.70310076135379 
838	 0.70379602697392 
839	 0.704494071341302 
840	 0.705229893173862 
841	 0.705863559707376 
842	 0.706471827103653 
843	 0.707181516643476 
844	 0.707872873363605 
845	 0.708608176592039 
846	 0.709327620305076 
847	 0.709903816715142 
848	 0.710469065776829 
849	 0.711061953769928 
850	 0.711689345761572 
851	 0.712330606193037 
852	 0.712983091346951 
853	 0.713630612774419 
854	 0.714278884187317 
855	 0.714990123437413 
856	 0.715588555132542 
857	 0.716167017898738 
858	 0.716852247897582 
859	 0.717569405117443 
860	 0.718243284347589 
861	 0.718827909015195 
862	 0.719332683861688 
863	 0.719957860261812 
864	 0.720502435424596 
865	 0.72103925432089 
866	 0.721838811734751 
867	 0.722434539796672 
868	 0.722955305467414 
869	 0.723516925493124 
870	 0.72409676582753 
871	 0.724675076134241 
872	 0.725259146468987 
873	 0.725844853110118 
874	 0.726390233361492 
875	 0.726911534935183 
876	 0.727505134820745 
877	 0.728206489965377 
878	 0.728764341432805 
879	 0.729254296902109 
880	 0.729689911749342 
881	 0.730085909442345 
882	 0.730604991274783 
883	 0.731212132719342 
884	 0.731816326640141 
885	 0.73231144986559 
886	 0.732736058587108 
887	 0.733173563905172 
888	 0.733608836735587 
889	 0.733926186125484 
890	 0.734396017638691 
891	 0.734918597036005 
892	 0.735386315605008 
893	 0.735802736806315 
894	 0.736188290400017 
895	 0.736637444867386 
896	 0.737168019173475 
897	 0.737561020512756 
898	 0.737952312284523 
899	 0.738366255102187 
900	 0.738782509825615 
901	 0.739150003449607 
902	 0.739591583736529 
903	 0.740057432581576 
904	 0.740433107284145 
905	 0.740776274711949 
906	 0.741113775703219 
907	 0.741479614171106 
908	 0.741915778363491 
909	 0.742501361290422 
910	 0.743093506465921 
911	 0.743617138787056 
912	 0.744096751948145 
913	 0.744554082826965 
914	 0.745003485833781 
915	 0.745457015386585 
916	 0.74592517564085 
917	 0.746377557117361 
918	 0.746851442677031 
919	 0.747348251004681 
920	 0.747781458042911 
921	 0.748179721865314 
922	 0.74863186540503 
923	 0.749166187379084 
924	 0.749623019036806 
925	 0.750095493841469 
926	 0.750549810048953 
927	 0.75095842134487 
928	 0.751443339756585 
929	 0.75196345158788 
930	 0.752489077829975 
931	 0.752975847666207 
932	 0.753293088284319 
933	 0.753721867876322 
934	 0.754289805456983 
935	 0.754846263286449 
936	 0.755187923769991 
937	 0.755507888340174 
938	 0.755921648921091 
939	 0.75644256862658 
940	 0.756975565316556 
941	 0.757370060143829 
942	 0.757670345473678 
943	 0.758067145787921 
944	 0.758457724551943 
945	 0.75881219093367 
946	 0.759158488006056 
947	 0.759562256292151 
948	 0.759917126755438 
949	 0.760195425760162 
950	 0.760422656173683 
951	 0.760665762034567 
952	 0.760825724845176 
953	 0.761072113830031 
954	 0.76144294168565 
955	 0.761723588361302 
956	 0.761924141763184 
957	 0.762078844297289 
958	 0.762252702453045 
959	 0.762534756886531 
960	 0.762820672156808 
961	 0.763111760340637 
962	 0.763332842252794 
963	 0.763220337867506 
964	 0.763317677709334 
965	 0.763656342078287 
966	 0.764068579655011 
967	 0.764303553531038 
968	 0.76445609269547 
969	 0.764608350659862 
970	 0.764841324234883 
971	 0.765238082415605 
972	 0.765456056252454 
973	 0.765619861418244 
974	 0.765926205862284 
975	 0.766334526888209 
976	 0.766681203624263 
977	 0.766970529065249 
978	 0.767239791766213 
979	 0.767408160665334 
980	 0.76776964355667 
981	 0.768134481796559 
982	 0.768298236828863 
983	 0.768577989830341 
984	 0.768799180287534 
985	 0.769062439735771 
986	 0.769476897857255 
987	 0.769888838234432 
988	 0.770073059526452 
989	 0.770201274632904 
990	 0.770465272513601 
991	 0.770566992254602 
992	 0.770781567383334 
993	 0.771098125693752 
994	 0.771442919632393 
995	 0.77195542802697 
996	 0.772162285571149 
997	 0.77214279446157 
998	 0.772179367024853 
999	 0.772436664216596 
1000	 0.77272172798709 
1001	 0.77723157508943 
1002	 0.777513637867608 
1003	 0.77775884287062 
1004	 0.777967903860589 
1005	 0.778136568007762 
1006	 0.778331797816914 
1007	 0.778483289789575 
1008	 0.778682352814212 
1009	 0.778932010249146 
1010	 0.779152419646386 
1011	 0.779385777952268 
1012	 0.779587147870844 
1013	 0.77976614608235 
1014	 0.779940450652824 
1015	 0.780078473192202 
1016	 0.780229156831709 
1017	 0.780468760197631 
1018	 0.78068446416948 
1019	 0.780880746604946 
1020	 0.781114864705628 
1021	 0.781343456535348 
1022	 0.781537916529144 
1023	 0.781767979561361 
1024	 0.782050418562847 
1025	 0.782297267390354 
1026	 0.78250609667872 
1027	 0.782741053617299 
1028	 0.782991610583371 
1029	 0.783257058958675 
1030	 0.783438441234637 
1031	 0.783691383103652 
1032	 0.78395071091078 
1033	 0.784161338929077 
1034	 0.784421049618035 
1035	 0.784649784547431 
1036	 0.784858653744811 
1037	 0.785014883217233 
1038	 0.785212245817119 
1039	 0.785399989883309 
1040	 0.785641233105354 
1041	 0.785922895465015 
1042	 0.786186179631204 
1043	 0.786498710309889 
1044	 0.786748354148303 
1045	 0.7869536203728 
1046	 0.78718036875978 
1047	 0.78735277343696 
1048	 0.78758672339106 
1049	 0.787864287765446 
1050	 0.78811669696133 
1051	 0.788431093923412 
1052	 0.788741241443933 
1053	 0.789016246759331 
1054	 0.789267575744846 
1055	 0.789540761141131 
1056	 0.789806434897107 
1057	 0.790055136848881 
1058	 0.790309947875084 
1059	 0.790540009426988 
1060	 0.790772027402469 
1061	 0.791008691715629 
1062	 0.791279725786195 
1063	 0.791559523091826 
1064	 0.791813998263729 
1065	 0.792079231683364 
1066	 0.792298384835469 
1067	 0.79251864406786 
1068	 0.792775139237166 
1069	 0.793003843941143 
1070	 0.793249821748643 
1071	 0.793522284984219 
1072	 0.793783903789874 
1073	 0.793992691482079 
1074	 0.794249353955415 
1075	 0.794505007062574 
1076	 0.794761817114577 
1077	 0.795084120528015 
1078	 0.795364129376903 
1079	 0.795605450833203 
1080	 0.795857131494971 
1081	 0.796079501874499 
1082	 0.796279284574756 
1083	 0.79645739763026 
1084	 0.796640508950545 
1085	 0.796833514694572 
1086	 0.79702171648269 
1087	 0.797210215099549 
1088	 0.797417412243895 
1089	 0.797578562736538 
1090	 0.797711330838319 
1091	 0.797875168683418 
1092	 0.798011392435194 
1093	 0.79815342580486 
1094	 0.798327559112268 
1095	 0.798458665071188 
1096	 0.798612435656247 
1097	 0.798756746219097 
1098	 0.798820012354584 
1099	 0.798920008641932 
1100	 0.798998311597844 
1101	 0.799039780371706 
1102	 0.799127845766068 
1103	 0.799203643044184 
1104	 0.799260333831007 
1105	 0.799312410182083 
1106	 0.799395243424353 
1107	 0.799470394485367 
1108	 0.799529934869951 
1109	 0.79958296664774 
1110	 0.799636008002322 
1111	 0.799686257997397 
1112	 0.799729774081218 
1113	 0.799760729067286 
1114	 0.799773768996204 
1115	 0.799762935553272 
1116	 0.799744064483227 
1117	 0.799718616422659 
1118	 0.79969332706608 
1119	 0.799675600928208 
1120	 0.799634373013445 
1121	 0.799584809099373 
1122	 0.799524690793071 
1123	 0.799451906426158 
1124	 0.799343304509734 
1125	 0.799216187342013 
1126	 0.799078773874735 
1127	 0.798882292540467 
1128	 0.798627287371016 
1129	 0.798353300673586 
1130	 0.798018669885581 
1131	 0.797667084262083 
1132	 0.797329039548736 
1133	 0.796964393132204 
1134	 0.796612423163073 
1135	 0.796212502781875 
1136	 0.795766676758301 
1137	 0.795318165485756 
1138	 0.794846525082844 
1139	 0.794359399295372 
1140	 0.793843563236394 
1141	 0.793368801778728 
1142	 0.792870690576957 
1143	 0.792337775790375 
1144	 0.791812727445527 
1145	 0.791262005487848 
1146	 0.790700639515617 
1147	 0.790126769114624 
1148	 0.78953242851537 
1149	 0.788950697488242 
1150	 0.788360295814193 
1151	 0.787782276041063 
1152	 0.787155695562701 
1153	 0.786515551882374 
1154	 0.785832541763515 
1155	 0.785099308040561 
1156	 0.784349344838822 
1157	 0.783585617663173 
1158	 0.782806840709788 
1159	 0.781996867241288 
1160	 0.781170740839232 
1161	 0.780351144426499 
1162	 0.779475156241359 
1163	 0.778645630131015 
1164	 0.777827030677009 
1165	 0.776978696093329 
1166	 0.77620048554304 
1167	 0.775419467114422 
1168	 0.774669320323108 
1169	 0.773937704335451 
1170	 0.77324200146728 
1171	 0.772551196764551 
1172	 0.771850670854825 
1173	 0.771192824624579 
1174	 0.770562002170026 
1175	 0.769984178808981 
1176	 0.769450809022745 
1177	 0.768940398564692 
1178	 0.768478949386337 
1179	 0.768009473976517 
1180	 0.7675910951783 
1181	 0.76719533691369 
1182	 0.766815030431653 
1183	 0.766493302185698 
1184	 0.766163091227675 
1185	 0.765860168412657 
1186	 0.765617390367946 
1187	 0.765408813924171 
1188	 0.765260658741036 
1189	 0.76517461865204 
1190	 0.765117958320288 
1191	 0.765114158977617 
1192	 0.76513570970755 
1193	 0.765208967705383 
1194	 0.765277639625885 
1195	 0.765372951106643 
1196	 0.765475839256703 
1197	 0.765572309777665 
1198	 0.765699198263002 
1199	 0.7658695494372 
1200	 0.766058920683799 
1201	 0.766289587860262 
1202	 0.766521042392585 
1203	 0.766753621910236 
1204	 0.76706063987301 
1205	 0.767380985984986 
1206	 0.767722052238524 
1207	 0.768112302781414 
1208	 0.768544622566781 
1209	 0.768992787412569 
1210	 0.76946562771725 
1211	 0.769992237126789 
1212	 0.770560202471879 
1213	 0.771152246596343 
1214	 0.771773712393476 
1215	 0.772455963452271 
1216	 0.773193546680726 
1217	 0.773930799816988 
1218	 0.774722108393902 
1219	 0.775526637176157 
1220	 0.776308832046049 
1221	 0.777132134455573 
1222	 0.777949610537319 
1223	 0.778773239868161 
1224	 0.779549811817634 
1225	 0.780302510873989 
1226	 0.781014910995358 
1227	 0.781692360313522 
1228	 0.782350255803759 
1229	 0.782968297748117 
1230	 0.783589532665745 
1231	 0.784202451727231 
1232	 0.7847892281436 
1233	 0.785363755526729 
1234	 0.785905680911769 
1235	 0.786415964290863 
1236	 0.786911972865814 
1237	 0.787399186620965 
1238	 0.787846889462617 
1239	 0.78825929815822 
1240	 0.788656023195632 
1241	 0.789037197963822 
1242	 0.78937224534262 
1243	 0.789699507260446 
1244	 0.790007760319621 
1245	 0.790312669440873 
1246	 0.790591244052058 
1247	 0.790879104584549 
1248	 0.791190706881478 
1249	 0.791444345236001 
1250	 0.791682254032651 
1251	 0.791877070991886 
1252	 0.792017339782829 
1253	 0.792160268146933 
1254	 0.792277325881309 
1255	 0.792386520442472 
1256	 0.792487258347202 
1257	 0.792571957597843 
1258	 0.792630669178695 
1259	 0.792690793844953 
1260	 0.792751854834496 
1261	 0.792790883611184 
1262	 0.792802520693637 
1263	 0.792832405280768 
1264	 0.792850412377158 
1265	 0.792848768588209 
1266	 0.792860419994253 
1267	 0.792881326151818 
1268	 0.792896171779767 
1269	 0.792895851943808 
1270	 0.792923236524028 
1271	 0.79296283608962 
1272	 0.793006782330479 
1273	 0.79306976764492 
1274	 0.793125896435969 
1275	 0.793185381143954 
1276	 0.793240819057832 
1277	 0.793291242463237 
1278	 0.793350347797172 
1279	 0.79340069937263 
1280	 0.793470589694157 
1281	 0.793546015575775 
1282	 0.793642076784729 
1283	 0.793767652080243 
1284	 0.793885472520058 
1285	 0.794008441376552 
1286	 0.794141340750941 
1287	 0.794283611205832 
1288	 0.794425646898729 
1289	 0.794577409065375 
1290	 0.794756444606165 
1291	 0.794903454166914 
1292	 0.795038903801027 
1293	 0.795172732413844 
1294	 0.795312825393104 
1295	 0.795411933797848 
1296	 0.795482620229295 
1297	 0.795564060343049 
1298	 0.795619850393225 
1299	 0.795681216372529 
1300	 0.795777987298505 
1301	 0.795822915391295 
1302	 0.795816866642256 
1303	 0.795833788513699 
1304	 0.795872275876057 
1305	 0.795852725135986 
1306	 0.795826838374944 
1307	 0.795766748766117 
1308	 0.795639673554466 
1309	 0.79549881356174 
1310	 0.795381944081903 
1311	 0.795273792293095 
1312	 0.795138409994087 
1313	 0.794998218015915 
1314	 0.794853884131252 
1315	 0.79468543577995 
1316	 0.794533270695297 
1317	 0.794399246108617 
1318	 0.794239733102231 
1319	 0.794083507017857 
1320	 0.793890948486338 
1321	 0.793679070096078 
1322	 0.793449598444426 
1323	 0.793207927764742 
1324	 0.792925673152064 
1325	 0.792615542309536 
1326	 0.792287443324981 
1327	 0.791932786865197 
1328	 0.791547489771895 
1329	 0.791141494585546 
1330	 0.790714499858094 
1331	 0.790257087937528 
1332	 0.789776137385389 
1333	 0.789288457693038 
1334	 0.788760600894995 
1335	 0.788210797150513 
1336	 0.787628222006025 
1337	 0.787028937981664 
1338	 0.786409102828693 
1339	 0.785768443992445 
1340	 0.785117289865878 
1341	 0.784414173295356 
1342	 0.783672942749716 
1343	 0.782919544427333 
1344	 0.782135309063668 
1345	 0.781319846568084 
1346	 0.780489289419138 
1347	 0.779630035115015 
1348	 0.778716016533412 
1349	 0.777814122492902 
1350	 0.776897909080807 
1351	 0.77597828292938 
1352	 0.775043652638019 
1353	 0.774115926747377 
1354	 0.773169245076762 
1355	 0.772256541216432 
1356	 0.771358312540557 
1357	 0.770469279783881 
1358	 0.769604675192847 
1359	 0.768739752494163 
1360	 0.767890872439534 
1361	 0.767030527947052 
1362	 0.766142200095094 
1363	 0.765303531221189 
1364	 0.764431849604554 
1365	 0.763551239521791 
1366	 0.762661730694131 
1367	 0.761779281592996 
1368	 0.760854655217423 
1369	 0.759918094544141 
1370	 0.75893568899091 
1371	 0.757909136621152 
1372	 0.756892898930588 
1373	 0.755871366876359 
1374	 0.754794529757662 
1375	 0.753700881999411 
1376	 0.752560663209109 
1377	 0.751370042298445 
1378	 0.750127246036045 
1379	 0.748871064087295 
1380	 0.747527589931786 
1381	 0.746143649573212 
1382	 0.744640341142313 
1383	 0.743056213448777 
1384	 0.74138326533449 
1385	 0.739619360746691 
1386	 0.737761357115553 
1387	 0.735789934542744 
1388	 0.733804788830473 
1389	 0.731736001947894 
1390	 0.729630817284504 
1391	 0.727539317586421 
1392	 0.725298190353654 
1393	 0.723122742854572 
1394	 0.720857936616668 
1395	 0.718548104569635 
1396	 0.716229558305844 
1397	 0.713836106671826 
1398	 0.711384203888025 
1399	 0.708824234679473 
1400	 0.70621220632133 
1401	 0.70348774159193 
1402	 0.70066176453503 
1403	 0.697707996885732 
1404	 0.694660032244701 
1405	 0.691547131358184 
1406	 0.688259862430826 
1407	 0.685016184055985 
1408	 0.681634321369912 
1409	 0.678453221403786 
1410	 0.675238355522877 
1411	 0.672253775213694 
1412	 0.669400076378205 
1413	 0.666775726159021 
1414	 0.664325609903275 
1415	 0.662039309180193 
1416	 0.659996945285924 
1417	 0.658030310640494 
1418	 0.656254976645555 
1419	 0.654478108256389 
1420	 0.652803369458975 
1421	 0.651167157029765 
1422	 0.64955121807387 
1423	 0.647992751702537 
1424	 0.646531320584477 
1425	 0.645031166288397 
1426	 0.64366076608542 
1427	 0.642334733746066 
1428	 0.641064752765207 
1429	 0.63996069981423 
1430	 0.638879462185643 
1431	 0.637861017682289 
1432	 0.63690315427966 
1433	 0.636028624088356 
1434	 0.63517380821004 
1435	 0.634358118481567 
1436	 0.633601703918504 
1437	 0.632888019748132 
1438	 0.632246396289497 
1439	 0.631683502889575 
1440	 0.631130293287714 
1441	 0.630636175855057 
1442	 0.630142635790608 
1443	 0.629670791585028 
1444	 0.629210448959725 
1445	 0.628777403517009 
1446	 0.628348165445353 
1447	 0.627920720430819 
1448	 0.627517945982293 
1449	 0.627123489863117 
1450	 0.626756877506232 
1451	 0.626424842096652 
1452	 0.626090487089039 
1453	 0.625779180152331 
1454	 0.625466532688053 
1455	 0.625148236854837 
1456	 0.624847692078333 
1457	 0.624563522847474 
1458	 0.624277516520903 
1459	 0.623996261010554 
1460	 0.623726125312721 
1461	 0.623434582256533 
1462	 0.623193769716834 
1463	 0.622987343101477 
1464	 0.622796939559007 
1465	 0.622642867277816 
1466	 0.622507339765032 
1467	 0.622381492380839 
1468	 0.622264797843312 
1469	 0.622166223291111 
1470	 0.622086864942121 
1471	 0.621988321291613 
1472	 0.62191027594761 
1473	 0.621765003875675 
1474	 0.621596730039019 
1475	 0.62138791732844 
1476	 0.621140636282276 
1477	 0.620849479750776 
1478	 0.620527099346123 
1479	 0.620160172952502 
1480	 0.619740872037587 
1481	 0.619292801420117 
1482	 0.618802103988052 
1483	 0.618294134098674 
1484	 0.617743735791918 
1485	 0.617188107782427 
1486	 0.61659567611292 
1487	 0.616038470636605 
1488	 0.615453508178606 
1489	 0.614931767564385 
1490	 0.614424699636355 
1491	 0.613991512132093 
1492	 0.613598087803724 
1493	 0.613273911237491 
1494	 0.613017759471467 
1495	 0.612816273417784 
1496	 0.612662257819487 
1497	 0.612587188853574 
1498	 0.612585086013299 
1499	 0.612639668666542 
1500	 0.612760855912313 
1501	 0.612948990858485 
1502	 0.613215605490218 
1503	 0.613514878749825 
1504	 0.613876026219302 
1505	 0.614280816176197 
1506	 0.614745129402469 
1507	 0.615220634277033 
1508	 0.615758775751941 
1509	 0.616289480352084 
1510	 0.616809532808864 
1511	 0.617364675375065 
1512	 0.617936696405349 
1513	 0.618538099606512 
1514	 0.619188186096735 
1515	 0.619832958179997 
1516	 0.620482272369037 
1517	 0.621157605417498 
1518	 0.621852108512583 
1519	 0.622547044984411 
1520	 0.623251188292919 
1521	 0.623982532664355 
1522	 0.624704370153419 
1523	 0.625468388939666 
1524	 0.62626536022542 
1525	 0.627095405785794 
1526	 0.627974515391382 
1527	 0.628900292470454 
1528	 0.629822687814525 
1529	 0.63077604968595 
1530	 0.631762145871619 
1531	 0.63276155770592 
1532	 0.633787819209514 
1533	 0.634868346488916 
1534	 0.635935406919985 
1535	 0.637017002156527 
1536	 0.638064886404791 
1537	 0.639128725639613 
1538	 0.640143969956344 
1539	 0.641129125764914 
1540	 0.642075613969283 
1541	 0.643001821437917 
1542	 0.643881797411635 
1543	 0.644728495890044 
1544	 0.645501507273384 
1545	 0.646239175782473 
1546	 0.646896772320752 
1547	 0.647470858859529 
1548	 0.648004366903566 
1549	 0.648480077752743 
1550	 0.648908639604007 
1551	 0.649277872341562 
1552	 0.649607042722477 
1553	 0.64987847116796 
1554	 0.650129945633318 
1555	 0.650332777611594 
1556	 0.650523874827203 
1557	 0.650668398807325 
1558	 0.650843086587683 
1559	 0.65097973285002 
1560	 0.651187380156856 
1561	 0.651410590699148 
1562	 0.651706342952097 
1563	 0.652070545390687 
1564	 0.652447941093626 
1565	 0.652879179267452 
1566	 0.653325199131075 
1567	 0.653789828205139 
1568	 0.654282006996588 
1569	 0.654810395040339 
1570	 0.655354919454743 
1571	 0.655944044139559 
1572	 0.656501647817732 
1573	 0.657068167061474 
1574	 0.657625751003883 
1575	 0.658180747868042 
1576	 0.658701905173541 
1577	 0.659208711771197 
1578	 0.659708739679539 
1579	 0.660158186122425 
1580	 0.660639715060343 
1581	 0.661135590680307 
1582	 0.661637330111641 
1583	 0.662162135322689 
1584	 0.662661656575724 
1585	 0.663142439960715 
1586	 0.6636482785264 
1587	 0.664147394729427 
1588	 0.66465701090176 
1589	 0.665177243663594 
1590	 0.665726667155015 
1591	 0.666282683861416 
1592	 0.666861471288469 
1593	 0.66749411176358 
1594	 0.668105637121233 
1595	 0.66871432974954 
1596	 0.669325314547627 
1597	 0.669940335879777 
1598	 0.670548343053197 
1599	 0.671149901670902 
1600	 0.671760301055006 
1601	 0.672381433271454 
1602	 0.672984796588873 
1603	 0.67358439191692 
1604	 0.674179330148112 
1605	 0.674754229911492 
1606	 0.675334984215294 
1607	 0.675925405580558 
1608	 0.676506371860663 
1609	 0.677099203747169 
1610	 0.677654933396001 
1611	 0.678194917815771 
1612	 0.678711764666081 
1613	 0.679169549221692 
1614	 0.67965834741723 
1615	 0.680165080358044 
1616	 0.680646547459837 
1617	 0.681145993795977 
1618	 0.681603288514618 
1619	 0.682006608551967 
1620	 0.682420189448418 
1621	 0.68282558319013 
1622	 0.683214703680064 
1623	 0.683598855990254 
1624	 0.683970967019593 
1625	 0.684328921525716 
1626	 0.684669755118207 
1627	 0.68498852466837 
1628	 0.685309223345487 
1629	 0.685616445472957 
1630	 0.685918164484402 
1631	 0.686229075730238 
1632	 0.686522372094 
1633	 0.686791366159284 
1634	 0.687062201311857 
1635	 0.687343701661652 
1636	 0.687588861188515 
1637	 0.687828522344494 
1638	 0.688029697938311 
1639	 0.688181226766775 
1640	 0.688330788649651 
1641	 0.688450919092393 
1642	 0.688574878847707 
1643	 0.688719228049083 
1644	 0.688803938443234 
1645	 0.688850170727071 
1646	 0.688893983240188 
1647	 0.688919021635634 
1648	 0.688901200910458 
1649	 0.688899537093703 
1650	 0.688803658320824 
1651	 0.688632544592422 
1652	 0.688407903893068 
1653	 0.688130558708492 
1654	 0.687783836182179 
1655	 0.687380450014566 
1656	 0.686892593357217 
1657	 0.686339147550239 
1658	 0.685685281705364 
1659	 0.684940234431085 
1660	 0.68412061360879 
1661	 0.683225000057224 
1662	 0.682221862441616 
1663	 0.681157028712096 
1664	 0.679919145437678 
1665	 0.678585723202187 
1666	 0.67703467482294 
1667	 0.67529639816291 
1668	 0.673436754050134 
1669	 0.671406415848747 
1670	 0.669218842780352 
1671	 0.666844328889127 
1672	 0.664372935017516 
1673	 0.661732860485414 
1674	 0.659009585984559 
1675	 0.656165498634231 
1676	 0.6533318446762 
1677	 0.650380560951567 
1678	 0.647454684506377 
1679	 0.644473874611408 
1680	 0.641558734391215 
1681	 0.638601412150215 
1682	 0.63577624342231 
1683	 0.633011057097155 
1684	 0.630434435094322 
1685	 0.627946960956266 
1686	 0.625637312717682 
1687	 0.623465568562531 
1688	 0.621494391359097 
1689	 0.619723082681719 
1690	 0.618046598964415 
1691	 0.616610550393564 
1692	 0.615191248089626 
1693	 0.61387954509003 
1694	 0.612562005938074 
1695	 0.61134289440624 
1696	 0.610035406773705 
1697	 0.608709496380626 
1698	 0.607351549226309 
1699	 0.605965551977149 
1700	 0.604586352966382 
1701	 0.603192294671844 
1702	 0.60179492032196 
1703	 0.60037483634857 
1704	 0.598959632830137 
1705	 0.597539553978078 
1706	 0.596071524468524 
1707	 0.594698195476204 
1708	 0.593286684348178 
1709	 0.591845227054393 
1710	 0.590376697948918 
1711	 0.588768955251764 
1712	 0.587119678298506 
1713	 0.585302913534443 
1714	 0.583333295903971 
1715	 0.581410797118382 
1716	 0.579325213194039 
1717	 0.577210601225446 
1718	 0.575110998135585 
1719	 0.572908303180084 
1720	 0.570860367647638 
1721	 0.568941929956597 
1722	 0.567162321621707 
1723	 0.56568332417769 
1724	 0.564369907547694 
1725	 0.563286586758354 
1726	 0.562558809821754 
1727	 0.562109997128895 
1728	 0.562001812412755 
1729	 0.562213677724114 
1730	 0.562696804174286 
1731	 0.563377913920705 
1732	 0.564269776676293 
1733	 0.56526803143335 
1734	 0.566399680069261 
1735	 0.567678246100329 
1736	 0.568925520017765 
1737	 0.570201882056413 
1738	 0.571418429588526 
1739	 0.572540628571325 
1740	 0.573622187916798 
1741	 0.574613324778145 
1742	 0.575506986426616 
1743	 0.576378135965057 
1744	 0.577193745513036 
1745	 0.577972794500161 
1746	 0.578709421681911 
1747	 0.579369438154356 
1748	 0.579947577026567 
1749	 0.580511224158388 
1750	 0.581013661327643 
1751	 0.581542014192936 
1752	 0.582055444140673 
1753	 0.58257495322667 
1754	 0.583081351002819 
1755	 0.583606054330135 
1756	 0.584105258315402 
1757	 0.584653371244798 
1758	 0.585297793774887 
1759	 0.585986788470164 
1760	 0.586826740098732 
1761	 0.587789799557247 
1762	 0.588756642203221 
1763	 0.589853948935434 
1764	 0.591021239725499 
1765	 0.592234527589064 
1766	 0.593570762748428 
1767	 0.594931609028406 
1768	 0.596331302795972 
1769	 0.597716377293395 
1770	 0.598968943749032 
1771	 0.600208151580168 
1772	 0.601371998031846 
1773	 0.602430749424109 
1774	 0.603517797264973 
1775	 0.604465060935664 
1776	 0.605327371305096 
1777	 0.606153501705551 
1778	 0.606825786157929 
1779	 0.607479817247893 
1780	 0.608073007211096 
1781	 0.608566502288333 
1782	 0.609070215076143 
1783	 0.609517682275032 
1784	 0.609895975365457 
1785	 0.610217055676049 
1786	 0.610507347410087 
1787	 0.610734001504522 
1788	 0.610970277957773 
1789	 0.611186185547609 
1790	 0.611405605560627 
1791	 0.611620801110318 
1792	 0.611827540127529 
1793	 0.612010870572807 
1794	 0.612212575667717 
1795	 0.612409637187055 
1796	 0.612639623886303 
1797	 0.612929338142485 
1798	 0.613190700432747 
1799	 0.613469607760696 
1800	 0.613773280343524 
1801	 0.615891796134889 
1802	 0.616264131015987 
1803	 0.616639749695463 
1804	 0.617039662132284 
1805	 0.617457940770646 
1806	 0.617848402346742 
1807	 0.618243801544977 
1808	 0.618616901142632 
1809	 0.618963294966258 
1810	 0.619324373785948 
1811	 0.619672042503709 
1812	 0.620035524038699 
1813	 0.620393389828194 
1814	 0.620799870385541 
1815	 0.621192175412281 
1816	 0.621598259816165 
1817	 0.621994240976505 
1818	 0.622392005747773 
1819	 0.622782201695795 
1820	 0.623168550052976 
1821	 0.62354589912031 
1822	 0.623906541499124 
1823	 0.624294989225011 
1824	 0.624659050231626 
1825	 0.625054211271781 
1826	 0.625423386884839 
1827	 0.625789183833654 
1828	 0.626137917800999 
1829	 0.626442205704931 
1830	 0.626799299386062 
1831	 0.627156983562131 
1832	 0.627567923291717 
1833	 0.627990370465651 
1834	 0.628392966616223 
1835	 0.628787376226392 
1836	 0.629140731525698 
1837	 0.629490927010131 
1838	 0.629848961652193 
1839	 0.630157557750358 
1840	 0.630437418686859 
1841	 0.630699126971384 
1842	 0.630946754537477 
1843	 0.631132739310649 
1844	 0.63129332012351 
1845	 0.631417955531945 
1846	 0.631497221496401 
1847	 0.63155866792384 
1848	 0.631570409730372 
1849	 0.631573778496941 
1850	 0.631494878505287 
1851	 0.631374385786388 
1852	 0.63116341611787 
1853	 0.630874988517076 
1854	 0.63054256896841 
1855	 0.630123244452629 
1856	 0.62965095165394 
1857	 0.629132739202551 
1858	 0.628502518855411 
1859	 0.627805289103413 
1860	 0.627059041287269 
1861	 0.626175829389993 
1862	 0.625189962913837 
1863	 0.624147075728474 
1864	 0.622925452124353 
1865	 0.621609281990211 
1866	 0.620192892130464 
1867	 0.618541716358286 
1868	 0.616832224299556 
1869	 0.614927826418686 
1870	 0.612848519291388 
1871	 0.610634905865301 
1872	 0.60827626117463 
1873	 0.605751233152546 
1874	 0.603120445541328 
1875	 0.600320317516389 
1876	 0.597104280397872 
1877	 0.593805572519454 
1878	 0.590155132083113 
1879	 0.586130755390218 
1880	 0.582145814163398 
1881	 0.577796182204687 
1882	 0.573115337541265 
1883	 0.568242464401897 
1884	 0.563096517174044 
1885	 0.557314973368828 
1886	 0.551426348769468 
1887	 0.545073755738838 
1888	 0.53827313483575 
1889	 0.531753193787392 
1890	 0.52480568141947 
1891	 0.517783679835849 
1892	 0.51081319277991 
1893	 0.503510281240464 
1894	 0.495798655425671 
1895	 0.48831108399418 
1896	 0.480664474447829 
1897	 0.47292069168347 
1898	 0.46577860233554 
1899	 0.458471953026501 
1900	 0.451353457597203 
1901	 0.444545305196602 
1902	 0.437404552339085 
1903	 0.430667361239855 
1904	 0.424115180623337 
1905	 0.417655865941861 
1906	 0.411378058145576 
1907	 0.405814853724483 
1908	 0.400266631357844 
1909	 0.39499807166321 
1910	 0.390093882052389 
1911	 0.385024089207102 
1912	 0.380302915669814 
1913	 0.375753947237299 
1914	 0.371282647220298 
1915	 0.367171794817174 
1916	 0.363460388353859 
1917	 0.359729674385363 
1918	 0.35619375438505 
1919	 0.352913905213668 
1920	 0.349522054635682 
1921	 0.346418602893768 
1922	 0.343432296459584 
1923	 0.340491493015036 
1924	 0.337936123570513 
1925	 0.335456588703805 
1926	 0.333119096077578 
1927	 0.331009499743205 
1928	 0.328953776502055 
1929	 0.326947495457355 
1930	 0.325149282593956 
1931	 0.323488112214427 
1932	 0.321940751264454 
1933	 0.320674768757743 
1934	 0.319519437721597 
1935	 0.318489410002993 
1936	 0.317661756645142 
1937	 0.316933139513652 
1938	 0.316300472019575 
1939	 0.315866096862075 
1940	 0.315600246433107 
1941	 0.315439998905138 
1942	 0.315467276491504 
1943	 0.315607932307557 
1944	 0.315818030746064 
1945	 0.316190770440551 
1946	 0.316705822531373 
1947	 0.317311159415671 
1948	 0.318049987723178 
1949	 0.318911952552296 
1950	 0.319800754226732 
1951	 0.320751490344667 
1952	 0.321778666516944 
1953	 0.322866388685184 
1954	 0.324016504972857 
1955	 0.325299114651664 
1956	 0.326601141907943 
1957	 0.327977726168462 
1958	 0.329408184729336 
1959	 0.330762519360907 
1960	 0.332177655811312 
1961	 0.333595821443818 
1962	 0.334976909351177 
1963	 0.336442190798242 
1964	 0.337988421474271 
1965	 0.339486289366037 
1966	 0.341010215087374 
1967	 0.342559968773526 
1968	 0.343994679669935 
1969	 0.345494388568017 
1970	 0.347000209958946 
1971	 0.348456322177895 
1972	 0.35001628543476 
1973	 0.351554139769713 
1974	 0.353101267560369 
1975	 0.354705071071411 
1976	 0.356252221596414 
1977	 0.357764799213763 
1978	 0.359295435147756 
1979	 0.360806707005289 
1980	 0.362307277341563 
1981	 0.363906900714251 
1982	 0.365437651925627 
1983	 0.367005983763641 
1984	 0.368610483457411 
1985	 0.370072860307807 
1986	 0.371572635189686 
1987	 0.373072250241377 
1988	 0.37452291280989 
1989	 0.376023681787568 
1990	 0.377586263459622 
1991	 0.379095819229757 
1992	 0.380620016918571 
1993	 0.382114790377883 
1994	 0.383492577546018 
1995	 0.384910776995245 
1996	 0.386266333377512 
1997	 0.387573302653548 
1998	 0.388911970583081 
1999	 0.390267456378681 
2000	 0.391565582723893 
2001	 0.39288349239927 
2002	 0.394111354289603 
2003	 0.395288176547204 
2004	 0.396428965799779 
2005	 0.397498636327681 
2006	 0.398541649671983 
2007	 0.399587530676672 
2008	 0.400524870742481 
2009	 0.401406814985363 
2010	 0.402221199537982 
2011	 0.402884775196122 
2012	 0.403468291484323 
2013	 0.403942453385434 
2014	 0.404307117959735 
2015	 0.404573982168395 
2016	 0.404760851243602 
2017	 0.404800388558902 
2018	 0.404728568940496 
2019	 0.404523183361112 
2020	 0.40420008177593 
2021	 0.403712758442319 
2022	 0.403110159704584 
2023	 0.402358505972821 
2024	 0.401403810606058 
2025	 0.400348124813416 
2026	 0.399130141682249 
2027	 0.397669561728431 
2028	 0.396250135189285 
2029	 0.394694385673341 
2030	 0.393149797984576 
2031	 0.391578804258632 
2032	 0.38999864449979 
2033	 0.388268473996849 
2034	 0.386732486412762 
2035	 0.385224120589797 
2036	 0.383797262724939 
2037	 0.382624177407217 
2038	 0.381591573633902 
2039	 0.380733905742143 
2040	 0.380047201954307 
2041	 0.379558579933016 
2042	 0.379233159789859 
2043	 0.379112296490937 
2044	 0.379254583653972 
2045	 0.379465652773178 
2046	 0.379863195202286 
2047	 0.380339722862366 
2048	 0.380913764374911 
2049	 0.381614112711938 
2050	 0.382470669652027 
2051	 0.383380926828883 
2052	 0.384411342248341 
2053	 0.385568859889575 
2054	 0.386735744185837 
2055	 0.387978747967459 
2056	 0.389260334148019 
2057	 0.390551560477603 
2058	 0.391970873968178 
2059	 0.393503021335024 
2060	 0.395036534450541 
2061	 0.39670635761962 
2062	 0.398311437416065 
2063	 0.399892502466277 
2064	 0.401504309622569 
2065	 0.403132011156208 
2066	 0.404742707145475 
2067	 0.40643006808971 
2068	 0.408049816583058 
2069	 0.409637885317298 
2070	 0.41124822240775 
2071	 0.412725212136975 
2072	 0.414114697990594 
2073	 0.415480576902508 
2074	 0.416746692559288 
2075	 0.418026707140683 
2076	 0.419318442016013 
2077	 0.420507707951209 
2078	 0.421688449495543 
2079	 0.422749313994111 
2080	 0.423682088882001 
2081	 0.424589547786563 
2082	 0.425422431097461 
2083	 0.426182811147206 
2084	 0.42695331091505 
2085	 0.427657281738959 
2086	 0.428310197309728 
2087	 0.428936274083008 
2088	 0.429462409580898 
2089	 0.429899545307466 
2090	 0.430306587944921 
2091	 0.430626257351499 
2092	 0.430939493981412 
2093	 0.431236159853348 
2094	 0.431466664508635 
2095	 0.431650851989718 
2096	 0.431793063764423 
2097	 0.431874815868662 
2098	 0.431916674502427 
2099	 0.431947614336566 
2100	 0.431931501844347 
2101	 0.431867460820905 
2102	 0.431754390884531 
2103	 0.431627027915189 
2104	 0.431446178876754 
2105	 0.431263660723952 
2106	 0.43107473158993 
2107	 0.430849884268587 
2108	 0.430595462724547 
2109	 0.430316050517085 
2110	 0.430007756852306 
2111	 0.429682042371508 
2112	 0.42932005571781 
2113	 0.428953993694828 
2114	 0.428587312566635 
2115	 0.428181940462425 
2116	 0.427738507508212 
2117	 0.427305467103203 
2118	 0.426835054298278 
2119	 0.426345233541594 
2120	 0.425801934136986 
2121	 0.42521789492981 
2122	 0.42462485580249 
2123	 0.423994930063942 
2124	 0.423334261743209 
2125	 0.422707391860597 
2126	 0.421949777758935 
2127	 0.42110682352914 
2128	 0.420221065662564 
2129	 0.419236351397995 
2130	 0.418234494402144 
2131	 0.417221634160378 
2132	 0.416117762537305 
2133	 0.414967977187994 
2134	 0.413749317863517 
2135	 0.412364888922241 
2136	 0.410955278715291 
2137	 0.409467964356649 
2138	 0.407843868698176 
2139	 0.406276616005385 
2140	 0.404695237946922 
2141	 0.403073285850333 
2142	 0.401469716799694 
2143	 0.399759277404538 
2144	 0.397964708137319 
2145	 0.396170185175033 
2146	 0.394259807022413 
2147	 0.392431516690809 
2148	 0.390661647305961 
2149	 0.388828228131562 
2150	 0.387036225589634 
2151	 0.385166640654404 
2152	 0.38318798853572 
2153	 0.381242614400459 
2154	 0.379293140209687 
2155	 0.377316259669786 
2156	 0.375446101820329 
2157	 0.373639950963517 
2158	 0.371832447501083 
2159	 0.370080985480678 
2160	 0.368322738127065 
2161	 0.366520719722598 
2162	 0.364871356864249 
2163	 0.363230690131111 
2164	 0.361769407036126 
2165	 0.360451326448476 
2166	 0.359217714983732 
2167	 0.358126978551767 
2168	 0.357094435753919 
2169	 0.356113530242844 
2170	 0.355285811197411 
2171	 0.354540814058328 
2172	 0.353943729595829 
2173	 0.353536280744244 
2174	 0.353198386411484 
2175	 0.35289973669945 
2176	 0.352767818714363 
2177	 0.352719973078192 
2178	 0.352745343501942 
2179	 0.352907098671061 
2180	 0.353246178301933 
2181	 0.353577212268786 
2182	 0.353973881613319 
2183	 0.354458389250245 
2184	 0.354989269705865 
2185	 0.355635170039258 
2186	 0.356416996360361 
2187	 0.357216365267902 
2188	 0.358134357423781 
2189	 0.359017084304481 
2190	 0.359911334816447 
2191	 0.360849162956321 
2192	 0.361800951619542 
2193	 0.362783302782178 
2194	 0.363851856638476 
2195	 0.364874970785271 
2196	 0.365909700920945 
2197	 0.366919960529436 
2198	 0.367888691501778 
2199	 0.368841956482339 
2200	 0.36974222766014 
2201	 0.370579769931609 
2202	 0.371462382944384 
2203	 0.372330141742451 
2204	 0.373177336590347 
2205	 0.374061999856674 
2206	 0.374866005763644 
2207	 0.375601701044466 
2208	 0.376345099830156 
2209	 0.377047004596992 
2210	 0.377758896190844 
2211	 0.378475867691592 
2212	 0.379154256306514 
2213	 0.379834314164883 
2214	 0.380469364019951 
2215	 0.381059470163845 
2216	 0.381628949131969 
2217	 0.382168242598653 
2218	 0.382679453386546 
2219	 0.383182865195077 
2220	 0.383619942782475 
2221	 0.384018899153739 
2222	 0.384374733902914 
2223	 0.38465004044277 
2224	 0.384853349039392 
2225	 0.384959033801843 
2226	 0.384963717349749 
2227	 0.384857243521821 
2228	 0.384656563447836 
2229	 0.384308133910886 
2230	 0.383840770939619 
2231	 0.383233751667708 
2232	 0.382498359871076 
2233	 0.381587576555661 
2234	 0.380557311742398 
2235	 0.379313363610531 
2236	 0.377875164526741 
2237	 0.376271677557474 
2238	 0.374452208001745 
2239	 0.372511398066103 
2240	 0.370401690799347 
2241	 0.368138496367607 
2242	 0.365757769701108 
2243	 0.363168013605486 
2244	 0.360345967902076 
2245	 0.357444683571152 
2246	 0.354254637367074 
2247	 0.351127742444202 
2248	 0.347941440879407 
2249	 0.344723855147562 
2250	 0.341477676014902 
2251	 0.338283632002304 
2252	 0.334815902026905 
2253	 0.331458936239916 
2254	 0.328087730222931 
2255	 0.324688123744332 
2256	 0.321693985809274 
2257	 0.318767719552291 
2258	 0.316022322921485 
2259	 0.313516834304535 
2260	 0.311053163132845 
2261	 0.308647033897368 
2262	 0.306511549724309 
2263	 0.3045281163084 
2264	 0.302736149253468 
2265	 0.301248372342855 
2266	 0.29972323041473 
2267	 0.298370842193109 
2268	 0.296970112444757 
2269	 0.295593491096827 
2270	 0.294266211541856 
2271	 0.292961068516784 
2272	 0.291691025817529 
2273	 0.290497960616146 
2274	 0.289277910725277 
2275	 0.288085462385975 
2276	 0.286866768417198 
2277	 0.285621657551278 
2278	 0.28441249381865 
2279	 0.283148653288539 
2280	 0.281988819838471 
2281	 0.280882604951957 
2282	 0.279839950625271 
2283	 0.278870404363774 
2284	 0.277980432411655 
2285	 0.277095419243547 
2286	 0.276275858256117 
2287	 0.275517181939381 
2288	 0.274784347114937 
2289	 0.274122462595239 
2290	 0.27349586579336 
2291	 0.272852609374341 
2292	 0.272262656687725 
2293	 0.271727442945093 
2294	 0.271211783541204 
2295	 0.270756064271032 
2296	 0.270317930887368 
2297	 0.269957428895241 
2298	 0.269616309886212 
2299	 0.269417234526075 
2300	 0.269305977217446 
2301	 0.269326515955789 
2302	 0.269476218954094 
2303	 0.269704202177661 
2304	 0.270036309181867 
2305	 0.270477769739736 
2306	 0.271009134008659 
2307	 0.271686201755885 
2308	 0.272482562142256 
2309	 0.273452956390295 
2310	 0.274617493053135 
2311	 0.275818838607663 
2312	 0.277216139489503 
2313	 0.278579786998511 
2314	 0.280011282579237 
2315	 0.281441614929515 
2316	 0.282962602450041 
2317	 0.284348939767263 
2318	 0.285754975414273 
2319	 0.286966166468362 
2320	 0.288120568148574 
2321	 0.289016897659202 
2322	 0.289706070611542 
2323	 0.290240582138644 
2324	 0.290505925295042 
2325	 0.290704324777967 
2326	 0.290729456056239 
2327	 0.290695237396198 
2328	 0.290560674123326 
2329	 0.290316196505859 
2330	 0.289975775093109 
2331	 0.289543434672491 
2332	 0.288938599447506 
2333	 0.288255185385348 
2334	 0.287482014444329 
2335	 0.28660654697131 
2336	 0.285671293062794 
2337	 0.28464539864194 
2338	 0.28358029824136 
2339	 0.282491607765429 
2340	 0.281441505595758 
2341	 0.280399271653851 
2342	 0.279383783916476 
2343	 0.278501948645717 
2344	 0.277716632139449 
2345	 0.277106236209174 
2346	 0.276732078328834 
2347	 0.276554443878361 
2348	 0.27658277152086 
2349	 0.276930916572821 
2350	 0.277465486848794 
2351	 0.278181620001091 
2352	 0.279153938039673 
2353	 0.280156991525128 
2354	 0.281108808262617 
2355	 0.282163092882384 
2356	 0.283091724628176 
2357	 0.283895250485818 
2358	 0.284780061095542 
2359	 0.28549342483127 
2360	 0.28612478751423 
2361	 0.286692648921044 
2362	 0.287081175619423 
2363	 0.287365729582389 
2364	 0.287578086380458 
2365	 0.28776391558413 
2366	 0.287968839314802 
2367	 0.288198984146726 
2368	 0.288327481817306 
2369	 0.288421822728718 
2370	 0.288542056071364 
2371	 0.288596004707511 
2372	 0.288658182002793 
2373	 0.288730477632043 
2374	 0.28875909042859 
2375	 0.288765821499407 
2376	 0.288818080043163 
2377	 0.288865340001906 
2378	 0.288896306305478 
2379	 0.288972234963284 
2380	 0.289013735995437 
2381	 0.289046444182968 
2382	 0.289056379132569 
2383	 0.28899283003181 
2384	 0.289006827234533 
2385	 0.289026048074431 
2386	 0.289107441772677 
2387	 0.289279630560529 
2388	 0.2894291695507 
2389	 0.289605188339695 
2390	 0.289778768123955 
2391	 0.290001144822478 
2392	 0.290083430461555 
2393	 0.290073524046664 
2394	 0.290124154415818 
2395	 0.290130846098917 
2396	 0.290133061749134 
2397	 0.290204801774211 
2398	 0.290162784405426 
2399	 0.2900046571745 
2400	 0.289864770909128 
2401	 0.289715365968631 
2402	 0.289458014646523 
2403	 0.289259840600057 
2404	 0.289025464113168 
2405	 0.288760863638182 
2406	 0.288545508539795 
2407	 0.288372127406389 
2408	 0.28825843685366 
2409	 0.288123137600043 
2410	 0.288003355206964 
2411	 0.287811437243301 
2412	 0.287441557480222 
2413	 0.287131870008591 
2414	 0.286883249490176 
2415	 0.286629321406562 
2416	 0.286394148692224 
2417	 0.28611033713282 
2418	 0.285687540950809 
2419	 0.28518214021127 
2420	 0.284880089153616 
2421	 0.284572225246261 
2422	 0.284160198556521 
2423	 0.283808602801912 
2424	 0.283244606458865 
2425	 0.282708920751279 
2426	 0.282367804435365 
2427	 0.281862930477253 
2428	 0.281293809753399 
2429	 0.280713595216192 
2430	 0.280047474395452 
2431	 0.279318813373159 
2432	 0.278496638584697 
2433	 0.277670266919487 
2434	 0.2767105915657 
2435	 0.27573709907906 
2436	 0.274890802764931 
2437	 0.273853023028401 
2438	 0.272842469119779 
2439	 0.271836858893754 
2440	 0.270666835166498 
2441	 0.269647546732856 
2442	 0.268677499408203 
2443	 0.267577214766233 
2444	 0.266489406862112 
2445	 0.265390395118426 
2446	 0.264189659847797 
2447	 0.26305904179431 
2448	 0.261912255001027 
2449	 0.260745026116669 
2450	 0.259729056149216 
2451	 0.258753539617294 
2452	 0.257856291147414 
2453	 0.256956355728809 
2454	 0.255991258104653 
2455	 0.25507431152111 
2456	 0.254217040244637 
2457	 0.253422531406065 
2458	 0.252582639094337 
2459	 0.251578160070443 
2460	 0.250675318949096 
2461	 0.249942089329249 
2462	 0.249089475692418 
2463	 0.248308890067591 
2464	 0.247552450251228 
2465	 0.24679265480032 
2466	 0.24631789070287 
2467	 0.245910520449036 
2468	 0.245429407770319 
2469	 0.244945854248433 
2470	 0.244357062261942 
2471	 0.243732637359721 
2472	 0.243212872817703 
2473	 0.242840206110364 
2474	 0.242490737824083 
2475	 0.242166587459404 
2476	 0.241830035917876 
2477	 0.241441119498398 
2478	 0.241175277755712 
2479	 0.240841700971235 
2480	 0.240749374605591 
2481	 0.24045540384246 
2482	 0.239894171890025 
2483	 0.239456128268144 
2484	 0.239173465879281 
2485	 0.239014179765713 
2486	 0.238970627971771 
2487	 0.239083621237528 
2488	 0.238738351343742 
2489	 0.23817232627565 
2490	 0.237603847191826 
2491	 0.237058749101696 
2492	 0.237003031960491 
2493	 0.23677751839044 
2494	 0.236550855907854 
2495	 0.236527089480599 
2496	 0.236068893454384 
2497	 0.23588289215238 
2498	 0.235935582970316 
2499	 0.235523394308175 
2500	 0.235284524541983 
