Wavelength	spectrum00002.asd
350	 0.113195778020513 
351	 0.108212461542075 
352	 0.103646859374332 
353	 0.102177571421872 
354	 0.100647971559554 
355	 9.81040057913628E-02 
356	 9.62328266730569E-02 
357	 0.095654999256743 
358	 9.17443309117473E-02 
359	 8.86716504592208E-02 
360	 8.73449108891535E-02 
361	 8.68062249633885E-02 
362	 8.70483129950775E-02 
363	 8.60688940079558E-02 
364	 0.083875804659482 
365	 8.32077460584213E-02 
366	 8.33036495077184E-02 
367	 8.27668495034126E-02 
368	 8.11864976006495E-02 
369	 0.081944847847031 
370	 8.21973897458682E-02 
371	 8.13632722914059E-02 
372	 0.080295443197447 
373	 7.96362541695946E-02 
374	 7.91353878892065E-02 
375	 7.87903106618033E-02 
376	 7.91334179023777E-02 
377	 7.90674181593468E-02 
378	 7.82076149307761E-02 
379	 7.67637052805621E-02 
380	 7.59236221749206E-02 
381	 7.66623351075399E-02 
382	 7.73971093196355E-02 
383	 7.56116302927802E-02 
384	 7.54593092723777E-02 
385	 7.55951057196797E-02 
386	 7.49106088823795E-02 
387	 0.073610225037281 
388	 7.31220405587626E-02 
389	 7.28851003150688E-02 
390	 7.21150735959232E-02 
391	 7.13938044083143E-02 
392	 7.11900154434766E-02 
393	 7.12308263610712E-02 
394	 7.08027724841287E-02 
395	 0.070008618844837 
396	 6.95711148455085E-02 
397	 6.95509465560695E-02 
398	 6.88058037709127E-02 
399	 6.79924462823486E-02 
400	 6.76850221629032E-02 
401	 6.79581034345315E-02 
402	 6.69516220413836E-02 
403	 6.63485966622934E-02 
404	 6.63315386694534E-02 
405	 6.59181947473712E-02 
406	 6.55857310287936E-02 
407	 6.52353918618942E-02 
408	 6.48216206194005E-02 
409	 6.45757204583079E-02 
410	 6.40881389715838E-02 
411	 6.36286344925591E-02 
412	 6.35534284121738E-02 
413	 6.35715804555075E-02 
414	 6.28697072975403E-02 
415	 6.19070113231575E-02 
416	 6.21681115473606E-02 
417	 6.18631295698655E-02 
418	 6.14962304111195E-02 
419	 6.15199198143931E-02 
420	 6.13016700540212E-02 
421	 6.10363050977895E-02 
422	 6.08499929422192E-02 
423	 6.07887129787715E-02 
424	 6.05266761091425E-02 
425	 6.03679516360092E-02 
426	 6.03600845120792E-02 
427	 0.06020939440566 
428	 6.00376582178849E-02 
429	 5.99405164685146E-02 
430	 5.99063912252447E-02 
431	 5.95875384109864E-02 
432	 5.94535037200292E-02 
433	 5.94853176593113E-02 
434	 5.94025604526916E-02 
435	 5.93250691912442E-02 
436	 5.92873266194049E-02 
437	 5.92507298476505E-02 
438	 5.90651228345583E-02 
439	 5.90637679565956E-02 
440	 5.91283000038237E-02 
441	 5.90799391655836E-02 
442	 5.90994912913033E-02 
443	 5.90701194998955E-02 
444	 5.90166806512536E-02 
445	 5.90703130755157E-02 
446	 5.90818069512755E-02 
447	 5.91015831357782E-02 
448	 5.91284784841331E-02 
449	 5.89264827565939E-02 
450	 5.90903550281725E-02 
451	 5.93469403880161E-02 
452	 5.92264940287316E-02 
453	 5.93459745499543E-02 
454	 0.059411888808302 
455	 5.93575063997316E-02 
456	 5.94300270828171E-02 
457	 5.94556854289807E-02 
458	 5.95460180329138E-02 
459	 5.97688185068482E-02 
460	 5.98868853246203E-02 
461	 5.99796706100033E-02 
462	 6.00566284858371E-02 
463	 6.01105596997246E-02 
464	 6.03128514471184E-02 
465	 6.05865165411146E-02 
466	 0.060822894701656 
467	 6.09058122474815E-02 
468	 0.061090585606682 
469	 6.13651250698427E-02 
470	 6.16678963257301E-02 
471	 6.21307498417995E-02 
472	 6.23929478811667E-02 
473	 6.25739451738702E-02 
474	 6.31373506364765E-02 
475	 6.35034424550427E-02 
476	 6.38994959722994E-02 
477	 6.45146895713106E-02 
478	 6.51817863588065E-02 
479	 6.57818645902879E-02 
480	 6.64102929315683E-02 
481	 6.72147138316598E-02 
482	 6.80255027280217E-02 
483	 6.89369893326339E-02 
484	 6.99152137892768E-02 
485	 7.07645913008961E-02 
486	 7.19521424576112E-02 
487	 7.32580336757635E-02 
488	 7.44580011047806E-02 
489	 7.58240842628458E-02 
490	 7.73612560587057E-02 
491	 7.90234117149286E-02 
492	 8.07383096530489E-02 
493	 8.25262917256354E-02 
494	 8.43969450976591E-02 
495	 8.63986165581925E-02 
496	 8.86477682417118E-02 
497	 9.09349460802277E-02 
498	 9.33564840462948E-02 
499	 9.60298195243872E-02 
500	 9.87346252333093E-02 
501	 0.10150967965018 
502	 0.104436445498879 
503	 0.107617788246952 
504	 0.110989170132337 
505	 0.114505886802607 
506	 0.118158904707148 
507	 0.122015050858234 
508	 0.126027756470697 
509	 0.130184893244351 
510	 0.134485897443303 
511	 0.138916430362845 
512	 0.143550122092591 
513	 0.148426928670124 
514	 0.153550040444524 
515	 0.158678106832183 
516	 0.163939426688722 
517	 0.169491361944152 
518	 0.175218443084072 
519	 0.181051816650968 
520	 0.1870552530178 
521	 0.193356154591197 
522	 0.199653441612356 
523	 0.206043875112524 
524	 0.212609097494719 
525	 0.219299548589013 
526	 0.226122295857834 
527	 0.233090787421266 
528	 0.240203349515526 
529	 0.247339366857587 
530	 0.254553563485254 
531	 0.261877098345697 
532	 0.269287947501879 
533	 0.276820437780654 
534	 0.28445162078959 
535	 0.292137701024964 
536	 0.299855426312664 
537	 0.307622864612741 
538	 0.315393788731519 
539	 0.323100570301557 
540	 0.330733464080264 
541	 0.338351801903793 
542	 0.345964930029411 
543	 0.353485937426517 
544	 0.360908197023976 
545	 0.368190584679132 
546	 0.375313793460478 
547	 0.382415722425684 
548	 0.389467725299875 
549	 0.39642083957974 
550	 0.403213611566664 
551	 0.409828939474812 
552	 0.41633772922841 
553	 0.42277599306072 
554	 0.429018568698758 
555	 0.435151423212393 
556	 0.441224277374316 
557	 0.447238568250254 
558	 0.453051253564016 
559	 0.458692825805842 
560	 0.46414748543282 
561	 0.469310709898723 
562	 0.474238011994273 
563	 0.479026602807856 
564	 0.483741581635303 
565	 0.488277146916742 
566	 0.492703346369382 
567	 0.497058411400734 
568	 0.501347667935183 
569	 0.505524382552892 
570	 0.509537974144551 
571	 0.513398935115445 
572	 0.517255546096887 
573	 0.520885367930828 
574	 0.524297448192536 
575	 0.527583337335688 
576	 0.530685017073188 
577	 0.533697482624444 
578	 0.536665426792611 
579	 0.539559564472681 
580	 0.542526601195088 
581	 0.545414697906389 
582	 0.548098459163299 
583	 0.550753939890976 
584	 0.553283269010979 
585	 0.555732424559571 
586	 0.558233590528737 
587	 0.56080140403431 
588	 0.563395438140211 
589	 0.565946159368878 
590	 0.568362480889974 
591	 0.570556149295673 
592	 0.572615980368528 
593	 0.574641444125056 
594	 0.576501825002672 
595	 0.578310776579089 
596	 0.580109766225908 
597	 0.581861610588615 
598	 0.58355438583879 
599	 0.585227797647138 
600	 0.586925716363801 
601	 0.588677687347298 
602	 0.59039113924804 
603	 0.592043270526992 
604	 0.59365299850899 
605	 0.595294558674844 
606	 0.596910706472866 
607	 0.598476373457834 
608	 0.600018050671659 
609	 0.601416608282185 
610	 0.60275244069817 
611	 0.604113833500092 
612	 0.605418297147511 
613	 0.606719166756536 
614	 0.607979976747085 
615	 0.609133579370706 
616	 0.610425612255328 
617	 0.611634187730757 
618	 0.61268905412497 
619	 0.613903296081286 
620	 0.615146267563872 
621	 0.616263268680634 
622	 0.617178315182454 
623	 0.618232048460628 
624	 0.619358067582131 
625	 0.620461472498214 
626	 0.621449728306772 
627	 0.622448502262865 
628	 0.623431054559834 
629	 0.624365897620111 
630	 0.625268093007155 
631	 0.626287225035963 
632	 0.627275696571729 
633	 0.628032545605635 
634	 0.629030240179253 
635	 0.629935128683637 
636	 0.630658623627546 
637	 0.631494742785414 
638	 0.632358108382286 
639	 0.633246650088169 
640	 0.634126424440477 
641	 0.634795416650673 
642	 0.63554611557726 
643	 0.636384888050059 
644	 0.637145932189003 
645	 0.637881373541172 
646	 0.638617710016427 
647	 0.639374832557308 
648	 0.640170171640841 
649	 0.640908145413518 
650	 0.641558939628193 
651	 0.642153043709605 
652	 0.642869081930474 
653	 0.643526394919439 
654	 0.644131646384709 
655	 0.6448417804529 
656	 0.645591870885541 
657	 0.646220670768674 
658	 0.646706858591896 
659	 0.647350635050801 
660	 0.648036840277862 
661	 0.648697698501763 
662	 0.649287379587456 
663	 0.649813624890137 
664	 0.650423560328911 
665	 0.651098652731851 
666	 0.651652206636199 
667	 0.652155830945188 
668	 0.652685174735082 
669	 0.653271412821633 
670	 0.653829129592488 
671	 0.6544193682315 
672	 0.654954140329197 
673	 0.655335243737101 
674	 0.655861124176356 
675	 0.656391659180696 
676	 0.656881032890932 
677	 0.657440186131424 
678	 0.657906083520109 
679	 0.658316437042753 
680	 0.658754918450916 
681	 0.659299483530462 
682	 0.659777548351317 
683	 0.660203053201447 
684	 0.660678885818228 
685	 0.661082804992346 
686	 0.661577986173972 
687	 0.66216055420618 
688	 0.662557918898688 
689	 0.662965358918848 
690	 0.6634279774901 
691	 0.663935213216797 
692	 0.664433446204685 
693	 0.664887600925866 
694	 0.665293642471462 
695	 0.665679115757465 
696	 0.66615533054986 
697	 0.666653679554796 
698	 0.66710019693964 
699	 0.667446145418542 
700	 0.667873245908236 
701	 0.668375047170863 
702	 0.668866645365983 
703	 0.669194322928935 
704	 0.669605815655799 
705	 0.670085123447314 
706	 0.67045132162881 
707	 0.670909481785837 
708	 0.671358425841422 
709	 0.671701065651309 
710	 0.671902933091369 
711	 0.67223521234042 
712	 0.672672356206562 
713	 0.673102420858481 
714	 0.673495891912503 
715	 0.673851304560298 
716	 0.674152231269655 
717	 0.674386231399526 
718	 0.674681874626437 
719	 0.675114155312591 
720	 0.67561932775218 
721	 0.675924439129211 
722	 0.676143214497941 
723	 0.676407698459304 
724	 0.676795799011896 
725	 0.677140418634095 
726	 0.677484578321202 
727	 0.677807666607882 
728	 0.678053240277013 
729	 0.678288750014485 
730	 0.678595347002837 
731	 0.678964593710073 
732	 0.6792456149394 
733	 0.67947707611154 
734	 0.679757281517002 
735	 0.680139788023458 
736	 0.680457249405194 
737	 0.680613381811698 
738	 0.680745726528188 
739	 0.681106508198318 
740	 0.681484881147517 
741	 0.681821078551045 
742	 0.682080677372946 
743	 0.682235257374543 
744	 0.682631759821903 
745	 0.682975841831261 
746	 0.683006026445851 
747	 0.683168532778272 
748	 0.683436987667302 
749	 0.683775961955351 
750	 0.684118303308636 
751	 0.684262292674529 
752	 0.684329919971917 
753	 0.684477265903609 
754	 0.684846391290045 
755	 0.685276026529757 
756	 0.68557036539127 
757	 0.68565324019947 
758	 0.685779389255258 
759	 0.685920385034547 
760	 0.686133553494469 
761	 0.6864741454815 
762	 0.686796381939995 
763	 0.686946853119025 
764	 0.687000937694408 
765	 0.687255454599531 
766	 0.687473108809379 
767	 0.687708466828554 
768	 0.687994506987021 
769	 0.688183406373238 
770	 0.688403293457306 
771	 0.688615101239389 
772	 0.688755504462384 
773	 0.688941180678192 
774	 0.68921605839996 
775	 0.689512257517564 
776	 0.689688465944196 
777	 0.689826407204164 
778	 0.689958648419411 
779	 0.690102966332548 
780	 0.690260410129525 
781	 0.690470768444629 
782	 0.690742277940809 
783	 0.691042277498166 
784	 0.691248774000396 
785	 0.691390965492169 
786	 0.691517971194406 
787	 0.691670018173203 
788	 0.691724993065702 
789	 0.69181424959745 
790	 0.691997592918083 
791	 0.692217951538624 
792	 0.692354120832292 
793	 0.692461287405716 
794	 0.692603376097123 
795	 0.692769151987924 
796	 0.692895568819084 
797	 0.693035112869741 
798	 0.693255509469728 
799	 0.693492166500405 
800	 0.69354225667372 
801	 0.693522843793818 
802	 0.693748654474145 
803	 0.693822308174592 
804	 0.693933097597094 
805	 0.694174491578381 
806	 0.694383870018898 
807	 0.694463445174996 
808	 0.694455675634081 
809	 0.694479615538068 
810	 0.694754906097169 
811	 0.694962873281207 
812	 0.695116650670229 
813	 0.695334971769438 
814	 0.695393742512235 
815	 0.695453382230366 
816	 0.69557673649547 
817	 0.695716923636798 
818	 0.695875673417893 
819	 0.696011571233055 
820	 0.696103358593408 
821	 0.696168195439647 
822	 0.696378478415504 
823	 0.696589415377489 
824	 0.696660697680896 
825	 0.69672839697671 
826	 0.696986588958856 
827	 0.697262632815433 
828	 0.697296275751606 
829	 0.697419698289249 
830	 0.697536012437071 
831	 0.697604421348201 
832	 0.697655731923466 
833	 0.697686639440024 
834	 0.697789277856825 
835	 0.697971332864656 
836	 0.698096664214149 
837	 0.698220538344119 
838	 0.698326872122931 
839	 0.698398698704452 
840	 0.698459780051482 
841	 0.698494703474341 
842	 0.698551411090254 
843	 0.698681796168719 
844	 0.698834460216295 
845	 0.698961581563765 
846	 0.699032573831996 
847	 0.699051768861498 
848	 0.699177891422797 
849	 0.699324139325539 
850	 0.699390203669285 
851	 0.699313282187818 
852	 0.699334789684279 
853	 0.699493090925066 
854	 0.699712509382118 
855	 0.699790997956721 
856	 0.699777524875227 
857	 0.699769422440623 
858	 0.699859607887488 
859	 0.700053214141892 
860	 0.700240151442727 
861	 0.700401921425484 
862	 0.700542211472945 
863	 0.700465460857644 
864	 0.700418135195058 
865	 0.700533907002953 
866	 0.700775912036304 
867	 0.700747967950777 
868	 0.700706789515523 
869	 0.700820449366598 
870	 0.70099776119808 
871	 0.70112641912322 
872	 0.701182342048882 
873	 0.70119517977148 
874	 0.701244319562049 
875	 0.701402598248911 
876	 0.701625343432009 
877	 0.701797202053392 
878	 0.701707494689178 
879	 0.701738207856182 
880	 0.701804166801908 
881	 0.701671079339831 
882	 0.70165437717727 
883	 0.701724303559291 
884	 0.701827501866418 
885	 0.7019061982155 
886	 0.701915217088084 
887	 0.701921792691567 
888	 0.701933188144762 
889	 0.701884342297679 
890	 0.701964874654397 
891	 0.702089798971526 
892	 0.702128372719368 
893	 0.701970160391714 
894	 0.701897120722048 
895	 0.701964455552488 
896	 0.702095438822751 
897	 0.702059586505458 
898	 0.701961355061176 
899	 0.701869539196751 
900	 0.701830826528176 
901	 0.701846282894328 
902	 0.701845553713497 
903	 0.701770877789265 
904	 0.701605312506241 
905	 0.701458434096024 
906	 0.701399461290633 
907	 0.701448576325509 
908	 0.701574172211417 
909	 0.701682418518238 
910	 0.701713866524135 
911	 0.701670903067915 
912	 0.701624215575698 
913	 0.701763899727069 
914	 0.701792675535286 
915	 0.701667021783485 
916	 0.701767879786841 
917	 0.701840948618508 
918	 0.701815987241249 
919	 0.701713929387339 
920	 0.701645743259803 
921	 0.701743502770215 
922	 0.701900932032943 
923	 0.7020009303199 
924	 0.702078111536518 
925	 0.702208706689273 
926	 0.702288139395483 
927	 0.702254829933737 
928	 0.702385933518357 
929	 0.702592151453833 
930	 0.702814535548627 
931	 0.703003179711323 
932	 0.703101973439765 
933	 0.703216702778958 
934	 0.703398836329273 
935	 0.703628973361513 
936	 0.703732002247591 
937	 0.70382286859406 
938	 0.703963152879312 
939	 0.704160086604785 
940	 0.70444806437284 
941	 0.704574300358857 
942	 0.704581825390462 
943	 0.704743505197243 
944	 0.704809550279043 
945	 0.704925704905196 
946	 0.705102303667158 
947	 0.705182085948447 
948	 0.705303053112371 
949	 0.705381084702782 
950	 0.705382939292582 
951	 0.705377992923662 
952	 0.705374875832403 
953	 0.705434137565022 
954	 0.705530721762156 
955	 0.70551701103122 
956	 0.705489919360879 
957	 0.705455662279095 
958	 0.705407078156017 
959	 0.705344800570383 
960	 0.705277287978647 
961	 0.705271688689493 
962	 0.70531053042768 
963	 0.70519712630464 
964	 0.705045046005995 
965	 0.704990161056079 
966	 0.705048391054817 
967	 0.7049692175606 
968	 0.70479290621434 
969	 0.704778106945136 
970	 0.705029203380746 
971	 0.705127022889814 
972	 0.705044790286138 
973	 0.705027554279288 
974	 0.705234956823058 
975	 0.705342526958313 
976	 0.705300067129154 
977	 0.705223643541029 
978	 0.705249247884148 
979	 0.705377599871875 
980	 0.705386542245359 
981	 0.705391455944135 
982	 0.705534298177388 
983	 0.705642241933735 
984	 0.705736936190451 
985	 0.705827584757814 
986	 0.70590840563615 
987	 0.705921871156535 
988	 0.705974732576349 
989	 0.706050480297772 
990	 0.706070961214797 
991	 0.705912289296702 
992	 0.705872629009668 
993	 0.705951682019015 
994	 0.706062009921063 
995	 0.706277533960813 
996	 0.706277612763904 
997	 0.706164666506428 
998	 0.706156197206285 
999	 0.706274429521071 
1000	 0.706287992732858 
1001	 0.712603456029713 
1002	 0.712668036865965 
1003	 0.712693086307036 
1004	 0.712719585467688 
1005	 0.712706631724859 
1006	 0.712742590039445 
1007	 0.7128080675647 
1008	 0.712839218250711 
1009	 0.712861551467201 
1010	 0.712898609180278 
1011	 0.712923227471309 
1012	 0.712959287103122 
1013	 0.713019123106574 
1014	 0.713078156175505 
1015	 0.713157668448872 
1016	 0.713179975073839 
1017	 0.713202512875292 
1018	 0.71324514564135 
1019	 0.713271634237341 
1020	 0.713280052009798 
1021	 0.713322092764308 
1022	 0.713403564787145 
1023	 0.713455428822473 
1024	 0.713510870185855 
1025	 0.713563462840766 
1026	 0.713601273822145 
1027	 0.713627635484884 
1028	 0.713645759148238 
1029	 0.713670471240436 
1030	 0.713685291175141 
1031	 0.713751407766811 
1032	 0.713783192112369 
1033	 0.713800693844445 
1034	 0.713808337629155 
1035	 0.713791289453678 
1036	 0.713794237754306 
1037	 0.713795413372266 
1038	 0.71381227062155 
1039	 0.713855729440216 
1040	 0.713879671020429 
1041	 0.713896212802157 
1042	 0.71393278521072 
1043	 0.713977924855743 
1044	 0.713988984190185 
1045	 0.714035279453459 
1046	 0.714121708240906 
1047	 0.714219485373887 
1048	 0.71434343236696 
1049	 0.714442594133653 
1050	 0.714542725781281 
1051	 0.714653215904687 
1052	 0.714746092816544 
1053	 0.714865611272031 
1054	 0.715041837464534 
1055	 0.71516219719935 
1056	 0.715261075539076 
1057	 0.715367871486054 
1058	 0.715456429709217 
1059	 0.715524682555975 
1060	 0.715661600780441 
1061	 0.715808414267971 
1062	 0.715950588374664 
1063	 0.716102089523639 
1064	 0.716252490167558 
1065	 0.716398746024124 
1066	 0.716499076991986 
1067	 0.71663229732943 
1068	 0.716747695682815 
1069	 0.716816489598119 
1070	 0.716928403672638 
1071	 0.717072621479253 
1072	 0.717196505382349 
1073	 0.717303301035289 
1074	 0.717435860592492 
1075	 0.717577377916488 
1076	 0.717746186970927 
1077	 0.717915607197347 
1078	 0.718091747548374 
1079	 0.718268793000496 
1080	 0.718389047293746 
1081	 0.718529685550808 
1082	 0.718697296796643 
1083	 0.718769187008485 
1084	 0.718847893661076 
1085	 0.718991454815858 
1086	 0.719117026650067 
1087	 0.719227082293339 
1088	 0.719378294787691 
1089	 0.719520044126187 
1090	 0.719587708321514 
1091	 0.719636945913946 
1092	 0.719688999588429 
1093	 0.71977058269687 
1094	 0.719854594732082 
1095	 0.719929884083152 
1096	 0.720034643644404 
1097	 0.720100041080234 
1098	 0.720121460486662 
1099	 0.720173454434591 
1100	 0.72022569089328 
1101	 0.720275430310041 
1102	 0.720323572293259 
1103	 0.720350874769798 
1104	 0.720359763601264 
1105	 0.720362360247124 
1106	 0.720358462658104 
1107	 0.720366027518691 
1108	 0.720395751638493 
1109	 0.720412616867487 
1110	 0.720383732619851 
1111	 0.720350293073468 
1112	 0.72035550610356 
1113	 0.720312305046149 
1114	 0.720256249854789 
1115	 0.720236779512432 
1116	 0.720155004714683 
1117	 0.72004496221311 
1118	 0.719963210656486 
1119	 0.719893217714948 
1120	 0.719814504960408 
1121	 0.719744191330807 
1122	 0.719677477815749 
1123	 0.71956038863962 
1124	 0.719403914076007 
1125	 0.719234969976469 
1126	 0.719071457166146 
1127	 0.718890425804794 
1128	 0.718688573136452 
1129	 0.718470045984207 
1130	 0.718204006528485 
1131	 0.71791675512056 
1132	 0.717660437827912 
1133	 0.717387316767779 
1134	 0.717072528664509 
1135	 0.716746310271152 
1136	 0.716407232521619 
1137	 0.716045002183336 
1138	 0.715661748219573 
1139	 0.715262779518523 
1140	 0.71484081888803 
1141	 0.714419650630768 
1142	 0.713980641710406 
1143	 0.713545734748461 
1144	 0.713112452306211 
1145	 0.712643461971728 
1146	 0.712176086620728 
1147	 0.711659911077996 
1148	 0.711128279959067 
1149	 0.710638970335555 
1150	 0.710119509022963 
1151	 0.709611291982749 
1152	 0.709093030911713 
1153	 0.708566629066287 
1154	 0.708031125014204 
1155	 0.707505731522794 
1156	 0.706940718765294 
1157	 0.706355138595043 
1158	 0.705768804769057 
1159	 0.705156616533029 
1160	 0.704539500234556 
1161	 0.70392605823382 
1162	 0.70328445396862 
1163	 0.702673794407391 
1164	 0.702055357555319 
1165	 0.701430938262798 
1166	 0.700850841213068 
1167	 0.700236856386837 
1168	 0.699652506359347 
1169	 0.699079790831899 
1170	 0.69853017959337 
1171	 0.697966706179214 
1172	 0.697417291222817 
1173	 0.696838933086871 
1174	 0.696259789820519 
1175	 0.695672966682816 
1176	 0.695060605107906 
1177	 0.694461436369161 
1178	 0.693868197087944 
1179	 0.693248393048023 
1180	 0.692656088469449 
1181	 0.692065475581602 
1182	 0.691464864596904 
1183	 0.690891905731289 
1184	 0.690314104990246 
1185	 0.689744602152149 
1186	 0.689192836690438 
1187	 0.688641062497659 
1188	 0.688132839370126 
1189	 0.687638332344187 
1190	 0.687188508909002 
1191	 0.686775952087255 
1192	 0.686405750381664 
1193	 0.686077044541584 
1194	 0.685767282539887 
1195	 0.685496192009219 
1196	 0.685245645494924 
1197	 0.685024822604584 
1198	 0.68480863171038 
1199	 0.684605234435027 
1200	 0.684440972602735 
1201	 0.684272264606222 
1202	 0.68413535587331 
1203	 0.684063175028328 
1204	 0.684008798934236 
1205	 0.684005339897387 
1206	 0.684025937809031 
1207	 0.68414119544577 
1208	 0.684292822763536 
1209	 0.684551512525688 
1210	 0.684897268450158 
1211	 0.685322331476562 
1212	 0.685838805097582 
1213	 0.686422105677879 
1214	 0.687077222046248 
1215	 0.687820802382872 
1216	 0.688663515007463 
1217	 0.689542249161924 
1218	 0.690506258191842 
1219	 0.691510878559419 
1220	 0.692556889730202 
1221	 0.693667639476844 
1222	 0.694758699251382 
1223	 0.695882909677843 
1224	 0.696940669235272 
1225	 0.69796351224094 
1226	 0.698950772997027 
1227	 0.699928662237457 
1228	 0.700829237248568 
1229	 0.701684660816435 
1230	 0.702492232547243 
1231	 0.703230350448606 
1232	 0.703945000420976 
1233	 0.704627591366936 
1234	 0.705253679136504 
1235	 0.705820824192839 
1236	 0.706371175324428 
1237	 0.706874173239837 
1238	 0.707357843513013 
1239	 0.707820316265301 
1240	 0.70825628644989 
1241	 0.708669445737077 
1242	 0.709045082640304 
1243	 0.709406441710692 
1244	 0.709745468002604 
1245	 0.710071773715324 
1246	 0.710374150353193 
1247	 0.710666991034723 
1248	 0.710952094744061 
1249	 0.711213082099034 
1250	 0.711457259488685 
1251	 0.711676643345243 
1252	 0.711875497845386 
1253	 0.712056635706092 
1254	 0.712218464782214 
1255	 0.712355675576476 
1256	 0.712465143701704 
1257	 0.71256746211201 
1258	 0.712614857979074 
1259	 0.712706364121003 
1260	 0.712844280928175 
1261	 0.71293640034327 
1262	 0.71302392919102 
1263	 0.713112153058605 
1264	 0.713167193050289 
1265	 0.713169066744415 
1266	 0.713202062503861 
1267	 0.713235230674826 
1268	 0.713274242982522 
1269	 0.713308620437052 
1270	 0.713356428788941 
1271	 0.713410528846373 
1272	 0.713478566349641 
1273	 0.713559833962623 
1274	 0.713639459338982 
1275	 0.713740567902828 
1276	 0.713821030231578 
1277	 0.713880935832888 
1278	 0.713960896922634 
1279	 0.714039850495111 
1280	 0.714126302621985 
1281	 0.71422855039476 
1282	 0.714330202561458 
1283	 0.714432519183261 
1284	 0.714536104836843 
1285	 0.714642363020217 
1286	 0.714750300817023 
1287	 0.714871229056775 
1288	 0.715003538574879 
1289	 0.715118769053781 
1290	 0.715237301355482 
1291	 0.715352680434749 
1292	 0.715455694192794 
1293	 0.715560146601949 
1294	 0.71566740552275 
1295	 0.715777183882053 
1296	 0.715874145792686 
1297	 0.715987351378458 
1298	 0.716125896350933 
1299	 0.716241290634711 
1300	 0.716363118725696 
1301	 0.71645857710902 
1302	 0.71651545072979 
1303	 0.716597631283417 
1304	 0.716696319954938 
1305	 0.71676397556673 
1306	 0.716843536816621 
1307	 0.716892540129068 
1308	 0.716903826942911 
1309	 0.71689692142554 
1310	 0.716894413630819 
1311	 0.716889067699447 
1312	 0.716860964256647 
1313	 0.716820742745876 
1314	 0.716772153908129 
1315	 0.716693828147407 
1316	 0.716644797867556 
1317	 0.716603003947469 
1318	 0.716559319583962 
1319	 0.716540531911887 
1320	 0.716483198135974 
1321	 0.716422133322761 
1322	 0.716326539979182 
1323	 0.716203838767677 
1324	 0.716063794242727 
1325	 0.71589357940757 
1326	 0.715718368569093 
1327	 0.715533218051004 
1328	 0.715328489741893 
1329	 0.715093620381687 
1330	 0.714872301668048 
1331	 0.714655513284617 
1332	 0.714416670921287 
1333	 0.714174865858883 
1334	 0.713926304406649 
1335	 0.713664718936548 
1336	 0.713390864359891 
1337	 0.71307513639892 
1338	 0.712750171119482 
1339	 0.712392838910308 
1340	 0.711987310236554 
1341	 0.711583417128268 
1342	 0.71117854674934 
1343	 0.710735729621161 
1344	 0.710270897322758 
1345	 0.709772086908256 
1346	 0.70923866917119 
1347	 0.708698846931574 
1348	 0.708124149533896 
1349	 0.707553230444534 
1350	 0.706971808499953 
1351	 0.706387470450399 
1352	 0.705800262964425 
1353	 0.705198261655749 
1354	 0.704583973928951 
1355	 0.703971317911469 
1356	 0.703345860975759 
1357	 0.702720402236417 
1358	 0.702078055478078 
1359	 0.701462251418406 
1360	 0.700875708215331 
1361	 0.700260946481383 
1362	 0.699647603547473 
1363	 0.699069734298592 
1364	 0.69842647754338 
1365	 0.697762186517259 
1366	 0.697049971737638 
1367	 0.69631067525433 
1368	 0.695519640750957 
1369	 0.694673495070153 
1370	 0.693815646913313 
1371	 0.692910050488989 
1372	 0.692024973084641 
1373	 0.691140608324325 
1374	 0.690219767700826 
1375	 0.689289228353449 
1376	 0.688324925476383 
1377	 0.687310216118626 
1378	 0.686295912092241 
1379	 0.68526697405023 
1380	 0.684225643411015 
1381	 0.683162636296861 
1382	 0.68209803148097 
1383	 0.681025586773207 
1384	 0.679943179245219 
1385	 0.678838596247487 
1386	 0.677762366342425 
1387	 0.676661203493483 
1388	 0.675626479121359 
1389	 0.67463243718342 
1390	 0.673668627047073 
1391	 0.672770943022539 
1392	 0.671851068344325 
1393	 0.671008766257564 
1394	 0.670140555757707 
1395	 0.66925309421869 
1396	 0.66840296282109 
1397	 0.667443945282632 
1398	 0.666465560250749 
1399	 0.665344077883108 
1400	 0.664140836726921 
1401	 0.662835039465108 
1402	 0.661419479306801 
1403	 0.659915596872083 
1404	 0.658305227916986 
1405	 0.65666621079792 
1406	 0.654892612307048 
1407	 0.653182776475788 
1408	 0.651374340994234 
1409	 0.649744531220501 
1410	 0.648109720227212 
1411	 0.646682502744439 
1412	 0.645381136239343 
1413	 0.644262109113839 
1414	 0.643322463936329 
1415	 0.642485272611776 
1416	 0.64186672035181 
1417	 0.641245024354983 
1418	 0.640750102295598 
1419	 0.640224085625311 
1420	 0.639741476786591 
1421	 0.639238172464929 
1422	 0.638712185001714 
1423	 0.638205647958868 
1424	 0.637710643781466 
1425	 0.637192233057831 
1426	 0.636737830263255 
1427	 0.636303212932495 
1428	 0.635880647127225 
1429	 0.635531261261554 
1430	 0.635193317407591 
1431	 0.634877187192103 
1432	 0.634599179775505 
1433	 0.634361307281437 
1434	 0.634142212949338 
1435	 0.633953118380124 
1436	 0.633781395726658 
1437	 0.633632007676905 
1438	 0.633510634155327 
1439	 0.633411143654967 
1440	 0.633338986554223 
1441	 0.633303947121884 
1442	 0.633272062778317 
1443	 0.6332633082891 
1444	 0.633256601228462 
1445	 0.633265308891456 
1446	 0.63327223121652 
1447	 0.63326743210779 
1448	 0.633301544566613 
1449	 0.633348103573377 
1450	 0.633418487873286 
1451	 0.633536778689447 
1452	 0.633639918331175 
1453	 0.633761480265614 
1454	 0.633861764836391 
1455	 0.633943286470212 
1456	 0.634039756020668 
1457	 0.634133256376366 
1458	 0.634228412240509 
1459	 0.634331152116054 
1460	 0.634439637584925 
1461	 0.634543086179439 
1462	 0.634655957422044 
1463	 0.634775599420722 
1464	 0.634908603486545 
1465	 0.635051038819412 
1466	 0.63520248600686 
1467	 0.635354698367931 
1468	 0.635518970752191 
1469	 0.635682192264432 
1470	 0.635827464756324 
1471	 0.635981137389167 
1472	 0.636141956070808 
1473	 0.636287255290068 
1474	 0.636432812350147 
1475	 0.636553871935957 
1476	 0.636659663412225 
1477	 0.6367586169624 
1478	 0.636842563218662 
1479	 0.636913187380648 
1480	 0.636981178363101 
1481	 0.637022712196894 
1482	 0.63702653332545 
1483	 0.637057002681241 
1484	 0.637093344376121 
1485	 0.637105158789883 
1486	 0.637122648111886 
1487	 0.637117417554759 
1488	 0.637069781341192 
1489	 0.637048499797208 
1490	 0.637011516482116 
1491	 0.637021694056402 
1492	 0.637051910687797 
1493	 0.637100966667208 
1494	 0.637201465726893 
1495	 0.637276705807909 
1496	 0.637347541917379 
1497	 0.637429150571245 
1498	 0.637511737693412 
1499	 0.637600262826686 
1500	 0.637692756641 
1501	 0.637799554732151 
1502	 0.637906099205006 
1503	 0.638031901239876 
1504	 0.638185839041303 
1505	 0.638334665605704 
1506	 0.638493910319257 
1507	 0.638652273532758 
1508	 0.638812415557771 
1509	 0.638970936663912 
1510	 0.639129135078969 
1511	 0.639290572106017 
1512	 0.639443279223029 
1513	 0.639612184675093 
1514	 0.639800266310052 
1515	 0.639979960284871 
1516	 0.640166925382553 
1517	 0.64035096646361 
1518	 0.640523405170165 
1519	 0.640701514301934 
1520	 0.640894901773127 
1521	 0.641072160771816 
1522	 0.641222844876029 
1523	 0.641403068085193 
1524	 0.641577785089284 
1525	 0.641745085908771 
1526	 0.641921606843658 
1527	 0.642103570051203 
1528	 0.642310243934751 
1529	 0.642523625310377 
1530	 0.642745585116996 
1531	 0.643004722945415 
1532	 0.643225228270854 
1533	 0.643424804241737 
1534	 0.643641510961919 
1535	 0.643854328167569 
1536	 0.644072820360235 
1537	 0.644307340045618 
1538	 0.644517571747863 
1539	 0.644726712854366 
1540	 0.644909471723528 
1541	 0.645077945831211 
1542	 0.645223934481996 
1543	 0.645342437391285 
1544	 0.645460986603154 
1545	 0.645569655834723 
1546	 0.645657305039476 
1547	 0.645741161735758 
1548	 0.645791209759287 
1549	 0.645801054533203 
1550	 0.645823183934915 
1551	 0.645830692965328 
1552	 0.645837030438153 
1553	 0.645846548697616 
1554	 0.645841588744615 
1555	 0.6458246155539 
1556	 0.645801181055688 
1557	 0.645768168474097 
1558	 0.64573296879768 
1559	 0.645677584700606 
1560	 0.64564701999401 
1561	 0.645614253486947 
1562	 0.645608233053579 
1563	 0.645605038835251 
1564	 0.645653514507097 
1565	 0.645752461464111 
1566	 0.64583759310589 
1567	 0.645961144982155 
1568	 0.64606686508777 
1569	 0.64615856324112 
1570	 0.646255756260401 
1571	 0.646364462664336 
1572	 0.646462469057414 
1573	 0.646542890875704 
1574	 0.646641191280345 
1575	 0.646753156222934 
1576	 0.646852096253334 
1577	 0.646945530395911 
1578	 0.647051735992384 
1579	 0.647157487508961 
1580	 0.647262647894297 
1581	 0.647383472073325 
1582	 0.647495485762917 
1583	 0.647589938122579 
1584	 0.647699724495408 
1585	 0.647813071941476 
1586	 0.647938391253735 
1587	 0.648074329666991 
1588	 0.648213394392216 
1589	 0.648364765700873 
1590	 0.648515417188711 
1591	 0.648676894457372 
1592	 0.648824911149641 
1593	 0.648977123027992 
1594	 0.649111232602872 
1595	 0.649222399348277 
1596	 0.649339996863992 
1597	 0.649450658492287 
1598	 0.649560428300214 
1599	 0.649664199602308 
1600	 0.649779080722826 
1601	 0.649903802287106 
1602	 0.650016275270257 
1603	 0.650129451229897 
1604	 0.650242924140072 
1605	 0.650338308921171 
1606	 0.650449634972632 
1607	 0.650587035741919 
1608	 0.65070141385542 
1609	 0.650817195044329 
1610	 0.650915470553958 
1611	 0.650991373756656 
1612	 0.651065894758254 
1613	 0.651143241899807 
1614	 0.651190791526532 
1615	 0.651206551741299 
1616	 0.651237735822755 
1617	 0.651265582392964 
1618	 0.651276017981444 
1619	 0.651289390092585 
1620	 0.651290530561105 
1621	 0.65126410807936 
1622	 0.651238656661788 
1623	 0.651226545450804 
1624	 0.651188985575961 
1625	 0.651125365533697 
1626	 0.651062907648093 
1627	 0.650979403907114 
1628	 0.650908126945975 
1629	 0.65084744759222 
1630	 0.650774618322265 
1631	 0.65069358962213 
1632	 0.650621149404224 
1633	 0.650548840624443 
1634	 0.650472275279738 
1635	 0.650412791617443 
1636	 0.65033006296044 
1637	 0.650238781976614 
1638	 0.650122016736693 
1639	 0.649987519647278 
1640	 0.649836332151216 
1641	 0.649636557688089 
1642	 0.649467406933649 
1643	 0.649319161392787 
1644	 0.649141188837779 
1645	 0.648979977761298 
1646	 0.648780822325408 
1647	 0.648532527882804 
1648	 0.648284497430005 
1649	 0.648039116161535 
1650	 0.647747841037247 
1651	 0.647432002708714 
1652	 0.647095124677246 
1653	 0.646733469303081 
1654	 0.646332146869104 
1655	 0.6459097881723 
1656	 0.645435139063296 
1657	 0.644909543217771 
1658	 0.644345278507498 
1659	 0.643740982337332 
1660	 0.643107050476258 
1661	 0.642443977021823 
1662	 0.641718876111131 
1663	 0.640957710640838 
1664	 0.640122963056194 
1665	 0.639224686906785 
1666	 0.638253933854842 
1667	 0.637214462505421 
1668	 0.636129701329055 
1669	 0.635006724957311 
1670	 0.633776850866232 
1671	 0.63245267420419 
1672	 0.631076274015166 
1673	 0.629600431893468 
1674	 0.628081031972543 
1675	 0.626523812725986 
1676	 0.624926697195568 
1677	 0.6232571799808 
1678	 0.621568981356238 
1679	 0.619839226879115 
1680	 0.61807371668417 
1681	 0.616266590651484 
1682	 0.61441984112591 
1683	 0.612529173514745 
1684	 0.610656347067587 
1685	 0.608759977537993 
1686	 0.606847478343636 
1687	 0.604914315564331 
1688	 0.602984259946406 
1689	 0.601028610200041 
1690	 0.59907921196025 
1691	 0.597164001201658 
1692	 0.595232077892867 
1693	 0.593295768812102 
1694	 0.591328081434019 
1695	 0.589341125317961 
1696	 0.587314139438305 
1697	 0.585252535582696 
1698	 0.583147185559375 
1699	 0.581008608819856 
1700	 0.578899506530753 
1701	 0.576724464772108 
1702	 0.574674051305008 
1703	 0.572630804027406 
1704	 0.57072775688259 
1705	 0.568917593659526 
1706	 0.567151198649347 
1707	 0.565584121540279 
1708	 0.56408165751163 
1709	 0.562665307209305 
1710	 0.561379319214525 
1711	 0.560102401910042 
1712	 0.558909967464052 
1713	 0.557726104321433 
1714	 0.556539412486293 
1715	 0.555484902750951 
1716	 0.554412805754999 
1717	 0.553393666095049 
1718	 0.552452003597443 
1719	 0.551499396409832 
1720	 0.550659170864575 
1721	 0.549938768177008 
1722	 0.549330312860386 
1723	 0.548916607399705 
1724	 0.548655236049185 
1725	 0.548545809281802 
1726	 0.548683359107351 
1727	 0.549015711023765 
1728	 0.54949717106919 
1729	 0.550199980945523 
1730	 0.551101204869843 
1731	 0.552056122417477 
1732	 0.553154457279202 
1733	 0.554310215027993 
1734	 0.555463617054376 
1735	 0.556677349356689 
1736	 0.557807254667361 
1737	 0.558823909495119 
1738	 0.559688572942159 
1739	 0.560397161827824 
1740	 0.561001907092433 
1741	 0.561437208239889 
1742	 0.56167457886647 
1743	 0.561820722008555 
1744	 0.561784729314949 
1745	 0.561722651142753 
1746	 0.561544624594424 
1747	 0.561372836899263 
1748	 0.561129491658619 
1749	 0.560927857747669 
1750	 0.560692869422056 
1751	 0.560516114540658 
1752	 0.560360376696233 
1753	 0.560276030695228 
1754	 0.560210163154387 
1755	 0.56028431716336 
1756	 0.560434580931653 
1757	 0.560700612102792 
1758	 0.561075543316299 
1759	 0.56151792888694 
1760	 0.56213063287823 
1761	 0.562906288267017 
1762	 0.563766764169516 
1763	 0.564748501921626 
1764	 0.56580148490434 
1765	 0.566948697259007 
1766	 0.568208987927692 
1767	 0.569467041389799 
1768	 0.570758623078015 
1769	 0.572017340345531 
1770	 0.57317140766726 
1771	 0.57435972092301 
1772	 0.575480849176218 
1773	 0.576483597263841 
1774	 0.577489302282754 
1775	 0.578380486569488 
1776	 0.579185014431771 
1777	 0.579938466631469 
1778	 0.580575807928716 
1779	 0.581197674520803 
1780	 0.581792432871597 
1781	 0.582339876575368 
1782	 0.582861413125167 
1783	 0.583282584070993 
1784	 0.583646525295831 
1785	 0.583922206700544 
1786	 0.584183369357286 
1787	 0.584406233215489 
1788	 0.584592843264875 
1789	 0.584740791075941 
1790	 0.584881494711278 
1791	 0.584977591555535 
1792	 0.585092811340598 
1793	 0.585208593759443 
1794	 0.585300109737655 
1795	 0.585402272607638 
1796	 0.585508195418977 
1797	 0.585617814109259 
1798	 0.585727697430857 
1799	 0.585826616767061 
1800	 0.585928584665725 
1801	 0.587993523933418 
1802	 0.588171091468169 
1803	 0.58832894234859 
1804	 0.588476230678146 
1805	 0.58863079446092 
1806	 0.588777744429542 
1807	 0.588910668563783 
1808	 0.589058261926655 
1809	 0.58920019207242 
1810	 0.589363538227037 
1811	 0.589543869804232 
1812	 0.589718434319085 
1813	 0.589895969229773 
1814	 0.590098199498163 
1815	 0.590272559430728 
1816	 0.59047140764723 
1817	 0.590664918186888 
1818	 0.590845828798781 
1819	 0.591058781713208 
1820	 0.59128630469311 
1821	 0.591515434502689 
1822	 0.591763723805871 
1823	 0.592031068775337 
1824	 0.592260209599356 
1825	 0.592500927833206 
1826	 0.592712085916083 
1827	 0.592897746525648 
1828	 0.593084744521824 
1829	 0.593245239364926 
1830	 0.593433098482269 
1831	 0.593623819927507 
1832	 0.593830396806449 
1833	 0.594041356001357 
1834	 0.594235649700833 
1835	 0.594418087586652 
1836	 0.594611610005645 
1837	 0.59481555250847 
1838	 0.595030407343675 
1839	 0.595234811502999 
1840	 0.595461904771075 
1841	 0.595659895210627 
1842	 0.595834766086123 
1843	 0.596011345024479 
1844	 0.596209316374695 
1845	 0.596368448252623 
1846	 0.596523382217661 
1847	 0.596687381441333 
1848	 0.596806122125564 
1849	 0.59688780665759 
1850	 0.596955391219198 
1851	 0.596999089146981 
1852	 0.597022792758127 
1853	 0.597047921136639 
1854	 0.597081000868263 
1855	 0.597087224460642 
1856	 0.597064348785745 
1857	 0.596998448814916 
1858	 0.596897127585941 
1859	 0.596777894462916 
1860	 0.596641156073059 
1861	 0.596468418977972 
1862	 0.596284596275872 
1863	 0.596031467303031 
1864	 0.595722733767704 
1865	 0.595421426598133 
1866	 0.595066635494065 
1867	 0.594658949174239 
1868	 0.594267084336818 
1869	 0.59377685058671 
1870	 0.593218429601502 
1871	 0.592609112472503 
1872	 0.591947867054064 
1873	 0.591210386305411 
1874	 0.590435798196056 
1875	 0.589635555524812 
1876	 0.588711877261793 
1877	 0.587747626335474 
1878	 0.586709824143098 
1879	 0.58557867066814 
1880	 0.584437626046422 
1881	 0.583205705226538 
1882	 0.581901639356018 
1883	 0.580530234114165 
1884	 0.579057237976547 
1885	 0.577406692434652 
1886	 0.575712629587276 
1887	 0.573882499982745 
1888	 0.571899384131562 
1889	 0.56996288149897 
1890	 0.567891116749809 
1891	 0.565784784453187 
1892	 0.56365874354184 
1893	 0.561419848457215 
1894	 0.559048058635726 
1895	 0.556733276683731 
1896	 0.554353208137491 
1897	 0.551936852560704 
1898	 0.549720372608152 
1899	 0.547488733129784 
1900	 0.545300987079179 
1901	 0.543219158198009 
1902	 0.541049102435747 
1903	 0.538958915618256 
1904	 0.536912583798517 
1905	 0.534876293255349 
1906	 0.532883069509114 
1907	 0.531100670205386 
1908	 0.529309349464328 
1909	 0.527598624931495 
1910	 0.526017685594395 
1911	 0.524374559684401 
1912	 0.522860325223264 
1913	 0.52141336307573 
1914	 0.51998079084991 
1915	 0.51867122451021 
1916	 0.517496785995709 
1917	 0.5163061761021 
1918	 0.51517728619278 
1919	 0.514152114802055 
1920	 0.513083778015257 
1921	 0.512116751591491 
1922	 0.511199328088474 
1923	 0.51029120596084 
1924	 0.509506748267431 
1925	 0.50874879072484 
1926	 0.508039181209298 
1927	 0.507411903335425 
1928	 0.506792327479858 
1929	 0.506187051287899 
1930	 0.505639809497089 
1931	 0.505146225339365 
1932	 0.504681487151344 
1933	 0.504308098498579 
1934	 0.503983709145774 
1935	 0.503673789217828 
1936	 0.503424199053783 
1937	 0.503226878682648 
1938	 0.503064395722278 
1939	 0.502972421120345 
1940	 0.502956056810249 
1941	 0.502966790907864 
1942	 0.503006362582609 
1943	 0.503092126442057 
1944	 0.503197036562386 
1945	 0.503333770045456 
1946	 0.503539265431139 
1947	 0.503754694000674 
1948	 0.503996494668767 
1949	 0.504304680239542 
1950	 0.504608928165476 
1951	 0.504932292538635 
1952	 0.505271877259217 
1953	 0.505625727147666 
1954	 0.505999944710545 
1955	 0.506408828614421 
1956	 0.506792565597777 
1957	 0.507199182222688 
1958	 0.507591607855845 
1959	 0.507930900534241 
1960	 0.508285948784417 
1961	 0.50862392064773 
1962	 0.508921622203545 
1963	 0.509252062740815 
1964	 0.509602560033524 
1965	 0.509931128143235 
1966	 0.510256658169542 
1967	 0.510595057554874 
1968	 0.510905498733214 
1969	 0.511219531904058 
1970	 0.511570790925985 
1971	 0.511904685486767 
1972	 0.512224057232885 
1973	 0.512547535389721 
1974	 0.512869152736526 
1975	 0.513196191690721 
1976	 0.513493170983015 
1977	 0.51376464246726 
1978	 0.514059796089858 
1979	 0.514343530351975 
1980	 0.514613346780772 
1981	 0.514951963804199 
1982	 0.515301147637843 
1983	 0.515621685372479 
1984	 0.515949914868104 
1985	 0.516238625023238 
1986	 0.516508965154976 
1987	 0.516774499032327 
1988	 0.51701483295391 
1989	 0.517268114025033 
1990	 0.517528628387231 
1991	 0.517773802963271 
1992	 0.518027753726087 
1993	 0.518251299741209 
1994	 0.518449334952522 
1995	 0.518632669810711 
1996	 0.518784151629111 
1997	 0.518946273112131 
1998	 0.519114471947462 
1999	 0.519288272204223 
2000	 0.519443770160903 
2001	 0.519591164979037 
2002	 0.519750975720411 
2003	 0.519925120654966 
2004	 0.520057273429974 
2005	 0.520197771802064 
2006	 0.520304353187219 
2007	 0.52036787994493 
2008	 0.520404807377495 
2009	 0.520455680903552 
2010	 0.520477140141043 
2011	 0.520494580155283 
2012	 0.520521774555868 
2013	 0.520495200880963 
2014	 0.520445635249551 
2015	 0.52036641209161 
2016	 0.520251285427845 
2017	 0.520101334754629 
2018	 0.519918506235994 
2019	 0.519724877985355 
2020	 0.519507273075864 
2021	 0.519240356653341 
2022	 0.518987870252223 
2023	 0.518703729966244 
2024	 0.518361536786972 
2025	 0.518013255708382 
2026	 0.517631194800934 
2027	 0.517194312076322 
2028	 0.516780909975605 
2029	 0.516353419915846 
2030	 0.515923142928822 
2031	 0.515499365298884 
2032	 0.515062081572771 
2033	 0.514573397601447 
2034	 0.514146553875184 
2035	 0.513717255545433 
2036	 0.513336877277688 
2037	 0.51302791666573 
2038	 0.512766550680893 
2039	 0.512538404892184 
2040	 0.512358756189476 
2041	 0.512210309120007 
2042	 0.512092334235856 
2043	 0.512029346548861 
2044	 0.512024907509709 
2045	 0.512040338289382 
2046	 0.512103247882055 
2047	 0.512181699209981 
2048	 0.512277693941769 
2049	 0.512412669742245 
2050	 0.51259009312469 
2051	 0.512779287486853 
2052	 0.513002132299344 
2053	 0.51326419037104 
2054	 0.513515271424101 
2055	 0.513790670089118 
2056	 0.514045856906002 
2057	 0.514283687537597 
2058	 0.514550898385116 
2059	 0.514816252449507 
2060	 0.515100621885924 
2061	 0.515430960882131 
2062	 0.515734448376741 
2063	 0.516018265931295 
2064	 0.516330017679866 
2065	 0.516673150817909 
2066	 0.516975791864904 
2067	 0.51728027837953 
2068	 0.517568188285142 
2069	 0.517836754474111 
2070	 0.518077540941285 
2071	 0.518294570577758 
2072	 0.518495655257375 
2073	 0.518687523661865 
2074	 0.518836290520394 
2075	 0.518996441651776 
2076	 0.51918145890775 
2077	 0.519319751643085 
2078	 0.519446270963855 
2079	 0.519529524620107 
2080	 0.519561253303516 
2081	 0.519591412996804 
2082	 0.519586626566471 
2083	 0.51957237887583 
2084	 0.519584919600747 
2085	 0.519581809973627 
2086	 0.519545827781736 
2087	 0.519497272598401 
2088	 0.519425789476158 
2089	 0.519313845262698 
2090	 0.519204014948081 
2091	 0.519087564540442 
2092	 0.518959543589455 
2093	 0.518827703370154 
2094	 0.518661500029277 
2095	 0.518467907929855 
2096	 0.518270321182036 
2097	 0.518050316864417 
2098	 0.517812461505798 
2099	 0.517590071862695 
2100	 0.517361709370472 
2101	 0.517082435519344 
2102	 0.516778621281615 
2103	 0.516445550164319 
2104	 0.516046489241251 
2105	 0.515690190493672 
2106	 0.515337602187226 
2107	 0.514968659816461 
2108	 0.51461691727283 
2109	 0.514233023312625 
2110	 0.51381547472799 
2111	 0.513397862509916 
2112	 0.512961325843653 
2113	 0.512529446907892 
2114	 0.512092529167088 
2115	 0.511650600643542 
2116	 0.511192798915795 
2117	 0.510767133622635 
2118	 0.510324844692511 
2119	 0.509878814506517 
2120	 0.509429700861083 
2121	 0.508960644154804 
2122	 0.508534120122164 
2123	 0.508121640811719 
2124	 0.507712729930386 
2125	 0.50735935487019 
2126	 0.506952011755328 
2127	 0.506506185892326 
2128	 0.506079132561146 
2129	 0.505630444704842 
2130	 0.505203704375139 
2131	 0.504796111637616 
2132	 0.504387713371759 
2133	 0.503991390091209 
2134	 0.503594902082773 
2135	 0.503176480771257 
2136	 0.502768967415914 
2137	 0.502329666133088 
2138	 0.501865077053971 
2139	 0.501400763154226 
2140	 0.500901358031311 
2141	 0.5004528745948 
2142	 0.500019384685604 
2143	 0.499588595471522 
2144	 0.499177881891696 
2145	 0.498786590338522 
2146	 0.498386769981344 
2147	 0.498024234211078 
2148	 0.497720619670099 
2149	 0.497390084112202 
2150	 0.497068341305404 
2151	 0.496743464254327 
2152	 0.496409008619817 
2153	 0.496080649751719 
2154	 0.495754757383644 
2155	 0.495426894018136 
2156	 0.495121124595628 
2157	 0.494838690503063 
2158	 0.494521015553992 
2159	 0.49420784637409 
2160	 0.493878136340427 
2161	 0.493506516800791 
2162	 0.49317373880228 
2163	 0.492840831925209 
2164	 0.492543774540469 
2165	 0.492255420313314 
2166	 0.492007058499989 
2167	 0.491805710798709 
2168	 0.491604529000978 
2169	 0.491406270658701 
2170	 0.491261217067678 
2171	 0.491133477759033 
2172	 0.491050020324207 
2173	 0.49102166610633 
2174	 0.491029475459745 
2175	 0.491033071343835 
2176	 0.491088378101533 
2177	 0.491142911262915 
2178	 0.491215886108375 
2179	 0.491296248342818 
2180	 0.491388214349346 
2181	 0.491498781230303 
2182	 0.491628647079259 
2183	 0.491767293902755 
2184	 0.491936438502758 
2185	 0.492084435565611 
2186	 0.492233955245916 
2187	 0.49237568055042 
2188	 0.49250087276426 
2189	 0.492642265502342 
2190	 0.492786005816276 
2191	 0.492936539257391 
2192	 0.493106065843753 
2193	 0.493259349226199 
2194	 0.493401486633777 
2195	 0.493556446091037 
2196	 0.493716823139991 
2197	 0.493866192852518 
2198	 0.494040267989981 
2199	 0.494196824393648 
2200	 0.494334527696716 
2201	 0.494461122597033 
2202	 0.494569739266398 
2203	 0.49464427948586 
2204	 0.494746883926346 
2205	 0.494874745919041 
2206	 0.494936697432662 
2207	 0.494974540341242 
2208	 0.495015749705423 
2209	 0.49500549673517 
2210	 0.495009083340552 
2211	 0.495055991982813 
2212	 0.495045643269685 
2213	 0.494986988184615 
2214	 0.494934155427485 
2215	 0.49485363510345 
2216	 0.494780860434244 
2217	 0.494716997769763 
2218	 0.494630108868731 
2219	 0.494557247061252 
2220	 0.494435348701503 
2221	 0.49428634084397 
2222	 0.494101323402373 
2223	 0.493864409248037 
2224	 0.493596492106979 
2225	 0.493337295317733 
2226	 0.493034166521129 
2227	 0.492659034378521 
2228	 0.492263307937712 
2229	 0.49177116317067 
2230	 0.491155612621958 
2231	 0.490577891301364 
2232	 0.48998274398484 
2233	 0.48931732685879 
2234	 0.488684406218924 
2235	 0.487857925902315 
2236	 0.486907697281807 
2237	 0.485887743078412 
2238	 0.484720172024532 
2239	 0.483522118070424 
2240	 0.482265595874912 
2241	 0.480924952281405 
2242	 0.479512905203512 
2243	 0.478020487289767 
2244	 0.476438124221778 
2245	 0.474810597254685 
2246	 0.473050494928382 
2247	 0.471322189390427 
2248	 0.469539150931461 
2249	 0.467776431176424 
2250	 0.466051751192199 
2251	 0.464314053003183 
2252	 0.462422003477139 
2253	 0.460589856828726 
2254	 0.458680211894122 
2255	 0.45674783453166 
2256	 0.455041141394052 
2257	 0.453337617430324 
2258	 0.451697894403369 
2259	 0.45017230017081 
2260	 0.448606269877093 
2261	 0.447029585183291 
2262	 0.445549673341349 
2263	 0.444066089879845 
2264	 0.442717291248623 
2265	 0.441516694683065 
2266	 0.440260000498599 
2267	 0.439111111262726 
2268	 0.437869349052167 
2269	 0.436538980083597 
2270	 0.435307148959195 
2271	 0.434056563239078 
2272	 0.432873112182676 
2273	 0.431809557358927 
2274	 0.430683802953189 
2275	 0.429590078565482 
2276	 0.42845050152656 
2277	 0.427268139116943 
2278	 0.426083111691482 
2279	 0.424844562257978 
2280	 0.42364467532479 
2281	 0.422518329832968 
2282	 0.421285020986138 
2283	 0.420028496634115 
2284	 0.418740512762643 
2285	 0.417284071814224 
2286	 0.415862469823393 
2287	 0.41442177721953 
2288	 0.412876035245704 
2289	 0.411412625070673 
2290	 0.409907797072075 
2291	 0.40838481530353 
2292	 0.406947460543688 
2293	 0.405407856438389 
2294	 0.40385074699151 
2295	 0.402362873257556 
2296	 0.400902084689364 
2297	 0.399676952360743 
2298	 0.398591813885602 
2299	 0.397689978839263 
2300	 0.396971421128646 
2301	 0.396451274620195 
2302	 0.396081109140409 
2303	 0.39598031728301 
2304	 0.396164506810604 
2305	 0.396440732390973 
2306	 0.396911967016571 
2307	 0.397599355079281 
2308	 0.398410863079034 
2309	 0.399532150455546 
2310	 0.401052007421496 
2311	 0.402512332594016 
2312	 0.404258560859135 
2313	 0.405858344652598 
2314	 0.407477554587823 
2315	 0.409043064695465 
2316	 0.41063559187216 
2317	 0.412038199429089 
2318	 0.413375552655821 
2319	 0.414528654404746 
2320	 0.415557336810052 
2321	 0.416374972344105 
2322	 0.416973371369427 
2323	 0.417474033294779 
2324	 0.417736500961653 
2325	 0.41795698984511 
2326	 0.418108256592683 
2327	 0.418131211301131 
2328	 0.41804139568584 
2329	 0.417816520902746 
2330	 0.417463491645522 
2331	 0.416960798596826 
2332	 0.416351783218506 
2333	 0.415641066585213 
2334	 0.414751816535488 
2335	 0.41380819321307 
2336	 0.412805659383522 
2337	 0.411715148510659 
2338	 0.41071557904209 
2339	 0.409702001106777 
2340	 0.408681709187753 
2341	 0.407770010185631 
2342	 0.40693175663621 
2343	 0.40619377773097 
2344	 0.405592109740597 
2345	 0.405230779950155 
2346	 0.405108524887286 
2347	 0.405202474218198 
2348	 0.405534143889097 
2349	 0.406129650950089 
2350	 0.406873457170275 
2351	 0.407823587507196 
2352	 0.408952456684993 
2353	 0.410119429451931 
2354	 0.411260436454594 
2355	 0.412397844867961 
2356	 0.413467937315732 
2357	 0.414366096992454 
2358	 0.415228218817675 
2359	 0.41590124578756 
2360	 0.416412867592052 
2361	 0.416845687066725 
2362	 0.417164886678013 
2363	 0.417419319659333 
2364	 0.417554612631916 
2365	 0.417636062974155 
2366	 0.417652936533203 
2367	 0.417627497434279 
2368	 0.417634499034623 
2369	 0.417704166411375 
2370	 0.417836912817023 
2371	 0.4179198256746 
2372	 0.418003835629316 
2373	 0.418120100793332 
2374	 0.418217464701348 
2375	 0.418308400178309 
2376	 0.418431497598043 
2377	 0.418561581789234 
2378	 0.418704300477328 
2379	 0.418909807637627 
2380	 0.419005811762903 
2381	 0.419081855866838 
2382	 0.419209536836616 
2383	 0.419242049087737 
2384	 0.419386947363148 
2385	 0.419710226227825 
2386	 0.419904488925925 
2387	 0.420064937664361 
2388	 0.420261760342689 
2389	 0.420456064724712 
2390	 0.420587758591114 
2391	 0.420707679357988 
2392	 0.420776220900883 
2393	 0.420733619497762 
2394	 0.420858756358558 
2395	 0.421078184622302 
2396	 0.421178646598353 
2397	 0.421290638200953 
2398	 0.421352205484112 
2399	 0.421289984015953 
2400	 0.421348852719885 
2401	 0.421512292439528 
2402	 0.421544747096102 
2403	 0.421590196649064 
2404	 0.421553359056102 
2405	 0.421531336395472 
2406	 0.42154937180422 
2407	 0.421442342682369 
2408	 0.421411693417062 
2409	 0.421534533554771 
2410	 0.42156310000057 
2411	 0.421595892949814 
2412	 0.42169017283909 
2413	 0.421692309964268 
2414	 0.421725175754697 
2415	 0.421873392755248 
2416	 0.421945270739249 
2417	 0.421986335568879 
2418	 0.422015912089756 
2419	 0.421902165471365 
2420	 0.421861652957131 
2421	 0.421909356238045 
2422	 0.421840800452556 
2423	 0.421833731887269 
2424	 0.421950679485082 
2425	 0.421972410756392 
2426	 0.421968929349031 
2427	 0.422048244435943 
2428	 0.422017941374071 
2429	 0.421923205765203 
2430	 0.421985300836098 
2431	 0.422031503019636 
2432	 0.421932786570115 
2433	 0.421756709644657 
2434	 0.421636478570308 
2435	 0.421616874250743 
2436	 0.421578815395326 
2437	 0.421566074113853 
2438	 0.421464535068129 
2439	 0.421214668316992 
2440	 0.420959404713738 
2441	 0.420732783153517 
2442	 0.420520168359436 
2443	 0.420230182501489 
2444	 0.419965495154803 
2445	 0.419907000841925 
2446	 0.419853426047908 
2447	 0.419700784161659 
2448	 0.41958535611477 
2449	 0.419262284769834 
2450	 0.418658179303239 
2451	 0.41829249428872 
2452	 0.418193440937182 
2453	 0.417987632062901 
2454	 0.417843822026972 
2455	 0.41760489058269 
2456	 0.417108599507067 
2457	 0.416808301646379 
2458	 0.416559308386961 
2459	 0.416172778651152 
2460	 0.415847196364321 
2461	 0.415508386742041 
2462	 0.415165645979307 
2463	 0.414947003289553 
2464	 0.414654978817527 
2465	 0.414252436214324 
2466	 0.414049886565733 
2467	 0.413998170040096 
2468	 0.414072364132925 
2469	 0.41401766881176 
2470	 0.413561698264369 
2471	 0.413243001738548 
2472	 0.412950684728412 
2473	 0.412637689083387 
2474	 0.412722741583432 
2475	 0.412764299624667 
2476	 0.412729726690335 
2477	 0.412711792155302 
2478	 0.412637515420128 
2479	 0.412631896745915 
2480	 0.412467280765884 
2481	 0.41252631735549 
2482	 0.412880754999979 
2483	 0.412841391365794 
2484	 0.41288649180557 
2485	 0.413051723182569 
2486	 0.412822011540475 
2487	 0.412947985127484 
2488	 0.413330622450271 
2489	 0.413365471594012 
2490	 0.413485380899569 
2491	 0.413772442086076 
2492	 0.414031054091423 
2493	 0.41418317365718 
2494	 0.414556303478793 
2495	 0.414903396398364 
2496	 0.414963942705492 
2497	 0.415380297817104 
2498	 0.415556493357922 
2499	 0.415095243911633 
2500	 0.415182758591751 
