Wavelength	spectrum00016.asd
350	 7.93551113637514E-02 
351	 0.07643934749823 
352	 7.36216145801928E-02 
353	 0.071406033392563 
354	 6.94098446402864E-02 
355	 6.96679350771486E-02 
356	 6.95360371250342E-02 
357	 6.69548224825225E-02 
358	 6.43828824851044E-02 
359	 6.25508160801136E-02 
360	 6.18869850837307E-02 
361	 6.22686719734464E-02 
362	 6.13825213417896E-02 
363	 6.02527247046292E-02 
364	 5.96260068782428E-02 
365	 0.059414049093508 
366	 6.02169430743718E-02 
367	 6.04927959654704E-02 
368	 5.92661999599402E-02 
369	 5.89081141233349E-02 
370	 5.91178242045859E-02 
371	 5.91524263413387E-02 
372	 5.82918313906768E-02 
373	 5.82106996906667E-02 
374	 5.92748209404344E-02 
375	 6.06485021903706E-02 
376	 6.00853819756129E-02 
377	 5.94912243426452E-02 
378	 5.96405415709652E-02 
379	 6.04507266404452E-02 
380	 6.00243531454076E-02 
381	 0.059969160292241 
382	 6.04317765089305E-02 
383	 6.06995448679508E-02 
384	 6.13244571222351E-02 
385	 6.21404405372859E-02 
386	 6.27597512644401E-02 
387	 6.25831308412675E-02 
388	 6.22896839419072E-02 
389	 6.25191296509414E-02 
390	 6.35447482445246E-02 
391	 6.46101734339995E-02 
392	 0.064971730540153 
393	 6.51176273994351E-02 
394	 6.61507194105999E-02 
395	 6.64146329431398E-02 
396	 0.067005952178384 
397	 6.82879952301114E-02 
398	 6.88612454949222E-02 
399	 6.92993114669652E-02 
400	 0.070160584249726 
401	 7.15463176036291E-02 
402	 7.16041317648779E-02 
403	 7.25319827733125E-02 
404	 7.42275280729515E-02 
405	 7.49154539208188E-02 
406	 7.58434679432265E-02 
407	 7.69737336619138E-02 
408	 0.078214858397892 
409	 7.97995969496563E-02 
410	 0.081037876312923 
411	 8.21520592231775E-02 
412	 8.35709625621295E-02 
413	 8.51476865103075E-02 
414	 0.086285909893772 
415	 8.72616272388481E-02 
416	 8.90617850191898E-02 
417	 9.06989908822441E-02 
418	 9.22120791042578E-02 
419	 9.38031181148115E-02 
420	 9.56426448322595E-02 
421	 9.73451301958097E-02 
422	 9.90517371052857E-02 
423	 0.101033207292243 
424	 0.102869830270072 
425	 0.104597109840117 
426	 0.106313303285722 
427	 0.108139751990217 
428	 0.110149715712034 
429	 0.112152564698451 
430	 0.114050100811431 
431	 0.116231497835991 
432	 0.118449735053975 
433	 0.120608592633443 
434	 0.122722685361908 
435	 0.124843508092335 
436	 0.127091343639079 
437	 0.129398546322478 
438	 0.131371817123538 
439	 0.133644905560354 
440	 0.136072425383009 
441	 0.138349911654146 
442	 0.140535194821629 
443	 0.142860368588571 
444	 0.145330176471127 
445	 0.147762528285026 
446	 0.150057077777902 
447	 0.152380318838443 
448	 0.154864625812068 
449	 0.15750579177894 
450	 0.159898247970763 
451	 0.162157288083125 
452	 0.164568714958197 
453	 0.167016763088435 
454	 0.169487724261037 
455	 0.17190180259417 
456	 0.174120911715802 
457	 0.176489611666728 
458	 0.178900282939962 
459	 0.181238641304697 
460	 0.183704737485698 
461	 0.185988231824278 
462	 0.188083298216357 
463	 0.190171632935061 
464	 0.1923917335201 
465	 0.194554490592448 
466	 0.196575354553738 
467	 0.198597853101185 
468	 0.200503770916539 
469	 0.202411203322243 
470	 0.204423330015468 
471	 0.206293471894252 
472	 0.207991325124218 
473	 0.209576843408133 
474	 0.211163634146083 
475	 0.212674813383217 
476	 0.213982972062724 
477	 0.215092063786724 
478	 0.216320038494989 
479	 0.217404024023952 
480	 0.218383667783021 
481	 0.219377909498287 
482	 0.2202407205462 
483	 0.220897297691461 
484	 0.221400400484719 
485	 0.221933147324972 
486	 0.22239199653474 
487	 0.222677464585073 
488	 0.222738121033117 
489	 0.222646492460502 
490	 0.222531155346751 
491	 0.222368223076558 
492	 0.22204310669129 
493	 0.22154126297849 
494	 0.221002741327917 
495	 0.22042766835119 
496	 0.219555442798638 
497	 0.218536987512739 
498	 0.217461169800752 
499	 0.216368470129759 
500	 0.215165481652356 
501	 0.213804263978235 
502	 0.212319269254738 
503	 0.210808813637517 
504	 0.209215774721048 
505	 0.207545210297895 
506	 0.205811757013515 
507	 0.204031909328527 
508	 0.202174289244943 
509	 0.200211040291326 
510	 0.198138169087023 
511	 0.196061200706512 
512	 0.194039854809344 
513	 0.192034542986536 
514	 0.189884826282877 
515	 0.187675239975738 
516	 0.18542866754648 
517	 0.183179621506446 
518	 0.181077707900852 
519	 0.178845255709888 
520	 0.176526710145376 
521	 0.174374397384344 
522	 0.172224064151868 
523	 0.170015163964296 
524	 0.167760946160498 
525	 0.16558480640214 
526	 0.163388858060138 
527	 0.161231092189942 
528	 0.159186277621508 
529	 0.157119539312081 
530	 0.155048206515048 
531	 0.15298214380668 
532	 0.15091838584749 
533	 0.148940986462618 
534	 0.146984280895638 
535	 0.144995607230427 
536	 0.143041215988043 
537	 0.141164880013083 
538	 0.139353694827532 
539	 0.137556692423163 
540	 0.135728344160698 
541	 0.133977198384361 
542	 0.13233426821241 
543	 0.130680051999162 
544	 0.129074320816701 
545	 0.127514349431806 
546	 0.125994673742302 
547	 0.124563832289539 
548	 0.123226861702602 
549	 0.121944889015101 
550	 0.120649505333331 
551	 0.119446517567241 
552	 0.118327539201436 
553	 0.11724832998177 
554	 0.116130527225884 
555	 0.115076873682494 
556	 0.114088107893433 
557	 0.113121170790665 
558	 0.112191584095814 
559	 0.11131853165871 
560	 0.110491531997839 
561	 0.109660555710652 
562	 0.108805984071743 
563	 0.107938983759383 
564	 0.10707759909311 
565	 0.10620751406929 
566	 0.105432155768041 
567	 0.104753277874716 
568	 0.104099729493059 
569	 0.103555848345805 
570	 0.103054237201217 
571	 0.102551757862126 
572	 0.102105852607604 
573	 0.101701665159846 
574	 0.101316088956236 
575	 0.100917927900576 
576	 0.100474228711178 
577	 9.99887468822545E-02 
578	 9.94964945075801E-02 
579	 9.90635069850362E-02 
580	 9.86899777164709E-02 
581	 9.83799056658672E-02 
582	 9.81229247071926E-02 
583	 9.78718534827102E-02 
584	 9.76568058730978E-02 
585	 9.74814429953519E-02 
586	 9.73330966525739E-02 
587	 9.72117347571306E-02 
588	 9.71065234497036E-02 
589	 9.70175228929547E-02 
590	 9.69643920420556E-02 
591	 0.096924956906812 
592	 9.68896099031801E-02 
593	 9.68572300305618E-02 
594	 9.68382252096476E-02 
595	 9.68688787595529E-02 
596	 9.69307610852942E-02 
597	 9.69625039470054E-02 
598	 9.70380998397513E-02 
599	 9.71485029940364E-02 
600	 9.72685708793249E-02 
601	 9.73646940227535E-02 
602	 9.75140519882458E-02 
603	 9.77216936938371E-02 
604	 9.79597898260179E-02 
605	 9.82229920345151E-02 
606	 9.85285836267913E-02 
607	 9.88711524030707E-02 
608	 9.92152787839626E-02 
609	 9.95014744297526E-02 
610	 9.98069545799638E-02 
611	 0.100203505398035 
612	 0.100620215063167 
613	 0.101054207994668 
614	 0.101513499141999 
615	 0.102009716777082 
616	 0.102502525432847 
617	 0.10299383376184 
618	 0.103511898404291 
619	 0.104126141292196 
620	 0.104746024993485 
621	 0.105354979795196 
622	 0.105970546200968 
623	 0.106635632478237 
624	 0.107355970311557 
625	 0.108117956128895 
626	 0.108893210733853 
627	 0.109676152947669 
628	 0.110479151578208 
629	 0.111318421897902 
630	 0.112210680987453 
631	 0.113125750878783 
632	 0.114072406252616 
633	 0.115073823852721 
634	 0.116136573079506 
635	 0.117194710328452 
636	 0.11823772527211 
637	 0.119327274883766 
638	 0.120464741924227 
639	 0.121654303225201 
640	 0.12289550554148 
641	 0.124177896322533 
642	 0.12548872171519 
643	 0.126837596616312 
644	 0.128246158169028 
645	 0.129697730434196 
646	 0.131194282936583 
647	 0.132740802456003 
648	 0.134347490492145 
649	 0.1359810076493 
650	 0.137655084297576 
651	 0.139391090300328 
652	 0.141181423606896 
653	 0.143014168874019 
654	 0.144912931420917 
655	 0.146922331187603 
656	 0.148979697504762 
657	 0.151053528669756 
658	 0.153162684380804 
659	 0.155429932317641 
660	 0.157731324723164 
661	 0.160073828593361 
662	 0.162505056247568 
663	 0.165018378901351 
664	 0.167598780943249 
665	 0.170245362144968 
666	 0.172968059897649 
667	 0.175750934240517 
668	 0.178603608196166 
669	 0.181542475497167 
670	 0.184602192797866 
671	 0.1877440160048 
672	 0.19093004851218 
673	 0.194148009839793 
674	 0.197510343897631 
675	 0.200968542317996 
676	 0.204486639128922 
677	 0.208062810436828 
678	 0.211756955312446 
679	 0.215534886824176 
680	 0.219369504610071 
681	 0.223326884710552 
682	 0.227339520604917 
683	 0.231403547106301 
684	 0.235555391417056 
685	 0.239804579279239 
686	 0.244147524049893 
687	 0.248567526540319 
688	 0.253035043454095 
689	 0.25756480542608 
690	 0.26218537400015 
691	 0.266904777877169 
692	 0.271630652998848 
693	 0.276424854950032 
694	 0.281299962010112 
695	 0.286223535463476 
696	 0.291178916846631 
697	 0.296207015108618 
698	 0.301299307371106 
699	 0.306362053739137 
700	 0.311477634047752 
701	 0.316690133918382 
702	 0.321985287997752 
703	 0.327176353911235 
704	 0.332356733978755 
705	 0.337584253267909 
706	 0.342878803091414 
707	 0.348223074840421 
708	 0.353482815712783 
709	 0.358634677020596 
710	 0.363853398148307 
711	 0.369086106043281 
712	 0.374299939944732 
713	 0.379467841503887 
714	 0.384598477278571 
715	 0.389680839786987 
716	 0.394693994045904 
717	 0.399617731024417 
718	 0.404572030595872 
719	 0.409499648625886 
720	 0.414346352399987 
721	 0.419103805297056 
722	 0.423774339884275 
723	 0.428397762805517 
724	 0.432997343931203 
725	 0.437517374001304 
726	 0.441906038623727 
727	 0.446206350416079 
728	 0.450509581704676 
729	 0.45466302878259 
730	 0.458675984636708 
731	 0.462584774432523 
732	 0.466429337765355 
733	 0.470264137482423 
734	 0.473971950386497 
735	 0.477493395763851 
736	 0.481190731420196 
737	 0.48465956171713 
738	 0.487925611236834 
739	 0.49126908153262 
740	 0.494431968075707 
741	 0.497412775303432 
742	 0.500299979813102 
743	 0.50327168728601 
744	 0.506177872218105 
745	 0.508955984138265 
746	 0.511584558464723 
747	 0.514090482274096 
748	 0.516547883304684 
749	 0.51899470472045 
750	 0.521423790152471 
751	 0.523706673816025 
752	 0.525847396269738 
753	 0.52792333947466 
754	 0.530078326207226 
755	 0.532222290572595 
756	 0.534286815019046 
757	 0.536223830355619 
758	 0.538011145482616 
759	 0.539749412072396 
760	 0.541472223585302 
761	 0.543186613978854 
762	 0.544993097280929 
763	 0.546611829391253 
764	 0.548034740412929 
765	 0.549568427903662 
766	 0.551150788321504 
767	 0.552677399584616 
768	 0.554090766954092 
769	 0.555461734796392 
770	 0.556806086551691 
771	 0.558107333151314 
772	 0.559344721734107 
773	 0.56054639958758 
774	 0.561785064261898 
775	 0.563036885383692 
776	 0.564203155806354 
777	 0.565288142976647 
778	 0.566424124267201 
779	 0.567605577028989 
780	 0.568558393065513 
781	 0.5696719303588 
782	 0.570831036658201 
783	 0.571843736547511 
784	 0.572784795200696 
785	 0.573746638256993 
786	 0.574734041977538 
787	 0.575687042357578 
788	 0.576513480945017 
789	 0.577339392025571 
790	 0.578228062268829 
791	 0.57914171864752 
792	 0.580061856857618 
793	 0.580951834341374 
794	 0.581787076134591 
795	 0.582572885999198 
796	 0.583325494021425 
797	 0.584129369632588 
798	 0.58503950468203 
799	 0.585871247158018 
800	 0.586613242107165 
801	 0.587324920733991 
802	 0.588104292828289 
803	 0.5889031179746 
804	 0.589709975283306 
805	 0.590505676741795 
806	 0.59125558919975 
807	 0.591972995056825 
808	 0.592709456652715 
809	 0.593490394662265 
810	 0.594239011004144 
811	 0.594985974570907 
812	 0.595709795742263 
813	 0.596388584173272 
814	 0.59712167065411 
815	 0.597854389858635 
816	 0.598540614040973 
817	 0.599167101163206 
818	 0.599919073926754 
819	 0.60066246194462 
820	 0.601320344642993 
821	 0.601990396880978 
822	 0.602723545269963 
823	 0.603447170485838 
824	 0.604091134306611 
825	 0.604697242247124 
826	 0.60540251910291 
827	 0.606172075118921 
828	 0.606891280193226 
829	 0.60754306157696 
830	 0.608145603918935 
831	 0.60871871420722 
832	 0.609280395559466 
833	 0.609830561765983 
834	 0.610479205262596 
835	 0.611207983652239 
836	 0.611788960973186 
837	 0.61248978661029 
838	 0.613158155808643 
839	 0.613684056381959 
840	 0.614388881056898 
841	 0.614958045811528 
842	 0.615456350089972 
843	 0.616060176812529 
844	 0.616659184736634 
845	 0.617305880620799 
846	 0.617946248906852 
847	 0.61847910138526 
848	 0.619141819989714 
849	 0.619767759570473 
850	 0.620284317629398 
851	 0.620797245165437 
852	 0.621406502821963 
853	 0.622061402583544 
854	 0.622661775665875 
855	 0.623070893288463 
856	 0.623635233290304 
857	 0.624265108447723 
858	 0.624809532883204 
859	 0.625459996211432 
860	 0.626049362800303 
861	 0.626574090180454 
862	 0.627114966140647 
863	 0.627695682869555 
864	 0.628178477090721 
865	 0.628632186008321 
866	 0.629271237074158 
867	 0.629794856666159 
868	 0.630262933427315 
869	 0.630764886674486 
870	 0.63135291879763 
871	 0.631973389888685 
872	 0.632468673948139 
873	 0.632808532609184 
874	 0.633273856425954 
875	 0.633820130650463 
876	 0.634388495659066 
877	 0.634919983719863 
878	 0.635401527742911 
879	 0.635864809484081 
880	 0.636295439698279 
881	 0.636671182501181 
882	 0.6370470570705 
883	 0.637493876861316 
884	 0.637979386728814 
885	 0.638401887241359 
886	 0.638782261403575 
887	 0.639160890527524 
888	 0.639559782445204 
889	 0.639973588801134 
890	 0.640420544548101 
891	 0.640824177092787 
892	 0.641145536175839 
893	 0.641435744601436 
894	 0.641782160717415 
895	 0.64223634440827 
896	 0.642747630803903 
897	 0.643050675061972 
898	 0.64331014529026 
899	 0.643609717534056 
900	 0.643964872780785 
901	 0.644238607669785 
902	 0.644555164909361 
903	 0.64487442371163 
904	 0.645110599826908 
905	 0.645412095127888 
906	 0.645718274675233 
907	 0.646017117958836 
908	 0.646345588294115 
909	 0.646770570268468 
910	 0.64718353931967 
911	 0.647521566897336 
912	 0.647810208955012 
913	 0.648307347264938 
914	 0.648707722892171 
915	 0.648932133090556 
916	 0.64931273044802 
917	 0.649679588984564 
918	 0.649993939602399 
919	 0.650272902698148 
920	 0.650586647437091 
921	 0.650922894632481 
922	 0.651360928481519 
923	 0.651883972540868 
924	 0.652179771902838 
925	 0.652616665794968 
926	 0.653146080214241 
927	 0.653608499520053 
928	 0.65396688874673 
929	 0.654356618349851 
930	 0.654862110387629 
931	 0.65545992695252 
932	 0.655810788510503 
933	 0.656263200792172 
934	 0.656817694524936 
935	 0.657297703572295 
936	 0.657764483112659 
937	 0.658244580299486 
938	 0.658759401043321 
939	 0.659313544453497 
940	 0.659852436436066 
941	 0.660320534436366 
942	 0.660726377410099 
943	 0.661133171051074 
944	 0.66156051867649 
945	 0.661989671832266 
946	 0.662387982720909 
947	 0.66272548002405 
948	 0.663082136765926 
949	 0.663429406578744 
950	 0.663781534988839 
951	 0.66420419279275 
952	 0.664365410905942 
953	 0.6645496849196 
954	 0.664894668642893 
955	 0.665157564662984 
956	 0.665288340876203 
957	 0.665426558220336 
958	 0.665643248925844 
959	 0.665817085591978 
960	 0.666080131167839 
961	 0.666308341253735 
962	 0.66642942486266 
963	 0.666589600352312 
964	 0.666653144285227 
965	 0.666802485639831 
966	 0.667135692457581 
967	 0.667392411043889 
968	 0.667506223912863 
969	 0.667638797750934 
970	 0.667929754930339 
971	 0.668281222629177 
972	 0.668529018688518 
973	 0.668736526209409 
974	 0.66900210918034 
975	 0.669289159865438 
976	 0.669619017607757 
977	 0.669913467419618 
978	 0.670111751082077 
979	 0.670287242152857 
980	 0.670560270004428 
981	 0.670843097097644 
982	 0.671030630659571 
983	 0.671216651420095 
984	 0.671414121696392 
985	 0.671639699288643 
986	 0.671917917805298 
987	 0.672325054865701 
988	 0.672565678898759 
989	 0.67274023558644 
990	 0.67301327159991 
991	 0.673225604662488 
992	 0.673407572297514 
993	 0.673626857219475 
994	 0.673908366355981 
995	 0.674092991036731 
996	 0.67425791717721 
997	 0.674405322339972 
998	 0.674549617776278 
999	 0.674837121978188 
1000	 0.67503800142194 
1001	 0.678699580007925 
1002	 0.678910537377652 
1003	 0.679060781610372 
1004	 0.679225335106882 
1005	 0.679375740904336 
1006	 0.67954356493611 
1007	 0.679699267820169 
1008	 0.67986790127569 
1009	 0.680040744278964 
1010	 0.680224407045303 
1011	 0.680422365744238 
1012	 0.680619263820269 
1013	 0.680836164522445 
1014	 0.681036205217961 
1015	 0.681254011872311 
1016	 0.681401756034017 
1017	 0.681516663243244 
1018	 0.681711522054597 
1019	 0.681943809211732 
1020	 0.682139898800201 
1021	 0.682334829745559 
1022	 0.682553820747811 
1023	 0.682763895061226 
1024	 0.682944069440316 
1025	 0.683145948882466 
1026	 0.683374869236723 
1027	 0.683574888836712 
1028	 0.683755201772146 
1029	 0.683951587875265 
1030	 0.684101445164157 
1031	 0.684303693555269 
1032	 0.684501465968469 
1033	 0.684642457255994 
1034	 0.68481532652068 
1035	 0.685009782844895 
1036	 0.685213115341071 
1037	 0.685423117969616 
1038	 0.68563067625303 
1039	 0.685865293824762 
1040	 0.686091529064793 
1041	 0.686296929204538 
1042	 0.686522046730238 
1043	 0.68678870907185 
1044	 0.6869957412286 
1045	 0.68716620248189 
1046	 0.687352020834116 
1047	 0.687528796170371 
1048	 0.687708872376982 
1049	 0.687912579627934 
1050	 0.688159502472407 
1051	 0.688456654646655 
1052	 0.688697465889132 
1053	 0.688951524046894 
1054	 0.689245338389264 
1055	 0.689503713990212 
1056	 0.689735316620581 
1057	 0.68997953737916 
1058	 0.690240669736999 
1059	 0.690407386927132 
1060	 0.690624390096786 
1061	 0.690880036216169 
1062	 0.691124078984744 
1063	 0.691361763607802 
1064	 0.691563097350046 
1065	 0.691729210831768 
1066	 0.691894975956438 
1067	 0.692114134959996 
1068	 0.692373501123876 
1069	 0.692612355050873 
1070	 0.692821018395348 
1071	 0.693005919112925 
1072	 0.693196954740016 
1073	 0.69338573691053 
1074	 0.693588887648901 
1075	 0.693846809061304 
1076	 0.694070832768008 
1077	 0.694248535231974 
1078	 0.694430290720429 
1079	 0.694612293806748 
1080	 0.694802839872017 
1081	 0.695013556545589 
1082	 0.695239248567528 
1083	 0.695449328186608 
1084	 0.695658655630658 
1085	 0.69589658193952 
1086	 0.696100878727517 
1087	 0.696288107415081 
1088	 0.696467163973442 
1089	 0.696639766628999 
1090	 0.696745907998643 
1091	 0.696872043476581 
1092	 0.697016839761656 
1093	 0.697153915808945 
1094	 0.697307804323449 
1095	 0.697442294954888 
1096	 0.697567674950788 
1097	 0.697664482636889 
1098	 0.697750597891795 
1099	 0.697897863596755 
1100	 0.698051971331283 
1101	 0.698152517962157 
1102	 0.698243680646979 
1103	 0.69832981413132 
1104	 0.69838887281724 
1105	 0.698414627293 
1106	 0.6984720436362 
1107	 0.698543209226968 
1108	 0.698589270552348 
1109	 0.698635195035555 
1110	 0.698684280107704 
1111	 0.69873534992282 
1112	 0.698791432098915 
1113	 0.698815268634925 
1114	 0.698821735311262 
1115	 0.698814024876768 
1116	 0.698766370294156 
1117	 0.698737223655154 
1118	 0.6987156256957 
1119	 0.698703301233005 
1120	 0.698677261432048 
1121	 0.698669873274008 
1122	 0.698623651057444 
1123	 0.69853521101974 
1124	 0.698424366615987 
1125	 0.698275578981157 
1126	 0.698123618122756 
1127	 0.697943548711698 
1128	 0.697698244695821 
1129	 0.697436473215806 
1130	 0.697122709237893 
1131	 0.696779867528141 
1132	 0.696471028017809 
1133	 0.69613750703626 
1134	 0.695777480987998 
1135	 0.695380617004809 
1136	 0.694957804142729 
1137	 0.69449609912226 
1138	 0.693993640811885 
1139	 0.69346182388685 
1140	 0.692884489189687 
1141	 0.692318277352694 
1142	 0.691732876246548 
1143	 0.691138936025893 
1144	 0.69053947102725 
1145	 0.689872390473898 
1146	 0.689179397103016 
1147	 0.688462307687329 
1148	 0.68772102123011 
1149	 0.687013460243856 
1150	 0.68628233741683 
1151	 0.685539438145291 
1152	 0.684774457885691 
1153	 0.683991467988355 
1154	 0.683186998433987 
1155	 0.682365169785744 
1156	 0.681515216085495 
1157	 0.680645300424119 
1158	 0.679771180733561 
1159	 0.678863963481286 
1160	 0.677973001513215 
1161	 0.677070813231364 
1162	 0.676075390006092 
1163	 0.675138017623809 
1164	 0.674191501114619 
1165	 0.673218997316801 
1166	 0.672341266775023 
1167	 0.671422428627482 
1168	 0.670502341596274 
1169	 0.669584337165128 
1170	 0.668679158096372 
1171	 0.667751645179151 
1172	 0.666813124472536 
1173	 0.665857632474752 
1174	 0.664897502714927 
1175	 0.663945898706159 
1176	 0.662989748607659 
1177	 0.662022010004243 
1178	 0.661074912506208 
1179	 0.66004842355839 
1180	 0.659058602240166 
1181	 0.658064858830347 
1182	 0.657054887197346 
1183	 0.65612354706106 
1184	 0.655164279709071 
1185	 0.654227219565762 
1186	 0.653347316792079 
1187	 0.652486530111566 
1188	 0.651693503027557 
1189	 0.650946743947743 
1190	 0.650266975840692 
1191	 0.649654096242693 
1192	 0.64909265735799 
1193	 0.6486187509745 
1194	 0.648134133986759 
1195	 0.647667714614645 
1196	 0.64723574822306 
1197	 0.64681724050998 
1198	 0.646438060875046 
1199	 0.646086961346299 
1200	 0.645831627363862 
1201	 0.64560418443973 
1202	 0.645411589390546 
1203	 0.645303170284535 
1204	 0.645280093639914 
1205	 0.645343055032686 
1206	 0.645477835663684 
1207	 0.64572162899179 
1208	 0.646027412721075 
1209	 0.646488004788497 
1210	 0.647042040184949 
1211	 0.64776729584592 
1212	 0.648654269642208 
1213	 0.649660814262236 
1214	 0.650813860945431 
1215	 0.652089887017164 
1216	 0.653526131442726 
1217	 0.65501300461626 
1218	 0.65664148412321 
1219	 0.658308880075576 
1220	 0.660006500731978 
1221	 0.661838926813833 
1222	 0.663620525944024 
1223	 0.665411955119659 
1224	 0.667125421220527 
1225	 0.668809817157602 
1226	 0.670391986791959 
1227	 0.671920416739162 
1228	 0.673372429484748 
1229	 0.674745691331336 
1230	 0.67605765679724 
1231	 0.677311543639577 
1232	 0.67848823732187 
1233	 0.679580820157213 
1234	 0.68060416384557 
1235	 0.681543166208416 
1236	 0.682443082125377 
1237	 0.68327603273854 
1238	 0.684065088842188 
1239	 0.684796291593481 
1240	 0.685494223280222 
1241	 0.686175106028158 
1242	 0.686775631354909 
1243	 0.687345927980866 
1244	 0.687881260707939 
1245	 0.688383302139232 
1246	 0.688818189397545 
1247	 0.689267640545045 
1248	 0.689709810931275 
1249	 0.690124409859351 
1250	 0.690523991574198 
1251	 0.690887911987464 
1252	 0.691216692785953 
1253	 0.691540996403103 
1254	 0.691855975776557 
1255	 0.692130927257164 
1256	 0.692386569773033 
1257	 0.692616450211938 
1258	 0.692791755685674 
1259	 0.692969166107336 
1260	 0.693141549614626 
1261	 0.693293893525389 
1262	 0.69340834315981 
1263	 0.693541914808088 
1264	 0.6936788278407 
1265	 0.693803737435702 
1266	 0.693952702005015 
1267	 0.694134621374568 
1268	 0.69427752463296 
1269	 0.694408291000858 
1270	 0.694542757267948 
1271	 0.694664474365291 
1272	 0.694786568963606 
1273	 0.694915719711122 
1274	 0.695034199060756 
1275	 0.695140280285156 
1276	 0.695244244891036 
1277	 0.69533476449128 
1278	 0.69544300039765 
1279	 0.69554977668074 
1280	 0.695664879732274 
1281	 0.69579465841376 
1282	 0.695927930977147 
1283	 0.696057938100356 
1284	 0.696201042340554 
1285	 0.696353608222173 
1286	 0.696524399921719 
1287	 0.696673120035009 
1288	 0.696823066125445 
1289	 0.696966571186963 
1290	 0.697099355796914 
1291	 0.697229816667999 
1292	 0.697367443374284 
1293	 0.697481687438632 
1294	 0.697570073332519 
1295	 0.697676590888744 
1296	 0.697777569010814 
1297	 0.697883586490067 
1298	 0.698017838611768 
1299	 0.698111728117238 
1300	 0.698196294540187 
1301	 0.698256098891447 
1302	 0.698266968431332 
1303	 0.698303572049935 
1304	 0.698361750332988 
1305	 0.698378071841819 
1306	 0.698385736489092 
1307	 0.698379974869684 
1308	 0.698334203878016 
1309	 0.698283170045161 
1310	 0.698237209689214 
1311	 0.698198245195238 
1312	 0.698142618133056 
1313	 0.698076765643835 
1314	 0.698008802153047 
1315	 0.69793544990678 
1316	 0.697856847363341 
1317	 0.697780766672851 
1318	 0.697681089301971 
1319	 0.697563329027501 
1320	 0.697450601854988 
1321	 0.697331980934363 
1322	 0.697198926007602 
1323	 0.697084718550868 
1324	 0.696919142103322 
1325	 0.696719699476521 
1326	 0.696504630552323 
1327	 0.696262696295529 
1328	 0.696000605583624 
1329	 0.695720278180206 
1330	 0.695421321779966 
1331	 0.695099593191851 
1332	 0.694760367342793 
1333	 0.694414607602575 
1334	 0.694034240332235 
1335	 0.693635431946777 
1336	 0.693219756515559 
1337	 0.692763638700908 
1338	 0.692280895495272 
1339	 0.691771468061421 
1340	 0.691237659558716 
1341	 0.69065946615385 
1342	 0.690050496056936 
1343	 0.689408753901545 
1344	 0.688727576068148 
1345	 0.688013942390109 
1346	 0.687282231170928 
1347	 0.686500091096302 
1348	 0.685670718424358 
1349	 0.684812390999337 
1350	 0.683895748729113 
1351	 0.682983878235981 
1352	 0.682039659227264 
1353	 0.681098896535574 
1354	 0.680155002296737 
1355	 0.679206061844817 
1356	 0.678241302163045 
1357	 0.677282415355077 
1358	 0.676311873328202 
1359	 0.675355601005113 
1360	 0.674426384151834 
1361	 0.673475895028128 
1362	 0.672495490779383 
1363	 0.671555073851829 
1364	 0.670528364125971 
1365	 0.669480918168099 
1366	 0.668342479970968 
1367	 0.667154652469429 
1368	 0.665891374938447 
1369	 0.66455752067967 
1370	 0.663157950884313 
1371	 0.661674559428685 
1372	 0.660194055927111 
1373	 0.658648963432618 
1374	 0.657104273915006 
1375	 0.655527211582893 
1376	 0.653959748943779 
1377	 0.652362136300475 
1378	 0.650768323660765 
1379	 0.64917740926514 
1380	 0.64759162951811 
1381	 0.646023174653401 
1382	 0.644404420520931 
1383	 0.64278129181255 
1384	 0.641128725018976 
1385	 0.639421689148174 
1386	 0.637727365604375 
1387	 0.635983359603099 
1388	 0.634330854520324 
1389	 0.632694086949658 
1390	 0.631111209443419 
1391	 0.62963944172149 
1392	 0.628123474601378 
1393	 0.626711390126662 
1394	 0.625255699714218 
1395	 0.623743306383269 
1396	 0.622275262382885 
1397	 0.620620937083725 
1398	 0.618915720837718 
1399	 0.616973387406899 
1400	 0.614904117824877 
1401	 0.612624123771385 
1402	 0.61015160638022 
1403	 0.607492216561042 
1404	 0.604621818283613 
1405	 0.601685573529186 
1406	 0.59850029272164 
1407	 0.595395778952388 
1408	 0.592094735992099 
1409	 0.58908506039397 
1410	 0.586016004979689 
1411	 0.583342509121421 
1412	 0.580881219426082 
1413	 0.578750190371649 
1414	 0.576951326997523 
1415	 0.575330995671872 
1416	 0.57409426058056 
1417	 0.572851225379187 
1418	 0.571841355148743 
1419	 0.570762931698141 
1420	 0.569726358102327 
1421	 0.56869708076538 
1422	 0.567653071106886 
1423	 0.566637735730277 
1424	 0.56566081789101 
1425	 0.564653197476312 
1426	 0.563744480455814 
1427	 0.562879054809404 
1428	 0.56206890807216 
1429	 0.561388867141326 
1430	 0.560737045997197 
1431	 0.560134649721692 
1432	 0.55959965710272 
1433	 0.559137933972221 
1434	 0.558719617346873 
1435	 0.558351963196214 
1436	 0.558043851103948 
1437	 0.557802421871123 
1438	 0.557594376985483 
1439	 0.557434606002823 
1440	 0.557322505502074 
1441	 0.557260658008215 
1442	 0.557229713037366 
1443	 0.557250279635258 
1444	 0.557295439258279 
1445	 0.557368653932503 
1446	 0.557479505025743 
1447	 0.557628272333375 
1448	 0.557807541960588 
1449	 0.558033616859913 
1450	 0.558266175728245 
1451	 0.558543843016869 
1452	 0.558804015101759 
1453	 0.55907239943334 
1454	 0.559332863624305 
1455	 0.559579949924034 
1456	 0.559841337052159 
1457	 0.560116740062047 
1458	 0.56037949092271 
1459	 0.560631739617112 
1460	 0.560902439308673 
1461	 0.561153785802833 
1462	 0.561441313747624 
1463	 0.561765202303162 
1464	 0.562096052411952 
1465	 0.562432345710069 
1466	 0.562807492805767 
1467	 0.563192978689274 
1468	 0.563591611271988 
1469	 0.564022284191664 
1470	 0.564431504329662 
1471	 0.564832202550763 
1472	 0.565233117029119 
1473	 0.565606175676595 
1474	 0.56597015111178 
1475	 0.566296491016222 
1476	 0.566597931371611 
1477	 0.566877208852886 
1478	 0.567130249091652 
1479	 0.567350732502076 
1480	 0.567539513276958 
1481	 0.567720081493563 
1482	 0.567862861680992 
1483	 0.568015519845704 
1484	 0.568175552376251 
1485	 0.568303841945077 
1486	 0.568412157843975 
1487	 0.568510712559699 
1488	 0.568573821651889 
1489	 0.568662451084853 
1490	 0.568740082382875 
1491	 0.568849642502576 
1492	 0.568962742062192 
1493	 0.569121969501614 
1494	 0.569324395155753 
1495	 0.569524908490792 
1496	 0.569757334691103 
1497	 0.569990455486918 
1498	 0.570227092132336 
1499	 0.570472593463289 
1500	 0.570721292089113 
1501	 0.570997260855715 
1502	 0.571277725323145 
1503	 0.571586473815188 
1504	 0.571927367625111 
1505	 0.572284410848707 
1506	 0.572672829906204 
1507	 0.573057587792704 
1508	 0.5734703102287 
1509	 0.573866305734058 
1510	 0.5742562688241 
1511	 0.574639791783555 
1512	 0.575000250709678 
1513	 0.575383520275414 
1514	 0.575783213766303 
1515	 0.57617177166236 
1516	 0.576571771447239 
1517	 0.576965179999904 
1518	 0.577341325577863 
1519	 0.57772090151184 
1520	 0.578106589836805 
1521	 0.578482522727863 
1522	 0.57886667382142 
1523	 0.579267053108633 
1524	 0.579670508574896 
1525	 0.580086584502352 
1526	 0.580506148061401 
1527	 0.580926695865874 
1528	 0.581360713327729 
1529	 0.581805597059139 
1530	 0.582258038624903 
1531	 0.582720084176144 
1532	 0.58318976472964 
1533	 0.583672067644433 
1534	 0.584150515691596 
1535	 0.584642295016859 
1536	 0.585106708893175 
1537	 0.585565011354929 
1538	 0.586009902361911 
1539	 0.586443702043861 
1540	 0.586854205528166 
1541	 0.587257259484605 
1542	 0.587628395938144 
1543	 0.587972259148641 
1544	 0.58829363769063 
1545	 0.588600627288438 
1546	 0.588864258335243 
1547	 0.589093160737051 
1548	 0.589298645320719 
1549	 0.589469800988368 
1550	 0.589617573528719 
1551	 0.589732637820741 
1552	 0.589841459093685 
1553	 0.589921500040208 
1554	 0.589999948852095 
1555	 0.590065462328457 
1556	 0.590133599866404 
1557	 0.590188911168625 
1558	 0.59025097528023 
1559	 0.590304540551313 
1560	 0.590385773898088 
1561	 0.590453790316607 
1562	 0.590582947765682 
1563	 0.590760627487046 
1564	 0.590944080280255 
1565	 0.591170492397602 
1566	 0.591390576920003 
1567	 0.591613420912028 
1568	 0.59185290120517 
1569	 0.592105054280847 
1570	 0.592369907761406 
1571	 0.592661333276679 
1572	 0.592935987412692 
1573	 0.593221283363476 
1574	 0.59349036875029 
1575	 0.593754453269519 
1576	 0.593996633486406 
1577	 0.59421767437298 
1578	 0.594443020996686 
1579	 0.594641642815492 
1580	 0.594862000309573 
1581	 0.595092700238378 
1582	 0.595329093901508 
1583	 0.595583347592099 
1584	 0.595823053213239 
1585	 0.596054967965196 
1586	 0.596299460362618 
1587	 0.596542079718433 
1588	 0.596787105376411 
1589	 0.597041684031523 
1590	 0.5973007235206 
1591	 0.597555445984009 
1592	 0.597820212977877 
1593	 0.598104264568565 
1594	 0.598378517375243 
1595	 0.598654905318657 
1596	 0.598923518357882 
1597	 0.599192169176546 
1598	 0.599447531129501 
1599	 0.599691163021119 
1600	 0.599932537198209 
1601	 0.600169397943187 
1602	 0.600393580711232 
1603	 0.60060682546512 
1604	 0.60081850596196 
1605	 0.601027373285389 
1606	 0.601218480128715 
1607	 0.60140215363131 
1608	 0.601577706962761 
1609	 0.601737589348586 
1610	 0.601886252421699 
1611	 0.602045297316222 
1612	 0.602162689482226 
1613	 0.602235295675817 
1614	 0.602316020475538 
1615	 0.602386055608244 
1616	 0.60243391212579 
1617	 0.602482365293341 
1618	 0.602504076509746 
1619	 0.602487172935875 
1620	 0.602467359499439 
1621	 0.602433828837582 
1622	 0.602392118976464 
1623	 0.602342924286756 
1624	 0.602275739180158 
1625	 0.602201724556255 
1626	 0.602106050785659 
1627	 0.601971447403674 
1628	 0.601853699791739 
1629	 0.601718237403317 
1630	 0.601604338169531 
1631	 0.601523734963405 
1632	 0.601418538227882 
1633	 0.601320628355699 
1634	 0.601198146198822 
1635	 0.601048349564022 
1636	 0.600896558123698 
1637	 0.600743823438648 
1638	 0.600565304228453 
1639	 0.600380924527858 
1640	 0.600162535608764 
1641	 0.599899525992481 
1642	 0.599641540204753 
1643	 0.599379069188333 
1644	 0.599086679383676 
1645	 0.598793935104063 
1646	 0.59845719696763 
1647	 0.598083571969765 
1648	 0.597673025496027 
1649	 0.597242308260689 
1650	 0.596752385797115 
1651	 0.59621116893531 
1652	 0.595634069042929 
1653	 0.595028410574292 
1654	 0.594346734411587 
1655	 0.593605671605351 
1656	 0.592810353992847 
1657	 0.591963631157709 
1658	 0.591019476205346 
1659	 0.590022867211823 
1660	 0.588936901759336 
1661	 0.587755332576499 
1662	 0.586485275101966 
1663	 0.585145849869974 
1664	 0.58367598659261 
1665	 0.582129572360905 
1666	 0.58038990495925 
1667	 0.578505771675111 
1668	 0.576502388024771 
1669	 0.57433469839078 
1670	 0.572046394575213 
1671	 0.569605526263483 
1672	 0.567071473861541 
1673	 0.564412253507919 
1674	 0.561629928810541 
1675	 0.558748981695435 
1676	 0.555799805275161 
1677	 0.552719586024549 
1678	 0.549568825698751 
1679	 0.546307119396651 
1680	 0.54299923441828 
1681	 0.53958871757746 
1682	 0.536144740928234 
1683	 0.532666598125377 
1684	 0.52919455207874 
1685	 0.525665498452498 
1686	 0.522135141050459 
1687	 0.518563963758135 
1688	 0.515012615276012 
1689	 0.511453992135778 
1690	 0.507875754296277 
1691	 0.504345466293944 
1692	 0.500808584828158 
1693	 0.49726830116463 
1694	 0.493658946933552 
1695	 0.490020994432876 
1696	 0.486308418032892 
1697	 0.482508181548401 
1698	 0.47867349031032 
1699	 0.474787738414836 
1700	 0.471009924045891 
1701	 0.467166224524747 
1702	 0.463505978790066 
1703	 0.459898594345516 
1704	 0.456488526501969 
1705	 0.453178132007134 
1706	 0.450013825970559 
1707	 0.447240118351766 
1708	 0.444574816375152 
1709	 0.442080354234773 
1710	 0.439808808142389 
1711	 0.437512430490756 
1712	 0.43535536555695 
1713	 0.433246000370518 
1714	 0.431142771253782 
1715	 0.429225344611644 
1716	 0.427311707466882 
1717	 0.425483228943117 
1718	 0.423752333385214 
1719	 0.422061536127824 
1720	 0.420559230585077 
1721	 0.419213438762367 
1722	 0.418061309384392 
1723	 0.417211595721573 
1724	 0.416612759343515 
1725	 0.416316334548773 
1726	 0.416424573364459 
1727	 0.41689155903444 
1728	 0.41770306033126 
1729	 0.418935948519315 
1730	 0.420538753110294 
1731	 0.422325861927183 
1732	 0.424396438608717 
1733	 0.426544775699922 
1734	 0.428759761112389 
1735	 0.431096130540656 
1736	 0.433276835150726 
1737	 0.435317247670295 
1738	 0.437140726111642 
1739	 0.438625722112092 
1740	 0.439867379025356 
1741	 0.440839716588131 
1742	 0.441462752250003 
1743	 0.441931722960091 
1744	 0.442107574537564 
1745	 0.442215234634495 
1746	 0.442076549364442 
1747	 0.441976760711936 
1748	 0.441783655114745 
1749	 0.441617754498976 
1750	 0.441386618960126 
1751	 0.441277557943249 
1752	 0.441165436151629 
1753	 0.441219535907415 
1754	 0.441369126039095 
1755	 0.441683867547992 
1756	 0.442087374514572 
1757	 0.442692112349688 
1758	 0.443536088752128 
1759	 0.44453547541323 
1760	 0.445829201605498 
1761	 0.447358762258228 
1762	 0.449000220481344 
1763	 0.450925010380968 
1764	 0.45298174406644 
1765	 0.455186463810409 
1766	 0.457656405655954 
1767	 0.460104163868093 
1768	 0.462633999768722 
1769	 0.465184277044113 
1770	 0.467486480062709 
1771	 0.469760760037244 
1772	 0.471917963758582 
1773	 0.473890614955832 
1774	 0.475844956002637 
1775	 0.477583801742031 
1776	 0.479195628603699 
1777	 0.480695953033429 
1778	 0.481974331339423 
1779	 0.483198719358238 
1780	 0.484289882431677 
1781	 0.485248508554216 
1782	 0.486176088048596 
1783	 0.486989956095033 
1784	 0.487720417087386 
1785	 0.488292314744442 
1786	 0.488812416190553 
1787	 0.489231440838158 
1788	 0.489611124170185 
1789	 0.489930825046572 
1790	 0.490226426891353 
1791	 0.490440663611751 
1792	 0.490692110318274 
1793	 0.490928917676145 
1794	 0.491149405455851 
1795	 0.491375773937997 
1796	 0.491594969960826 
1797	 0.491851109308988 
1798	 0.49209745815765 
1799	 0.492348332069483 
1800	 0.492611793383264 
1801	 0.495536503946289 
1802	 0.495819667523531 
1803	 0.49611147986435 
1804	 0.496398105000734 
1805	 0.496693019551115 
1806	 0.496984824771962 
1807	 0.497302151020795 
1808	 0.497592262362334 
1809	 0.497856139608475 
1810	 0.498137933184624 
1811	 0.498413034456075 
1812	 0.498706754372104 
1813	 0.498994707131566 
1814	 0.499320146618323 
1815	 0.499678739922861 
1816	 0.500045614610766 
1817	 0.500426921829483 
1818	 0.500842755422554 
1819	 0.501247130345645 
1820	 0.501648779470522 
1821	 0.502062147475552 
1822	 0.502482386482263 
1823	 0.50292542931248 
1824	 0.503341828832972 
1825	 0.503770387936326 
1826	 0.504181315848632 
1827	 0.504573034620558 
1828	 0.5049674180695 
1829	 0.505362977334607 
1830	 0.505753371451395 
1831	 0.506137485990314 
1832	 0.506523686941817 
1833	 0.506915025737907 
1834	 0.507292925640248 
1835	 0.507649496625413 
1836	 0.508006999558863 
1837	 0.508380700943693 
1838	 0.508747369857919 
1839	 0.509125092902543 
1840	 0.509530213042835 
1841	 0.509921053634706 
1842	 0.510315295658469 
1843	 0.510696018721831 
1844	 0.511054902787334 
1845	 0.51138937261808 
1846	 0.511705197275353 
1847	 0.511981210629239 
1848	 0.512235522048481 
1849	 0.512491509412998 
1850	 0.512676958642737 
1851	 0.512819420667138 
1852	 0.512931856648651 
1853	 0.512965274167611 
1854	 0.512968272553006 
1855	 0.51293212656915 
1856	 0.512834933785297 
1857	 0.512702941936186 
1858	 0.512509394195634 
1859	 0.512276294955092 
1860	 0.512009226801275 
1861	 0.511668003265296 
1862	 0.51127901954315 
1863	 0.510830427190061 
1864	 0.510290786430107 
1865	 0.509690254416984 
1866	 0.509001281402555 
1867	 0.508210850051472 
1868	 0.507381627279919 
1869	 0.506415533187573 
1870	 0.505359956298249 
1871	 0.504231105446731 
1872	 0.503019711857148 
1873	 0.501707707986362 
1874	 0.500337551622257 
1875	 0.49889123453242 
1876	 0.497236864982588 
1877	 0.495531658156901 
1878	 0.493635915040287 
1879	 0.491524524325136 
1880	 0.489395764185948 
1881	 0.487070879960673 
1882	 0.484563427059086 
1883	 0.481925854469453 
1884	 0.479092105907098 
1885	 0.47587382418583 
1886	 0.472516871400637 
1887	 0.468855950320289 
1888	 0.464907721888619 
1889	 0.461052372327727 
1890	 0.456878183950085 
1891	 0.452638347821959 
1892	 0.448380275863642 
1893	 0.443923154393764 
1894	 0.439203244854122 
1895	 0.434650534217329 
1896	 0.429963982912272 
1897	 0.425191526048815 
1898	 0.420823389326162 
1899	 0.41637868430602 
1900	 0.412046127652729 
1901	 0.407944276704609 
1902	 0.403632513230544 
1903	 0.399552436021118 
1904	 0.395606771686435 
1905	 0.391731448214607 
1906	 0.387970010130691 
1907	 0.384653466290253 
1908	 0.381346950323791 
1909	 0.378204034233116 
1910	 0.375300180281626 
1911	 0.372317275101283 
1912	 0.36956909466825 
1913	 0.366948822044981 
1914	 0.364374236035264 
1915	 0.362023448147107 
1916	 0.359923075641145 
1917	 0.357827729849261 
1918	 0.355818093945353 
1919	 0.353977922050902 
1920	 0.352106607905546 
1921	 0.350381914744288 
1922	 0.348756388411278 
1923	 0.347174550877319 
1924	 0.345780933925563 
1925	 0.344424909438459 
1926	 0.343171610142511 
1927	 0.342055944645249 
1928	 0.340981864914816 
1929	 0.339955643387204 
1930	 0.339039332753923 
1931	 0.338222260600729 
1932	 0.337454250326113 
1933	 0.336840853960478 
1934	 0.336332544430029 
1935	 0.335899456634337 
1936	 0.335582096087512 
1937	 0.335342551965895 
1938	 0.335190873032677 
1939	 0.335137469524325 
1940	 0.335184825901614 
1941	 0.335297444394785 
1942	 0.335494926163034 
1943	 0.335772567060167 
1944	 0.336100033313592 
1945	 0.336500187161651 
1946	 0.336995148514629 
1947	 0.337526378788458 
1948	 0.338111026398303 
1949	 0.338773203889941 
1950	 0.339437573311417 
1951	 0.340132094430338 
1952	 0.340858456581277 
1953	 0.34161552628044 
1954	 0.342386428092149 
1955	 0.343209147655509 
1956	 0.344024765605094 
1957	 0.344877333640363 
1958	 0.345729850749536 
1959	 0.346536110604827 
1960	 0.347369193693161 
1961	 0.348180649365658 
1962	 0.348950597478603 
1963	 0.349758059164256 
1964	 0.350583260508739 
1965	 0.351388347995679 
1966	 0.352202964034643 
1967	 0.353017663779244 
1968	 0.353774124974648 
1969	 0.354569511664804 
1970	 0.35535614324716 
1971	 0.356116042588048 
1972	 0.356922390027676 
1973	 0.357714386010565 
1974	 0.358508168782025 
1975	 0.359326881334289 
1976	 0.360110011703209 
1977	 0.360879299605884 
1978	 0.361641167262897 
1979	 0.362379000144521 
1980	 0.363108148013444 
1981	 0.36388948279939 
1982	 0.364624921989293 
1983	 0.365369823379741 
1984	 0.366124231771323 
1985	 0.366793021703798 
1986	 0.367450115309324 
1987	 0.368104181070969 
1988	 0.368719164312966 
1989	 0.369363512435811 
1990	 0.370034729624084 
1991	 0.370666194414543 
1992	 0.371302031985555 
1993	 0.371913279255004 
1994	 0.372448381825382 
1995	 0.37299753078872 
1996	 0.373525473706653 
1997	 0.374026100020491 
1998	 0.374539339840446 
1999	 0.375066221499063 
2000	 0.375549331863879 
2001	 0.376033977457587 
2002	 0.376470395628705 
2003	 0.376863977596547 
2004	 0.37724056903554 
2005	 0.377592813476547 
2006	 0.377913106262106 
2007	 0.378207073549904 
2008	 0.378471571879625 
2009	 0.378722736828986 
2010	 0.378911692190196 
2011	 0.379048537152014 
2012	 0.379168660550317 
2013	 0.379210517289206 
2014	 0.379194871286087 
2015	 0.379111974113786 
2016	 0.378978064484331 
2017	 0.378759043752846 
2018	 0.378466868036866 
2019	 0.378101556705625 
2020	 0.377674120309153 
2021	 0.377136460951389 
2022	 0.376552399464621 
2023	 0.375900498512921 
2024	 0.375120470864552 
2025	 0.374318459537485 
2026	 0.373449131535601 
2027	 0.372454763644161 
2028	 0.371502944297625 
2029	 0.370529486353643 
2030	 0.369535009775155 
2031	 0.368512471552322 
2032	 0.36750723880852 
2033	 0.366423950777059 
2034	 0.365453940774454 
2035	 0.364522090242037 
2036	 0.363636585935025 
2037	 0.362865662632933 
2038	 0.362160624374009 
2039	 0.361532948886362 
2040	 0.360984744077363 
2041	 0.360514945624564 
2042	 0.360116193967052 
2043	 0.359811532496339 
2044	 0.359599047719473 
2045	 0.359452113703027 
2046	 0.359406372252599 
2047	 0.359403180266399 
2048	 0.35946904604065 
2049	 0.359586824024769 
2050	 0.359779832388006 
2051	 0.360004599090252 
2052	 0.360266915507212 
2053	 0.360578725605557 
2054	 0.360898012112417 
2055	 0.361240688015154 
2056	 0.361607422203782 
2057	 0.361987970243995 
2058	 0.362420051798218 
2059	 0.362899488687011 
2060	 0.36337554544622 
2061	 0.363928145785054 
2062	 0.364417630148948 
2063	 0.364870113926364 
2064	 0.365342595395751 
2065	 0.365817632805611 
2066	 0.366257201459846 
2067	 0.366732891782508 
2068	 0.367180614872861 
2069	 0.367608513694317 
2070	 0.368030482813846 
2071	 0.368400749538764 
2072	 0.368742754322249 
2073	 0.369059566752947 
2074	 0.369311347889669 
2075	 0.369588579403938 
2076	 0.369869438477925 
2077	 0.370121308707552 
2078	 0.370385621011471 
2079	 0.370596338518555 
2080	 0.370749738478207 
2081	 0.370906030355969 
2082	 0.371034690096362 
2083	 0.37115301034751 
2084	 0.371279137854287 
2085	 0.371373167547641 
2086	 0.371429440706819 
2087	 0.371447602556992 
2088	 0.371457268483569 
2089	 0.371429196096844 
2090	 0.371401622440659 
2091	 0.371375245360067 
2092	 0.37131451275831 
2093	 0.371238855954936 
2094	 0.371128525189054 
2095	 0.370963423839022 
2096	 0.370815877942981 
2097	 0.370665502879525 
2098	 0.370493999658715 
2099	 0.370304071106659 
2100	 0.370090207505195 
2101	 0.369835728595704 
2102	 0.369528429714806 
2103	 0.369215419867747 
2104	 0.368874459831032 
2105	 0.368528125633417 
2106	 0.368166084670933 
2107	 0.367778071526918 
2108	 0.367400961676874 
2109	 0.366953936784294 
2110	 0.366437448058365 
2111	 0.365927861117643 
2112	 0.365360357232861 
2113	 0.364818298807873 
2114	 0.364295873827801 
2115	 0.363751983298099 
2116	 0.363209659415865 
2117	 0.362654062250802 
2118	 0.362060023390925 
2119	 0.361425226762287 
2120	 0.360824129694525 
2121	 0.360185959885779 
2122	 0.359607677643125 
2123	 0.359081578839652 
2124	 0.358524494265977 
2125	 0.357973681547983 
2126	 0.35742925827455 
2127	 0.356874727071772 
2128	 0.356339382374952 
2129	 0.355811675285664 
2130	 0.355307159052704 
2131	 0.354831925125668 
2132	 0.354339137135904 
2133	 0.353859572079321 
2134	 0.353390362497791 
2135	 0.352848733563458 
2136	 0.352329017268647 
2137	 0.351810039650378 
2138	 0.351285439858446 
2139	 0.35074659012606 
2140	 0.350210600805204 
2141	 0.349671976524016 
2142	 0.349103350219967 
2143	 0.348565483964753 
2144	 0.348045205431498 
2145	 0.347535633446642 
2146	 0.34701681220747 
2147	 0.346542294902961 
2148	 0.346107726786942 
2149	 0.345668805410624 
2150	 0.345272816259465 
2151	 0.344853301580596 
2152	 0.344417127801836 
2153	 0.343994791473475 
2154	 0.343578127973712 
2155	 0.343133505316315 
2156	 0.342694240582463 
2157	 0.342248817449327 
2158	 0.341819497410317 
2159	 0.341399371188729 
2160	 0.340952993583077 
2161	 0.340504398987791 
2162	 0.340064724067961 
2163	 0.339572933427713 
2164	 0.339160418721959 
2165	 0.338785893357189 
2166	 0.338439164441789 
2167	 0.33812602230858 
2168	 0.337852176693682 
2169	 0.337595470777793 
2170	 0.337405035884181 
2171	 0.337277376681098 
2172	 0.337173438514269 
2173	 0.337119564373603 
2174	 0.337104753692303 
2175	 0.337086254068038 
2176	 0.337114085230257 
2177	 0.33719103092653 
2178	 0.337308907678131 
2179	 0.337456796686347 
2180	 0.33766652960516 
2181	 0.337869989154114 
2182	 0.338092077485571 
2183	 0.338336423036753 
2184	 0.338596607626427 
2185	 0.33888505235081 
2186	 0.33920482621008 
2187	 0.339533668121102 
2188	 0.3399113148352 
2189	 0.340254112385715 
2190	 0.340588520400115 
2191	 0.340927977912085 
2192	 0.341258645502046 
2193	 0.341585364555496 
2194	 0.341943613633632 
2195	 0.342255392081986 
2196	 0.342539057919541 
2197	 0.342803270914894 
2198	 0.343043733415468 
2199	 0.343278096755762 
2200	 0.343504175738072 
2201	 0.343731271186237 
2202	 0.343925527553173 
2203	 0.344102536544583 
2204	 0.344249493577673 
2205	 0.344374572561198 
2206	 0.344475873921355 
2207	 0.344543351189469 
2208	 0.344606056476784 
2209	 0.344657967266418 
2210	 0.344668909485717 
2211	 0.344669999665495 
2212	 0.344623726917364 
2213	 0.34451317612638 
2214	 0.344409843021909 
2215	 0.344303237082366 
2216	 0.344142693377978 
2217	 0.343970660753347 
2218	 0.343746863844489 
2219	 0.343483384982253 
2220	 0.343155397668167 
2221	 0.342784741314952 
2222	 0.34234327217456 
2223	 0.341879286704906 
2224	 0.341313066281967 
2225	 0.340682887592871 
2226	 0.339972894662981 
2227	 0.339125938750104 
2228	 0.338161377778759 
2229	 0.337087719849276 
2230	 0.335879252702464 
2231	 0.334609001739356 
2232	 0.33325212501718 
2233	 0.331741310013661 
2234	 0.330186320608521 
2235	 0.328379633646692 
2236	 0.326374841055352 
2237	 0.324232663892538 
2238	 0.321842067247236 
2239	 0.319408827101302 
2240	 0.316872605643051 
2241	 0.314185161909538 
2242	 0.311464362711813 
2243	 0.308473298639391 
2244	 0.305200216818205 
2245	 0.301894766964668 
2246	 0.298288679317058 
2247	 0.294771448994988 
2248	 0.291279400310566 
2249	 0.287699923722304 
2250	 0.284067294539156 
2251	 0.280480896471512 
2252	 0.276610883389419 
2253	 0.272836557063471 
2254	 0.269033036916336 
2255	 0.26518726504331 
2256	 0.261724616241946 
2257	 0.258257772487287 
2258	 0.25493080845212 
2259	 0.25182980401019 
2260	 0.248655684867152 
2261	 0.245461088938192 
2262	 0.242468865590561 
2263	 0.239495142298206 
2264	 0.236757303255988 
2265	 0.234270703927363 
2266	 0.231763186245281 
2267	 0.229443264001206 
2268	 0.227053578869533 
2269	 0.224654707509017 
2270	 0.222336057455548 
2271	 0.220008300775175 
2272	 0.217788817290098 
2273	 0.215699973145908 
2274	 0.213577648460172 
2275	 0.211562706356591 
2276	 0.209455268333211 
2277	 0.20732159128258 
2278	 0.205167895520467 
2279	 0.202904323824471 
2280	 0.200716069641007 
2281	 0.198595729331527 
2282	 0.196391816290997 
2283	 0.194181913211218 
2284	 0.192004251432679 
2285	 0.18961218638105 
2286	 0.187217427691984 
2287	 0.184715685987921 
2288	 0.182159753590114 
2289	 0.179804994909758 
2290	 0.177361006341509 
2291	 0.174970607124493 
2292	 0.172636588855133 
2293	 0.170058931873886 
2294	 0.167579892100494 
2295	 0.165253922944991 
2296	 0.162999328663998 
2297	 0.161093423282039 
2298	 0.159469210920565 
2299	 0.15803154157562 
2300	 0.156813472570688 
2301	 0.155903655672795 
2302	 0.155216357817 
2303	 0.154897899367928 
2304	 0.154965036297011 
2305	 0.155228973877446 
2306	 0.155812278613231 
2307	 0.156625296219615 
2308	 0.157654705702298 
2309	 0.159021917424078 
2310	 0.16078617882081 
2311	 0.162642132419787 
2312	 0.164921023360624 
2313	 0.167072961788648 
2314	 0.16938155162538 
2315	 0.171575999101065 
2316	 0.173779818994538 
2317	 0.175853193002633 
2318	 0.17800112665925 
2319	 0.179747361571976 
2320	 0.181357435505056 
2321	 0.182594496707579 
2322	 0.183374236317328 
2323	 0.184057166852949 
2324	 0.18450219803783 
2325	 0.184713700571677 
2326	 0.184686183893002 
2327	 0.184495198999192 
2328	 0.184014328277931 
2329	 0.183423639395401 
2330	 0.182720047891361 
2331	 0.181754996576999 
2332	 0.180603324178066 
2333	 0.179331689578672 
2334	 0.177844114216811 
2335	 0.176309346392583 
2336	 0.174699798496352 
2337	 0.172933330578159 
2338	 0.171220562764348 
2339	 0.169472370123458 
2340	 0.167755689098594 
2341	 0.166199933288126 
2342	 0.164721991343522 
2343	 0.163451918022888 
2344	 0.16243501012458 
2345	 0.161732879074261 
2346	 0.161445335311157 
2347	 0.161531156856032 
2348	 0.161919276757543 
2349	 0.162693540903218 
2350	 0.163753362633948 
2351	 0.165073377509154 
2352	 0.166703020600842 
2353	 0.168514832334874 
2354	 0.170227047214821 
2355	 0.171913862022986 
2356	 0.173478069706315 
2357	 0.174821962520977 
2358	 0.176093489910439 
2359	 0.177099185092843 
2360	 0.177967049574208 
2361	 0.178632591468581 
2362	 0.179044263882629 
2363	 0.17938638935192 
2364	 0.17959315712997 
2365	 0.179696374355671 
2366	 0.17982146184568 
2367	 0.179956164917086 
2368	 0.179998258258678 
2369	 0.179972099072623 
2370	 0.179987939908889 
2371	 0.179981084502167 
2372	 0.180079750015706 
2373	 0.180307912514324 
2374	 0.180492034740844 
2375	 0.180654052184687 
2376	 0.18070907240414 
2377	 0.180687878227142 
2378	 0.180681767297838 
2379	 0.180770422061632 
2380	 0.18097617151888 
2381	 0.181137565158451 
2382	 0.181249296775695 
2383	 0.181308017712089 
2384	 0.181454862524478 
2385	 0.181558579384514 
2386	 0.181748917952593 
2387	 0.182083935653582 
2388	 0.182301099488379 
2389	 0.182493362049311 
2390	 0.182722784412831 
2391	 0.182928454634996 
2392	 0.183118012824971 
2393	 0.183355033122822 
2394	 0.18348323113317 
2395	 0.183492416723342 
2396	 0.183656505657459 
2397	 0.183839888880164 
2398	 0.18397802964549 
2399	 0.184233347632653 
2400	 0.184331506148061 
2401	 0.184266914888031 
2402	 0.184340816505054 
2403	 0.184404774534064 
2404	 0.18446062689388 
2405	 0.184589812361355 
2406	 0.184762009932859 
2407	 0.18482121918619 
2408	 0.184963794974478 
2409	 0.185204398536404 
2410	 0.18530433548383 
2411	 0.185387588065827 
2412	 0.18542823527106 
2413	 0.185300256313568 
2414	 0.185226068942998 
2415	 0.185351563007067 
2416	 0.185573026923725 
2417	 0.18575651731526 
2418	 0.1858511740882 
2419	 0.185882497200304 
2420	 0.185773391724492 
2421	 0.185664894991483 
2422	 0.185698457082305 
2423	 0.18566248874673 
2424	 0.185671435063253 
2425	 0.185819158805244 
2426	 0.185862522028041 
2427	 0.185759722591379 
2428	 0.18567570896631 
2429	 0.18559352499819 
2430	 0.185413482104046 
2431	 0.185310754181562 
2432	 0.185230815205824 
2433	 0.185096504642552 
2434	 0.18501452569398 
2435	 0.184845359489859 
2436	 0.184602357088227 
2437	 0.184294768599396 
2438	 0.183850594817165 
2439	 0.183485533536734 
2440	 0.183246966233256 
2441	 0.182987378243263 
2442	 0.182723755286757 
2443	 0.182445515187865 
2444	 0.182079002092407 
2445	 0.181631355099863 
2446	 0.181136113809375 
2447	 0.180619648020853 
2448	 0.180089208560075 
2449	 0.179542660214572 
2450	 0.179044121790229 
2451	 0.178669602332572 
2452	 0.178327483951064 
2453	 0.177781284386853 
2454	 0.177186502058796 
2455	 0.176609484871427 
2456	 0.175998917584059 
2457	 0.175604831560415 
2458	 0.175290090766817 
2459	 0.174929834031725 
2460	 0.17451449033829 
2461	 0.173986912606568 
2462	 0.173452847118603 
2463	 0.173019244375517 
2464	 0.172653068063855 
2465	 0.1723206518422 
2466	 0.172150583759684 
2467	 0.171940113185647 
2468	 0.171565630154935 
2469	 0.171176501333822 
2470	 0.170691979025359 
2471	 0.170173968238253 
2472	 0.16973756332177 
2473	 0.169587211763295 
2474	 0.169641382963435 
2475	 0.169467852679884 
2476	 0.169305825074359 
2477	 0.169146941220484 
2478	 0.168758446311211 
2479	 0.168670841796549 
2480	 0.168604737562648 
2481	 0.168559416962041 
2482	 0.168631365016908 
2483	 0.168659189829077 
2484	 0.168909738107002 
2485	 0.169091674993937 
2486	 0.169005608040865 
2487	 0.168873481902445 
2488	 0.168789570998895 
2489	 0.168540145853845 
2490	 0.168563287090807 
2491	 0.168870589750279 
2492	 0.168920120108818 
2493	 0.169095269723099 
2494	 0.169398955535145 
2495	 0.16955042056699 
2496	 0.16966127125693 
2497	 0.169844772619983 
2498	 0.169964154768868 
2499	 0.170081389120586 
2500	 0.170322104087304 
