Wavelength	spectrum00012.asd
350	 0.146571902426155 
351	 0.143887740450946 
352	 0.140443031035718 
353	 0.137765507144091 
354	 0.136732115475663 
355	 0.136116670178139 
356	 0.135229738502188 
357	 0.133813388464892 
358	 0.132277426163741 
359	 0.130925447028979 
360	 0.130935207816108 
361	 0.13316590235023 
362	 0.133015507227011 
363	 0.131511243884499 
364	 0.130503693473822 
365	 0.132072023223258 
366	 0.13405889231527 
367	 0.135410069207943 
368	 0.135883745856789 
369	 0.13664704469264 
370	 0.13838910615223 
371	 0.140058430637953 
372	 0.140069059247822 
373	 0.141523946565511 
374	 0.143437390487166 
375	 0.14503790590892 
376	 0.146525864551171 
377	 0.148131969740699 
378	 0.149769233064269 
379	 0.151391897113686 
380	 0.153409665863816 
381	 0.155744882020971 
382	 0.15777024751491 
383	 0.158879312382889 
384	 0.161620533414106 
385	 0.163861188128772 
386	 0.16476540623819 
387	 0.166161075554858 
388	 0.169326594252992 
389	 0.172128775192649 
390	 0.172850625735803 
391	 0.174904278435004 
392	 0.177267032780898 
393	 0.179550064393742 
394	 0.181871405086634 
395	 0.184398093442497 
396	 0.186984549591328 
397	 0.18937547407571 
398	 0.191125331425692 
399	 0.193657647360568 
400	 0.196628486611954 
401	 0.199247646452566 
402	 0.20124306084359 
403	 0.203860835978694 
404	 0.206922420855816 
405	 0.209257903683826 
406	 0.211795295000517 
407	 0.214285717610731 
408	 0.216751777861854 
409	 0.220192068424718 
410	 0.222739743792234 
411	 0.225257069741055 
412	 0.228916048284589 
413	 0.231687251752253 
414	 0.234187707130786 
415	 0.236873009542503 
416	 0.239876399801193 
417	 0.242774160906558 
418	 0.245702516383228 
419	 0.248777383263261 
420	 0.251882942633455 
421	 0.254672277971127 
422	 0.257588780319302 
423	 0.26116711263859 
424	 0.264280729399757 
425	 0.267145381745172 
426	 0.270000935910922 
427	 0.272979364640975 
428	 0.276035524006378 
429	 0.279135023924185 
430	 0.282203989435724 
431	 0.285049568434673 
432	 0.288081764003331 
433	 0.291270955463118 
434	 0.294351362024917 
435	 0.297298853685118 
436	 0.300213134872856 
437	 0.303194396293628 
438	 0.306314602586235 
439	 0.309320102895822 
440	 0.312264616060222 
441	 0.315246318238162 
442	 0.318134004192924 
443	 0.320973544951104 
444	 0.323827784874577 
445	 0.326760050322096 
446	 0.329629476854227 
447	 0.332424324686369 
448	 0.335179767368048 
449	 0.337984517301891 
450	 0.34072286453184 
451	 0.343368575376803 
452	 0.345978321153987 
453	 0.348901371824194 
454	 0.351502033616916 
455	 0.353740317889446 
456	 0.356303134653911 
457	 0.358737870129049 
458	 0.361056269566733 
459	 0.363354732592601 
460	 0.365659394902471 
461	 0.367933058760223 
462	 0.370080649236451 
463	 0.372015722871804 
464	 0.374003332163107 
465	 0.375922508082871 
466	 0.377669631557434 
467	 0.379240134402086 
468	 0.380689234470949 
469	 0.382090380384646 
470	 0.383501054813135 
471	 0.384907268993027 
472	 0.386115253921347 
473	 0.387130320828876 
474	 0.388115543533968 
475	 0.389040153645644 
476	 0.389916749813742 
477	 0.390755267457521 
478	 0.391575368554238 
479	 0.392160374280881 
480	 0.392638429005029 
481	 0.393198995633349 
482	 0.393439456542455 
483	 0.393743423550673 
484	 0.394167415704222 
485	 0.394338294533995 
486	 0.39450978426152 
487	 0.394663606131552 
488	 0.394771271483242 
489	 0.39496281469732 
490	 0.395175693694591 
491	 0.39535152059067 
492	 0.395456801890384 
493	 0.395667862463725 
494	 0.395825252825989 
495	 0.395909226525514 
496	 0.396204855806229 
497	 0.396445599226346 
498	 0.396600820543122 
499	 0.396725712576474 
500	 0.396923245620153 
501	 0.39698665056212 
502	 0.396850892429004 
503	 0.396592210033209 
504	 0.396283651643867 
505	 0.395900321959305 
506	 0.395417843569957 
507	 0.394851566251025 
508	 0.394303004882506 
509	 0.393786834332372 
510	 0.393274834404663 
511	 0.39275385189281 
512	 0.392296672734115 
513	 0.391881072752523 
514	 0.391356248533787 
515	 0.390755886436138 
516	 0.390065022676902 
517	 0.389298605341407 
518	 0.388620661933447 
519	 0.387778817046284 
520	 0.386835805093854 
521	 0.386052001531268 
522	 0.385215337114836 
523	 0.384304799869455 
524	 0.383337465983847 
525	 0.382330954394837 
526	 0.381409085256149 
527	 0.380596082580755 
528	 0.379860856114427 
529	 0.379120856748369 
530	 0.378457143651213 
531	 0.377890617665749 
532	 0.377371404175593 
533	 0.377058762574024 
534	 0.376892432727543 
535	 0.376793726194933 
536	 0.37677339679331 
537	 0.376910643061981 
538	 0.377173608889135 
539	 0.377482482640823 
540	 0.377937450544145 
541	 0.378550913877149 
542	 0.379309378703351 
543	 0.380177160336637 
544	 0.38115883512226 
545	 0.382223304995016 
546	 0.383384441347859 
547	 0.384891462876477 
548	 0.386612214532475 
549	 0.388454340380743 
550	 0.390375349288053 
551	 0.392312758134653 
552	 0.394331732322211 
553	 0.396450556215283 
554	 0.398508421849402 
555	 0.400479762265421 
556	 0.402381760144405 
557	 0.404216112375074 
558	 0.405694732329165 
559	 0.407035417463174 
560	 0.408282538375754 
561	 0.409176398089804 
562	 0.409764923964641 
563	 0.410176720503541 
564	 0.410498934245751 
565	 0.410552932366671 
566	 0.410436481376043 
567	 0.410173262080076 
568	 0.409734039542033 
569	 0.409225608922537 
570	 0.408534253425643 
571	 0.407604213037604 
572	 0.406595692177956 
573	 0.405253022265441 
574	 0.403603303909793 
575	 0.401767137621964 
576	 0.399683410456427 
577	 0.397476628184785 
578	 0.395236968065781 
579	 0.393005500251148 
580	 0.39079833058955 
581	 0.388610495563952 
582	 0.386428799994953 
583	 0.384240828562887 
584	 0.382076383998924 
585	 0.380027249598539 
586	 0.378219078987429 
587	 0.376761579309627 
588	 0.375540738626943 
589	 0.374512635479913 
590	 0.373790427128598 
591	 0.373415570219437 
592	 0.373341826358599 
593	 0.373495491451422 
594	 0.373843984718982 
595	 0.374357170242603 
596	 0.374998010011091 
597	 0.375719979603374 
598	 0.376470410476473 
599	 0.377241495293494 
600	 0.378018762196068 
601	 0.378735579599199 
602	 0.379457719440544 
603	 0.380178081691263 
604	 0.380865643002461 
605	 0.381563326759673 
606	 0.382256673993309 
607	 0.382950359975308 
608	 0.383677109652993 
609	 0.384295329322337 
610	 0.384906901723238 
611	 0.385608101811252 
612	 0.386255200474901 
613	 0.386899134294922 
614	 0.387545281758139 
615	 0.388169510102078 
616	 0.388763655282221 
617	 0.389309940099553 
618	 0.389812191608643 
619	 0.39032018311613 
620	 0.390728049512368 
621	 0.391057330589422 
622	 0.391353485142968 
623	 0.391547219511806 
624	 0.391692126386158 
625	 0.3917801574849 
626	 0.391747204243975 
627	 0.391679079624543 
628	 0.391513976095771 
629	 0.391228198222396 
630	 0.390951309345008 
631	 0.390713013236172 
632	 0.390443455456738 
633	 0.390065633863717 
634	 0.38981771301701 
635	 0.389540915020271 
636	 0.389208724454337 
637	 0.388998968432817 
638	 0.388803130502335 
639	 0.388728749702791 
640	 0.388831119184345 
641	 0.388822206171256 
642	 0.388964964295079 
643	 0.389275256501473 
644	 0.389626130215527 
645	 0.390118198017231 
646	 0.390732951174074 
647	 0.391464842393321 
648	 0.392356423176618 
649	 0.393327583059188 
650	 0.394388029841347 
651	 0.395578220267162 
652	 0.396942062173051 
653	 0.398392692161602 
654	 0.399994690967995 
655	 0.401915868303453 
656	 0.403955108590776 
657	 0.406081703509645 
658	 0.408328338500112 
659	 0.410806463975834 
660	 0.413420739021694 
661	 0.416192708145192 
662	 0.419179945056575 
663	 0.422396051805689 
664	 0.425795499591951 
665	 0.429374312138257 
666	 0.433168327603817 
667	 0.437166274514853 
668	 0.441321765333578 
669	 0.445651118506521 
670	 0.450372390688316 
671	 0.455295014012154 
672	 0.460382608783837 
673	 0.46568555438719 
674	 0.47127581771039 
675	 0.477050801268481 
676	 0.48299589683772 
677	 0.489218778422828 
678	 0.495616594234469 
679	 0.502175473131974 
680	 0.50891936355765 
681	 0.515919773053026 
682	 0.523044678169843 
683	 0.530288917509319 
684	 0.537707349202935 
685	 0.545153187971819 
686	 0.55272894511929 
687	 0.560415266343721 
688	 0.567990788100208 
689	 0.575668075990345 
690	 0.583403852493583 
691	 0.591093495434322 
692	 0.598642225334841 
693	 0.606111862886971 
694	 0.61354114861151 
695	 0.620917698399426 
696	 0.628112077323713 
697	 0.635116840771776 
698	 0.6419320160708 
699	 0.648542489930201 
700	 0.655037705181852 
701	 0.661385480554857 
702	 0.667513713901313 
703	 0.673343916452234 
704	 0.678929505750226 
705	 0.684331017062006 
706	 0.689594781760628 
707	 0.694638092313931 
708	 0.699387473596507 
709	 0.703822042230027 
710	 0.707990328376488 
711	 0.712006329964193 
712	 0.715936840190933 
713	 0.719763902190323 
714	 0.723257987649375 
715	 0.726515177523883 
716	 0.729555236688259 
717	 0.732358714042544 
718	 0.735188934208644 
719	 0.737924576738118 
720	 0.740445382108411 
721	 0.742723414265391 
722	 0.74488998399514 
723	 0.746971946267413 
724	 0.748976723803295 
725	 0.751011014355813 
726	 0.752831858744718 
727	 0.75439847505512 
728	 0.755837089283586 
729	 0.75729710456425 
730	 0.758733603184288 
731	 0.7600605492373 
732	 0.761170638536496 
733	 0.762359198993056 
734	 0.763496618629869 
735	 0.7644689831136 
736	 0.765757742697702 
737	 0.766720884748512 
738	 0.767410524404968 
739	 0.76830841880829 
740	 0.769160026125513 
741	 0.769918025820591 
742	 0.77060231480748 
743	 0.771297420090994 
744	 0.772080810168238 
745	 0.77277998864348 
746	 0.773264949870208 
747	 0.773767954148721 
748	 0.774362570026355 
749	 0.775013154458708 
750	 0.775607011574252 
751	 0.776028244756113 
752	 0.776351191149054 
753	 0.776732695239542 
754	 0.777392987108736 
755	 0.778087278778145 
756	 0.778627211539373 
757	 0.778969170685547 
758	 0.779424245374593 
759	 0.779756302945081 
760	 0.780063498697402 
761	 0.780558456904296 
762	 0.781133417304489 
763	 0.781531603850594 
764	 0.781771294311398 
765	 0.782163504435954 
766	 0.782596036449304 
767	 0.783086918655122 
768	 0.783599122968561 
769	 0.783918159205351 
770	 0.784227375294935 
771	 0.784520248158688 
772	 0.784760021149291 
773	 0.785100882130536 
774	 0.785499793561923 
775	 0.785890944580363 
776	 0.786206934773482 
777	 0.78648107256326 
778	 0.786823890967982 
779	 0.787213087569935 
780	 0.787382075504846 
781	 0.787726779321029 
782	 0.788153115028038 
783	 0.788476239339715 
784	 0.788722551843542 
785	 0.788996579309782 
786	 0.789282742523766 
787	 0.789508281723609 
788	 0.789753585121199 
789	 0.790002600986951 
790	 0.790226539090603 
791	 0.790397207894269 
792	 0.790591771513361 
793	 0.790835916612516 
794	 0.791103218989078 
795	 0.791274425186213 
796	 0.791402063409402 
797	 0.791639067073543 
798	 0.792078591770349 
799	 0.792369420565533 
800	 0.792510875534906 
801	 0.792635140666692 
802	 0.792929115670347 
803	 0.793139514465756 
804	 0.793379950746627 
805	 0.793685030003548 
806	 0.793902917117396 
807	 0.794033179632253 
808	 0.794171853434879 
809	 0.794405155305307 
810	 0.794717051613674 
811	 0.795003690777145 
812	 0.795208518289258 
813	 0.795331947743543 
814	 0.795514213087383 
815	 0.795711145696467 
816	 0.79590102596843 
817	 0.796094656972774 
818	 0.796329262548888 
819	 0.796522265829993 
820	 0.796662567269235 
821	 0.796880450497554 
822	 0.797194138350199 
823	 0.79744720883053 
824	 0.797537152448682 
825	 0.797656670808638 
826	 0.797947480550475 
827	 0.798296027360826 
828	 0.798501049613059 
829	 0.798669217258848 
830	 0.798731293531158 
831	 0.798761403086622 
832	 0.798942149559412 
833	 0.799145854136448 
834	 0.799361075330982 
835	 0.799546433642384 
836	 0.799595248942387 
837	 0.799810679153899 
838	 0.800035812284433 
839	 0.800124326658182 
840	 0.800307799111559 
841	 0.800427732919547 
842	 0.800549270395689 
843	 0.800781520766228 
844	 0.800979506842663 
845	 0.801233420103922 
846	 0.801472450206645 
847	 0.801543219137405 
848	 0.801703718694877 
849	 0.801850752160608 
850	 0.801943454722291 
851	 0.802070319113267 
852	 0.80224405450176 
853	 0.802480742980228 
854	 0.802715605747309 
855	 0.802711637130239 
856	 0.802834390164621 
857	 0.803052288223256 
858	 0.803227851883538 
859	 0.803342156792029 
860	 0.803515035742585 
861	 0.803713317900013 
862	 0.803845060478388 
863	 0.804011817394842 
864	 0.804070414074198 
865	 0.804111149573161 
866	 0.80437870664094 
867	 0.804417691865298 
868	 0.804466368222762 
869	 0.804664665402902 
870	 0.804881900228264 
871	 0.805022262262374 
872	 0.805055559884866 
873	 0.805035889402046 
874	 0.805147534776369 
875	 0.805271099923321 
876	 0.80541335293542 
877	 0.80558266900198 
878	 0.805663948538233 
879	 0.805698685259021 
880	 0.805696854916 
881	 0.805663511279271 
882	 0.805649085946134 
883	 0.80568150193443 
884	 0.805750485718902 
885	 0.805816665063396 
886	 0.805863808274047 
887	 0.805860173447017 
888	 0.805776738002803 
889	 0.805606967718972 
890	 0.805649758142909 
891	 0.805737551359102 
892	 0.805678986234794 
893	 0.805405441531134 
894	 0.805227678854544 
895	 0.805253167154347 
896	 0.805396884317226 
897	 0.805252717145305 
898	 0.805135343044627 
899	 0.805104921516367 
900	 0.805085451395183 
901	 0.804837450665911 
902	 0.804662972434741 
903	 0.804554565321113 
904	 0.804388582149325 
905	 0.804365010090224 
906	 0.804308543606535 
907	 0.804179536564944 
908	 0.80406157349371 
909	 0.804045321043383 
910	 0.804008440513531 
911	 0.803901148505665 
912	 0.803782069982336 
913	 0.803796231894529 
914	 0.803791124975308 
915	 0.803715598510005 
916	 0.803714947455471 
917	 0.803714093406473 
918	 0.803724835442852 
919	 0.80375901867018 
920	 0.80380026336496 
921	 0.803768498021869 
922	 0.803799913785682 
923	 0.803971253107765 
924	 0.804062802663571 
925	 0.804244431872793 
926	 0.804424681632957 
927	 0.804497983660592 
928	 0.804583048598121 
929	 0.804820623243885 
930	 0.805156733985002 
931	 0.805468081690504 
932	 0.805750308104561 
933	 0.806144495949124 
934	 0.806537542652328 
935	 0.806752890097832 
936	 0.807072131313897 
937	 0.807433170953444 
938	 0.807828927015916 
939	 0.808288461314972 
940	 0.808767332861166 
941	 0.809068244821478 
942	 0.809235003597607 
943	 0.809500304364022 
944	 0.80974407737692 
945	 0.809934581104076 
946	 0.810105669669884 
947	 0.810327442522878 
948	 0.810391893777645 
949	 0.810409682046928 
950	 0.810499096725873 
951	 0.810697741463511 
952	 0.810679654681653 
953	 0.810643419043007 
954	 0.810689968105812 
955	 0.810636328037208 
956	 0.810506625700955 
957	 0.810314256902861 
958	 0.810102013668752 
959	 0.809952101262878 
960	 0.809886014296713 
961	 0.809861778172983 
962	 0.809789554186125 
963	 0.809533770810816 
964	 0.809260662992022 
965	 0.80911361821623 
966	 0.809109671189045 
967	 0.809019316160463 
968	 0.808896707947567 
969	 0.808810491593974 
970	 0.808803563784776 
971	 0.808840523165457 
972	 0.808774525956321 
973	 0.808748455849154 
974	 0.808873353844931 
975	 0.808917514238279 
976	 0.808892403446386 
977	 0.808812112490114 
978	 0.808722125780342 
979	 0.80872834315455 
980	 0.808776597651843 
981	 0.80869360784057 
982	 0.80844617185993 
983	 0.808563739097565 
984	 0.808502601831283 
985	 0.808485005873651 
986	 0.808755349356012 
987	 0.808702157943904 
988	 0.808744245941428 
989	 0.80874556859129 
990	 0.808506219937894 
991	 0.808286114468857 
992	 0.808180677881911 
993	 0.808217085560019 
994	 0.80833291692051 
995	 0.808339914599176 
996	 0.808163742635395 
997	 0.807915506062369 
998	 0.807741863309884 
999	 0.80762696649222 
1000	 0.807638987715961 
1001	 0.806610755394274 
1002	 0.806539998400623 
1003	 0.806477813894039 
1004	 0.806335349834112 
1005	 0.806183299661047 
1006	 0.806051571481307 
1007	 0.805840160016972 
1008	 0.805680389019572 
1009	 0.80559742394097 
1010	 0.805479102599286 
1011	 0.805343289251953 
1012	 0.805189708768867 
1013	 0.80503539210697 
1014	 0.804886327333252 
1015	 0.804698020601636 
1016	 0.80453687184861 
1017	 0.80443498076241 
1018	 0.804298499920227 
1019	 0.804113315155595 
1020	 0.803911054362375 
1021	 0.803732238297139 
1022	 0.803507248007831 
1023	 0.803352002338711 
1024	 0.803278478184566 
1025	 0.803147876898734 
1026	 0.802996442248552 
1027	 0.802875732865331 
1028	 0.802770556007059 
1029	 0.802618009771239 
1030	 0.802505373975639 
1031	 0.802405382006676 
1032	 0.802232655888525 
1033	 0.802058583982352 
1034	 0.801878103122648 
1035	 0.80168395226449 
1036	 0.801518404771127 
1037	 0.801363608169887 
1038	 0.801206446108074 
1039	 0.801072914854376 
1040	 0.80093772819875 
1041	 0.800791560492842 
1042	 0.800662387073762 
1043	 0.800559386628439 
1044	 0.800418260694058 
1045	 0.800277241520559 
1046	 0.800178035613206 
1047	 0.800088171818214 
1048	 0.799989728522609 
1049	 0.799890353201584 
1050	 0.799758245432249 
1051	 0.799604297641879 
1052	 0.799462836098263 
1053	 0.799321130238745 
1054	 0.799200920916199 
1055	 0.799046468400774 
1056	 0.798866484144735 
1057	 0.798692356942098 
1058	 0.798513428986964 
1059	 0.79829953422942 
1060	 0.798096589195179 
1061	 0.797935373886691 
1062	 0.797757744250707 
1063	 0.797581672036958 
1064	 0.797403538614349 
1065	 0.797183848195291 
1066	 0.796915524088313 
1067	 0.796631096068625 
1068	 0.796335126810357 
1069	 0.796034129703595 
1070	 0.79574118505044 
1071	 0.795445338237382 
1072	 0.795162202139322 
1073	 0.79490190365945 
1074	 0.794625548598871 
1075	 0.79433710339132 
1076	 0.794004683485229 
1077	 0.793636691185776 
1078	 0.793312014322224 
1079	 0.792967922175894 
1080	 0.792627004266902 
1081	 0.792340134872928 
1082	 0.791989670757796 
1083	 0.79160278455413 
1084	 0.791235993967781 
1085	 0.790833367777413 
1086	 0.790416761741225 
1087	 0.789981140273307 
1088	 0.789553527703086 
1089	 0.789109062280782 
1090	 0.788658673925592 
1091	 0.788197679572863 
1092	 0.787733008706307 
1093	 0.787273449714242 
1094	 0.786785587202852 
1095	 0.786288602520591 
1096	 0.78578039192153 
1097	 0.785251044962806 
1098	 0.784725070506394 
1099	 0.784201117431479 
1100	 0.783673344563853 
1101	 0.783107425229357 
1102	 0.78250921154394 
1103	 0.781919194274751 
1104	 0.78131906929691 
1105	 0.780688742836278 
1106	 0.780061146583196 
1107	 0.779465298178449 
1108	 0.778810119383077 
1109	 0.778165515578031 
1110	 0.777550190771953 
1111	 0.776861288678005 
1112	 0.776188051250731 
1113	 0.775491906228061 
1114	 0.774735765335619 
1115	 0.774010813971467 
1116	 0.77324634549008 
1117	 0.772498651738295 
1118	 0.771730508894764 
1119	 0.770938960806265 
1120	 0.770142905756766 
1121	 0.769371165803112 
1122	 0.768508142371098 
1123	 0.767597563775883 
1124	 0.766721760340202 
1125	 0.765739569452144 
1126	 0.764768630225092 
1127	 0.763746830735946 
1128	 0.762610217822166 
1129	 0.76150300701052 
1130	 0.760291094411517 
1131	 0.759028795718632 
1132	 0.757823388446663 
1133	 0.756511197869241 
1134	 0.75517783218967 
1135	 0.753791160229088 
1136	 0.752340627440722 
1137	 0.750869628709506 
1138	 0.749380515838921 
1139	 0.7478136241128 
1140	 0.746164380163642 
1141	 0.7446084518485 
1142	 0.742954888419666 
1143	 0.741250265255902 
1144	 0.739542070946021 
1145	 0.737694909658527 
1146	 0.735866822113869 
1147	 0.733985173831264 
1148	 0.732048900157688 
1149	 0.730227045343451 
1150	 0.728339212001248 
1151	 0.726461762046123 
1152	 0.724573424509194 
1153	 0.722691770521313 
1154	 0.720776798525656 
1155	 0.718861150830695 
1156	 0.716876377522076 
1157	 0.714880578820347 
1158	 0.712868568335112 
1159	 0.710778402250352 
1160	 0.708706160817319 
1161	 0.70667986003551 
1162	 0.704522796846897 
1163	 0.702492921679662 
1164	 0.700454625739301 
1165	 0.698343833632637 
1166	 0.696395862034094 
1167	 0.694411038573126 
1168	 0.692452750747491 
1169	 0.690489405672004 
1170	 0.688576858955389 
1171	 0.686598064023877 
1172	 0.684590478507189 
1173	 0.682543784080362 
1174	 0.680476990140504 
1175	 0.678434995766433 
1176	 0.676359931943227 
1177	 0.674292810402839 
1178	 0.672290899895207 
1179	 0.670150688655619 
1180	 0.668057014380397 
1181	 0.665916011986685 
1182	 0.663696505124836 
1183	 0.661627611877433 
1184	 0.659513377885112 
1185	 0.657421501070608 
1186	 0.655383736708395 
1187	 0.653354203893561 
1188	 0.651426794264087 
1189	 0.649550390996133 
1190	 0.647748697433739 
1191	 0.646037637414948 
1192	 0.644413015952757 
1193	 0.642858303964967 
1194	 0.641352507645458 
1195	 0.639933273008439 
1196	 0.638545507299526 
1197	 0.637205475435876 
1198	 0.635887646433395 
1199	 0.634604898773169 
1200	 0.63346247629856 
1201	 0.632325752863331 
1202	 0.631265353152325 
1203	 0.630302761557223 
1204	 0.629384094070039 
1205	 0.628612865365281 
1206	 0.627911273479045 
1207	 0.627386372645244 
1208	 0.62697777069413 
1209	 0.626759916597181 
1210	 0.626670477099125 
1211	 0.626797735835221 
1212	 0.627121397728392 
1213	 0.627612194579211 
1214	 0.628285810186045 
1215	 0.629139391449863 
1216	 0.630230326342754 
1217	 0.631382292644065 
1218	 0.632707853031906 
1219	 0.634126229532333 
1220	 0.63558609586893 
1221	 0.637147638099449 
1222	 0.638689703487959 
1223	 0.640264835670673 
1224	 0.641742490898483 
1225	 0.643196443906256 
1226	 0.644536678241443 
1227	 0.645820433315043 
1228	 0.647004568857176 
1229	 0.6481056304914 
1230	 0.649115319107232 
1231	 0.650042516530352 
1232	 0.650876033584678 
1233	 0.651608406031223 
1234	 0.652255909519611 
1235	 0.652795972063314 
1236	 0.653285956413088 
1237	 0.65369350875135 
1238	 0.654037665846105 
1239	 0.654306329950807 
1240	 0.654524831604737 
1241	 0.654714693777204 
1242	 0.654854862964076 
1243	 0.654968830929837 
1244	 0.655070403121816 
1245	 0.65511588285811 
1246	 0.655089055351104 
1247	 0.655080067484188 
1248	 0.655054291672711 
1249	 0.655005975334495 
1250	 0.654945744132404 
1251	 0.654860726794424 
1252	 0.654754133518033 
1253	 0.654619548024346 
1254	 0.654450304649374 
1255	 0.654281891678711 
1256	 0.654094474814595 
1257	 0.653889100638529 
1258	 0.653658476149841 
1259	 0.653444073188857 
1260	 0.653220822037561 
1261	 0.65299379959195 
1262	 0.652790916684893 
1263	 0.652562920467927 
1264	 0.652323089688816 
1265	 0.652055524034183 
1266	 0.651805847896894 
1267	 0.651548876927434 
1268	 0.651307909828939 
1269	 0.651071437369774 
1270	 0.650846641840903 
1271	 0.650637005292988 
1272	 0.650422829342888 
1273	 0.650227188947958 
1274	 0.650007197546151 
1275	 0.649769000621973 
1276	 0.649544168415174 
1277	 0.649303191085946 
1278	 0.649085635216987 
1279	 0.648892736663799 
1280	 0.648692957912493 
1281	 0.648505384952582 
1282	 0.64831065574983 
1283	 0.64809776066572 
1284	 0.647907677462519 
1285	 0.647727469902831 
1286	 0.647546590634446 
1287	 0.647395825207414 
1288	 0.64726909567778 
1289	 0.64714904173162 
1290	 0.647052278344584 
1291	 0.64694308896621 
1292	 0.646845018889191 
1293	 0.646734933291478 
1294	 0.646624156724184 
1295	 0.646499393968351 
1296	 0.646350508509423 
1297	 0.646232285670531 
1298	 0.646116727414213 
1299	 0.646006997265597 
1300	 0.645937619916926 
1301	 0.645830304204586 
1302	 0.645682787144044 
1303	 0.64556919201152 
1304	 0.645460714166274 
1305	 0.645352286368309 
1306	 0.645266546312753 
1307	 0.645174590954375 
1308	 0.645082841418397 
1309	 0.644972335642356 
1310	 0.644876088951996 
1311	 0.644792257908913 
1312	 0.644687863553235 
1313	 0.644575840874736 
1314	 0.644462472305275 
1315	 0.644337877022985 
1316	 0.644220352943822 
1317	 0.644098377692445 
1318	 0.64399054554761 
1319	 0.643888019260926 
1320	 0.643789251526799 
1321	 0.643703076471411 
1322	 0.64361212266585 
1323	 0.643534991784509 
1324	 0.643430356710162 
1325	 0.64332188377559 
1326	 0.643195201921241 
1327	 0.643055530729726 
1328	 0.642889801210515 
1329	 0.642709446017065 
1330	 0.642508795628074 
1331	 0.642278362964987 
1332	 0.642037455174938 
1333	 0.641788975013713 
1334	 0.64151404252467 
1335	 0.641233603916861 
1336	 0.640944991044665 
1337	 0.640620709691261 
1338	 0.640288063662073 
1339	 0.63990829395252 
1340	 0.639485441994926 
1341	 0.639058201232627 
1342	 0.638614419647158 
1343	 0.638130255446564 
1344	 0.637647020457574 
1345	 0.637080813015555 
1346	 0.636454686453495 
1347	 0.635800357003159 
1348	 0.635092271569316 
1349	 0.634356427490894 
1350	 0.633580751436036 
1351	 0.632785663873543 
1352	 0.631948200880279 
1353	 0.631101338446669 
1354	 0.630221348544818 
1355	 0.629354778592023 
1356	 0.628469934260313 
1357	 0.627596510158257 
1358	 0.626727016720612 
1359	 0.625865373743245 
1360	 0.625034357540668 
1361	 0.624168924117534 
1362	 0.623272618392054 
1363	 0.622416019226107 
1364	 0.621470719801995 
1365	 0.620498481467589 
1366	 0.619441101412379 
1367	 0.618337013773656 
1368	 0.617153478294787 
1369	 0.615892648558278 
1370	 0.614581819193397 
1371	 0.613199604224543 
1372	 0.611803580489782 
1373	 0.610359387488452 
1374	 0.608877466362209 
1375	 0.60735255757615 
1376	 0.605799496100146 
1377	 0.604191022009569 
1378	 0.602561764109235 
1379	 0.600907091655637 
1380	 0.599226124105994 
1381	 0.597517676313832 
1382	 0.595771601754092 
1383	 0.593965614076065 
1384	 0.59218931915685 
1385	 0.590373675551018 
1386	 0.588608844479128 
1387	 0.586818791824159 
1388	 0.585167483577655 
1389	 0.583569043213482 
1390	 0.582061817814654 
1391	 0.58071736664833 
1392	 0.579360132542724 
1393	 0.578107884134831 
1394	 0.576833441542269 
1395	 0.575492887702943 
1396	 0.574202168107654 
1397	 0.572709275704459 
1398	 0.571177302375417 
1399	 0.569364761420493 
1400	 0.567404169374923 
1401	 0.565215254321787 
1402	 0.562794512973082 
1403	 0.56020784782542 
1404	 0.557411115122803 
1405	 0.554530859591352 
1406	 0.551407497267724 
1407	 0.54833711085361 
1408	 0.545039060103208 
1409	 0.542039089246763 
1410	 0.538963628911317 
1411	 0.536295838529495 
1412	 0.533836582919375 
1413	 0.531719408779171 
1414	 0.529948149902559 
1415	 0.52834869151101 
1416	 0.527125056186714 
1417	 0.525913586562291 
1418	 0.524942767913776 
1419	 0.52390814728349 
1420	 0.522944223032825 
1421	 0.521968570891665 
1422	 0.520960639812204 
1423	 0.519991320319424 
1424	 0.519065008198345 
1425	 0.518104188879173 
1426	 0.517229859566378 
1427	 0.516376370701086 
1428	 0.515555138454531 
1429	 0.51486272848624 
1430	 0.514192414542703 
1431	 0.513576274513818 
1432	 0.513003614665973 
1433	 0.512481768240517 
1434	 0.512011753675741 
1435	 0.511584527873464 
1436	 0.511215692118462 
1437	 0.510909775915476 
1438	 0.510646559073894 
1439	 0.510433477221109 
1440	 0.510261825891598 
1441	 0.510148734792572 
1442	 0.510055365655458 
1443	 0.510012508061465 
1444	 0.509967133726562 
1445	 0.509938512613927 
1446	 0.509937546206381 
1447	 0.509938151545508 
1448	 0.509992396285037 
1449	 0.510102690593032 
1450	 0.510210939616381 
1451	 0.51035981990574 
1452	 0.510497487260655 
1453	 0.510652056786138 
1454	 0.510782921244298 
1455	 0.510900115490366 
1456	 0.511024663597198 
1457	 0.511131994184267 
1458	 0.511252104486046 
1459	 0.51138231349957 
1460	 0.511520287722414 
1461	 0.511651183263389 
1462	 0.511805469329574 
1463	 0.511987441591136 
1464	 0.512163829175151 
1465	 0.512340990865264 
1466	 0.512541904624308 
1467	 0.512735348581626 
1468	 0.51294293287419 
1469	 0.513156375927271 
1470	 0.513366390628917 
1471	 0.513581821664197 
1472	 0.513801906740485 
1473	 0.514003190052627 
1474	 0.514217321885428 
1475	 0.514382758751881 
1476	 0.514520209601919 
1477	 0.514639235715462 
1478	 0.514732287270945 
1479	 0.514803396889151 
1480	 0.514850553679002 
1481	 0.514884603594063 
1482	 0.514888746128425 
1483	 0.514897814752528 
1484	 0.514901950519458 
1485	 0.514887119721427 
1486	 0.514861215549355 
1487	 0.514824728330561 
1488	 0.514761674615793 
1489	 0.514714235486558 
1490	 0.514648235372603 
1491	 0.514622189038374 
1492	 0.514608478477821 
1493	 0.514619323276922 
1494	 0.514663595166129 
1495	 0.514713265778985 
1496	 0.514774703357321 
1497	 0.514855447979868 
1498	 0.514951001825959 
1499	 0.515067069795429 
1500	 0.515203334068348 
1501	 0.515355230626845 
1502	 0.515521433514807 
1503	 0.515710920244401 
1504	 0.515917210547332 
1505	 0.516148688042723 
1506	 0.516416986959483 
1507	 0.51668443992544 
1508	 0.516975008604776 
1509	 0.517261702189927 
1510	 0.517558049794567 
1511	 0.517844517969354 
1512	 0.518122965958958 
1513	 0.518409583928645 
1514	 0.518694496942561 
1515	 0.51898006531107 
1516	 0.519270301799828 
1517	 0.519565419780574 
1518	 0.519853477593222 
1519	 0.520153866328428 
1520	 0.520467765643074 
1521	 0.520779110685102 
1522	 0.521109573291851 
1523	 0.521469164790085 
1524	 0.521821208081681 
1525	 0.522188000724606 
1526	 0.52255652124921 
1527	 0.522920043284879 
1528	 0.523307911173259 
1529	 0.523707276792742 
1530	 0.524130861089889 
1531	 0.524576668730838 
1532	 0.525022041650946 
1533	 0.525490429664562 
1534	 0.525947742610362 
1535	 0.526401158455837 
1536	 0.52686125119705 
1537	 0.527331437463022 
1538	 0.52778696038442 
1539	 0.528250287629642 
1540	 0.528680626867705 
1541	 0.529100364565337 
1542	 0.52948889454853 
1543	 0.529846797714982 
1544	 0.530196395003298 
1545	 0.530533375378241 
1546	 0.53083564241103 
1547	 0.531118794683271 
1548	 0.531374560284811 
1549	 0.531587547896409 
1550	 0.531803271697242 
1551	 0.532002876087109 
1552	 0.532195455998302 
1553	 0.53238319101107 
1554	 0.53254670294168 
1555	 0.53267895933654 
1556	 0.532834594671587 
1557	 0.532975159726708 
1558	 0.533136328392796 
1559	 0.533312673829821 
1560	 0.533502796431604 
1561	 0.533685852323544 
1562	 0.533913740285129 
1563	 0.534169688821629 
1564	 0.534452448696949 
1565	 0.534776017177595 
1566	 0.535101665808531 
1567	 0.535447322366077 
1568	 0.535806767806652 
1569	 0.536189700137468 
1570	 0.53656302026428 
1571	 0.536948530812203 
1572	 0.537331641918186 
1573	 0.537703444362572 
1574	 0.538088945297727 
1575	 0.538505441765221 
1576	 0.538883479256197 
1577	 0.539241659995704 
1578	 0.539606437868377 
1579	 0.539949064133218 
1580	 0.540301793938288 
1581	 0.540666697415068 
1582	 0.541026902268551 
1583	 0.541375135935092 
1584	 0.541738090525515 
1585	 0.542104427522301 
1586	 0.542485266775562 
1587	 0.542890326228382 
1588	 0.543276882135843 
1589	 0.543658548601359 
1590	 0.544050727370891 
1591	 0.544433286634535 
1592	 0.544829209261539 
1593	 0.545255964077749 
1594	 0.545659032786618 
1595	 0.546050676672833 
1596	 0.546441889860926 
1597	 0.546830599260076 
1598	 0.547205904631264 
1599	 0.547565839646545 
1600	 0.547939262460393 
1601	 0.548310703734541 
1602	 0.548677969695295 
1603	 0.549064932421147 
1604	 0.549425684173252 
1605	 0.549766560435581 
1606	 0.550099626531605 
1607	 0.550424556352164 
1608	 0.550734996301626 
1609	 0.55103365132499 
1610	 0.551318670662172 
1611	 0.55158590669098 
1612	 0.551845089706054 
1613	 0.552099656545881 
1614	 0.55232995051127 
1615	 0.552547433688025 
1616	 0.552744102361024 
1617	 0.552918675990199 
1618	 0.553074203476705 
1619	 0.553207431872257 
1620	 0.553327343156499 
1621	 0.553429332239252 
1622	 0.553511603031184 
1623	 0.55356792032651 
1624	 0.553625654858519 
1625	 0.553671164907388 
1626	 0.553707106638724 
1627	 0.553745967053578 
1628	 0.553761717919935 
1629	 0.55374655574787 
1630	 0.553737440518843 
1631	 0.553716573108866 
1632	 0.553700384522991 
1633	 0.553703899451382 
1634	 0.55367299831219 
1635	 0.553624053770222 
1636	 0.553567506655033 
1637	 0.553491221639427 
1638	 0.553401167712439 
1639	 0.55331227560619 
1640	 0.553191145149826 
1641	 0.553048613498137 
1642	 0.552876905361186 
1643	 0.552672163341674 
1644	 0.552457756296451 
1645	 0.552234408806197 
1646	 0.551966520851812 
1647	 0.551667375183698 
1648	 0.551348179346977 
1649	 0.551013452227737 
1650	 0.550609337523814 
1651	 0.550180422686161 
1652	 0.549687624333224 
1653	 0.549126250202733 
1654	 0.548513537565473 
1655	 0.547864604457851 
1656	 0.547128141942567 
1657	 0.546322494918271 
1658	 0.545430458531085 
1659	 0.544449958695918 
1660	 0.543419688695692 
1661	 0.542345524140213 
1662	 0.541141347284053 
1663	 0.539857171183922 
1664	 0.538450850244952 
1665	 0.536933005825958 
1666	 0.535269703240791 
1667	 0.533486657870474 
1668	 0.531602201350529 
1669	 0.529579537644106 
1670	 0.527451170118923 
1671	 0.525194093138187 
1672	 0.522853377636373 
1673	 0.520403410291046 
1674	 0.517839508035486 
1675	 0.515189850269802 
1676	 0.51247984892018 
1677	 0.509655870567448 
1678	 0.50675686124843 
1679	 0.50376971662379 
1680	 0.500702515080541 
1681	 0.49754850668002 
1682	 0.494281399771966 
1683	 0.49092293066254 
1684	 0.487559712637637 
1685	 0.484099364105457 
1686	 0.480605371445645 
1687	 0.477022586680595 
1688	 0.47348697845699 
1689	 0.469902680687341 
1690	 0.46634002796822 
1691	 0.462869004802456 
1692	 0.459383445223708 
1693	 0.455890012876926 
1694	 0.45234679350296 
1695	 0.448797235870837 
1696	 0.445167734502851 
1697	 0.441440644823303 
1698	 0.437710122869336 
1699	 0.433949569951074 
1700	 0.430300791808913 
1701	 0.4266068826886 
1702	 0.42310424380458 
1703	 0.419649940613413 
1704	 0.416412151477161 
1705	 0.413296077044111 
1706	 0.410339431458399 
1707	 0.407778595188815 
1708	 0.405331214417692 
1709	 0.403046682511257 
1710	 0.400972372422426 
1711	 0.398887743628729 
1712	 0.396952791590985 
1713	 0.395086797804915 
1714	 0.393228393597801 
1715	 0.391569128298312 
1716	 0.389895189082171 
1717	 0.388279020719851 
1718	 0.38678684975392 
1719	 0.385318538355579 
1720	 0.384057900036675 
1721	 0.383010061143055 
1722	 0.382171940001055 
1723	 0.381639719001108 
1724	 0.381356556765494 
1725	 0.381338857871618 
1726	 0.381708600356199 
1727	 0.382412970221561 
1728	 0.383418484531971 
1729	 0.384803199697228 
1730	 0.386474756418895 
1731	 0.388275567233652 
1732	 0.390314842801942 
1733	 0.392393945398491 
1734	 0.394500348766272 
1735	 0.396657556373651 
1736	 0.398605108418094 
1737	 0.400421419534928 
1738	 0.40197479623577 
1739	 0.403245206313611 
1740	 0.404303839014402 
1741	 0.405081537690361 
1742	 0.405522491556456 
1743	 0.40583535797808 
1744	 0.405881919510859 
1745	 0.405837904092625 
1746	 0.405585974589982 
1747	 0.405326186735942 
1748	 0.404891863082815 
1749	 0.40455798602263 
1750	 0.404188633839727 
1751	 0.403913936436525 
1752	 0.403656040229027 
1753	 0.403558027578305 
1754	 0.403526258782551 
1755	 0.403682144814407 
1756	 0.403973926405476 
1757	 0.40443539847477 
1758	 0.405090137584612 
1759	 0.405903809232763 
1760	 0.406989712831414 
1761	 0.40835482294432 
1762	 0.409842078855071 
1763	 0.41158300629249 
1764	 0.413459209207833 
1765	 0.415417424725029 
1766	 0.417630796787948 
1767	 0.41988649685026 
1768	 0.422222584044018 
1769	 0.424606179918918 
1770	 0.426775147047189 
1771	 0.428901578999636 
1772	 0.430922485541445 
1773	 0.432768043418467 
1774	 0.434629892844593 
1775	 0.436318816376431 
1776	 0.437880760594612 
1777	 0.439388717107678 
1778	 0.440677592205125 
1779	 0.441880564106056 
1780	 0.443003677636347 
1781	 0.444001697599786 
1782	 0.444970703977691 
1783	 0.445836218493582 
1784	 0.446608740081477 
1785	 0.447224110405539 
1786	 0.447804250441449 
1787	 0.448311157184718 
1788	 0.448792959314208 
1789	 0.449202859911365 
1790	 0.449636024040475 
1791	 0.450065434716387 
1792	 0.450448804309506 
1793	 0.450806122797337 
1794	 0.451102270393975 
1795	 0.451402741683689 
1796	 0.451743039355845 
1797	 0.452131302701264 
1798	 0.452490434079223 
1799	 0.452842849355175 
1800	 0.453220287338892 
1801	 0.462060356033638 
1802	 0.462436291761253 
1803	 0.462799765255078 
1804	 0.463148974497203 
1805	 0.463531538339605 
1806	 0.46390791694509 
1807	 0.464283593158969 
1808	 0.464660724674232 
1809	 0.46504406949965 
1810	 0.465431017506668 
1811	 0.465807836660926 
1812	 0.466202172476048 
1813	 0.46658573670777 
1814	 0.467039543484215 
1815	 0.467480601675737 
1816	 0.467925708646737 
1817	 0.468404357868017 
1818	 0.468908102835473 
1819	 0.469413032089281 
1820	 0.469945215895154 
1821	 0.470476778855738 
1822	 0.470995358358399 
1823	 0.471563157793574 
1824	 0.472131796694605 
1825	 0.472711589894746 
1826	 0.473293573220622 
1827	 0.473907185025436 
1828	 0.474462449478254 
1829	 0.474979818920301 
1830	 0.475530555840848 
1831	 0.476061795349853 
1832	 0.476622791011952 
1833	 0.477177214265869 
1834	 0.477759305022334 
1835	 0.478344135338723 
1836	 0.47889012969005 
1837	 0.479466841633032 
1838	 0.480076254419018 
1839	 0.480661276299186 
1840	 0.481230942493919 
1841	 0.481822094168077 
1842	 0.482426940312418 
1843	 0.483032981413562 
1844	 0.483611136790031 
1845	 0.484139700981285 
1846	 0.484657692192872 
1847	 0.485136942317384 
1848	 0.485616094702415 
1849	 0.486114604894846 
1850	 0.486563155580068 
1851	 0.486994008639214 
1852	 0.487380617388243 
1853	 0.487712396132065 
1854	 0.487986072719554 
1855	 0.488223490779025 
1856	 0.488422946004083 
1857	 0.488584283473472 
1858	 0.488705002401627 
1859	 0.488772611338084 
1860	 0.488788888488487 
1861	 0.488754108593239 
1862	 0.488684105285467 
1863	 0.488549795957302 
1864	 0.48832902880317 
1865	 0.488046295630331 
1866	 0.487672532606879 
1867	 0.487216584316788 
1868	 0.486717254899106 
1869	 0.486126243203077 
1870	 0.485455134452402 
1871	 0.484722409786055 
1872	 0.483901897738081 
1873	 0.482995851589581 
1874	 0.482036338917512 
1875	 0.480985123453921 
1876	 0.479742532254723 
1877	 0.478447244619138 
1878	 0.476982487618664 
1879	 0.475326445840169 
1880	 0.473643694436424 
1881	 0.471766183624773 
1882	 0.469719478223565 
1883	 0.46753554190661 
1884	 0.465161264862046 
1885	 0.462436480170851 
1886	 0.459601291729988 
1887	 0.456485307241474 
1888	 0.453080347546264 
1889	 0.449785800857422 
1890	 0.446234545410603 
1891	 0.442624014928592 
1892	 0.439020573967104 
1893	 0.435269035309953 
1894	 0.431314294816785 
1895	 0.427493220116964 
1896	 0.423578806322679 
1897	 0.419648041795917 
1898	 0.416047879557048 
1899	 0.412400200125739 
1900	 0.408874668755411 
1901	 0.405551810877531 
1902	 0.402080117090012 
1903	 0.398789533056545 
1904	 0.395602423864686 
1905	 0.392472940906478 
1906	 0.389427621704659 
1907	 0.386750038685563 
1908	 0.384107256894138 
1909	 0.381597589298998 
1910	 0.379284701609713 
1911	 0.376908222399788 
1912	 0.374701659149746 
1913	 0.372600297209343 
1914	 0.370538397669088 
1915	 0.3686487859227 
1916	 0.366941847677218 
1917	 0.365261592940692 
1918	 0.363667512468102 
1919	 0.362193371809033 
1920	 0.360702446938876 
1921	 0.359325634814924 
1922	 0.358015313626467 
1923	 0.356728385785005 
1924	 0.35560072398737 
1925	 0.354512004477929 
1926	 0.353503482544553 
1927	 0.352591606706728 
1928	 0.351745065386662 
1929	 0.350959037221496 
1930	 0.350248069815183 
1931	 0.349624755563429 
1932	 0.349067661284703 
1933	 0.34862124081314 
1934	 0.348277451503159 
1935	 0.348016574231911 
1936	 0.3478549286711 
1937	 0.347759018484746 
1938	 0.34774835988334 
1939	 0.347800662863851 
1940	 0.347927270691249 
1941	 0.348115888056935 
1942	 0.348365797312653 
1943	 0.348714640845749 
1944	 0.349117444927169 
1945	 0.349556967552474 
1946	 0.350083057328172 
1947	 0.350638816707267 
1948	 0.351241514208579 
1949	 0.351920159852526 
1950	 0.352592093322629 
1951	 0.353294034459244 
1952	 0.354007631553961 
1953	 0.354726258109077 
1954	 0.35547535575707 
1955	 0.356287396358779 
1956	 0.357074921868427 
1957	 0.357894038616199 
1958	 0.358735604831676 
1959	 0.359518338661788 
1960	 0.360341482220538 
1961	 0.361152085504636 
1962	 0.361929094094216 
1963	 0.362754424180218 
1964	 0.363623905872121 
1965	 0.364452213025217 
1966	 0.365282203567367 
1967	 0.366140950404057 
1968	 0.366937235853557 
1969	 0.367748627091895 
1970	 0.368571268787331 
1971	 0.369377537758873 
1972	 0.37019859391068 
1973	 0.370981586983163 
1974	 0.371790433459075 
1975	 0.372641366048262 
1976	 0.373433254159275 
1977	 0.374203588184755 
1978	 0.374980727335672 
1979	 0.375734910516985 
1980	 0.376454424420885 
1981	 0.37725657231385 
1982	 0.378024834960502 
1983	 0.378784218560538 
1984	 0.379568135521877 
1985	 0.380266310224971 
1986	 0.380969561489242 
1987	 0.38168073210818 
1988	 0.382385364990841 
1989	 0.383074827324424 
1990	 0.383778218694823 
1991	 0.384453639653924 
1992	 0.385116021613154 
1993	 0.385746194427332 
1994	 0.386343018973802 
1995	 0.386950282523822 
1996	 0.387506936419011 
1997	 0.388040512419088 
1998	 0.38859511008085 
1999	 0.389154676995594 
2000	 0.389692497923508 
2001	 0.390246385658871 
2002	 0.39075768231286 
2003	 0.391247019859493 
2004	 0.391713912561769 
2005	 0.392141319919966 
2006	 0.392569535292992 
2007	 0.39300674819835 
2008	 0.393384200795351 
2009	 0.393742400088808 
2010	 0.394072315410397 
2011	 0.394344667571518 
2012	 0.394594394482195 
2013	 0.394764893167336 
2014	 0.394886714101379 
2015	 0.394948889057966 
2016	 0.394949930145567 
2017	 0.394873300127105 
2018	 0.394764028561963 
2019	 0.394547841159482 
2020	 0.394232213814462 
2021	 0.3938306169338 
2022	 0.393405458851563 
2023	 0.392884932527848 
2024	 0.392268852300041 
2025	 0.391651335225594 
2026	 0.390958170098273 
2027	 0.3901473582379 
2028	 0.389370270500773 
2029	 0.388558416659284 
2030	 0.387743350582018 
2031	 0.386909777659316 
2032	 0.386085622580222 
2033	 0.38519766141646 
2034	 0.384413392942025 
2035	 0.383652732097345 
2036	 0.382936718293578 
2037	 0.382336270925436 
2038	 0.381822798950637 
2039	 0.381380063575364 
2040	 0.381015716117667 
2041	 0.380730032074741 
2042	 0.380528866150042 
2043	 0.380399459134375 
2044	 0.380348823504175 
2045	 0.380367825595594 
2046	 0.380483591650933 
2047	 0.380631823482755 
2048	 0.38085008702407 
2049	 0.38111609827926 
2050	 0.381448963238708 
2051	 0.381793503543961 
2052	 0.382201356125529 
2053	 0.382640796995465 
2054	 0.383090527450375 
2055	 0.383564797957653 
2056	 0.384056619798157 
2057	 0.384553458573598 
2058	 0.385105338704087 
2059	 0.385708919281295 
2060	 0.386303218192343 
2061	 0.386963946688367 
2062	 0.387571696317842 
2063	 0.388147126158129 
2064	 0.38873062257498 
2065	 0.389304270292014 
2066	 0.389868227224489 
2067	 0.390453251619143 
2068	 0.391029396145333 
2069	 0.391578311048104 
2070	 0.39213008369487 
2071	 0.392628151759179 
2072	 0.393093263317104 
2073	 0.393531096246897 
2074	 0.393922721837362 
2075	 0.394309188344591 
2076	 0.394661048383084 
2077	 0.395015387046924 
2078	 0.395382947115152 
2079	 0.39570363841937 
2080	 0.396003493927344 
2081	 0.396280594559874 
2082	 0.396518204499101 
2083	 0.396721403313937 
2084	 0.396951522478711 
2085	 0.397171392051385 
2086	 0.397358408408742 
2087	 0.397543546505294 
2088	 0.397681327852918 
2089	 0.397753889572831 
2090	 0.397861085480707 
2091	 0.397968412157798 
2092	 0.398049693565019 
2093	 0.398154138304204 
2094	 0.398197832581362 
2095	 0.398177338849313 
2096	 0.398169254670252 
2097	 0.398158864380006 
2098	 0.398100742683184 
2099	 0.398042948234834 
2100	 0.39795096681893 
2101	 0.397815863793173 
2102	 0.397631174042239 
2103	 0.397438654777225 
2104	 0.397214295047476 
2105	 0.396971162077575 
2106	 0.39670799959714 
2107	 0.396417828471013 
2108	 0.396109407891023 
2109	 0.39576382506876 
2110	 0.395389168169258 
2111	 0.394983548522213 
2112	 0.394506720174427 
2113	 0.39406174901374 
2114	 0.393616722830755 
2115	 0.393153579307538 
2116	 0.39268499999038 
2117	 0.392234656006862 
2118	 0.391748729763743 
2119	 0.391224589380876 
2120	 0.390729792131774 
2121	 0.390223071223929 
2122	 0.389749325661155 
2123	 0.389281777725373 
2124	 0.388847778136593 
2125	 0.38846474825352 
2126	 0.388048382349356 
2127	 0.387639179121143 
2128	 0.387230844759764 
2129	 0.386793416008312 
2130	 0.386388782048962 
2131	 0.386029629427904 
2132	 0.385638529815239 
2133	 0.385251541894945 
2134	 0.384849815735974 
2135	 0.384421484896372 
2136	 0.383996559111637 
2137	 0.383548511078932 
2138	 0.383084427244251 
2139	 0.382619918406905 
2140	 0.382132277416179 
2141	 0.381660696282814 
2142	 0.381191614685297 
2143	 0.380728913532105 
2144	 0.38025867079175 
2145	 0.379814176197723 
2146	 0.379374217396116 
2147	 0.378965433951926 
2148	 0.378589927954867 
2149	 0.378214612089404 
2150	 0.377850339890631 
2151	 0.377507452737373 
2152	 0.377176313073569 
2153	 0.376880205625577 
2154	 0.376544362337877 
2155	 0.376187945572687 
2156	 0.375820829099938 
2157	 0.375404557339474 
2158	 0.3750198876245 
2159	 0.374664878695995 
2160	 0.374261261346063 
2161	 0.373821924122362 
2162	 0.373410669225438 
2163	 0.372971630787707 
2164	 0.372572061970798 
2165	 0.372206536148082 
2166	 0.371840173704932 
2167	 0.371451636738221 
2168	 0.371136559322059 
2169	 0.370842606317713 
2170	 0.370604057691035 
2171	 0.370417281065939 
2172	 0.370284769974743 
2173	 0.370215903722916 
2174	 0.370169214036226 
2175	 0.370136950580252 
2176	 0.370214735660215 
2177	 0.370298207732152 
2178	 0.370401923495845 
2179	 0.370560251881697 
2180	 0.370792819688174 
2181	 0.371002714122878 
2182	 0.371228087275243 
2183	 0.37149399395567 
2184	 0.371788226147288 
2185	 0.372083014082185 
2186	 0.372417480990069 
2187	 0.37274348848774 
2188	 0.373071129889255 
2189	 0.373392258348263 
2190	 0.373726937679161 
2191	 0.374052004881429 
2192	 0.374349825884947 
2193	 0.374670976753149 
2194	 0.375018700662549 
2195	 0.375345327380626 
2196	 0.375677863742601 
2197	 0.376002638916585 
2198	 0.376286443432306 
2199	 0.376553677560444 
2200	 0.376783974579783 
2201	 0.376970969050855 
2202	 0.377170238969325 
2203	 0.377351505206968 
2204	 0.377516212017259 
2205	 0.377696948433126 
2206	 0.377805100664026 
2207	 0.377856903569893 
2208	 0.377910540498872 
2209	 0.377912681733815 
2210	 0.377936058750416 
2211	 0.377983377206191 
2212	 0.377977683714381 
2213	 0.377975757399404 
2214	 0.377902999935368 
2215	 0.377760522769695 
2216	 0.377608059766339 
2217	 0.377424739231322 
2218	 0.377199121533838 
2219	 0.376957747847676 
2220	 0.376663875050064 
2221	 0.376338922207766 
2222	 0.375926288153312 
2223	 0.375492232071969 
2224	 0.374966001518291 
2225	 0.374362291000766 
2226	 0.37369980646106 
2227	 0.372906896225986 
2228	 0.372024178412555 
2229	 0.371029164572615 
2230	 0.369895144204743 
2231	 0.368702931728918 
2232	 0.367452949052095 
2233	 0.366022764172763 
2234	 0.364519029607134 
2235	 0.362788623941887 
2236	 0.360856862621754 
2237	 0.358807270692159 
2238	 0.356529699708445 
2239	 0.354222302348143 
2240	 0.351847396095128 
2241	 0.349274779334043 
2242	 0.346619456059982 
2243	 0.343761316140204 
2244	 0.340643464974015 
2245	 0.337484981912952 
2246	 0.334094858368473 
2247	 0.330750454824885 
2248	 0.327369512972121 
2249	 0.323928636020446 
2250	 0.320474719853278 
2251	 0.317003412720006 
2252	 0.313252328540824 
2253	 0.309608578037428 
2254	 0.305875826386219 
2255	 0.30215410041311 
2256	 0.298798503393822 
2257	 0.295422641039012 
2258	 0.292195558979692 
2259	 0.289201354473875 
2260	 0.286099468422488 
2261	 0.282970933036312 
2262	 0.280027273728323 
2263	 0.277086201112064 
2264	 0.274355791760503 
2265	 0.271860770044006 
2266	 0.269316316068403 
2267	 0.266898161830003 
2268	 0.264453666566392 
2269	 0.26200187256572 
2270	 0.259644200606486 
2271	 0.257306999265084 
2272	 0.255058576585512 
2273	 0.252920004861882 
2274	 0.250776042392428 
2275	 0.24873194039117 
2276	 0.246636527937221 
2277	 0.244566163357894 
2278	 0.242452046223601 
2279	 0.240252368142585 
2280	 0.238109769848137 
2281	 0.236003235520752 
2282	 0.233836671464253 
2283	 0.231677165388419 
2284	 0.229544432083646 
2285	 0.227170748140434 
2286	 0.224829179255456 
2287	 0.222473431682391 
2288	 0.220006715527902 
2289	 0.217707786361927 
2290	 0.215358159109363 
2291	 0.212982121378379 
2292	 0.210668985740511 
2293	 0.208222942705723 
2294	 0.205847067482057 
2295	 0.203537421358948 
2296	 0.201294235039583 
2297	 0.199360838615238 
2298	 0.197613118496576 
2299	 0.19612718183423 
2300	 0.194881835848037 
2301	 0.193936008442135 
2302	 0.193209312242443 
2303	 0.192895465836058 
2304	 0.192961558211773 
2305	 0.193285655144774 
2306	 0.193997731831224 
2307	 0.194933562234118 
2308	 0.196129537618575 
2309	 0.197651173485593 
2310	 0.199595529805665 
2311	 0.20158565096369 
2312	 0.204020964671649 
2313	 0.206232328539992 
2314	 0.208535456227316 
2315	 0.210682521951844 
2316	 0.212776351353095 
2317	 0.214675200937833 
2318	 0.216525137931898 
2319	 0.218067758388045 
2320	 0.219433907070985 
2321	 0.220516386310421 
2322	 0.221276264539013 
2323	 0.221867018024419 
2324	 0.222169669261853 
2325	 0.222304970028544 
2326	 0.222223860147538 
2327	 0.221993103478954 
2328	 0.221557595149018 
2329	 0.220956251896437 
2330	 0.220167807870435 
2331	 0.219205029655395 
2332	 0.218083366748129 
2333	 0.216846380842311 
2334	 0.215489585568095 
2335	 0.213942222376142 
2336	 0.21222350049341 
2337	 0.210465351755445 
2338	 0.20874291098485 
2339	 0.20694329909483 
2340	 0.205256782992676 
2341	 0.203705684803778 
2342	 0.20218208756713 
2343	 0.200976232932193 
2344	 0.200089101557876 
2345	 0.199456708376443 
2346	 0.199232782255982 
2347	 0.199449891336565 
2348	 0.199944685354768 
2349	 0.200871356062218 
2350	 0.202158438092598 
2351	 0.203600074598069 
2352	 0.205238441088163 
2353	 0.207015691619245 
2354	 0.208675361667584 
2355	 0.210306124177543 
2356	 0.211827861543264 
2357	 0.213101049979517 
2358	 0.214321629006126 
2359	 0.215223652434933 
2360	 0.215975597549409 
2361	 0.216667718240813 
2362	 0.217124246809241 
2363	 0.217564353625518 
2364	 0.217870781895494 
2365	 0.217948089473787 
2366	 0.218044881379485 
2367	 0.218189527934089 
2368	 0.21833467144955 
2369	 0.218524619323008 
2370	 0.218689854085553 
2371	 0.218754958491363 
2372	 0.218805819429737 
2373	 0.218914710998849 
2374	 0.218967922823092 
2375	 0.219023778281907 
2376	 0.219249884782986 
2377	 0.219414385726022 
2378	 0.219517915149501 
2379	 0.219777897860965 
2380	 0.219915612745333 
2381	 0.219980487561126 
2382	 0.220192790369124 
2383	 0.220552048791266 
2384	 0.220801668893412 
2385	 0.221074778938483 
2386	 0.221316102097802 
2387	 0.221471303733177 
2388	 0.221693539964588 
2389	 0.221987581477494 
2390	 0.222251070633447 
2391	 0.22252059342776 
2392	 0.222754350020147 
2393	 0.222965897572441 
2394	 0.223101429350867 
2395	 0.223203401843898 
2396	 0.223288712613001 
2397	 0.223278979049289 
2398	 0.223368894241697 
2399	 0.223496612653857 
2400	 0.22359375388217 
2401	 0.223692552704895 
2402	 0.223781566442866 
2403	 0.223908464987427 
2404	 0.223986861822624 
2405	 0.224144237603257 
2406	 0.224351422443611 
2407	 0.224472373546404 
2408	 0.224649620125962 
2409	 0.224862312948306 
2410	 0.224903605280869 
2411	 0.224879287466768 
2412	 0.224850607868898 
2413	 0.224907196804005 
2414	 0.225019421380938 
2415	 0.225105506552977 
2416	 0.225209075828557 
2417	 0.225128477383711 
2418	 0.225097519854227 
2419	 0.225307883785563 
2420	 0.225508543319758 
2421	 0.225687609496981 
2422	 0.225739905363029 
2423	 0.225726829630223 
2424	 0.225827581146627 
2425	 0.225889000389243 
2426	 0.225908842857096 
2427	 0.225896596706153 
2428	 0.225772876673984 
2429	 0.225691184574936 
2430	 0.225670943248484 
2431	 0.225618573335688 
2432	 0.225510639944534 
2433	 0.225375424407391 
2434	 0.225350682552873 
2435	 0.22524257662916 
2436	 0.225057730859015 
2437	 0.224906229929372 
2438	 0.224614433370706 
2439	 0.224425854125091 
2440	 0.224288975504171 
2441	 0.223997847088387 
2442	 0.22361779430756 
2443	 0.223175166698005 
2444	 0.222691069145004 
2445	 0.222213043365684 
2446	 0.221909722210335 
2447	 0.221408283470194 
2448	 0.220781931924307 
2449	 0.22035280904026 
2450	 0.219739262210373 
2451	 0.219313917132497 
2452	 0.219027109750744 
2453	 0.21845098265773 
2454	 0.217927577730815 
2455	 0.217275912769189 
2456	 0.216662113577514 
2457	 0.21622567986239 
2458	 0.215689307746529 
2459	 0.21531828709583 
2460	 0.214907192326462 
2461	 0.214398270926239 
2462	 0.214032916749636 
2463	 0.213550744755609 
2464	 0.213090533935899 
2465	 0.212853205372162 
2466	 0.212658466973771 
2467	 0.212583482997561 
2468	 0.21247971257195 
2469	 0.212134760779889 
2470	 0.211722395494214 
2471	 0.211313550861655 
2472	 0.21102072512717 
2473	 0.210816013494508 
2474	 0.210514028340041 
2475	 0.210200510563496 
2476	 0.20997672843647 
2477	 0.209885083716247 
2478	 0.209858414374537 
2479	 0.20981592669061 
2480	 0.20959132205963 
2481	 0.209459470875669 
2482	 0.209461384343664 
2483	 0.209680295154353 
2484	 0.209599226438248 
2485	 0.209534561012452 
2486	 0.209403471606488 
2487	 0.2091277308931 
2488	 0.20923982344846 
2489	 0.209400362694013 
2490	 0.209460687933682 
2491	 0.209687008822783 
2492	 0.20980046356159 
2493	 0.210179573914089 
2494	 0.210672099740745 
2495	 0.210705154336086 
2496	 0.210732547304531 
2497	 0.2105193961216 
2498	 0.210112132496258 
2499	 0.2105329853949 
2500	 0.211234586010526 
