Wavelength	spectrum00013.asd
350	 9.98292411226525E-02 
351	 0.097387961535403 
352	 9.42182455144974E-02 
353	 9.09237983379031E-02 
354	 8.99927529979839E-02 
355	 8.96513927656139E-02 
356	 8.85875847951576E-02 
357	 8.61067442208741E-02 
358	 8.24104821355683E-02 
359	 8.10215804950615E-02 
360	 8.15558581583503E-02 
361	 8.16525000735158E-02 
362	 8.17047301587683E-02 
363	 8.03560640184542E-02 
364	 7.78520999270025E-02 
365	 7.65823938930361E-02 
366	 7.75047629647208E-02 
367	 7.83261759467993E-02 
368	 7.72296462321738E-02 
369	 7.65075010887438E-02 
370	 7.65523274902932E-02 
371	 7.65996049339626E-02 
372	 7.55333341507626E-02 
373	 7.54198321856602E-02 
374	 7.60410693642086E-02 
375	 7.66898384947199E-02 
376	 7.63649856102975E-02 
377	 7.65767977569143E-02 
378	 7.65325454349561E-02 
379	 0.0755255386867 
380	 7.51511523948047E-02 
381	 7.56018335191267E-02 
382	 7.58723755714229E-02 
383	 7.46916015497486E-02 
384	 7.54132352448492E-02 
385	 7.63740300267306E-02 
386	 7.61630593473597E-02 
387	 7.45952182624141E-02 
388	 7.39639842937049E-02 
389	 7.42416954152897E-02 
390	 7.46847980829735E-02 
391	 7.47577875327284E-02 
392	 7.48301158154074E-02 
393	 7.50616870981399E-02 
394	 7.54172242705122E-02 
395	 7.54953030366466E-02 
396	 7.58930917860248E-02 
397	 0.076596581129054 
398	 7.63750847338909E-02 
399	 7.62065214139314E-02 
400	 7.62671533710324E-02 
401	 7.64928089819642E-02 
402	 7.68515149748146E-02 
403	 7.74670558046838E-02 
404	 7.80399319882992E-02 
405	 0.078031905872705 
406	 7.79930315841498E-02 
407	 7.83116653305814E-02 
408	 7.90504777544239E-02 
409	 7.98099254665842E-02 
410	 8.00649559193619E-02 
411	 8.03047005004855E-02 
412	 8.11393989407578E-02 
413	 8.19822032314776E-02 
414	 8.22261108742983E-02 
415	 8.23178253413242E-02 
416	 8.35189294393879E-02 
417	 0.084099085189625 
418	 8.45799367691586E-02 
419	 8.54548241382871E-02 
420	 8.61936284741642E-02 
421	 8.69798596843453E-02 
422	 8.79880834697077E-02 
423	 8.92717718789383E-02 
424	 0.090144880064501 
425	 9.09093133024141E-02 
426	 9.18079563754259E-02 
427	 0.09291469260496 
428	 9.38250923286066E-02 
429	 9.48469080615723E-02 
430	 9.61665360215645E-02 
431	 0.097076662082373 
432	 9.82734829362136E-02 
433	 9.96159357044053E-02 
434	 0.100600847094241 
435	 0.102115384843903 
436	 0.103587140387081 
437	 0.104783527156463 
438	 0.106249921195474 
439	 0.107679933022532 
440	 0.109147247264575 
441	 0.110772046550448 
442	 0.112442271226754 
443	 0.114012606199242 
444	 0.115566231187675 
445	 0.117347703228867 
446	 0.119047984794523 
447	 0.120715733863655 
448	 0.122455601680687 
449	 0.12435957230863 
450	 0.12630892657041 
451	 0.128248578859059 
452	 0.130143166098634 
453	 0.131899165502865 
454	 0.133854463085379 
455	 0.136034448990379 
456	 0.138100315548243 
457	 0.140172226083633 
458	 0.14225340708443 
459	 0.144359520199981 
460	 0.146609087201606 
461	 0.148810661637296 
462	 0.150945997259171 
463	 0.153107903031743 
464	 0.155362228684145 
465	 0.157702882658438 
466	 0.160064530587162 
467	 0.162305719610554 
468	 0.164639680742095 
469	 0.167031818553475 
470	 0.169423492598477 
471	 0.171982687235665 
472	 0.174367693877535 
473	 0.176623630738876 
474	 0.179093293423282 
475	 0.181556600972304 
476	 0.184070248992734 
477	 0.186657893952169 
478	 0.1891794625294 
479	 0.191728117510219 
480	 0.194270459828333 
481	 0.196732035046898 
482	 0.199083791900975 
483	 0.201568677322038 
484	 0.204210543678493 
485	 0.206762013316483 
486	 0.209382687992009 
487	 0.211968537694564 
488	 0.214450838324711 
489	 0.2170607412563 
490	 0.21964710104192 
491	 0.222218398520986 
492	 0.224860629680961 
493	 0.227422218777935 
494	 0.229939466776581 
495	 0.232452915964093 
496	 0.23496349779683 
497	 0.237541175775962 
498	 0.2401121926019 
499	 0.242595049513041 
500	 0.245128430622497 
501	 0.247590224156123 
502	 0.249981990024657 
503	 0.252420007868811 
504	 0.25488842779653 
505	 0.257322276587423 
506	 0.259712839675671 
507	 0.262224274433146 
508	 0.264621212680442 
509	 0.266917002062826 
510	 0.269229490468678 
511	 0.27154527296073 
512	 0.273875756316023 
513	 0.276220396578716 
514	 0.278573930034054 
515	 0.280809766530661 
516	 0.283008846419999 
517	 0.285258698622836 
518	 0.287457720004231 
519	 0.28964659552377 
520	 0.29184380172443 
521	 0.294045083428913 
522	 0.296211729039055 
523	 0.298340885281562 
524	 0.300458944597044 
525	 0.302649653292832 
526	 0.304826108612658 
527	 0.306979665583032 
528	 0.309123548706372 
529	 0.311217853365794 
530	 0.313290778391469 
531	 0.315375534013588 
532	 0.317500320693262 
533	 0.319558657413456 
534	 0.321595129140143 
535	 0.323643540691176 
536	 0.325605036387352 
537	 0.327593999433568 
538	 0.329642564211931 
539	 0.331724264996515 
540	 0.333750382097808 
541	 0.335777963256858 
542	 0.337827497524278 
543	 0.339827805455569 
544	 0.341815812447947 
545	 0.343769375738141 
546	 0.345698979190049 
547	 0.347822747195715 
548	 0.350074934172638 
549	 0.35242317681688 
550	 0.354870609483476 
551	 0.357342351710812 
552	 0.359859737684925 
553	 0.362440266134958 
554	 0.36504361289995 
555	 0.367613626946051 
556	 0.370195516159008 
557	 0.372854350715107 
558	 0.375404428506619 
559	 0.377912012513659 
560	 0.380422195280428 
561	 0.382917791186483 
562	 0.385255748305761 
563	 0.387276920443137 
564	 0.388936088956128 
565	 0.390553889889814 
566	 0.392249495647137 
567	 0.393979209079266 
568	 0.395615514565988 
569	 0.397642742376845 
570	 0.399981874502634 
571	 0.402451724441695 
572	 0.40488792814188 
573	 0.407150574037023 
574	 0.409180236521486 
575	 0.410944951082602 
576	 0.412279299614015 
577	 0.413291667281212 
578	 0.414142102896916 
579	 0.415019673481864 
580	 0.416140603064941 
581	 0.417569487845572 
582	 0.419271582430462 
583	 0.421088218894097 
584	 0.422970462582193 
585	 0.424901032956888 
586	 0.426847414715476 
587	 0.428412936947445 
588	 0.429806056008353 
589	 0.431264000826256 
590	 0.432935901928148 
591	 0.434632941917158 
592	 0.436358223057141 
593	 0.438160354482767 
594	 0.44004385905917 
595	 0.441764082366062 
596	 0.443260281238104 
597	 0.444642098634031 
598	 0.445973283253755 
599	 0.447225157149995 
600	 0.448388571963722 
601	 0.449527799128276 
602	 0.450765989264157 
603	 0.452044746688455 
604	 0.4532437726666 
605	 0.454474426777152 
606	 0.45570837642385 
607	 0.456880403319508 
608	 0.457893268164023 
609	 0.458944794834289 
610	 0.45996673169371 
611	 0.460890837880989 
612	 0.461876412617699 
613	 0.462848809870659 
614	 0.46378862087928 
615	 0.464720847346472 
616	 0.465715322524719 
617	 0.466681695943761 
618	 0.467572015936563 
619	 0.468451472477917 
620	 0.469340150730664 
621	 0.470194094600524 
622	 0.470984537886856 
623	 0.471871769112938 
624	 0.472767317215889 
625	 0.47362145186357 
626	 0.474431817684511 
627	 0.475148967311143 
628	 0.475882812802223 
629	 0.476707375232739 
630	 0.477541583682318 
631	 0.478327707992352 
632	 0.479077570625279 
633	 0.479832332455944 
634	 0.480569556721794 
635	 0.481300741367296 
636	 0.482026738560598 
637	 0.482729951884325 
638	 0.483441302362197 
639	 0.484190212532142 
640	 0.484958802731549 
641	 0.485576720963099 
642	 0.486211503200366 
643	 0.486928370895476 
644	 0.487700975926954 
645	 0.488312423894551 
646	 0.48892666978 
647	 0.489645745500949 
648	 0.490397008322036 
649	 0.491025720869316 
650	 0.491634372526986 
651	 0.492350225813733 
652	 0.493022648106418 
653	 0.493674906934684 
654	 0.494308932180553 
655	 0.494911787420658 
656	 0.495570659953535 
657	 0.496235530809821 
658	 0.49687057605478 
659	 0.49751721981722 
660	 0.498216873023579 
661	 0.498864495230758 
662	 0.499367791809285 
663	 0.500021555469662 
664	 0.50073470650556 
665	 0.501384245787039 
666	 0.501857452495475 
667	 0.502496967873167 
668	 0.503189334718421 
669	 0.503794790136039 
670	 0.504347594507627 
671	 0.504983526450403 
672	 0.505660372894464 
673	 0.506261464068406 
674	 0.506799076176913 
675	 0.507360686550658 
676	 0.507957809136886 
677	 0.508503938935235 
678	 0.509129005996513 
679	 0.509714847225633 
680	 0.510186291194436 
681	 0.510772560209695 
682	 0.511409240482417 
683	 0.511993879361904 
684	 0.512445275546052 
685	 0.513022367572627 
686	 0.513684083327326 
687	 0.514331414782703 
688	 0.514836406098245 
689	 0.515273984942848 
690	 0.515775635917888 
691	 0.516405016500829 
692	 0.516948823601717 
693	 0.517462275795753 
694	 0.517967751866642 
695	 0.518475952938964 
696	 0.519104498515908 
697	 0.519687370155036 
698	 0.520178583101802 
699	 0.520777672793075 
700	 0.521242440844733 
701	 0.521651475729063 
702	 0.522145257444854 
703	 0.522732359583437 
704	 0.523269650528721 
705	 0.523735641371813 
706	 0.524202291123734 
707	 0.524716056401983 
708	 0.525259739469541 
709	 0.525787266030239 
710	 0.526218408601441 
711	 0.526714067478345 
712	 0.52720439703963 
713	 0.527612516295798 
714	 0.528125794069154 
715	 0.528671769144596 
716	 0.529147720109227 
717	 0.529475478819104 
718	 0.530029482856868 
719	 0.53057209316329 
720	 0.530968028366435 
721	 0.531398825527319 
722	 0.531831941008557 
723	 0.532254342331575 
724	 0.532684069839746 
725	 0.533268280206169 
726	 0.533782443461865 
727	 0.534198407955794 
728	 0.534627308313092 
729	 0.534983607828816 
730	 0.53537612747366 
731	 0.535849147082201 
732	 0.536304688517173 
733	 0.536770133972107 
734	 0.537209053904629 
735	 0.537626045632026 
736	 0.538262659613117 
737	 0.53869029251707 
738	 0.538970918601613 
739	 0.539451405211323 
740	 0.539789572195179 
741	 0.540089045367163 
742	 0.540445802002836 
743	 0.540864229475939 
744	 0.541271735450916 
745	 0.541613785146241 
746	 0.541884498290807 
747	 0.542189957114869 
748	 0.542621212976485 
749	 0.543104937632357 
750	 0.543481459759949 
751	 0.543761008687096 
752	 0.544007895848674 
753	 0.544303832676111 
754	 0.544737059215059 
755	 0.545198037393635 
756	 0.545578653443032 
757	 0.545837822780222 
758	 0.546092758500931 
759	 0.546447029685353 
760	 0.546857785432167 
761	 0.547214717713928 
762	 0.547515507192203 
763	 0.547802271763122 
764	 0.548098160999894 
765	 0.548402941889563 
766	 0.548777057295995 
767	 0.549170829080008 
768	 0.549530104392034 
769	 0.549843081664047 
770	 0.550113512109853 
771	 0.550399525834146 
772	 0.550752328664872 
773	 0.55108770750166 
774	 0.551434326690788 
775	 0.551740618354716 
776	 0.551916307312514 
777	 0.552221084883904 
778	 0.552636785705584 
779	 0.553044008497934 
780	 0.553228823275078 
781	 0.553506613449265 
782	 0.553824110100581 
783	 0.554070496888246 
784	 0.554328325981425 
785	 0.554606200751634 
786	 0.554919176660865 
787	 0.555258936473636 
788	 0.555437689639248 
789	 0.555633477593519 
790	 0.555922623406798 
791	 0.556219816021553 
792	 0.556588794597306 
793	 0.556877451411072 
794	 0.557017264104332 
795	 0.557233275224323 
796	 0.557488005722728 
797	 0.5578084690521 
798	 0.558176681231083 
799	 0.558290151013184 
800	 0.558442938544385 
801	 0.558745123864422 
802	 0.559121641957549 
803	 0.559404817618421 
804	 0.559677164523829 
805	 0.559985406042622 
806	 0.560267583730161 
807	 0.560541906593665 
808	 0.560790713962618 
809	 0.560998709338186 
810	 0.561171468316452 
811	 0.561380534179492 
812	 0.561642096738759 
813	 0.561939070440783 
814	 0.562256618039396 
815	 0.562507513353911 
816	 0.56267800414059 
817	 0.562828286420688 
818	 0.563018960454946 
819	 0.563268587931343 
820	 0.563542679615605 
821	 0.563740058560987 
822	 0.563901588952219 
823	 0.564095652084847 
824	 0.56436899788648 
825	 0.564702687294323 
826	 0.564841595731022 
827	 0.564893995669752 
828	 0.565102321125408 
829	 0.565382033669689 
830	 0.565565136050312 
831	 0.565698700125146 
832	 0.565988751986447 
833	 0.566134111357451 
834	 0.566313973487792 
835	 0.566602596993116 
836	 0.566809248198988 
837	 0.56696681679075 
838	 0.567087178964355 
839	 0.567194092254439 
840	 0.567334420344598 
841	 0.5675785134651 
842	 0.56785566150012 
843	 0.568054122622352 
844	 0.568201938544672 
845	 0.568246841603399 
846	 0.568308338023223 
847	 0.568592056146164 
848	 0.568914853902745 
849	 0.569174544006604 
850	 0.569382324883917 
851	 0.569665611088341 
852	 0.569747627624101 
853	 0.569864014985176 
854	 0.570172004378788 
855	 0.570444421640004 
856	 0.570619588500838 
857	 0.570738203300689 
858	 0.570888470948455 
859	 0.571171140302543 
860	 0.571397886174286 
861	 0.571540763985801 
862	 0.571668427403116 
863	 0.571834098592252 
864	 0.572021477867005 
865	 0.572199231327441 
866	 0.572340966863244 
867	 0.572532438718326 
868	 0.572850990652957 
869	 0.573182825499507 
870	 0.573185432329574 
871	 0.573204882529276 
872	 0.573366455734273 
873	 0.573640471994149 
874	 0.573778195165575 
875	 0.57394300895568 
876	 0.57418501772615 
877	 0.574481719027411 
878	 0.574699065696196 
879	 0.574854373150031 
880	 0.574959455255769 
881	 0.575045155430294 
882	 0.575239718250982 
883	 0.575410178450427 
884	 0.575511855155937 
885	 0.5755931327605 
886	 0.575738503018856 
887	 0.575990991186222 
888	 0.576265514930072 
889	 0.576361681613816 
890	 0.5764472316345 
891	 0.576568405840675 
892	 0.576734678384902 
893	 0.576931201893368 
894	 0.577064158509415 
895	 0.577234596456261 
896	 0.577508551611566 
897	 0.577740710413907 
898	 0.577844375297412 
899	 0.57794934041713 
900	 0.578193973205919 
901	 0.578429493004817 
902	 0.578655037206182 
903	 0.578829338434726 
904	 0.578936394095599 
905	 0.579177206766323 
906	 0.57940555115525 
907	 0.579582892933175 
908	 0.579773081279036 
909	 0.58006825409737 
910	 0.580296954676088 
911	 0.580459103737759 
912	 0.580728858996072 
913	 0.580885204537149 
914	 0.581068008613486 
915	 0.581332557103178 
916	 0.581550895960894 
917	 0.581824723087046 
918	 0.582027200414484 
919	 0.582123078762775 
920	 0.582320080605378 
921	 0.582542451777071 
922	 0.582757255274731 
923	 0.58296017515811 
924	 0.583199874385018 
925	 0.583412804734751 
926	 0.58363164219569 
927	 0.583882494816161 
928	 0.584057058106193 
929	 0.584239251453589 
930	 0.584543691891912 
931	 0.58497737532445 
932	 0.585076155753072 
933	 0.585164835384761 
934	 0.585410001008803 
935	 0.585817161856341 
936	 0.586163150788402 
937	 0.586498815652099 
938	 0.586800616604915 
939	 0.587010124421048 
940	 0.587246477137927 
941	 0.587515399125563 
942	 0.587766940530596 
943	 0.587936885085092 
944	 0.5881691696753 
945	 0.588443362326643 
946	 0.588685797579416 
947	 0.588815474567072 
948	 0.589032372762003 
949	 0.589266668018445 
950	 0.589480204917109 
951	 0.589714652381519 
952	 0.5897542500096 
953	 0.589819985445166 
954	 0.590046861636981 
955	 0.590321629007351 
956	 0.590648302281521 
957	 0.590980321598756 
958	 0.59123078616667 
959	 0.591272896705014 
960	 0.591416643437573 
961	 0.591696601227472 
962	 0.592035638656975 
963	 0.592296466863708 
964	 0.5923640549457 
965	 0.592488409305153 
966	 0.592815966779636 
967	 0.59303855984979 
968	 0.593260144796651 
969	 0.593547131520585 
970	 0.593883896378558 
971	 0.594073414806517 
972	 0.594288887931862 
973	 0.594513116337218 
974	 0.594713800281196 
975	 0.594975722874367 
976	 0.595345386919899 
977	 0.595710287174873 
978	 0.595950398779524 
979	 0.596099595544328 
980	 0.59616889634235 
981	 0.596260499523797 
982	 0.596451041305545 
983	 0.596644448601204 
984	 0.596879621454424 
985	 0.597113314544982 
986	 0.597322447319727 
987	 0.597648909536616 
988	 0.597902766334772 
989	 0.597997446933684 
990	 0.597983948417619 
991	 0.598180864421444 
992	 0.59848172471374 
993	 0.598783519840355 
994	 0.599018445560536 
995	 0.599238788909509 
996	 0.599504372005613 
997	 0.599773158874402 
998	 0.599983452047554 
999	 0.600143593891664 
1000	 0.600344795083557 
1001	 0.579313047915431 
1002	 0.579522041437591 
1003	 0.579729552896705 
1004	 0.579910091762436 
1005	 0.580101921701945 
1006	 0.580267411884914 
1007	 0.580385570884473 
1008	 0.580538007631866 
1009	 0.580710448857595 
1010	 0.580869029084591 
1011	 0.581027511187701 
1012	 0.581173506083197 
1013	 0.581304379040068 
1014	 0.581441480789311 
1015	 0.581565959946203 
1016	 0.581714680799322 
1017	 0.581845131387979 
1018	 0.581980383356824 
1019	 0.582155616061599 
1020	 0.582310123633155 
1021	 0.582463246018017 
1022	 0.582617695933767 
1023	 0.582809207267242 
1024	 0.583018218276987 
1025	 0.583201586941857 
1026	 0.583403960405522 
1027	 0.583591351538797 
1028	 0.583737567611322 
1029	 0.583911420924966 
1030	 0.584123246752745 
1031	 0.584321932873875 
1032	 0.58448349650893 
1033	 0.584682830392842 
1034	 0.584846682586328 
1035	 0.584985431957157 
1036	 0.585175527236542 
1037	 0.585401492450734 
1038	 0.585576963824891 
1039	 0.585778670099764 
1040	 0.58596210462552 
1041	 0.586084889188014 
1042	 0.586250215204517 
1043	 0.586450565801474 
1044	 0.586616330080103 
1045	 0.586761706207469 
1046	 0.586901050031859 
1047	 0.586996106935411 
1048	 0.587058927782943 
1049	 0.587153276258444 
1050	 0.58728442660333 
1051	 0.587424106737881 
1052	 0.587581293748227 
1053	 0.587705269565868 
1054	 0.587810511762563 
1055	 0.587913599147969 
1056	 0.587995725432435 
1057	 0.58806759598079 
1058	 0.588121803223072 
1059	 0.588221805381367 
1060	 0.588300470518547 
1061	 0.588400080422936 
1062	 0.588517709091144 
1063	 0.588572221038611 
1064	 0.588627688287103 
1065	 0.588724721007269 
1066	 0.588820956884842 
1067	 0.588923086314047 
1068	 0.589028936845301 
1069	 0.589076847866812 
1070	 0.589136324527296 
1071	 0.589182574463391 
1072	 0.589262750623794 
1073	 0.589306237646434 
1074	 0.589373027040048 
1075	 0.589454291955584 
1076	 0.589544275813343 
1077	 0.589677927076894 
1078	 0.58976514628188 
1079	 0.589837318473699 
1080	 0.589902355852199 
1081	 0.58994356476924 
1082	 0.590022843004115 
1083	 0.59012748775351 
1084	 0.590201463284925 
1085	 0.590233836498691 
1086	 0.590299619868582 
1087	 0.59036741205264 
1088	 0.590453420937076 
1089	 0.590552695669512 
1090	 0.590660770225724 
1091	 0.590725845763119 
1092	 0.59076308328349 
1093	 0.59081646820884 
1094	 0.590872590628636 
1095	 0.590932020040341 
1096	 0.591000772492224 
1097	 0.591053211760011 
1098	 0.591099557957433 
1099	 0.591158139623254 
1100	 0.591225610702185 
1101	 0.591287855722396 
1102	 0.591338156468718 
1103	 0.591386281017936 
1104	 0.591436155564825 
1105	 0.591470694368594 
1106	 0.59150125223799 
1107	 0.591558593167859 
1108	 0.591625816185117 
1109	 0.59169789394013 
1110	 0.591736495622526 
1111	 0.591754939845374 
1112	 0.591800839039884 
1113	 0.59181730496442 
1114	 0.591856539908774 
1115	 0.591922486922142 
1116	 0.591941127060583 
1117	 0.591975203416445 
1118	 0.592000232922465 
1119	 0.592012109510519 
1120	 0.59202885591197 
1121	 0.592050644726394 
1122	 0.592058177313008 
1123	 0.5920660001177 
1124	 0.592070838858522 
1125	 0.59208149167628 
1126	 0.592095060865328 
1127	 0.592084837545883 
1128	 0.592086656690534 
1129	 0.592047796776837 
1130	 0.591977675164821 
1131	 0.591935638850944 
1132	 0.591885231800701 
1133	 0.591862629912086 
1134	 0.591844751451611 
1135	 0.591791729057918 
1136	 0.591727593855852 
1137	 0.591650502037619 
1138	 0.591536381284581 
1139	 0.591420020296615 
1140	 0.591297874684069 
1141	 0.591177495699564 
1142	 0.591027335627501 
1143	 0.590879694198221 
1144	 0.590727914586634 
1145	 0.590523440826134 
1146	 0.590295064304222 
1147	 0.590079894996436 
1148	 0.589864021971569 
1149	 0.589646393117649 
1150	 0.589424538540158 
1151	 0.589192970318234 
1152	 0.588934504931211 
1153	 0.588642298748407 
1154	 0.58835348491907 
1155	 0.588052635438926 
1156	 0.587741284634432 
1157	 0.58743883018432 
1158	 0.587107064168696 
1159	 0.586747973438423 
1160	 0.586381498902428 
1161	 0.58601389338259 
1162	 0.585610798627896 
1163	 0.585241546596484 
1164	 0.584875400954252 
1165	 0.584479438264075 
1166	 0.584106785416277 
1167	 0.583737833866615 
1168	 0.583349603137187 
1169	 0.582965682635393 
1170	 0.582588436143424 
1171	 0.582211701249237 
1172	 0.581821754684113 
1173	 0.581445493043243 
1174	 0.581093092912578 
1175	 0.580727182138663 
1176	 0.580351770040109 
1177	 0.579983056748471 
1178	 0.579627605383905 
1179	 0.579234822278651 
1180	 0.578866587901458 
1181	 0.57851163938649 
1182	 0.578129422610452 
1183	 0.577786382276709 
1184	 0.577442727362949 
1185	 0.577099341913686 
1186	 0.576785158504082 
1187	 0.576490991305152 
1188	 0.576212166939272 
1189	 0.575947066112684 
1190	 0.575705581910323 
1191	 0.575493468419102 
1192	 0.575283373775145 
1193	 0.575093916854124 
1194	 0.574906144262947 
1195	 0.574716675063391 
1196	 0.574548634505534 
1197	 0.574409180030403 
1198	 0.574248279250308 
1199	 0.574083889801168 
1200	 0.57393832405756 
1201	 0.573784357701701 
1202	 0.573643425181124 
1203	 0.573544600444317 
1204	 0.57345836745665 
1205	 0.573418518291206 
1206	 0.573389479479131 
1207	 0.573449729364223 
1208	 0.573558785912241 
1209	 0.573731074832626 
1210	 0.573967772448653 
1211	 0.574263500555971 
1212	 0.574627934570921 
1213	 0.575034901722132 
1214	 0.57550546418422 
1215	 0.57601700851031 
1216	 0.576581620516039 
1217	 0.577168843606169 
1218	 0.577812909467857 
1219	 0.578472565020773 
1220	 0.579135845458926 
1221	 0.579845295861752 
1222	 0.580536762984005 
1223	 0.581222538781176 
1224	 0.581872216137289 
1225	 0.582507610610419 
1226	 0.583101563515434 
1227	 0.583660784178268 
1228	 0.584202821425529 
1229	 0.584719757615567 
1230	 0.585208327668765 
1231	 0.58565847534102 
1232	 0.586115140200195 
1233	 0.586563336568841 
1234	 0.586976162050488 
1235	 0.587381200411671 
1236	 0.587756724098959 
1237	 0.588078481996149 
1238	 0.588406843257479 
1239	 0.588721710634134 
1240	 0.589034895151715 
1241	 0.589359644720068 
1242	 0.589652977811535 
1243	 0.589926776480449 
1244	 0.590184581222677 
1245	 0.590442865889677 
1246	 0.590684786656652 
1247	 0.590907625356273 
1248	 0.591129390217402 
1249	 0.591331401472852 
1250	 0.591489760610939 
1251	 0.591671361251368 
1252	 0.591877283267488 
1253	 0.59204332169043 
1254	 0.592183056971288 
1255	 0.592331322293697 
1256	 0.592460452676386 
1257	 0.592593681331116 
1258	 0.5927537839228 
1259	 0.592878833713393 
1260	 0.592963915417027 
1261	 0.593066146881001 
1262	 0.593165630120302 
1263	 0.593255065813196 
1264	 0.59334722991792 
1265	 0.593455524563978 
1266	 0.593539590135727 
1267	 0.593600341902536 
1268	 0.593679213204779 
1269	 0.593764470371186 
1270	 0.593835549413256 
1271	 0.593915818493601 
1272	 0.593966994664438 
1273	 0.593983264839683 
1274	 0.594024237931504 
1275	 0.594067578425365 
1276	 0.594100454750332 
1277	 0.594136744212484 
1278	 0.594171784887464 
1279	 0.594187724338479 
1280	 0.594216895368432 
1281	 0.59426692314742 
1282	 0.594302779283154 
1283	 0.594339235667397 
1284	 0.594363943474687 
1285	 0.594380096463383 
1286	 0.594382564764624 
1287	 0.594397495682745 
1288	 0.594405556071636 
1289	 0.594424026576312 
1290	 0.594461639735704 
1291	 0.594470290279076 
1292	 0.594471939504294 
1293	 0.594465170726071 
1294	 0.594440192281999 
1295	 0.594418748642359 
1296	 0.594386183226664 
1297	 0.594369357235959 
1298	 0.594358680355377 
1299	 0.594343640907203 
1300	 0.594335790147994 
1301	 0.594326891921457 
1302	 0.594314195792519 
1303	 0.594299951701711 
1304	 0.594299035495867 
1305	 0.594280228649121 
1306	 0.594246228687502 
1307	 0.594212056468919 
1308	 0.594173643005471 
1309	 0.59412409804521 
1310	 0.594078913899124 
1311	 0.594033283525819 
1312	 0.593985050979753 
1313	 0.59393470717309 
1314	 0.593882608309003 
1315	 0.593830917164103 
1316	 0.593772282148282 
1317	 0.593709188463167 
1318	 0.593644691690747 
1319	 0.593577646941543 
1320	 0.593505491449849 
1321	 0.593432265876374 
1322	 0.593352215181549 
1323	 0.593271978772437 
1324	 0.593175483935745 
1325	 0.593071196841003 
1326	 0.592957077703144 
1327	 0.592829559062317 
1328	 0.592694441826391 
1329	 0.592548077208357 
1330	 0.592400826034673 
1331	 0.592251458521624 
1332	 0.592089342660018 
1333	 0.591926767751358 
1334	 0.591747730751607 
1335	 0.591560341386317 
1336	 0.591359640872286 
1337	 0.591150646854241 
1338	 0.590936533297297 
1339	 0.590704489274323 
1340	 0.590469779303066 
1341	 0.590192731672567 
1342	 0.58988493976322 
1343	 0.589576855898742 
1344	 0.589249049839286 
1345	 0.588900332730396 
1346	 0.58855134884118 
1347	 0.588169429110003 
1348	 0.587756409650452 
1349	 0.587323095055955 
1350	 0.586868661269113 
1351	 0.586396084982864 
1352	 0.585889991675988 
1353	 0.58538108380255 
1354	 0.584846636700567 
1355	 0.584328824169403 
1356	 0.583790700873989 
1357	 0.58328323716269 
1358	 0.582779447373919 
1359	 0.582311301533896 
1360	 0.581870163366702 
1361	 0.581452887971232 
1362	 0.581053318614674 
1363	 0.580700775921829 
1364	 0.580346865894662 
1365	 0.580015102844575 
1366	 0.579680950189349 
1367	 0.579361678422567 
1368	 0.579036582385743 
1369	 0.578728012279754 
1370	 0.578378986702178 
1371	 0.578032632631796 
1372	 0.577639872185198 
1373	 0.577226396457864 
1374	 0.576757398666941 
1375	 0.576248255612166 
1376	 0.575702961592135 
1377	 0.575095223172386 
1378	 0.574479219801564 
1379	 0.573810354898351 
1380	 0.573176275417283 
1381	 0.572488879397808 
1382	 0.571894644263302 
1383	 0.571341917115841 
1384	 0.57083256710621 
1385	 0.570415088099373 
1386	 0.569979952196356 
1387	 0.569565336926896 
1388	 0.56916673505813 
1389	 0.568780077941869 
1390	 0.568397231447563 
1391	 0.568033244849333 
1392	 0.567670051969991 
1393	 0.567333322877801 
1394	 0.566964105235943 
1395	 0.566583104622801 
1396	 0.566217732506612 
1397	 0.565787290554826 
1398	 0.565339734700971 
1399	 0.564801496954793 
1400	 0.56422643321096 
1401	 0.56355105742462 
1402	 0.562788136921079 
1403	 0.561968413307621 
1404	 0.561064360377893 
1405	 0.560134442113911 
1406	 0.55915306137388 
1407	 0.558117938773741 
1408	 0.557000095484593 
1409	 0.555910282006686 
1410	 0.554752184211055 
1411	 0.553653276427357 
1412	 0.552569788344306 
1413	 0.551534722664007 
1414	 0.550528316120157 
1415	 0.549548772976826 
1416	 0.548610267889385 
1417	 0.547690399608299 
1418	 0.546789526794889 
1419	 0.545913666636237 
1420	 0.545063235693245 
1421	 0.544246572961555 
1422	 0.543471921664358 
1423	 0.542694123454327 
1424	 0.541950100519986 
1425	 0.541189580449694 
1426	 0.540461498132804 
1427	 0.539723312136827 
1428	 0.538987090944458 
1429	 0.538300555545739 
1430	 0.537555887194787 
1431	 0.536801812896832 
1432	 0.536000188785106 
1433	 0.535162126374018 
1434	 0.534307999977745 
1435	 0.533420435901612 
1436	 0.53251415528443 
1437	 0.531574036923541 
1438	 0.53066255256729 
1439	 0.529693907226175 
1440	 0.528837110535046 
1441	 0.527983886349211 
1442	 0.52727604879724 
1443	 0.526600945144162 
1444	 0.526141209653703 
1445	 0.52580184833009 
1446	 0.525660445756074 
1447	 0.525702375692527 
1448	 0.525903905275988 
1449	 0.526331724180504 
1450	 0.526811313917942 
1451	 0.527484683083451 
1452	 0.528152698156195 
1453	 0.528935419977924 
1454	 0.529660393791921 
1455	 0.530438496144131 
1456	 0.531144226172418 
1457	 0.531830187992371 
1458	 0.532446892883395 
1459	 0.532997118050408 
1460	 0.533522556095238 
1461	 0.533995286491256 
1462	 0.534426448944052 
1463	 0.534813646914977 
1464	 0.535185497821367 
1465	 0.535511787040694 
1466	 0.535815468896478 
1467	 0.53611149734662 
1468	 0.536413897391004 
1469	 0.536692734186044 
1470	 0.536937571912704 
1471	 0.53718423988797 
1472	 0.537415941935013 
1473	 0.537646323280579 
1474	 0.53788241686399 
1475	 0.538071570974633 
1476	 0.538260042446968 
1477	 0.538372829213669 
1478	 0.538435745468336 
1479	 0.538456566497304 
1480	 0.538425217304644 
1481	 0.538361636043278 
1482	 0.538249361191622 
1483	 0.538117879047415 
1484	 0.537937409688326 
1485	 0.537763767695867 
1486	 0.537537649895638 
1487	 0.537385535453767 
1488	 0.537222347890673 
1489	 0.537147838264916 
1490	 0.537133614731072 
1491	 0.537168485126605 
1492	 0.537255956491008 
1493	 0.537404045026528 
1494	 0.537607305986035 
1495	 0.537866023689938 
1496	 0.5382102151155 
1497	 0.538557314240828 
1498	 0.538965250157538 
1499	 0.539361506159518 
1500	 0.539782781266667 
1501	 0.540186035210088 
1502	 0.540597538257737 
1503	 0.540986603860317 
1504	 0.541361103420857 
1505	 0.541723559729325 
1506	 0.542077754169799 
1507	 0.542411018844374 
1508	 0.542735910574295 
1509	 0.543031091411316 
1510	 0.543303587449176 
1511	 0.543549948679025 
1512	 0.543765851410729 
1513	 0.54396383732893 
1514	 0.544140186108177 
1515	 0.544293341965836 
1516	 0.544412139585545 
1517	 0.544530225848254 
1518	 0.544633089115864 
1519	 0.544722956316678 
1520	 0.544804597149198 
1521	 0.544879829597652 
1522	 0.544928850184776 
1523	 0.544969428589348 
1524	 0.545005444663401 
1525	 0.545032706111931 
1526	 0.545054092385418 
1527	 0.545063689126606 
1528	 0.54508544103353 
1529	 0.54510399711916 
1530	 0.545129651759794 
1531	 0.545161303098793 
1532	 0.545199902341311 
1533	 0.545231884693725 
1534	 0.54529859718111 
1535	 0.545379704960838 
1536	 0.545486703939639 
1537	 0.545609414075738 
1538	 0.545775788302988 
1539	 0.545969260732317 
1540	 0.546198549705413 
1541	 0.546471164585305 
1542	 0.54676239327117 
1543	 0.547086223768536 
1544	 0.547420287840456 
1545	 0.547770835929364 
1546	 0.548158955873489 
1547	 0.548575133686609 
1548	 0.549003986828748 
1549	 0.549486659602578 
1550	 0.549929581960257 
1551	 0.550363016714674 
1552	 0.550800189500872 
1553	 0.551231115271118 
1554	 0.551659873652346 
1555	 0.552112245155115 
1556	 0.552510762221919 
1557	 0.552870668053392 
1558	 0.553243817406924 
1559	 0.553589402808448 
1560	 0.553945268216268 
1561	 0.554324059640005 
1562	 0.554670996709412 
1563	 0.555003667475038 
1564	 0.555317532706879 
1565	 0.555620704033714 
1566	 0.55589638916873 
1567	 0.556142070259652 
1568	 0.556383132198407 
1569	 0.556582233918895 
1570	 0.556820021416782 
1571	 0.557070332664261 
1572	 0.557318389035269 
1573	 0.557591712379277 
1574	 0.557845141343873 
1575	 0.558081362185227 
1576	 0.558325532546384 
1577	 0.558570630671978 
1578	 0.558813282393239 
1579	 0.559053892926127 
1580	 0.559296838418125 
1581	 0.559534634903597 
1582	 0.55978175804852 
1583	 0.560043859014311 
1584	 0.560291409610027 
1585	 0.560536764049953 
1586	 0.560779646006015 
1587	 0.56101293484037 
1588	 0.561244950398355 
1589	 0.561465184293443 
1590	 0.561707118167629 
1591	 0.561956275480287 
1592	 0.562208102458435 
1593	 0.562478361978614 
1594	 0.562746063310404 
1595	 0.563007701243825 
1596	 0.56327609602316 
1597	 0.563557892268715 
1598	 0.563832340353687 
1599	 0.564111274600806 
1600	 0.564378453090042 
1601	 0.564635052958859 
1602	 0.564894126166247 
1603	 0.565141919215667 
1604	 0.565396089908386 
1605	 0.565656093086334 
1606	 0.565916075936777 
1607	 0.566188504804429 
1608	 0.566440444120176 
1609	 0.566688529555104 
1610	 0.56692346554089 
1611	 0.567135703258863 
1612	 0.567347674495006 
1613	 0.567557801056271 
1614	 0.567752925340575 
1615	 0.567941406472182 
1616	 0.568117603984988 
1617	 0.568266879130584 
1618	 0.568431924633593 
1619	 0.568589239802982 
1620	 0.568756460967175 
1621	 0.568950813957628 
1622	 0.569120366971094 
1623	 0.569286864661317 
1624	 0.569438585330155 
1625	 0.56957953484318 
1626	 0.569698479452353 
1627	 0.569788886696282 
1628	 0.569887843162163 
1629	 0.569966577316835 
1630	 0.570054223786752 
1631	 0.570147647423555 
1632	 0.570249512477507 
1633	 0.570363735552787 
1634	 0.570464997901407 
1635	 0.570580049005982 
1636	 0.570669088231891 
1637	 0.570733939045141 
1638	 0.570794004534662 
1639	 0.570853025530188 
1640	 0.570884759829921 
1641	 0.57089287549717 
1642	 0.570895451546936 
1643	 0.570878336070282 
1644	 0.570851114010921 
1645	 0.570810192447235 
1646	 0.570774018814465 
1647	 0.570720663979984 
1648	 0.570675873748766 
1649	 0.570665646692143 
1650	 0.570603431238307 
1651	 0.570535689487159 
1652	 0.570420998425134 
1653	 0.570264382166609 
1654	 0.570072841247965 
1655	 0.569832472916204 
1656	 0.569578936184092 
1657	 0.569295775104832 
1658	 0.568983807318072 
1659	 0.568661120630479 
1660	 0.568294452791454 
1661	 0.567889822770865 
1662	 0.567448744420472 
1663	 0.566957663662984 
1664	 0.566450653511537 
1665	 0.565936747339738 
1666	 0.56534047431448 
1667	 0.564698345746983 
1668	 0.564023054805559 
1669	 0.563291446058522 
1670	 0.562502737593986 
1671	 0.561682410921581 
1672	 0.560793333755565 
1673	 0.559821164965349 
1674	 0.558815210031513 
1675	 0.557773199772936 
1676	 0.556685646498659 
1677	 0.555551225076562 
1678	 0.554352493705531 
1679	 0.55308229544981 
1680	 0.551785486986079 
1681	 0.550446452971161 
1682	 0.549036648578851 
1683	 0.547601323676177 
1684	 0.546098021147094 
1685	 0.544507120304377 
1686	 0.54288235675466 
1687	 0.541183405036424 
1688	 0.539468130882265 
1689	 0.53769203678117 
1690	 0.535917250956655 
1691	 0.534144212151056 
1692	 0.532367578474143 
1693	 0.530588410160958 
1694	 0.528771421782345 
1695	 0.526927133017209 
1696	 0.525033056467152 
1697	 0.523099410859717 
1698	 0.521114359457414 
1699	 0.51909201366649 
1700	 0.517089063387937 
1701	 0.515026838934474 
1702	 0.513033477973572 
1703	 0.511014818592381 
1704	 0.509116587442512 
1705	 0.507260454730929 
1706	 0.505477011208383 
1707	 0.503914627171121 
1708	 0.502355647788323 
1709	 0.5008417393579 
1710	 0.499401849919303 
1711	 0.497923745173593 
1712	 0.496544367741924 
1713	 0.495191059248955 
1714	 0.493843439663564 
1715	 0.492591728059046 
1716	 0.491310018768346 
1717	 0.49009229074481 
1718	 0.48897069334833 
1719	 0.487829541261562 
1720	 0.486770085656341 
1721	 0.485794064030871 
1722	 0.484880417576804 
1723	 0.484161048507816 
1724	 0.483598332492824 
1725	 0.483177337892825 
1726	 0.482966201051293 
1727	 0.48291507795482 
1728	 0.483041115848046 
1729	 0.483416844880081 
1730	 0.484026651704033 
1731	 0.484788913539518 
1732	 0.485768866402236 
1733	 0.486824188875782 
1734	 0.48789709744357 
1735	 0.489052898365846 
1736	 0.490154212727879 
1737	 0.49117097493608 
1738	 0.492094896360951 
1739	 0.492838530627462 
1740	 0.493441500482041 
1741	 0.493897512545122 
1742	 0.494184872348438 
1743	 0.494370171911381 
1744	 0.494365256952036 
1745	 0.494340895102479 
1746	 0.494201458168338 
1747	 0.494079773771667 
1748	 0.493901692594893 
1749	 0.493751548712017 
1750	 0.493564040463897 
1751	 0.493448117288027 
1752	 0.493354251929415 
1753	 0.493335501993367 
1754	 0.493373121035762 
1755	 0.493479002363197 
1756	 0.493605869602977 
1757	 0.493843277407887 
1758	 0.494213117661943 
1759	 0.494673237838148 
1760	 0.495322537789466 
1761	 0.496106164426589 
1762	 0.49695960778743 
1763	 0.497976204768419 
1764	 0.499038947939361 
1765	 0.500190761726882 
1766	 0.501502812833947 
1767	 0.502788404505908 
1768	 0.504132772650346 
1769	 0.50551314139479 
1770	 0.506767373756359 
1771	 0.508001270896582 
1772	 0.509221018231287 
1773	 0.510369573382465 
1774	 0.511486652440188 
1775	 0.512539108835766 
1776	 0.513533527443816 
1777	 0.514429458903281 
1778	 0.515218466232815 
1779	 0.51599819891334 
1780	 0.516698392966433 
1781	 0.517341697101974 
1782	 0.518007498675087 
1783	 0.518593033246429 
1784	 0.519182808017532 
1785	 0.519747792540083 
1786	 0.520262285670045 
1787	 0.520750259532762 
1788	 0.521202904834544 
1789	 0.521628934913768 
1790	 0.522005279960299 
1791	 0.522322802496039 
1792	 0.522668177638057 
1793	 0.522960792555501 
1794	 0.523281764861729 
1795	 0.523608424688638 
1796	 0.523904509135036 
1797	 0.52426420856325 
1798	 0.524621255773915 
1799	 0.524956428343761 
1800	 0.525285681459792 
1801	 0.537156106455969 
1802	 0.538131765804762 
1803	 0.538968745538537 
1804	 0.539686355313434 
1805	 0.540376570237545 
1806	 0.540990543992885 
1807	 0.541522358544524 
1808	 0.542015457344243 
1809	 0.542443889742152 
1810	 0.542845767167428 
1811	 0.543179073479206 
1812	 0.543508688646938 
1813	 0.543796736076605 
1814	 0.544090890307914 
1815	 0.544370715328174 
1816	 0.544661318832776 
1817	 0.544976437271424 
1818	 0.545308521550829 
1819	 0.545647170668007 
1820	 0.545995666840622 
1821	 0.546359630253991 
1822	 0.546738407625446 
1823	 0.547132627862624 
1824	 0.547513837711305 
1825	 0.547919520897323 
1826	 0.54829885751202 
1827	 0.548673859803381 
1828	 0.549013532819877 
1829	 0.549327164625465 
1830	 0.549649612764363 
1831	 0.549957276099802 
1832	 0.550263089455157 
1833	 0.550525124384367 
1834	 0.550813493140996 
1835	 0.551092612981711 
1836	 0.55134526191127 
1837	 0.551657748842379 
1838	 0.552010977318509 
1839	 0.552375226973955 
1840	 0.552766937187304 
1841	 0.553168738645738 
1842	 0.553604560630652 
1843	 0.554047784960288 
1844	 0.554452537599366 
1845	 0.554815641414166 
1846	 0.555168896383294 
1847	 0.555488202958875 
1848	 0.5557839979318 
1849	 0.556089459931479 
1850	 0.556324782271302 
1851	 0.556522357211688 
1852	 0.556662441111103 
1853	 0.556755984229826 
1854	 0.556808197553494 
1855	 0.556834765535181 
1856	 0.556842161273595 
1857	 0.556807801626469 
1858	 0.556704111802132 
1859	 0.556549350671653 
1860	 0.556350838757189 
1861	 0.556071109945736 
1862	 0.555727623639255 
1863	 0.555336028039484 
1864	 0.554850139712478 
1865	 0.554301396123964 
1866	 0.553654780581996 
1867	 0.552941489626726 
1868	 0.552176368781354 
1869	 0.551359282844545 
1870	 0.550561380696176 
1871	 0.549725738802748 
1872	 0.548944230721752 
1873	 0.548180593865048 
1874	 0.54745521743526 
1875	 0.546773003456296 
1876	 0.545996031951632 
1877	 0.545252706365895 
1878	 0.544408677539793 
1879	 0.543379504820784 
1880	 0.54235374369389 
1881	 0.541163940853256 
1882	 0.539812124911148 
1883	 0.538389244658763 
1884	 0.536894733444833 
1885	 0.53521652682518 
1886	 0.533528413929893 
1887	 0.531672684980185 
1888	 0.529684441496094 
1889	 0.52778301661756 
1890	 0.525768674151163 
1891	 0.523769610747035 
1892	 0.521788228010241 
1893	 0.51967851403352 
1894	 0.51743827170338 
1895	 0.515255017077186 
1896	 0.512999583971318 
1897	 0.510670053529704 
1898	 0.508536162278186 
1899	 0.506335786733256 
1900	 0.50416983245093 
1901	 0.502117502346933 
1902	 0.499964474925398 
1903	 0.497959833993404 
1904	 0.496009410485749 
1905	 0.494093705919298 
1906	 0.492240978097872 
1907	 0.490613755967911 
1908	 0.488959441821077 
1909	 0.487374405857373 
1910	 0.485889965223651 
1911	 0.484322225335276 
1912	 0.482833135639478 
1913	 0.481377965014369 
1914	 0.479906573721526 
1915	 0.478521839748934 
1916	 0.477226713298615 
1917	 0.47590451932379 
1918	 0.474643683823363 
1919	 0.473435284730623 
1920	 0.472160658683597 
1921	 0.470990811824279 
1922	 0.469813124525308 
1923	 0.468635823575833 
1924	 0.467594500005632 
1925	 0.466525330141799 
1926	 0.465491257252939 
1927	 0.464508556879679 
1928	 0.463530684190202 
1929	 0.462536418236365 
1930	 0.461620531137193 
1931	 0.460762122256616 
1932	 0.459954858622693 
1933	 0.459284860737749 
1934	 0.458695384868227 
1935	 0.458161919802767 
1936	 0.457713043642356 
1937	 0.457350993003491 
1938	 0.457067525342954 
1939	 0.456866130918146 
1940	 0.456741197980676 
1941	 0.456729656743401 
1942	 0.456798185832202 
1943	 0.4569053063327 
1944	 0.457093833049859 
1945	 0.457370553660208 
1946	 0.457722092263567 
1947	 0.458096881031583 
1948	 0.458570246824556 
1949	 0.459139258872773 
1950	 0.459757576072431 
1951	 0.46043576330456 
1952	 0.461209002664992 
1953	 0.46205552228961 
1954	 0.46297909815247 
1955	 0.464021531400926 
1956	 0.465059530633325 
1957	 0.46613022267377 
1958	 0.467186447755571 
1959	 0.468110348412717 
1960	 0.469000932688757 
1961	 0.469802931853808 
1962	 0.470498304147771 
1963	 0.47115423901648 
1964	 0.471750371589575 
1965	 0.472278744640272 
1966	 0.472733668732611 
1967	 0.473163995653554 
1968	 0.473523983979555 
1969	 0.473899521565355 
1970	 0.474251592481947 
1971	 0.47458559528895 
1972	 0.47497939402314 
1973	 0.475364776383659 
1974	 0.475781662574384 
1975	 0.47624993811508 
1976	 0.476724070942233 
1977	 0.477189032587095 
1978	 0.477698109954234 
1979	 0.47823240630102 
1980	 0.478808869587819 
1981	 0.479417116971825 
1982	 0.480020263976808 
1983	 0.480672583023557 
1984	 0.481303591605382 
1985	 0.481923908836445 
1986	 0.482638569696697 
1987	 0.483378194875307 
1988	 0.484123864805214 
1989	 0.484967690494138 
1990	 0.485876727787532 
1991	 0.486829645013358 
1992	 0.487854334677939 
1993	 0.488955361605202 
1994	 0.490002232557737 
1995	 0.491121827827902 
1996	 0.492247599308865 
1997	 0.493364567881988 
1998	 0.494520346552868 
1999	 0.495742039157304 
2000	 0.496889666861483 
2001	 0.498078999882487 
2002	 0.499150424622759 
2003	 0.500152711173116 
2004	 0.501131120257742 
2005	 0.502024676946262 
2006	 0.502906552896844 
2007	 0.503789437821357 
2008	 0.504593917322739 
2009	 0.505360956287626 
2010	 0.506109290425802 
2011	 0.506731740445495 
2012	 0.507338176354452 
2013	 0.507908955312776 
2014	 0.508408352585766 
2015	 0.50890172054868 
2016	 0.509404661547019 
2017	 0.509820851734728 
2018	 0.510199198419018 
2019	 0.510513268850238 
2020	 0.510748529511084 
2021	 0.510953482490342 
2022	 0.511127290255576 
2023	 0.511229681130959 
2024	 0.51129323730977 
2025	 0.511326700650325 
2026	 0.511298841369537 
2027	 0.511204693306555 
2028	 0.511087234905246 
2029	 0.510916702445409 
2030	 0.510722747291985 
2031	 0.51050490751148 
2032	 0.510239719252505 
2033	 0.50991274843603 
2034	 0.509592225222052 
2035	 0.509247063798359 
2036	 0.508865736896729 
2037	 0.508504531698517 
2038	 0.508128885389278 
2039	 0.507726200652135 
2040	 0.507299272054131 
2041	 0.506865674574795 
2042	 0.506395406980837 
2043	 0.505959720843658 
2044	 0.505504929531192 
2045	 0.505097531614324 
2046	 0.504721124772573 
2047	 0.504352149319251 
2048	 0.503999546548503 
2049	 0.503679115403371 
2050	 0.503359508528635 
2051	 0.503096794902167 
2052	 0.502882771974018 
2053	 0.502674815571245 
2054	 0.502531174233715 
2055	 0.50241608907333 
2056	 0.502389649887015 
2057	 0.502427907612052 
2058	 0.502521792842428 
2059	 0.50267522937791 
2060	 0.502904787795326 
2061	 0.503220131856909 
2062	 0.503559377682048 
2063	 0.503988381269454 
2064	 0.50442252299905 
2065	 0.50487157058575 
2066	 0.50534655085497 
2067	 0.505902202075964 
2068	 0.506471334592355 
2069	 0.507050370293746 
2070	 0.507706338644123 
2071	 0.508256875904096 
2072	 0.508778414101002 
2073	 0.509282027952549 
2074	 0.509717487137671 
2075	 0.510184133477103 
2076	 0.510673511573268 
2077	 0.511110402106108 
2078	 0.511556503461062 
2079	 0.511937395950626 
2080	 0.512242234799114 
2081	 0.512556044819755 
2082	 0.512849941470984 
2083	 0.513102213520501 
2084	 0.513362895850055 
2085	 0.513585723485829 
2086	 0.51377213412386 
2087	 0.513915116515672 
2088	 0.514041243973587 
2089	 0.514136664655793 
2090	 0.514213794911434 
2091	 0.514271381155631 
2092	 0.514293481831724 
2093	 0.51427158279575 
2094	 0.51424895525419 
2095	 0.514205297456908 
2096	 0.514144523385874 
2097	 0.514066222824531 
2098	 0.51398840949918 
2099	 0.513895530216038 
2100	 0.513766595191645 
2101	 0.513603895723471 
2102	 0.513418369465255 
2103	 0.513209565157475 
2104	 0.512948435122342 
2105	 0.51270047499234 
2106	 0.512455718132007 
2107	 0.512182519442072 
2108	 0.511894887675106 
2109	 0.51157687626362 
2110	 0.511238307557422 
2111	 0.510874135237216 
2112	 0.510459989924094 
2113	 0.510062438201315 
2114	 0.509650565329047 
2115	 0.509233380440351 
2116	 0.50880042957252 
2117	 0.508403431496388 
2118	 0.507984361450155 
2119	 0.507559542665284 
2120	 0.507123415989065 
2121	 0.506670910249407 
2122	 0.506245303676673 
2123	 0.505806933228711 
2124	 0.505402008988366 
2125	 0.505044514761221 
2126	 0.504655407940556 
2127	 0.504243846576054 
2128	 0.503874680001452 
2129	 0.503521872463913 
2130	 0.503170023987917 
2131	 0.502875604708766 
2132	 0.502531100436492 
2133	 0.502151875995842 
2134	 0.501777493927075 
2135	 0.501392159364667 
2136	 0.500991592935966 
2137	 0.500570210219381 
2138	 0.500132356936241 
2139	 0.499696348718146 
2140	 0.499237851339978 
2141	 0.498784606548672 
2142	 0.49835600087351 
2143	 0.497878995065182 
2144	 0.497357708717477 
2145	 0.496861426257886 
2146	 0.496338653544984 
2147	 0.495845379386878 
2148	 0.495390564407703 
2149	 0.494907314152844 
2150	 0.494432688163488 
2151	 0.493936433242314 
2152	 0.493401913621136 
2153	 0.492892352949905 
2154	 0.492387623244383 
2155	 0.491851058520618 
2156	 0.49131769201882 
2157	 0.490785988485156 
2158	 0.490239943349712 
2159	 0.48968880370367 
2160	 0.489106833496628 
2161	 0.488509995845505 
2162	 0.487903114836581 
2163	 0.487228020235864 
2164	 0.486636546639148 
2165	 0.486071440745156 
2166	 0.485525066391543 
2167	 0.485034228993593 
2168	 0.484532583929513 
2169	 0.484016509826362 
2170	 0.483541395839943 
2171	 0.483062597504408 
2172	 0.482648521709959 
2173	 0.4822794882923 
2174	 0.481957757679905 
2175	 0.481674658442517 
2176	 0.481412682747522 
2177	 0.481172093043423 
2178	 0.480960635106205 
2179	 0.480754824028099 
2180	 0.480573701755605 
2181	 0.480391822945189 
2182	 0.480220778559682 
2183	 0.480044616742182 
2184	 0.479874805761501 
2185	 0.47971201020589 
2186	 0.47955832877747 
2187	 0.479390963135859 
2188	 0.479214492077051 
2189	 0.479058299182166 
2190	 0.478923670493791 
2191	 0.478747940910874 
2192	 0.47857406251961 
2193	 0.478386174616208 
2194	 0.478159994313711 
2195	 0.477928094178634 
2196	 0.477705636711819 
2197	 0.477449934477836 
2198	 0.477180380238686 
2199	 0.476928857768632 
2200	 0.476654203707774 
2201	 0.47639919314584 
2202	 0.476069077396359 
2203	 0.475687340857894 
2204	 0.475312757276252 
2205	 0.474887261081394 
2206	 0.474498152409321 
2207	 0.474112598442115 
2208	 0.473739218945479 
2209	 0.473367117443772 
2210	 0.473020918847273 
2211	 0.472687281099658 
2212	 0.472386076492986 
2213	 0.472116137485503 
2214	 0.47184783289809 
2215	 0.471608905002664 
2216	 0.471367735355285 
2217	 0.471143017833699 
2218	 0.470903151408148 
2219	 0.470661952628519 
2220	 0.47041986818189 
2221	 0.470162815435373 
2222	 0.469915983584816 
2223	 0.469695827044156 
2224	 0.469424653188923 
2225	 0.469124098597006 
2226	 0.468774552115643 
2227	 0.46832049934761 
2228	 0.467803136238699 
2229	 0.467179050248343 
2230	 0.466436412332818 
2231	 0.465652863456305 
2232	 0.464787306805508 
2233	 0.463855380855316 
2234	 0.462904606176203 
2235	 0.461780477126126 
2236	 0.46052316429643 
2237	 0.459206120229564 
2238	 0.457713733478212 
2239	 0.45624872694498 
2240	 0.454776796103893 
2241	 0.45319394949061 
2242	 0.451596820013857 
2243	 0.449845088419482 
2244	 0.447914768166258 
2245	 0.445998319169863 
2246	 0.443928489113436 
2247	 0.441921529813753 
2248	 0.43998468997899 
2249	 0.437948298336417 
2250	 0.435859522852816 
2251	 0.433793970216686 
2252	 0.431577516667005 
2253	 0.429351597704088 
2254	 0.427121153754789 
2255	 0.424870431421257 
2256	 0.422751719980664 
2257	 0.420632800812592 
2258	 0.418550167096247 
2259	 0.416572422942397 
2260	 0.414478827401724 
2261	 0.41231266402977 
2262	 0.410265599654363 
2263	 0.408174392285025 
2264	 0.406212531743138 
2265	 0.404394276747245 
2266	 0.402527049304448 
2267	 0.400710749971059 
2268	 0.398875027967816 
2269	 0.397009439984237 
2270	 0.395238216481498 
2271	 0.393459896068687 
2272	 0.391788586255034 
2273	 0.390255749207074 
2274	 0.388680571559521 
2275	 0.387206552490766 
2276	 0.385637335730422 
2277	 0.384046374769877 
2278	 0.382405536853959 
2279	 0.380658550754721 
2280	 0.378946197075499 
2281	 0.377278577289531 
2282	 0.375495878446078 
2283	 0.373687299071272 
2284	 0.371839574633229 
2285	 0.369743630359567 
2286	 0.367644730664214 
2287	 0.365449297841752 
2288	 0.363128542818853 
2289	 0.360926927384307 
2290	 0.358574959002857 
2291	 0.356213818938623 
2292	 0.353881387629012 
2293	 0.351283754353064 
2294	 0.348744928470287 
2295	 0.346233082696339 
2296	 0.343632478834678 
2297	 0.341327553257072 
2298	 0.339157700413769 
2299	 0.337208008594505 
2300	 0.335421498919733 
2301	 0.333947684315593 
2302	 0.33266589518286 
2303	 0.331772700581627 
2304	 0.331161122475247 
2305	 0.33096619395868 
2306	 0.331162501185932 
2307	 0.331706474695347 
2308	 0.332636688210253 
2309	 0.333965495185742 
2310	 0.335770210019116 
2311	 0.337776745331491 
2312	 0.340358930556985 
2313	 0.342807286488483 
2314	 0.345518261938959 
2315	 0.348083357810669 
2316	 0.350692326316922 
2317	 0.35313448135213 
2318	 0.355648865747292 
2319	 0.357735492104175 
2320	 0.359627305956147 
2321	 0.361217190564256 
2322	 0.362378753599467 
2323	 0.363422322512898 
2324	 0.364248050161845 
2325	 0.364865491628224 
2326	 0.365258738873491 
2327	 0.365459280294225 
2328	 0.365392343132344 
2329	 0.365180924608697 
2330	 0.364763426135851 
2331	 0.364194729226928 
2332	 0.363466229784122 
2333	 0.362548969864251 
2334	 0.361404163171966 
2335	 0.36007988240903 
2336	 0.358471659161409 
2337	 0.35673667898924 
2338	 0.355046084366396 
2339	 0.353144809206929 
2340	 0.351321232941939 
2341	 0.34959722732148 
2342	 0.347803848760348 
2343	 0.346260773045964 
2344	 0.344990145666899 
2345	 0.343998889526301 
2346	 0.343399685762024 
2347	 0.343292171033573 
2348	 0.343574878225111 
2349	 0.344354301038216 
2350	 0.345613375038886 
2351	 0.3471541077728 
2352	 0.349008232010597 
2353	 0.35112658023136 
2354	 0.353175315611221 
2355	 0.35519908856025 
2356	 0.357055136783787 
2357	 0.358575038617606 
2358	 0.36000015366192 
2359	 0.361150453168841 
2360	 0.362048396660389 
2361	 0.362739540475321 
2362	 0.3631248330423 
2363	 0.363352344833526 
2364	 0.363587157190897 
2365	 0.363743495438115 
2366	 0.363874649985796 
2367	 0.364067391917172 
2368	 0.364169389239518 
2369	 0.364228852772953 
2370	 0.364316794342418 
2371	 0.364346191889386 
2372	 0.36439697434219 
2373	 0.364474090712785 
2374	 0.364508147405694 
2375	 0.364602334982076 
2376	 0.36471956580079 
2377	 0.364820038341955 
2378	 0.364952929650207 
2379	 0.365039681911388 
2380	 0.365075782713592 
2381	 0.365184280242804 
2382	 0.365305640666895 
2383	 0.365483627547606 
2384	 0.365580708656889 
2385	 0.36563558160459 
2386	 0.365727838614056 
2387	 0.365797134824685 
2388	 0.365906628836886 
2389	 0.366100091975624 
2390	 0.366226070890419 
2391	 0.366309789637901 
2392	 0.366397012550897 
2393	 0.366478537396918 
2394	 0.366540659439214 
2395	 0.366564143204468 
2396	 0.366589866854323 
2397	 0.366593654544724 
2398	 0.366665676709792 
2399	 0.36678108607213 
2400	 0.366853270028309 
2401	 0.366932004813153 
2402	 0.366974959912939 
2403	 0.367088289536869 
2404	 0.36728199208609 
2405	 0.367472958552858 
2406	 0.367528965339556 
2407	 0.36759119261787 
2408	 0.367672239787002 
2409	 0.367620827224861 
2410	 0.367748795579608 
2411	 0.367899743819261 
2412	 0.367961991210613 
2413	 0.368194978757539 
2414	 0.368311670349001 
2415	 0.368387746798557 
2416	 0.368594518964062 
2417	 0.368655907135291 
2418	 0.368677792881635 
2419	 0.368743202537123 
2420	 0.36868570367438 
2421	 0.368686888673303 
2422	 0.368742663023327 
2423	 0.368730168700237 
2424	 0.36883191709175 
2425	 0.368945451615758 
2426	 0.36904743240984 
2427	 0.369302993164626 
2428	 0.369415658722984 
2429	 0.369349137598797 
2430	 0.369406569327057 
2431	 0.369376668301596 
2432	 0.369169266736637 
2433	 0.369020000975232 
2434	 0.368846487025546 
2435	 0.368588997177584 
2436	 0.368457242869807 
2437	 0.368455431574636 
2438	 0.368398034210733 
2439	 0.368333055615446 
2440	 0.368345060106871 
2441	 0.368294610421175 
2442	 0.368245360503217 
2443	 0.368221851055842 
2444	 0.368084101051991 
2445	 0.367952154608161 
2446	 0.36773982378737 
2447	 0.367395856919755 
2448	 0.367128209715179 
2449	 0.366826466107733 
2450	 0.366467691630378 
2451	 0.366142438311115 
2452	 0.365709764508055 
2453	 0.365299505129704 
2454	 0.364946461706086 
2455	 0.364526208361393 
2456	 0.364117967638074 
2457	 0.363677683390346 
2458	 0.363292108125181 
2459	 0.363020695121193 
2460	 0.362740078702221 
2461	 0.362513094160257 
2462	 0.362306994507017 
2463	 0.3619856022075 
2464	 0.361768801331764 
2465	 0.361669478410417 
2466	 0.361505332251473 
2467	 0.36126763270045 
2468	 0.361087660517814 
2469	 0.360948366801241 
2470	 0.360645235727861 
2471	 0.360544985176831 
2472	 0.360558842595037 
2473	 0.360491974877851 
2474	 0.360646570856949 
2475	 0.360904068880779 
2476	 0.361135139417442 
2477	 0.361246249142556 
2478	 0.36128211335684 
2479	 0.361427937310519 
2480	 0.361537670082973 
2481	 0.361875351177225 
2482	 0.362441748433737 
2483	 0.362718706999781 
2484	 0.363081639983795 
2485	 0.363360851776466 
2486	 0.363678592822365 
2487	 0.364151794329374 
2488	 0.364703680016699 
2489	 0.365012392192004 
2490	 0.365204213455139 
2491	 0.365405476211387 
2492	 0.36550946525079 
2493	 0.365741409093704 
2494	 0.366152478925602 
2495	 0.366480552155178 
2496	 0.366832152866255 
2497	 0.367344466485788 
2498	 0.367643809534006 
2499	 0.36804394815798 
2500	 0.368688566133261 
