Wavelength	spectrum00000.asd
350	 0.337420113483787 
351	 0.335797969235773 
352	 0.335768197873941 
353	 0.338431789174574 
354	 0.34160206954036 
355	 0.343221508504388 
356	 0.344500544520404 
357	 0.346459104678096 
358	 0.346959345316882 
359	 0.347897598296989 
360	 0.349751253595216 
361	 0.352085388653392 
362	 0.353887883199318 
363	 0.355841405220321 
364	 0.358272348609768 
365	 0.360795232673768 
366	 0.364516292094943 
367	 0.367477296203971 
368	 0.368549774140702 
369	 0.371464236329374 
370	 0.374537153006928 
371	 0.377236070839601 
372	 0.379753462566971 
373	 0.382333685261345 
374	 0.385448051782793 
375	 0.38886164883415 
376	 0.391355753895764 
377	 0.394278608613559 
378	 0.396844747049277 
379	 0.398627944924347 
380	 0.402370678087128 
381	 0.405735640746066 
382	 0.408030433174251 
383	 0.40986872952843 
384	 0.412969316477453 
385	 0.416192585095592 
386	 0.418812000189022 
387	 0.421261462701004 
388	 0.423453706092913 
389	 0.426357863932519 
390	 0.430294650823963 
391	 0.432236929258632 
392	 0.434694085511773 
393	 0.437570439963515 
394	 0.439229215675983 
395	 0.441844610341413 
396	 0.444815892292849 
397	 0.447503384883186 
398	 0.449834796947997 
399	 0.45210775728173 
400	 0.454199937924789 
401	 0.456021670639779 
402	 0.458007246954629 
403	 0.460632790204831 
404	 0.463616126087473 
405	 0.466162478501559 
406	 0.468474914220321 
407	 0.47048460484306 
408	 0.472365949363749 
409	 0.474848940962285 
410	 0.477071076012088 
411	 0.479187160931369 
412	 0.481564709939001 
413	 0.483870510020286 
414	 0.485885731307574 
415	 0.487825077832931 
416	 0.490221794362771 
417	 0.492133399442068 
418	 0.494079046970063 
419	 0.496398716228701 
420	 0.498433719086438 
421	 0.500348133466941 
422	 0.502288531219085 
423	 0.504384792463371 
424	 0.506624562107573 
425	 0.508780214067046 
426	 0.510805393275929 
427	 0.512871820809204 
428	 0.514877364257543 
429	 0.516842959520287 
430	 0.518799594108294 
431	 0.520708018578569 
432	 0.522812807401117 
433	 0.524942635541233 
434	 0.526755567577715 
435	 0.528651187688878 
436	 0.530591646191696 
437	 0.532491727888483 
438	 0.534256439166392 
439	 0.536230731358435 
440	 0.538268360840835 
441	 0.540146237280997 
442	 0.541989449789345 
443	 0.543814913490235 
444	 0.545642073292982 
445	 0.547492278445897 
446	 0.549272198313903 
447	 0.550990606515335 
448	 0.552687771395912 
449	 0.554418728133711 
450	 0.556164920988016 
451	 0.557936088123611 
452	 0.559724103003363 
453	 0.561376354827812 
454	 0.5630292654625 
455	 0.564681802275642 
456	 0.566171049635292 
457	 0.567762120854629 
458	 0.569383690414583 
459	 0.570943447141032 
460	 0.572535252354377 
461	 0.574002005775936 
462	 0.575378111103066 
463	 0.576797264242751 
464	 0.578202785852544 
465	 0.579528726159823 
466	 0.580840742359136 
467	 0.582421031108498 
468	 0.583781370391222 
469	 0.58503123712079 
470	 0.586396399538517 
471	 0.587774031827139 
472	 0.589063724395709 
473	 0.590302092551607 
474	 0.591633877208942 
475	 0.593134625771977 
476	 0.594514862994528 
477	 0.595639237511995 
478	 0.596819611627618 
479	 0.598111416442251 
480	 0.599414877569481 
481	 0.600602945345198 
482	 0.601895376233071 
483	 0.603104015776232 
484	 0.604187230704499 
485	 0.605299470698085 
486	 0.606548261107566 
487	 0.607824074059029 
488	 0.609015008123369 
489	 0.61019429795023 
490	 0.611277822448059 
491	 0.612364423339586 
492	 0.613626112816537 
493	 0.614843610645995 
494	 0.615917916753574 
495	 0.616902307717059 
496	 0.618072158732947 
497	 0.61921238840333 
498	 0.620315274720821 
499	 0.621422641596963 
500	 0.622511843344908 
501	 0.623584082247505 
502	 0.624622610676957 
503	 0.625601130474646 
504	 0.626631524146709 
505	 0.62765374642612 
506	 0.62862635213029 
507	 0.62963167993282 
508	 0.630624237765647 
509	 0.631597003303903 
510	 0.632559583289696 
511	 0.633524187488579 
512	 0.634443113038703 
513	 0.635339661607502 
514	 0.636338061493983 
515	 0.637263627964883 
516	 0.638156179199427 
517	 0.639085334573573 
518	 0.640005833385785 
519	 0.641012083085415 
520	 0.642019847542361 
521	 0.642842253870019 
522	 0.643650957895979 
523	 0.644492540664033 
524	 0.645386188629121 
525	 0.646357713238541 
526	 0.647217614220689 
527	 0.648066293232187 
528	 0.649051044161291 
529	 0.649940404989663 
530	 0.650746801040815 
531	 0.651528139766739 
532	 0.652367674485492 
533	 0.653162323529359 
534	 0.653905911386838 
535	 0.654575709054734 
536	 0.655004383286109 
537	 0.655567671629439 
538	 0.656293589303832 
539	 0.656994082024929 
540	 0.65751136738263 
541	 0.657994944808703 
542	 0.658549306773555 
543	 0.659148436934827 
544	 0.659720707070294 
545	 0.660161961941839 
546	 0.66049436672952 
547	 0.661287346422382 
548	 0.662275224060859 
549	 0.663361663818586 
550	 0.66462575439186 
551	 0.665935103447955 
552	 0.667292537943917 
553	 0.668732210603282 
554	 0.670309321375631 
555	 0.671850426726318 
556	 0.673351220110353 
557	 0.67486590270412 
558	 0.676205861964642 
559	 0.677538338881689 
560	 0.678963297295062 
561	 0.680449409522583 
562	 0.681569388848049 
563	 0.682105184124716 
564	 0.682082604787949 
565	 0.682044451225214 
566	 0.682127675762015 
567	 0.682276450069502 
568	 0.682346667400827 
569	 0.683011506282621 
570	 0.684179401440123 
571	 0.685608967069234 
572	 0.687072638396276 
573	 0.688273381284771 
574	 0.689118467172133 
575	 0.689598969154544 
576	 0.689560826468559 
577	 0.688987335060787 
578	 0.688075610556406 
579	 0.687244449235128 
580	 0.68683879463764 
581	 0.686930233919167 
582	 0.687457072680004 
583	 0.68829456757546 
584	 0.689134127986867 
585	 0.690040476152041 
586	 0.691209548900858 
587	 0.691793782220368 
588	 0.69204073690423 
589	 0.692338657170064 
590	 0.693064988074615 
591	 0.693893524232824 
592	 0.694835000760149 
593	 0.695966842800928 
594	 0.697251341711302 
595	 0.698332885157397 
596	 0.699126254440839 
597	 0.699793168065356 
598	 0.700314767635683 
599	 0.700765117698082 
600	 0.701213618231516 
601	 0.7016805559629 
602	 0.702209458895629 
603	 0.702770998357442 
604	 0.703311161445151 
605	 0.703870404233846 
606	 0.704457295999393 
607	 0.705041793338799 
608	 0.705550127111417 
609	 0.705971805273836 
610	 0.706335155016865 
611	 0.706688098555744 
612	 0.707088638856254 
613	 0.707541702180992 
614	 0.708025153774425 
615	 0.708494826596495 
616	 0.70887009197179 
617	 0.709287564855644 
618	 0.709792468508156 
619	 0.710215758116382 
620	 0.710677637625803 
621	 0.711150448673977 
622	 0.711582459768588 
623	 0.712059101009838 
624	 0.712448520914752 
625	 0.712779780971696 
626	 0.713226374782989 
627	 0.713579978751673 
628	 0.713954884113816 
629	 0.714441602926729 
630	 0.714935941995926 
631	 0.715327118603143 
632	 0.715681583055549 
633	 0.716125091396734 
634	 0.716554631457172 
635	 0.716911149725322 
636	 0.71719728163189 
637	 0.717485126652624 
638	 0.717911983228753 
639	 0.718406724492559 
640	 0.718843241559612 
641	 0.719098844865521 
642	 0.719422236659416 
643	 0.719892563059064 
644	 0.720434850788604 
645	 0.720651572575224 
646	 0.720896830242202 
647	 0.72135273987777 
648	 0.72177014187476 
649	 0.722112223315757 
650	 0.722374509667534 
651	 0.722606078615493 
652	 0.722967198573355 
653	 0.723452618990796 
654	 0.723909573784605 
655	 0.724109424941182 
656	 0.724421179227302 
657	 0.72481799577253 
658	 0.725202833317552 
659	 0.725450937470969 
660	 0.725929872762811 
661	 0.726412685247365 
662	 0.726573434812687 
663	 0.726863679526061 
664	 0.727262146191433 
665	 0.727624939759966 
666	 0.727739559227535 
667	 0.728108587857311 
668	 0.728553095776861 
669	 0.728859335952337 
670	 0.729069482949199 
671	 0.729474266072041 
672	 0.729944990291972 
673	 0.730204932143505 
674	 0.730445556957753 
675	 0.730784259397722 
676	 0.73115819359273 
677	 0.731304658001135 
678	 0.731645331442099 
679	 0.731970857047217 
680	 0.732115145529255 
681	 0.732521511347719 
682	 0.732864841411549 
683	 0.733082260748104 
684	 0.733278722937973 
685	 0.733616494607245 
686	 0.734018467628227 
687	 0.734369190264217 
688	 0.734541447213873 
689	 0.734774054196632 
690	 0.735060702360322 
691	 0.735345160404736 
692	 0.735656367377819 
693	 0.735910014851341 
694	 0.736135841337056 
695	 0.736421346556109 
696	 0.7366429793077 
697	 0.736937051562154 
698	 0.737322670359804 
699	 0.737597638612298 
700	 0.737682386407381 
701	 0.737833002154613 
702	 0.738267098919843 
703	 0.738687304096285 
704	 0.738950470537866 
705	 0.739105952217423 
706	 0.739321375083118 
707	 0.739457817819144 
708	 0.739666627464156 
709	 0.740007608778167 
710	 0.740340973921559 
711	 0.740506082827907 
712	 0.740644480049114 
713	 0.740934453454789 
714	 0.741296163016347 
715	 0.74158921895518 
716	 0.741765762814143 
717	 0.741872107228225 
718	 0.7421423802804 
719	 0.742412320602018 
720	 0.742609880314924 
721	 0.742921682589538 
722	 0.743151871610626 
723	 0.743274684526369 
724	 0.743377422491339 
725	 0.743766584493255 
726	 0.744150830661142 
727	 0.744392810299389 
728	 0.744506020457038 
729	 0.744688431687858 
730	 0.744968380646415 
731	 0.745273492537773 
732	 0.745407948402321 
733	 0.745706800986375 
734	 0.746051788170727 
735	 0.746276222263002 
736	 0.746576015447463 
737	 0.746786099394607 
738	 0.746964001002904 
739	 0.747276811152111 
740	 0.747419820608561 
741	 0.747540335599461 
742	 0.747735319404812 
743	 0.747942816080956 
744	 0.748160185186297 
745	 0.748355986406481 
746	 0.748500249864665 
747	 0.748569758995483 
748	 0.748732721980873 
749	 0.748972942368866 
750	 0.749180887329536 
751	 0.749494303378851 
752	 0.749610746504777 
753	 0.749547114254424 
754	 0.749771167227181 
755	 0.750095444848847 
756	 0.75030957767187 
757	 0.750339602004031 
758	 0.75050929212948 
759	 0.750750292112831 
760	 0.750982027305769 
761	 0.751133286450188 
762	 0.751266625609197 
763	 0.751460678844785 
764	 0.751677032034567 
765	 0.751769679268608 
766	 0.752041016796767 
767	 0.752294789060237 
768	 0.752392366895863 
769	 0.752556448858456 
770	 0.752653472108141 
771	 0.752802048582287 
772	 0.753130102402223 
773	 0.753376781037837 
774	 0.753530701565389 
775	 0.753617479904774 
776	 0.753695391688509 
777	 0.753890483512992 
778	 0.754246459123372 
779	 0.754631511237124 
780	 0.754652906552395 
781	 0.754703830480739 
782	 0.754822844565239 
783	 0.754959825791561 
784	 0.755129718275212 
785	 0.755353295124253 
786	 0.755612989132741 
787	 0.755852512443885 
788	 0.755926121560238 
789	 0.755947880671648 
790	 0.756047341239052 
791	 0.756325656929523 
792	 0.75661094483363 
793	 0.756808502593308 
794	 0.756922730303735 
795	 0.757151896318374 
796	 0.757320289941468 
797	 0.757407074599047 
798	 0.757472650965703 
799	 0.757658389980689 
800	 0.757859025344265 
801	 0.758036984377553 
802	 0.758223875994921 
803	 0.75850680301605 
804	 0.758722127898086 
805	 0.758863904102217 
806	 0.759204725885227 
807	 0.759419838079039 
808	 0.759534650827432 
809	 0.759648564450326 
810	 0.759789413023539 
811	 0.759977424694016 
812	 0.760173233620251 
813	 0.760326919881865 
814	 0.760515114827558 
815	 0.760594691071681 
816	 0.760650632061763 
817	 0.760936589392772 
818	 0.761078603482173 
819	 0.761223757792503 
820	 0.761438011815865 
821	 0.761527063359252 
822	 0.761536957136892 
823	 0.761662198577218 
824	 0.762002782790705 
825	 0.762280321936997 
826	 0.762301245728812 
827	 0.762255349492278 
828	 0.762446126241589 
829	 0.762665660595863 
830	 0.762752918581243 
831	 0.762780493326013 
832	 0.762986841404462 
833	 0.763068685766986 
834	 0.763199718537427 
835	 0.763420540921962 
836	 0.76346848754807 
837	 0.763575116123309 
838	 0.7637321923602 
839	 0.763843274016169 
840	 0.763704121474756 
841	 0.763857910180845 
842	 0.764186532967502 
843	 0.764334347646065 
844	 0.76430421423429 
845	 0.764196575964242 
846	 0.764192497215952 
847	 0.764463775286588 
848	 0.764691624208272 
849	 0.764845781287197 
850	 0.764979033085835 
851	 0.765190080785245 
852	 0.765237280637061 
853	 0.765341692280686 
854	 0.765606134473559 
855	 0.765677286424088 
856	 0.765824910682195 
857	 0.765924391241575 
858	 0.765897306882556 
859	 0.766298403714917 
860	 0.766508880664629 
861	 0.766509070764115 
862	 0.766580420777408 
863	 0.766682929207287 
864	 0.766744576472083 
865	 0.76677098150916 
866	 0.766837907344337 
867	 0.766960013046091 
868	 0.76717590598525 
869	 0.76742483749885 
870	 0.767523168465059 
871	 0.767620242517698 
872	 0.767715121990344 
873	 0.767809184070257 
874	 0.767984937532225 
875	 0.768086184528237 
876	 0.768193586663894 
877	 0.768410466425868 
878	 0.768648914296922 
879	 0.768811923636034 
880	 0.768870688602008 
881	 0.768862448428787 
882	 0.768919533457537 
883	 0.769065523106472 
884	 0.769181456820358 
885	 0.769100391906259 
886	 0.769122696871809 
887	 0.769281501352568 
888	 0.769504088245853 
889	 0.769642783897436 
890	 0.769693644262386 
891	 0.769729991992772 
892	 0.769808329383228 
893	 0.769925820133827 
894	 0.769932306547083 
895	 0.7700198515565 
896	 0.770278883273642 
897	 0.770317209198769 
898	 0.770275212051772 
899	 0.770291579141052 
900	 0.770457950813366 
901	 0.770676568846289 
902	 0.770907049226628 
903	 0.770989006780432 
904	 0.770845480087351 
905	 0.771090972167072 
906	 0.771392536536952 
907	 0.771547797797377 
908	 0.771551891001219 
909	 0.771758433143363 
910	 0.772002218246573 
911	 0.772179069119393 
912	 0.772307822210577 
913	 0.772377498147081 
914	 0.772523320773834 
915	 0.772764128472874 
916	 0.772938939569542 
917	 0.773097780956956 
918	 0.773126845320637 
919	 0.773078517654509 
920	 0.773343066978622 
921	 0.77369911960951 
922	 0.773924028687287 
923	 0.773959487435926 
924	 0.774154350582591 
925	 0.774287861796457 
926	 0.7743888648155 
927	 0.774550320390818 
928	 0.774820359511337 
929	 0.774919704890879 
930	 0.774973624487082 
931	 0.775178158606937 
932	 0.775213196799752 
933	 0.775302489861652 
934	 0.775484134418364 
935	 0.77568022717308 
936	 0.775853889436512 
937	 0.775987681700726 
938	 0.776057849814655 
939	 0.776070127171026 
940	 0.776241863706761 
941	 0.776405989800955 
942	 0.77647615114731 
943	 0.776485364077103 
944	 0.776549071382291 
945	 0.776627579510495 
946	 0.776711573728283 
947	 0.77683129149101 
948	 0.776855691348995 
949	 0.776848026348015 
950	 0.776842703552666 
951	 0.776799884335171 
952	 0.776705851100072 
953	 0.77661738507368 
954	 0.776597113319445 
955	 0.776685427132375 
956	 0.776736356423731 
957	 0.776858913122649 
958	 0.777040842107576 
959	 0.776988780297185 
960	 0.776958699430083 
961	 0.777015669406858 
962	 0.777116364055122 
963	 0.777105295086286 
964	 0.77717001996169 
965	 0.777252361702466 
966	 0.777276454579143 
967	 0.777274296950208 
968	 0.777368466915875 
969	 0.777527274653681 
970	 0.777649696784732 
971	 0.777595297603353 
972	 0.77758962993867 
973	 0.777586586245658 
974	 0.777522968480267 
975	 0.777522173953144 
976	 0.7777178762775 
977	 0.777817857888125 
978	 0.777625301968216 
979	 0.777658814115877 
980	 0.777708291202863 
981	 0.777718470461741 
982	 0.777676676677422 
983	 0.77755043646422 
984	 0.777418046497978 
985	 0.777418282002928 
986	 0.777612355483925 
987	 0.777779654900015 
988	 0.777881778711879 
989	 0.777895043814905 
990	 0.777859332576225 
991	 0.777964588479902 
992	 0.777992103152928 
993	 0.778084937050217 
994	 0.778389301102535 
995	 0.778612483094193 
996	 0.778792749751237 
997	 0.778993197096505 
998	 0.779239003435447 
999	 0.779371885421612 
1000	 0.77964083128383 
1001	 0.754674417339954 
1002	 0.754934987292438 
1003	 0.755189123448728 
1004	 0.755443173566672 
1005	 0.755701657829995 
1006	 0.755968925764732 
1007	 0.756243182623931 
1008	 0.756508064808683 
1009	 0.756763217858314 
1010	 0.757029580677295 
1011	 0.757303057250491 
1012	 0.757569012532862 
1013	 0.757844722038807 
1014	 0.758116585036538 
1015	 0.758377113576307 
1016	 0.758630404159342 
1017	 0.758918204820706 
1018	 0.759182801851685 
1019	 0.759432964690494 
1020	 0.759685487239893 
1021	 0.759939433796025 
1022	 0.760177274121927 
1023	 0.760453405014229 
1024	 0.760748907161133 
1025	 0.761033379111849 
1026	 0.761322044319265 
1027	 0.761618522007061 
1028	 0.761913187461198 
1029	 0.762242840255249 
1030	 0.762538348756702 
1031	 0.7627887636991 
1032	 0.76299022351536 
1033	 0.763212042435753 
1034	 0.763469405745295 
1035	 0.763707118830901 
1036	 0.763938181306502 
1037	 0.764193897045261 
1038	 0.764390786450642 
1039	 0.764523270468836 
1040	 0.764711732361537 
1041	 0.76489484496944 
1042	 0.765082525013926 
1043	 0.765281238200853 
1044	 0.765535116474265 
1045	 0.765733172557478 
1046	 0.765892663302219 
1047	 0.766058067021267 
1048	 0.766177134237801 
1049	 0.766245958234888 
1050	 0.766352838593978 
1051	 0.766532563160798 
1052	 0.766699941898564 
1053	 0.766834421329346 
1054	 0.766995552665363 
1055	 0.767121037529479 
1056	 0.767181477245435 
1057	 0.767261263799725 
1058	 0.767349030843433 
1059	 0.767451064221113 
1060	 0.767516973705272 
1061	 0.767547546683882 
1062	 0.767581761067308 
1063	 0.767643533325873 
1064	 0.767712509340903 
1065	 0.767797608065272 
1066	 0.767933420805615 
1067	 0.768060474445979 
1068	 0.7681618006018 
1069	 0.7682524901991 
1070	 0.768328767359013 
1071	 0.76838325263507 
1072	 0.768424466144364 
1073	 0.768472192030401 
1074	 0.768551764806585 
1075	 0.768643583960373 
1076	 0.768738035626422 
1077	 0.768833026879394 
1078	 0.76891124363102 
1079	 0.768960465639319 
1080	 0.769012387687676 
1081	 0.769078856563835 
1082	 0.769122612384339 
1083	 0.769179695951353 
1084	 0.76923819728795 
1085	 0.769314009226909 
1086	 0.769377384704408 
1087	 0.769448663400292 
1088	 0.769494352769403 
1089	 0.769545805110441 
1090	 0.76958020381545 
1091	 0.76963811996652 
1092	 0.769733834742783 
1093	 0.769839923758406 
1094	 0.769933252777885 
1095	 0.769989676997827 
1096	 0.770023793062886 
1097	 0.770023543115865 
1098	 0.770009175212796 
1099	 0.769992928567745 
1100	 0.769982030026854 
1101	 0.769992589890958 
1102	 0.770000007973439 
1103	 0.770027272563206 
1104	 0.770072495718763 
1105	 0.77012999907836 
1106	 0.770188399185188 
1107	 0.770237593204014 
1108	 0.770238391979543 
1109	 0.770230507891074 
1110	 0.770218089125041 
1111	 0.770204511628846 
1112	 0.770216496469674 
1113	 0.770223703446954 
1114	 0.770215251080102 
1115	 0.770191451672959 
1116	 0.770189031889176 
1117	 0.770207980721075 
1118	 0.770207708571966 
1119	 0.770216269456294 
1120	 0.770211108835327 
1121	 0.770191539268394 
1122	 0.770158476045079 
1123	 0.770146141707051 
1124	 0.770126800342688 
1125	 0.770113772236332 
1126	 0.77008909533502 
1127	 0.770028978181312 
1128	 0.769989020411876 
1129	 0.769946070659407 
1130	 0.769872606037384 
1131	 0.76981292581228 
1132	 0.769749788787188 
1133	 0.769670096053976 
1134	 0.769588839354198 
1135	 0.769513556973824 
1136	 0.769459210875732 
1137	 0.769369187493617 
1138	 0.76929167310478 
1139	 0.769153844645678 
1140	 0.768978891107961 
1141	 0.768770754743904 
1142	 0.768544697066041 
1143	 0.768292930349132 
1144	 0.768020587240128 
1145	 0.767708092135872 
1146	 0.767373155111714 
1147	 0.767015012873288 
1148	 0.766625863353289 
1149	 0.766241685188213 
1150	 0.765807404510341 
1151	 0.765325867566213 
1152	 0.764838942095722 
1153	 0.764335843238084 
1154	 0.763799611325656 
1155	 0.763268926647242 
1156	 0.762663394106688 
1157	 0.762009789632158 
1158	 0.761322398594984 
1159	 0.760577821545869 
1160	 0.759804270513702 
1161	 0.759008032008592 
1162	 0.758174524251608 
1163	 0.757339144422331 
1164	 0.75646279602421 
1165	 0.755596689993327 
1166	 0.754791376674962 
1167	 0.753957914512336 
1168	 0.753151996418504 
1169	 0.752374048515159 
1170	 0.751588454733242 
1171	 0.750863445426068 
1172	 0.750173470450286 
1173	 0.74953799226338 
1174	 0.748940625938508 
1175	 0.748413895861783 
1176	 0.747937994464755 
1177	 0.747523330689188 
1178	 0.747176882596997 
1179	 0.746861031830331 
1180	 0.746625182235829 
1181	 0.7464258834527 
1182	 0.746294424406755 
1183	 0.74624201318224 
1184	 0.74621592776808 
1185	 0.746214603175865 
1186	 0.74621667791069 
1187	 0.746238379827194 
1188	 0.746263303640194 
1189	 0.746298003855627 
1190	 0.746341516923288 
1191	 0.746398572183731 
1192	 0.746455159520713 
1193	 0.746528758206053 
1194	 0.746587067961469 
1195	 0.746651537557263 
1196	 0.746695526328397 
1197	 0.746726018408726 
1198	 0.746742974801224 
1199	 0.746762633045017 
1200	 0.746760145392717 
1201	 0.746747972389321 
1202	 0.746747493521644 
1203	 0.746733623074855 
1204	 0.746765455234974 
1205	 0.746865983065697 
1206	 0.746984771746895 
1207	 0.747221755964208 
1208	 0.747535492125448 
1209	 0.747930253142517 
1210	 0.748440368191986 
1211	 0.748970392517022 
1212	 0.749604602861886 
1213	 0.750209775266576 
1214	 0.750871572725668 
1215	 0.751480869549259 
1216	 0.752082133958902 
1217	 0.752651116798764 
1218	 0.753200025984068 
1219	 0.753719871370663 
1220	 0.754176149425917 
1221	 0.754623810557172 
1222	 0.755005508075908 
1223	 0.755346365993501 
1224	 0.755696344404158 
1225	 0.756025932823207 
1226	 0.756352656614273 
1227	 0.756675404872533 
1228	 0.756982337040511 
1229	 0.757269581328808 
1230	 0.75756587534253 
1231	 0.757821183904918 
1232	 0.758147452751105 
1233	 0.75851056318405 
1234	 0.758874418450901 
1235	 0.75927917658422 
1236	 0.759684713026897 
1237	 0.760066648750582 
1238	 0.760500010001987 
1239	 0.760975038001067 
1240	 0.761463814128789 
1241	 0.761985360666109 
1242	 0.76247961375639 
1243	 0.762956088939993 
1244	 0.76342258762017 
1245	 0.763869466508165 
1246	 0.764303635236238 
1247	 0.764711141703934 
1248	 0.765104167601298 
1249	 0.765466129821483 
1250	 0.765788660755768 
1251	 0.76611099772864 
1252	 0.766427341083621 
1253	 0.766710219949166 
1254	 0.766983092824562 
1255	 0.767222088160108 
1256	 0.767407670778782 
1257	 0.767602449387425 
1258	 0.7677849895679 
1259	 0.767954193997701 
1260	 0.768106744692265 
1261	 0.768264580490951 
1262	 0.768408902432605 
1263	 0.768553154174259 
1264	 0.768708660490889 
1265	 0.768882433582214 
1266	 0.769031487409622 
1267	 0.769166687891915 
1268	 0.769319478182163 
1269	 0.76947444019969 
1270	 0.769619570579763 
1271	 0.769784090848959 
1272	 0.76991584048188 
1273	 0.770012845882365 
1274	 0.770125734954965 
1275	 0.770225957641384 
1276	 0.770340804825698 
1277	 0.770470932008858 
1278	 0.770589938572557 
1279	 0.770723446275039 
1280	 0.770829821800636 
1281	 0.770910723531979 
1282	 0.770997528760574 
1283	 0.771059298192618 
1284	 0.771139804010798 
1285	 0.771228843629886 
1286	 0.771333527825673 
1287	 0.771419166452657 
1288	 0.771513275400819 
1289	 0.771581988033505 
1290	 0.771631986125161 
1291	 0.771681810561402 
1292	 0.771727960856255 
1293	 0.771754907826904 
1294	 0.771771428952539 
1295	 0.771777423481237 
1296	 0.771758213915267 
1297	 0.771750644911956 
1298	 0.771752926534836 
1299	 0.771730770719642 
1300	 0.771707068670259 
1301	 0.77166208348788 
1302	 0.771599450568461 
1303	 0.771518105482299 
1304	 0.771425105838924 
1305	 0.771310642753923 
1306	 0.771175114262204 
1307	 0.771021229725062 
1308	 0.77084750271664 
1309	 0.770654154049112 
1310	 0.770465117807898 
1311	 0.770263302602392 
1312	 0.77005638737831 
1313	 0.769856779356305 
1314	 0.769624030980062 
1315	 0.769380203428585 
1316	 0.769102051905658 
1317	 0.768790965011285 
1318	 0.768481461297892 
1319	 0.768137609176063 
1320	 0.767816477080673 
1321	 0.767514432470814 
1322	 0.767183815566713 
1323	 0.766850250136395 
1324	 0.766500397100539 
1325	 0.766126980606485 
1326	 0.765751377583335 
1327	 0.765392537777606 
1328	 0.764984913343765 
1329	 0.764558069812096 
1330	 0.764101795990695 
1331	 0.763594397888614 
1332	 0.763086916452808 
1333	 0.762590972341864 
1334	 0.76203582664484 
1335	 0.761467728273391 
1336	 0.760884222688636 
1337	 0.76027257008411 
1338	 0.759627165919699 
1339	 0.758970968495333 
1340	 0.758312647248501 
1341	 0.757597118163474 
1342	 0.756852093383472 
1343	 0.756065360131139 
1344	 0.755245055365561 
1345	 0.754371274735889 
1346	 0.753432931036729 
1347	 0.752510341822049 
1348	 0.751553676471507 
1349	 0.750587342841883 
1350	 0.749616028223043 
1351	 0.748632855219936 
1352	 0.747612378760749 
1353	 0.746605191759474 
1354	 0.745581781856833 
1355	 0.744597861189901 
1356	 0.743606908654757 
1357	 0.742660163061592 
1358	 0.741726633710235 
1359	 0.740859813549316 
1360	 0.740051327796133 
1361	 0.739256627168036 
1362	 0.738517010413879 
1363	 0.73787199260243 
1364	 0.737225375250533 
1365	 0.736618757466882 
1366	 0.736020072386734 
1367	 0.735460424349162 
1368	 0.734878758974814 
1369	 0.734303137995184 
1370	 0.733727173625239 
1371	 0.733156210505191 
1372	 0.732576183519854 
1373	 0.732004593347841 
1374	 0.731405358806849 
1375	 0.730795936078606 
1376	 0.730157093548442 
1377	 0.72949140070794 
1378	 0.728813521753552 
1379	 0.728073472280215 
1380	 0.727398464619825 
1381	 0.726711398128121 
1382	 0.72608969543302 
1383	 0.725543177204837 
1384	 0.724985324412299 
1385	 0.72449537458794 
1386	 0.723948867534771 
1387	 0.723423164643698 
1388	 0.722821978024337 
1389	 0.722200554370884 
1390	 0.721487282374163 
1391	 0.720711151016738 
1392	 0.719840745131012 
1393	 0.718951438378206 
1394	 0.717946157192904 
1395	 0.716854601354722 
1396	 0.715710689914221 
1397	 0.714428099928412 
1398	 0.713047868501451 
1399	 0.711514664634629 
1400	 0.709864830666998 
1401	 0.708080226744183 
1402	 0.706148048391863 
1403	 0.704101867429228 
1404	 0.701927610998932 
1405	 0.699676294832826 
1406	 0.697320390069433 
1407	 0.69484151524195 
1408	 0.692245443723409 
1409	 0.689571419328432 
1410	 0.686776966479759 
1411	 0.68389775104325 
1412	 0.680941878768277 
1413	 0.6779224913073 
1414	 0.674790729389454 
1415	 0.671609776251572 
1416	 0.668315040204737 
1417	 0.665045049794026 
1418	 0.661692192246182 
1419	 0.658387462459794 
1420	 0.655046305077159 
1421	 0.651844075069419 
1422	 0.64869555815919 
1423	 0.645611828237982 
1424	 0.642717482945902 
1425	 0.639710416951063 
1426	 0.636883244330374 
1427	 0.633963882356721 
1428	 0.630935997397604 
1429	 0.628011405963911 
1430	 0.624766306022777 
1431	 0.621420899056015 
1432	 0.617698470156483 
1433	 0.613742310150585 
1434	 0.609508393639395 
1435	 0.604927698357972 
1436	 0.600197074959261 
1437	 0.595132584822209 
1438	 0.590230530028086 
1439	 0.584983732732946 
1440	 0.58026227329358 
1441	 0.575442304449355 
1442	 0.571482409174942 
1443	 0.56770494095299 
1444	 0.565018537525496 
1445	 0.56301956441697 
1446	 0.561991860697954 
1447	 0.561883190524079 
1448	 0.562528844085617 
1449	 0.564321018480803 
1450	 0.566347825323511 
1451	 0.569306170424354 
1452	 0.572196638965942 
1453	 0.575640426241692 
1454	 0.578791754198502 
1455	 0.582132629539963 
1456	 0.58515867269952 
1457	 0.588072284841836 
1458	 0.590715070232063 
1459	 0.593112653322217 
1460	 0.595333512835326 
1461	 0.597281585469379 
1462	 0.599087846150427 
1463	 0.600698725702709 
1464	 0.602198019515927 
1465	 0.603488201185189 
1466	 0.60474043970134 
1467	 0.605856063933828 
1468	 0.606896083523456 
1469	 0.607909518914496 
1470	 0.608782980370534 
1471	 0.609632744800257 
1472	 0.610440559480692 
1473	 0.611142524793416 
1474	 0.611790290191859 
1475	 0.612279935002351 
1476	 0.612696199315669 
1477	 0.612895733355481 
1478	 0.612943909139621 
1479	 0.612810620749223 
1480	 0.612493815317359 
1481	 0.612028848143104 
1482	 0.611334337377534 
1483	 0.610641630434626 
1484	 0.609740250871788 
1485	 0.608985570550091 
1486	 0.608134243486785 
1487	 0.6075563030125 
1488	 0.606979455114208 
1489	 0.606793081122292 
1490	 0.606817580605211 
1491	 0.60717322200897 
1492	 0.607823097343774 
1493	 0.608785680893019 
1494	 0.610117793823258 
1495	 0.611608092389245 
1496	 0.61344761670556 
1497	 0.615354301954559 
1498	 0.617528689919157 
1499	 0.619649944769728 
1500	 0.621944303393252 
1501	 0.624122679395377 
1502	 0.626324745301768 
1503	 0.628376466380759 
1504	 0.630384220266273 
1505	 0.632246326821467 
1506	 0.633997931622633 
1507	 0.635601328699059 
1508	 0.637073125078614 
1509	 0.638416364349231 
1510	 0.639596917072001 
1511	 0.64066757644399 
1512	 0.641612934447788 
1513	 0.642451129984366 
1514	 0.643144905811747 
1515	 0.643766202618807 
1516	 0.644274505812583 
1517	 0.644715613141578 
1518	 0.645059340926223 
1519	 0.645350854486097 
1520	 0.645570100583279 
1521	 0.64572967477472 
1522	 0.645833448111271 
1523	 0.645893893192942 
1524	 0.645908211124085 
1525	 0.645863715707929 
1526	 0.645804910731979 
1527	 0.645702949024296 
1528	 0.645592149351763 
1529	 0.645443658776646 
1530	 0.645323785733721 
1531	 0.645171584700196 
1532	 0.645102906583164 
1533	 0.645043744914925 
1534	 0.645095478503717 
1535	 0.645195929464567 
1536	 0.645419593820494 
1537	 0.645709440381913 
1538	 0.646175340382272 
1539	 0.646751585582423 
1540	 0.647499535904583 
1541	 0.648412038573472 
1542	 0.64945499183262 
1543	 0.650658087265742 
1544	 0.651956985421756 
1545	 0.653401850243307 
1546	 0.654929266364835 
1547	 0.656595222294249 
1548	 0.658280196811116 
1549	 0.660084275609109 
1550	 0.66185824164736 
1551	 0.663682242195105 
1552	 0.665459593737779 
1553	 0.667245210748091 
1554	 0.668998312379364 
1555	 0.670738096027004 
1556	 0.672428053808233 
1557	 0.674092384158337 
1558	 0.675722809161686 
1559	 0.67731288187083 
1560	 0.678860701275631 
1561	 0.680382806792068 
1562	 0.681859261317902 
1563	 0.683283939648307 
1564	 0.684671387266979 
1565	 0.68602307867658 
1566	 0.687336691417394 
1567	 0.688598027579217 
1568	 0.689836349901354 
1569	 0.691033731369357 
1570	 0.692222676656767 
1571	 0.693392254686069 
1572	 0.694526275655435 
1573	 0.695631629594525 
1574	 0.696726106890863 
1575	 0.697790445946472 
1576	 0.698836886914957 
1577	 0.699882633507069 
1578	 0.700888794100999 
1579	 0.701847009150558 
1580	 0.702804222676193 
1581	 0.703730225989619 
1582	 0.704667494026158 
1583	 0.705607006677609 
1584	 0.706532396426667 
1585	 0.707449347381856 
1586	 0.708367705948587 
1587	 0.709270067697869 
1588	 0.710180020895658 
1589	 0.711102872763332 
1590	 0.712013954413823 
1591	 0.712904795096943 
1592	 0.713822327912727 
1593	 0.714733988038421 
1594	 0.715677128722148 
1595	 0.716665239821296 
1596	 0.717632914157189 
1597	 0.718611428775809 
1598	 0.719583336025049 
1599	 0.72054409606954 
1600	 0.721510092201475 
1601	 0.722482341332515 
1602	 0.723449736340727 
1603	 0.724414888357712 
1604	 0.725371875520781 
1605	 0.726321700570641 
1606	 0.727273611821846 
1607	 0.72824404408832 
1608	 0.729176100392782 
1609	 0.730094790517231 
1610	 0.730995332278961 
1611	 0.731864155591806 
1612	 0.732711460646784 
1613	 0.733543828537306 
1614	 0.73435796063266 
1615	 0.735154221357861 
1616	 0.735922130596833 
1617	 0.736636363727935 
1618	 0.737390625532758 
1619	 0.738147408513598 
1620	 0.738887056441313 
1621	 0.739665139560244 
1622	 0.74040041716785 
1623	 0.741085699929846 
1624	 0.741776834442245 
1625	 0.742454489489121 
1626	 0.743131929342125 
1627	 0.743800408309997 
1628	 0.744466184597011 
1629	 0.745115207591048 
1630	 0.745789765430344 
1631	 0.746480211758998 
1632	 0.747165999949001 
1633	 0.747888105952334 
1634	 0.748570261880249 
1635	 0.749226476270744 
1636	 0.749869076873268 
1637	 0.750488705041712 
1638	 0.751096618135937 
1639	 0.751698122785417 
1640	 0.752280646583623 
1641	 0.752859873450739 
1642	 0.753395893643088 
1643	 0.753888322008468 
1644	 0.754374438552928 
1645	 0.754827433686209 
1646	 0.75527388581867 
1647	 0.755727493971889 
1648	 0.756146796642065 
1649	 0.756541175404857 
1650	 0.756912062219779 
1651	 0.757255228276714 
1652	 0.757575291633734 
1653	 0.75788828411823 
1654	 0.758147570690806 
1655	 0.758361431689075 
1656	 0.758557881883387 
1657	 0.758719967521006 
1658	 0.758845595271887 
1659	 0.758954330235757 
1660	 0.759012420296824 
1661	 0.759014959574383 
1662	 0.758991288493119 
1663	 0.758947385971007 
1664	 0.758841887769007 
1665	 0.758716774511676 
1666	 0.758489790077556 
1667	 0.758174014309387 
1668	 0.757818621000572 
1669	 0.757401143027687 
1670	 0.756906674586031 
1671	 0.756338989180507 
1672	 0.755723547501324 
1673	 0.755029362171709 
1674	 0.754295079488015 
1675	 0.753515737304485 
1676	 0.752712418535724 
1677	 0.751848539472985 
1678	 0.75096294029 
1679	 0.750049296644403 
1680	 0.749107141006766 
1681	 0.748119633500664 
1682	 0.747121293315695 
1683	 0.746092256793334 
1684	 0.745088551862776 
1685	 0.74406920662405 
1686	 0.743066229835415 
1687	 0.742077768797947 
1688	 0.741081866545312 
1689	 0.740088098707765 
1690	 0.739090254417348 
1691	 0.738121565092481 
1692	 0.737104935096627 
1693	 0.736084605046902 
1694	 0.734998020409022 
1695	 0.733857707618806 
1696	 0.732671895465961 
1697	 0.731449795919446 
1698	 0.730145778907982 
1699	 0.728799967860537 
1700	 0.727391039518783 
1701	 0.725902089541065 
1702	 0.724372247330967 
1703	 0.722758069548325 
1704	 0.721151345775694 
1705	 0.719511642367979 
1706	 0.71778257341718 
1707	 0.716128147741088 
1708	 0.714307192027287 
1709	 0.712437726006034 
1710	 0.710546396604387 
1711	 0.708464043914137 
1712	 0.706410227762846 
1713	 0.704257732638686 
1714	 0.701945303574514 
1715	 0.699710040959258 
1716	 0.697376922864303 
1717	 0.695046783185458 
1718	 0.692735630229633 
1719	 0.690253177994361 
1720	 0.687809521520226 
1721	 0.685279404346791 
1722	 0.68272176867108 
1723	 0.680385359178709 
1724	 0.677998658884381 
1725	 0.675696960909416 
1726	 0.673518960708028 
1727	 0.671273098521264 
1728	 0.669205187541879 
1729	 0.667192443261181 
1730	 0.665217073265705 
1731	 0.663448608626561 
1732	 0.661669254932502 
1733	 0.659930123124073 
1734	 0.65829155852144 
1735	 0.656605361754887 
1736	 0.655032280178683 
1737	 0.653500456604602 
1738	 0.652005975672879 
1739	 0.650611565092889 
1740	 0.649220644212957 
1741	 0.647961242486478 
1742	 0.646774299955681 
1743	 0.645745547750136 
1744	 0.644825802203002 
1745	 0.644069940996869 
1746	 0.643466835993415 
1747	 0.643086220421131 
1748	 0.642861071679244 
1749	 0.642840108857412 
1750	 0.643073339990735 
1751	 0.643420538972672 
1752	 0.643939313064859 
1753	 0.644608124257265 
1754	 0.645462101541248 
1755	 0.646373144989652 
1756	 0.647447232840374 
1757	 0.648519518249745 
1758	 0.649708095663743 
1759	 0.650909613389648 
1760	 0.652152264926841 
1761	 0.653388383067215 
1762	 0.654514993237635 
1763	 0.655660259663963 
1764	 0.656750107356391 
1765	 0.657762578234897 
1766	 0.658818793607734 
1767	 0.659765084189955 
1768	 0.660642920588101 
1769	 0.661515067126018 
1770	 0.662301925926098 
1771	 0.663086496540924 
1772	 0.663846757882179 
1773	 0.664593157405273 
1774	 0.665399392141496 
1775	 0.6661691006854 
1776	 0.66695158655151 
1777	 0.667786115414134 
1778	 0.668585487518754 
1779	 0.66944166979523 
1780	 0.670372037193696 
1781	 0.671323871822905 
1782	 0.672380747273723 
1783	 0.673509876007741 
1784	 0.674754857618427 
1785	 0.67612582100698 
1786	 0.677470274979239 
1787	 0.678906254901089 
1788	 0.68028598713556 
1789	 0.681673510411972 
1790	 0.683049582356972 
1791	 0.684422315092403 
1792	 0.685770188688696 
1793	 0.687060383748277 
1794	 0.688309875980112 
1795	 0.689555277498638 
1796	 0.690740660659739 
1797	 0.692006729319348 
1798	 0.693200797250091 
1799	 0.694335124636903 
1800	 0.695454730364881 
1801	 0.713737093703057 
1802	 0.715505909352429 
1803	 0.717075350378673 
1804	 0.718455785689322 
1805	 0.719830701977332 
1806	 0.721028876161732 
1807	 0.722062067955683 
1808	 0.723070893680471 
1809	 0.723961233981693 
1810	 0.724817102380732 
1811	 0.725613903166598 
1812	 0.726363190004398 
1813	 0.727026345173596 
1814	 0.727698951412434 
1815	 0.728337927201298 
1816	 0.728935855105474 
1817	 0.729510593050541 
1818	 0.73005140613076 
1819	 0.730585360343087 
1820	 0.73108419844189 
1821	 0.731582867068105 
1822	 0.732084306253604 
1823	 0.732575231045724 
1824	 0.733004146506523 
1825	 0.733423241358956 
1826	 0.733805924515278 
1827	 0.734154235176688 
1828	 0.734456870697641 
1829	 0.734730369964227 
1830	 0.734977321099146 
1831	 0.735191706653518 
1832	 0.735370921323171 
1833	 0.735482952485434 
1834	 0.735569250148417 
1835	 0.735588377816706 
1836	 0.735577367420936 
1837	 0.735588680424925 
1838	 0.735611987886873 
1839	 0.735593167632312 
1840	 0.735565214272462 
1841	 0.735512311458429 
1842	 0.735456752724634 
1843	 0.735351154499492 
1844	 0.735178296980705 
1845	 0.734986197793227 
1846	 0.734675723625124 
1847	 0.734271426019162 
1848	 0.733758803713235 
1849	 0.733174908749299 
1850	 0.732426465548837 
1851	 0.731568902219713 
1852	 0.730568222230084 
1853	 0.729376077760538 
1854	 0.728131323069277 
1855	 0.726710260575021 
1856	 0.725178274694461 
1857	 0.723529252631011 
1858	 0.721643036311675 
1859	 0.71964694661198 
1860	 0.717532887161704 
1861	 0.715167944629956 
1862	 0.712587435503149 
1863	 0.709984625116403 
1864	 0.707054359042651 
1865	 0.704033255042758 
1866	 0.700864830505263 
1867	 0.697304552115894 
1868	 0.693678969902462 
1869	 0.689821085993519 
1870	 0.685874672221297 
1871	 0.68180820277865 
1872	 0.677741038891258 
1873	 0.673566453272032 
1874	 0.669399096987303 
1875	 0.66524749577132 
1876	 0.660673701038682 
1877	 0.656164137884268 
1878	 0.651419514133694 
1879	 0.646323786890623 
1880	 0.641450950224433 
1881	 0.636313306897047 
1882	 0.630924957612565 
1883	 0.625488767571686 
1884	 0.619979501293342 
1885	 0.613979891305148 
1886	 0.608115169374803 
1887	 0.60199465267019 
1888	 0.595666021375406 
1889	 0.589748853921756 
1890	 0.583568162841729 
1891	 0.577409107070471 
1892	 0.571367080116771 
1893	 0.565031181237657 
1894	 0.558394785053957 
1895	 0.551947633293445 
1896	 0.545315515824456 
1897	 0.538491656225071 
1898	 0.532150598931934 
1899	 0.525563978159873 
1900	 0.519017032516936 
1901	 0.512627402985526 
1902	 0.505803070009123 
1903	 0.499236081176254 
1904	 0.492659353865575 
1905	 0.486013891539892 
1906	 0.479399415943016 
1907	 0.473341597280997 
1908	 0.467051501607141 
1909	 0.46091409400484 
1910	 0.454959726663849 
1911	 0.448532077119837 
1912	 0.442353349758619 
1913	 0.43609232979185 
1914	 0.429599616434559 
1915	 0.423358244743346 
1916	 0.417376290524977 
1917	 0.411084544173318 
1918	 0.404831496261835 
1919	 0.398618539548384 
1920	 0.391877554592463 
1921	 0.385296936808453 
1922	 0.378510872111841 
1923	 0.371509973154858 
1924	 0.365014404399947 
1925	 0.358273740544224 
1926	 0.351630865864125 
1927	 0.345163782609593 
1928	 0.338626261522521 
1929	 0.331857595284238 
1930	 0.325511113422636 
1931	 0.319337905079551 
1932	 0.313409526223079 
1933	 0.308291395381552 
1934	 0.303458052599372 
1935	 0.299044696532401 
1936	 0.295274047507608 
1937	 0.291877263553531 
1938	 0.288834339584182 
1939	 0.286432690305563 
1940	 0.284543602106317 
1941	 0.283165921129326 
1942	 0.282361617870543 
1943	 0.281952413989501 
1944	 0.281936634214135 
1945	 0.282390406562111 
1946	 0.283404284701573 
1947	 0.284780887032057 
1948	 0.286801251232319 
1949	 0.289475139556834 
1950	 0.292531231346328 
1951	 0.296132690872396 
1952	 0.300213319247777 
1953	 0.304741384851174 
1954	 0.309756905685999 
1955	 0.315467813375058 
1956	 0.321229595322975 
1957	 0.32712204226426 
1958	 0.333021440763112 
1959	 0.338269218533824 
1960	 0.343202877023727 
1961	 0.347642834817855 
1962	 0.35160019087896 
1963	 0.355088435088243 
1964	 0.358107689630485 
1965	 0.360689533249124 
1966	 0.36276425039541 
1967	 0.364518649319929 
1968	 0.365850217560135 
1969	 0.367137319630155 
1970	 0.36831644992616 
1971	 0.369491694037926 
1972	 0.370833902219392 
1973	 0.372249371143699 
1974	 0.373842843093754 
1975	 0.375628004869811 
1976	 0.377486900881776 
1977	 0.379446549545613 
1978	 0.38157447825179 
1979	 0.383814198166521 
1980	 0.386159323772969 
1981	 0.388840177427888 
1982	 0.391505906793743 
1983	 0.394418219489169 
1984	 0.397551694482353 
1985	 0.4006401222935 
1986	 0.404087301686694 
1987	 0.40785528389246 
1988	 0.411652362191788 
1989	 0.416196343039527 
1990	 0.421252580197096 
1991	 0.426685216212771 
1992	 0.432657440491602 
1993	 0.439177658155478 
1994	 0.445532104499728 
1995	 0.45245734209859 
1996	 0.459488994148376 
1997	 0.466555139444062 
1998	 0.473903657759544 
1999	 0.481731823741755 
2000	 0.489060384823689 
2001	 0.496706210240471 
2002	 0.503625325788403 
2003	 0.510111465738702 
2004	 0.516421182282132 
2005	 0.522237536002181 
2006	 0.527969812723975 
2007	 0.533677825930998 
2008	 0.538875898735723 
2009	 0.543857819601531 
2010	 0.548640649875184 
2011	 0.552764154100396 
2012	 0.556772186737948 
2013	 0.560536281506645 
2014	 0.563906102924555 
2015	 0.567243984427236 
2016	 0.570469290428762 
2017	 0.573436273690134 
2018	 0.576267371366926 
2019	 0.578840942188439 
2020	 0.581089531063938 
2021	 0.58327727594417 
2022	 0.58527133995318 
2023	 0.587017477051262 
2024	 0.588745576217685 
2025	 0.590283435585511 
2026	 0.591715783001739 
2027	 0.593046125844337 
2028	 0.594212540690333 
2029	 0.595176589675395 
2030	 0.596116731777718 
2031	 0.596873630423647 
2032	 0.597661435422039 
2033	 0.5984051619073 
2034	 0.59912153667129 
2035	 0.599795058971714 
2036	 0.600466252237501 
2037	 0.601069396864487 
2038	 0.601718096288243 
2039	 0.602390849056402 
2040	 0.603052810325126 
2041	 0.603789686716566 
2042	 0.604589100647457 
2043	 0.605375893935245 
2044	 0.606229696154427 
2045	 0.607032653731981 
2046	 0.607814056563258 
2047	 0.608607470541107 
2048	 0.609401067960749 
2049	 0.610169699781775 
2050	 0.610952419164737 
2051	 0.611704769315943 
2052	 0.612391403659051 
2053	 0.613057155676942 
2054	 0.61366938356966 
2055	 0.61421050011669 
2056	 0.614767920786795 
2057	 0.615284369901911 
2058	 0.615811816631734 
2059	 0.616327410382376 
2060	 0.61685612814734 
2061	 0.617370424389226 
2062	 0.617915871475399 
2063	 0.618480791507336 
2064	 0.619057567830626 
2065	 0.619631235312826 
2066	 0.620244335573358 
2067	 0.620922776637591 
2068	 0.621580151280873 
2069	 0.622283632194459 
2070	 0.62307274404313 
2071	 0.623777235162256 
2072	 0.624484135861983 
2073	 0.625142220716987 
2074	 0.6257564056467 
2075	 0.626353663925537 
2076	 0.626956772556947 
2077	 0.627468521596366 
2078	 0.627965669622694 
2079	 0.628348651872776 
2080	 0.628622466251603 
2081	 0.628852482140731 
2082	 0.629001475315953 
2083	 0.62908901585651 
2084	 0.6291506010681 
2085	 0.629162968905999 
2086	 0.629086158827075 
2087	 0.628939132353844 
2088	 0.628737876207499 
2089	 0.628443684526884 
2090	 0.628121687056169 
2091	 0.627762218157615 
2092	 0.627342516152383 
2093	 0.626855810545012 
2094	 0.62634123417424 
2095	 0.625744476951122 
2096	 0.62516294848351 
2097	 0.624592698542135 
2098	 0.623942576628768 
2099	 0.623279484788863 
2100	 0.62262852723828 
2101	 0.621923310862732 
2102	 0.621168727073749 
2103	 0.620409823360068 
2104	 0.619613297910108 
2105	 0.618830986845366 
2106	 0.618032564391477 
2107	 0.617239136530995 
2108	 0.61649275876424 
2109	 0.615658834609916 
2110	 0.614762559299935 
2111	 0.613885100616354 
2112	 0.612932101256326 
2113	 0.612032940946439 
2114	 0.6111886179658 
2115	 0.610315369531848 
2116	 0.609436427412825 
2117	 0.60858633475777 
2118	 0.607682765580139 
2119	 0.606744398049028 
2120	 0.605832521690624 
2121	 0.604890485470998 
2122	 0.603993511018098 
2123	 0.603139018341707 
2124	 0.602249790604707 
2125	 0.601402056966897 
2126	 0.600464905825328 
2127	 0.59945801057409 
2128	 0.598481781017264 
2129	 0.597466456820519 
2130	 0.596454180574031 
2131	 0.595473117381045 
2132	 0.59445441176101 
2133	 0.593427577679247 
2134	 0.592360376072131 
2135	 0.59119653267903 
2136	 0.590066096747264 
2137	 0.588879510432617 
2138	 0.587595120708594 
2139	 0.586387966719634 
2140	 0.585230738211111 
2141	 0.583986800617536 
2142	 0.582783769613431 
2143	 0.581425582539001 
2144	 0.5799342093908 
2145	 0.578467071192416 
2146	 0.576884280228459 
2147	 0.575362435761165 
2148	 0.573894145606497 
2149	 0.572363643430508 
2150	 0.570854812068878 
2151	 0.569263243174425 
2152	 0.567572867609859 
2153	 0.565912128991618 
2154	 0.564194957059341 
2155	 0.562422354859781 
2156	 0.560749010549493 
2157	 0.559116388303501 
2158	 0.557461256189891 
2159	 0.555880886027984 
2160	 0.554185067427162 
2161	 0.55238240894766 
2162	 0.550702641470356 
2163	 0.548965664570094 
2164	 0.547376065596897 
2165	 0.545922418631943 
2166	 0.544458835374529 
2167	 0.543043373131441 
2168	 0.541676533402418 
2169	 0.540313871263689 
2170	 0.539057189990266 
2171	 0.53784038194966 
2172	 0.536749463796967 
2173	 0.535786098961884 
2174	 0.534870483864114 
2175	 0.534053186552501 
2176	 0.533349585743693 
2177	 0.532708522958463 
2178	 0.532148675164518 
2179	 0.531655303389992 
2180	 0.531267618757457 
2181	 0.530883374921068 
2182	 0.530553797927578 
2183	 0.530254894802715 
2184	 0.530029141639024 
2185	 0.529757683767945 
2186	 0.529516134598568 
2187	 0.529244398556329 
2188	 0.528952400353705 
2189	 0.528642705896772 
2190	 0.528365337810347 
2191	 0.527993363598027 
2192	 0.527549998144515 
2193	 0.527089991149855 
2194	 0.526590717056809 
2195	 0.52604030693552 
2196	 0.525447782647469 
2197	 0.524815774602085 
2198	 0.524185240249794 
2199	 0.523511445175063 
2200	 0.522818210781624 
2201	 0.522147577947064 
2202	 0.521382718862415 
2203	 0.520534338982454 
2204	 0.519697566346833 
2205	 0.518811944826032 
2206	 0.517935194586734 
2207	 0.517027219069245 
2208	 0.516155891923641 
2209	 0.515253458235626 
2210	 0.51444981412915 
2211	 0.513651840552319 
2212	 0.512992883787874 
2213	 0.512346326671304 
2214	 0.511938040092065 
2215	 0.5116594191167 
2216	 0.511584087202617 
2217	 0.511666801388599 
2218	 0.512014853927842 
2219	 0.512568727442282 
2220	 0.513360028208804 
2221	 0.514414810282956 
2222	 0.515757968062315 
2223	 0.51716593658091 
2224	 0.518683012123417 
2225	 0.520253444729841 
2226	 0.521817393861839 
2227	 0.523374803032256 
2228	 0.525022570832078 
2229	 0.526455484605042 
2230	 0.527883477439487 
2231	 0.529041928528311 
2232	 0.530017426771147 
2233	 0.530867476544523 
2234	 0.531531210529945 
2235	 0.532066359790841 
2236	 0.532462448218229 
2237	 0.53272060511567 
2238	 0.532809864323645 
2239	 0.53279113956462 
2240	 0.532650119971376 
2241	 0.532359937669801 
2242	 0.531920809430867 
2243	 0.531355236048866 
2244	 0.53063838849024 
2245	 0.529805348815002 
2246	 0.528777499032214 
2247	 0.527733716439089 
2248	 0.526598421488303 
2249	 0.525378556159895 
2250	 0.524087736864664 
2251	 0.522761397486918 
2252	 0.521267695770524 
2253	 0.519727343297072 
2254	 0.518115314021354 
2255	 0.516408710535619 
2256	 0.514748290916015 
2257	 0.513066053065147 
2258	 0.511427067201267 
2259	 0.509846406657749 
2260	 0.50819573208287 
2261	 0.506476066700948 
2262	 0.504912736479797 
2263	 0.503277783686988 
2264	 0.501932403790953 
2265	 0.500761807371736 
2266	 0.499731654986569 
2267	 0.498869612656569 
2268	 0.498185666871445 
2269	 0.497652645909721 
2270	 0.497319473408386 
2271	 0.497239647388739 
2272	 0.49721807394049 
2273	 0.497396219273032 
2274	 0.497604702069052 
2275	 0.497929492978303 
2276	 0.498271843852331 
2277	 0.498705610043785 
2278	 0.499135500887527 
2279	 0.49964208813927 
2280	 0.500076034456023 
2281	 0.500522544741084 
2282	 0.500921609847603 
2283	 0.501275986022901 
2284	 0.501566676761627 
2285	 0.501880391091043 
2286	 0.502103025623319 
2287	 0.502301102341678 
2288	 0.502448788124502 
2289	 0.502516636516939 
2290	 0.502604033533912 
2291	 0.502663075730732 
2292	 0.502722878101371 
2293	 0.502788933135178 
2294	 0.502811630540122 
2295	 0.502899894352186 
2296	 0.503009716660036 
2297	 0.503186895701646 
2298	 0.503444075814847 
2299	 0.503726179418524 
2300	 0.504036195643959 
2301	 0.50441436325468 
2302	 0.504833844956558 
2303	 0.505330676908244 
2304	 0.505901381415767 
2305	 0.506538653782751 
2306	 0.5072658516352 
2307	 0.508012210834617 
2308	 0.508805963724541 
2309	 0.509652544510263 
2310	 0.510574927201713 
2311	 0.511488463171666 
2312	 0.512481213074332 
2313	 0.513419902658071 
2314	 0.514347726323843 
2315	 0.515239644605924 
2316	 0.516146051711899 
2317	 0.51695765036353 
2318	 0.517773974520992 
2319	 0.518407423066615 
2320	 0.518921894039712 
2321	 0.519312107741554 
2322	 0.519505415406003 
2323	 0.519678566505778 
2324	 0.51978253585953 
2325	 0.51977766932524 
2326	 0.519720595438479 
2327	 0.519515569489161 
2328	 0.519116983874457 
2329	 0.518697614379057 
2330	 0.518215671734832 
2331	 0.517576926444482 
2332	 0.516918826899743 
2333	 0.516219259768299 
2334	 0.515351249320241 
2335	 0.514421509209022 
2336	 0.513395304918747 
2337	 0.512312009940776 
2338	 0.511196338929144 
2339	 0.509984934754752 
2340	 0.508827907429223 
2341	 0.507652129804738 
2342	 0.506383306140659 
2343	 0.505261003889683 
2344	 0.504163969452698 
2345	 0.503083310702442 
2346	 0.50227436968596 
2347	 0.501612341551509 
2348	 0.500959321640103 
2349	 0.500395728375266 
2350	 0.499827400414996 
2351	 0.499251700351669 
2352	 0.498757524484826 
2353	 0.498298115475701 
2354	 0.497837183766245 
2355	 0.497356948652148 
2356	 0.496765258062381 
2357	 0.496031370700472 
2358	 0.4951671091998 
2359	 0.494128566508201 
2360	 0.492993047719189 
2361	 0.491776319758416 
2362	 0.490484696390539 
2363	 0.489113048502073 
2364	 0.487731789979792 
2365	 0.486235913196846 
2366	 0.484536859599569 
2367	 0.482940310093263 
2368	 0.481256332731869 
2369	 0.479478541181546 
2370	 0.47787347526809 
2371	 0.476045968535157 
2372	 0.474132713129344 
2373	 0.472269909892711 
2374	 0.470209984508743 
2375	 0.468268131507122 
2376	 0.466210074039886 
2377	 0.46390738032537 
2378	 0.461682899158421 
2379	 0.45934220233261 
2380	 0.457059033148081 
2381	 0.45480147073741 
2382	 0.452331985973677 
2383	 0.449757915142001 
2384	 0.44711237330689 
2385	 0.444158487555677 
2386	 0.441475461186038 
2387	 0.438903498216701 
2388	 0.436173879165613 
2389	 0.433622276880826 
2390	 0.430724786269395 
2391	 0.427538113435737 
2392	 0.424474923245475 
2393	 0.421191859827927 
2394	 0.418050790593239 
2395	 0.41500492350268 
2396	 0.411925538496509 
2397	 0.408941432038586 
2398	 0.405828391714505 
2399	 0.402661737203716 
2400	 0.399554879665053 
2401	 0.396310899949104 
2402	 0.393365733080493 
2403	 0.390264553150812 
2404	 0.387369268202689 
2405	 0.384650434640104 
2406	 0.381671345735374 
2407	 0.378881614496779 
2408	 0.376185090064685 
2409	 0.373322419589919 
2410	 0.370755871007196 
2411	 0.368428475420258 
2412	 0.366128563654617 
2413	 0.364048317402894 
2414	 0.362013383989069 
2415	 0.360001639751272 
2416	 0.358014945609967 
2417	 0.356121320985604 
2418	 0.354446159812519 
2419	 0.352920542301539 
2420	 0.351606432550232 
2421	 0.350300467362936 
2422	 0.348978932665736 
2423	 0.347840228777556 
2424	 0.346762086961734 
2425	 0.345666963972865 
2426	 0.344593844931615 
2427	 0.343440242234923 
2428	 0.342254084812237 
2429	 0.341146850098487 
2430	 0.340123493562594 
2431	 0.339234561140933 
2432	 0.338258666433447 
2433	 0.337349342016915 
2434	 0.336653329593574 
2435	 0.33590977979643 
2436	 0.335411539836097 
2437	 0.334975094105317 
2438	 0.334245387132556 
2439	 0.333492589672735 
2440	 0.332747266055751 
2441	 0.332108627704049 
2442	 0.331687845989967 
2443	 0.331316054804805 
2444	 0.330813075796168 
2445	 0.330167632052507 
2446	 0.329532995174155 
2447	 0.329066598834136 
2448	 0.328703912937663 
2449	 0.328364111271935 
2450	 0.327974209660612 
2451	 0.327350330107275 
2452	 0.326727084607743 
2453	 0.326012011262175 
2454	 0.325114506884881 
2455	 0.324325848481442 
2456	 0.323425225038323 
2457	 0.322496968827126 
2458	 0.321610155996476 
2459	 0.320532403377347 
2460	 0.319516451603806 
2461	 0.318517592104676 
2462	 0.317436576697822 
2463	 0.316540590131432 
2464	 0.315513021094953 
2465	 0.314145807244249 
2466	 0.312876026090529 
2467	 0.311552590364788 
2468	 0.310173659679929 
2469	 0.309114764807171 
2470	 0.308159624409058 
2471	 0.307381398774561 
2472	 0.306659633609447 
2473	 0.305741960706342 
2474	 0.304989225117743 
2475	 0.3041636460079 
2476	 0.303176171935795 
2477	 0.302527268939889 
2478	 0.301970045890851 
2479	 0.301311021964848 
2480	 0.301068338874208 
2481	 0.300607654101694 
2482	 0.300005203494923 
2483	 0.299481359898196 
2484	 0.299114355948054 
2485	 0.298901232920997 
2486	 0.298962447219835 
2487	 0.299153680368941 
2488	 0.298777166676835 
2489	 0.298551936643164 
2490	 0.298673013335224 
2491	 0.298853295437569 
2492	 0.299395388264945 
2493	 0.299563358724505 
2494	 0.29949430692132 
2495	 0.299625091319044 
2496	 0.299808128749618 
2497	 0.300399184666242 
2498	 0.300973441411597 
2499	 0.301018064119368 
2500	 0.301039467843349 
