Wavelength	spectrum00004.asd
350	 6.48533843025002E-02 
351	 6.33866728373127E-02 
352	 6.15961285131072E-02 
353	 6.03438415681541E-02 
354	 6.18128812300551E-02 
355	 6.02489033423712E-02 
356	 5.87079813053759E-02 
357	 5.96089096390718E-02 
358	 5.72908976099055E-02 
359	 5.54623585973814E-02 
360	 5.49301744131278E-02 
361	 0.054936194111776 
362	 0.056117977592421 
363	 5.51760177931311E-02 
364	 5.25145429646306E-02 
365	 5.36821239076815E-02 
366	 5.40773380714866E-02 
367	 0.053557511245997 
368	 5.30263540867308E-02 
369	 5.31137120500053E-02 
370	 5.31255585199343E-02 
371	 5.28805088607961E-02 
372	 5.25229924363452E-02 
373	 5.20142698370792E-02 
374	 0.052306573593269 
375	 5.31747470266939E-02 
376	 5.26168755475223E-02 
377	 5.30348309981605E-02 
378	 5.34154267849868E-02 
379	 5.25726409979045E-02 
380	 5.16679675032089E-02 
381	 5.23192862290082E-02 
382	 5.34468711791641E-02 
383	 0.052697802601529 
384	 5.24506397600136E-02 
385	 5.24106448274228E-02 
386	 5.21049580206083E-02 
387	 5.12550435782975E-02 
388	 0.050753264829504 
389	 5.07017504936804E-02 
390	 5.07856611625446E-02 
391	 5.00653847191929E-02 
392	 0.04986202475803 
393	 5.04301982642141E-02 
394	 0.051185747185957 
395	 5.12092847201494E-02 
396	 5.05688637684699E-02 
397	 4.98457084973107E-02 
398	 5.02515255218288E-02 
399	 4.98861344861147E-02 
400	 4.93816829569072E-02 
401	 4.96328543965647E-02 
402	 4.93220520721837E-02 
403	 4.93380298228393E-02 
404	 4.95501807522387E-02 
405	 4.91207816961685E-02 
406	 4.91258133570537E-02 
407	 4.91127982844724E-02 
408	 4.88107820684983E-02 
409	 4.87383417466906E-02 
410	 4.85271738615234E-02 
411	 4.84387723368927E-02 
412	 4.87356542157707E-02 
413	 0.048683031531454 
414	 4.85476474787802E-02 
415	 4.85440559365004E-02 
416	 4.87598019726942E-02 
417	 4.86365074883703E-02 
418	 4.84945856024548E-02 
419	 4.85913191429583E-02 
420	 0.048671078713701 
421	 4.87509801433258E-02 
422	 4.88292270541376E-02 
423	 4.89093641174908E-02 
424	 4.90457849310555E-02 
425	 4.91506499735643E-02 
426	 4.92322675301163E-02 
427	 4.94171420862786E-02 
428	 4.95486342758232E-02 
429	 4.97609350135984E-02 
430	 5.01085682692668E-02 
431	 5.02050384075158E-02 
432	 5.03514148400467E-02 
433	 5.05891674153143E-02 
434	 5.08263165833046E-02 
435	 5.12262592890683E-02 
436	 5.16564717978958E-02 
437	 5.19967082443274E-02 
438	 5.21836016089109E-02 
439	 5.25247398442296E-02 
440	 5.28692015507545E-02 
441	 0.053012060762814 
442	 5.31013581368184E-02 
443	 5.34191958271579E-02 
444	 5.38653076992664E-02 
445	 5.40567860722881E-02 
446	 5.42317546399721E-02 
447	 5.43616474591934E-02 
448	 5.44599323336038E-02 
449	 5.47251130648834E-02 
450	 5.50451482713196E-02 
451	 0.055277127181051 
452	 5.53075021399417E-02 
453	 5.52806779403007E-02 
454	 0.055310749087177 
455	 5.54054723343674E-02 
456	 5.54593722684772E-02 
457	 0.055481941888089 
458	 5.55033573540249E-02 
459	 5.55504159662037E-02 
460	 5.56360563944208E-02 
461	 0.055587831401214 
462	 5.55045018054245E-02 
463	 0.05560084844996 
464	 5.56425732981504E-02 
465	 0.055675210388319 
466	 5.56997579938494E-02 
467	 5.55918960630669E-02 
468	 5.56302810363865E-02 
469	 5.56915140497154E-02 
470	 5.56422256262189E-02 
471	 5.58657689596859E-02 
472	 5.59039096645393E-02 
473	 5.57831389769001E-02 
474	 5.59095036606391E-02 
475	 0.055984497931811 
476	 5.60605867983617E-02 
477	 5.61854280683106E-02 
478	 5.62730080055454E-02 
479	 5.63535165354221E-02 
480	 5.64786306631867E-02 
481	 5.66900605145636E-02 
482	 5.69154691851832E-02 
483	 5.70760848065909E-02 
484	 5.72053715407708E-02 
485	 5.74591330826458E-02 
486	 0.057761592386154 
487	 5.79717718573689E-02 
488	 5.80515674178325E-02 
489	 5.83092902515583E-02 
490	 5.86648395497061E-02 
491	 5.90044514665512E-02 
492	 5.92285574499025E-02 
493	 5.95854250137719E-02 
494	 5.99465486682492E-02 
495	 6.02865095432039E-02 
496	 6.08418727158875E-02 
497	 6.12349773779767E-02 
498	 6.15964786089779E-02 
499	 6.21443612231347E-02 
500	 6.27233090004452E-02 
501	 6.32625146588511E-02 
502	 6.37728342283441E-02 
503	 6.43328021379998E-02 
504	 6.49326548429252E-02 
505	 6.55583107169289E-02 
506	 0.06619357222729 
507	 6.68140477531421E-02 
508	 6.75008601311366E-02 
509	 6.82406062391131E-02 
510	 6.89814398503211E-02 
511	 6.97366558555874E-02 
512	 0.070552830409043 
513	 7.14306608129349E-02 
514	 7.23128413956242E-02 
515	 7.31907592083024E-02 
516	 7.41332154408861E-02 
517	 7.51789882567226E-02 
518	 7.61828700817298E-02 
519	 7.72503377533525E-02 
520	 7.84158979783197E-02 
521	 7.96546789449052E-02 
522	 8.09182900615765E-02 
523	 0.082172238409405 
524	 8.34465242585858E-02 
525	 8.48998427875055E-02 
526	 8.63847973197808E-02 
527	 8.79153318739748E-02 
528	 0.089545583128881 
529	 9.12063880556465E-02 
530	 9.29513012229883E-02 
531	 9.47833914434335E-02 
532	 9.66443318187836E-02 
533	 9.85830184145734E-02 
534	 0.100636693807027 
535	 0.10280236891086 
536	 0.104971707891998 
537	 0.107305921966556 
538	 0.109745023001483 
539	 0.112131590661026 
540	 0.114639090724206 
541	 0.11725811882215 
542	 0.119951120154675 
543	 0.122666411057991 
544	 0.125429103053761 
545	 0.12824144795481 
546	 0.131108227954612 
547	 0.134076560841404 
548	 0.137130285014932 
549	 0.140258462358172 
550	 0.143455991330765 
551	 0.146751851624292 
552	 0.150081146072177 
553	 0.153410852527866 
554	 0.156829591635046 
555	 0.160263847343595 
556	 0.163704581101552 
557	 0.167163462244148 
558	 0.170574605424462 
559	 0.173989332412181 
560	 0.177401346032272 
561	 0.180709824980755 
562	 0.183888135754129 
563	 0.186877720091781 
564	 0.18966117112353 
565	 0.19237835470004 
566	 0.19505764120705 
567	 0.197675869294955 
568	 0.200191332659522 
569	 0.202884926272826 
570	 0.205640125043832 
571	 0.208329491734214 
572	 0.210961894224906 
573	 0.213394181853158 
574	 0.21559253310035 
575	 0.217569039645077 
576	 0.219280938751059 
577	 0.220724087297069 
578	 0.221961512101728 
579	 0.223123852983752 
580	 0.224357812718796 
581	 0.225674281388219 
582	 0.227033639310003 
583	 0.228385511767575 
584	 0.229651725522955 
585	 0.230843907347421 
586	 0.232005274481202 
587	 0.232901703711323 
588	 0.233654797420897 
589	 0.234371890347755 
590	 0.235057449813508 
591	 0.235712040541816 
592	 0.236346758756957 
593	 0.236969972863393 
594	 0.237589075862898 
595	 0.238051884816092 
596	 0.238349204312047 
597	 0.238594837900798 
598	 0.238689532101219 
599	 0.238668631306155 
600	 0.23859450798037 
601	 0.238536052704467 
602	 0.238455412046357 
603	 0.238335510817483 
604	 0.238171573844947 
605	 0.237990762885372 
606	 0.237756745710314 
607	 0.237460924564532 
608	 0.237135118218166 
609	 0.236817609059368 
610	 0.236465927045011 
611	 0.236055063617938 
612	 0.235696368307802 
613	 0.2353062538131 
614	 0.234879589232043 
615	 0.234462556371639 
616	 0.234062820877886 
617	 0.233663990795233 
618	 0.233258844341887 
619	 0.23286263654843 
620	 0.232463013138252 
621	 0.232063928826335 
622	 0.231674063410979 
623	 0.231297729599701 
624	 0.230917600142405 
625	 0.230532186887112 
626	 0.230153392373506 
627	 0.229734557313436 
628	 0.229360296908331 
629	 0.229068934164024 
630	 0.228726392878243 
631	 0.228382220404044 
632	 0.228073107790344 
633	 0.227819172522602 
634	 0.227551335839675 
635	 0.227271011787966 
636	 0.227003308084883 
637	 0.22679408199293 
638	 0.226544398840581 
639	 0.22631514839415 
640	 0.226159769243293 
641	 0.225972217151255 
642	 0.225805023442439 
643	 0.225681943071102 
644	 0.225596265159309 
645	 0.225438949282399 
646	 0.225297400942635 
647	 0.225230129906938 
648	 0.225210064411839 
649	 0.225187700498015 
650	 0.225172146989487 
651	 0.225183949198706 
652	 0.22519940835202 
653	 0.225236865273751 
654	 0.225280884332649 
655	 0.225299760898563 
656	 0.225447293907596 
657	 0.225630951836771 
658	 0.225773457108555 
659	 0.225909585262451 
660	 0.226118090332754 
661	 0.226354502080408 
662	 0.226547028362782 
663	 0.226762263364297 
664	 0.227032886120567 
665	 0.227335016320098 
666	 0.227595732571099 
667	 0.227917840645426 
668	 0.228299293685679 
669	 0.228704022287391 
670	 0.229065196861296 
671	 0.229459128085071 
672	 0.229907506799176 
673	 0.23039796457996 
674	 0.230874912585988 
675	 0.231387994835882 
676	 0.231930993657865 
677	 0.232421918905309 
678	 0.232991704293116 
679	 0.233591808445937 
680	 0.234174780911029 
681	 0.23483529343786 
682	 0.23551011660944 
683	 0.23619538672374 
684	 0.23691952250794 
685	 0.237678502101189 
686	 0.238462700711002 
687	 0.239261877780257 
688	 0.240066877523309 
689	 0.240860771372283 
690	 0.241687220223562 
691	 0.242583275041126 
692	 0.243505631453141 
693	 0.244430117671624 
694	 0.245347561761427 
695	 0.246269393519028 
696	 0.24729841439023 
697	 0.248335376502424 
698	 0.249336250683406 
699	 0.250384089088096 
700	 0.25144780852941 
701	 0.252530794942537 
702	 0.253647321480889 
703	 0.254819583474618 
704	 0.255990607175849 
705	 0.257152695500736 
706	 0.258333979764214 
707	 0.259520552117386 
708	 0.260747171227784 
709	 0.262007827905661 
710	 0.263218193252784 
711	 0.264455533759017 
712	 0.265709587600387 
713	 0.266963135689514 
714	 0.268282998833436 
715	 0.269607976905761 
716	 0.270900572530452 
717	 0.272156423131934 
718	 0.273502950568746 
719	 0.274878005629515 
720	 0.276222549824968 
721	 0.277528357229781 
722	 0.278833424689341 
723	 0.280169636941892 
724	 0.281547881030257 
725	 0.282924043920057 
726	 0.284283927792705 
727	 0.285595225258243 
728	 0.286826044675207 
729	 0.288063431316394 
730	 0.289356716299243 
731	 0.290689647527225 
732	 0.291954905084271 
733	 0.293193344377615 
734	 0.294428910619683 
735	 0.295668411749 
736	 0.296869236467455 
737	 0.297977105454128 
738	 0.299041941297821 
739	 0.300152884771327 
740	 0.301069529822284 
741	 0.301989230668576 
742	 0.302998155906055 
743	 0.303939258788659 
744	 0.304870596638021 
745	 0.305738528218905 
746	 0.306501607729783 
747	 0.307236152828634 
748	 0.30800465437695 
749	 0.308737813863188 
750	 0.309316404643726 
751	 0.309900734209282 
752	 0.310400112178106 
753	 0.310816774992742 
754	 0.311300624268435 
755	 0.311776659344612 
756	 0.312156838762046 
757	 0.312404945398588 
758	 0.312633185011871 
759	 0.31282636391255 
760	 0.312979284814329 
761	 0.313083121667352 
762	 0.313092516152548 
763	 0.313075782053361 
764	 0.313046483043716 
765	 0.312952072810168 
766	 0.312807061244582 
767	 0.312599809152831 
768	 0.312321916171149 
769	 0.311977673483657 
770	 0.311598047928676 
771	 0.311218624874957 
772	 0.31084256900499 
773	 0.310325512037068 
774	 0.30976697580361 
775	 0.309182923298551 
776	 0.30852167815787 
777	 0.307883910453086 
778	 0.307292569759777 
779	 0.306682780403203 
780	 0.305868598632161 
781	 0.305061337655224 
782	 0.304261744684467 
783	 0.30342010279922 
784	 0.302536808206282 
785	 0.301647768716485 
786	 0.300757739220739 
787	 0.299842468724604 
788	 0.298810877722234 
789	 0.297790032569813 
790	 0.296831946253426 
791	 0.295871865650175 
792	 0.29483254219696 
793	 0.293745919302636 
794	 0.292666607962195 
795	 0.291641936147211 
796	 0.290604298455266 
797	 0.289518895060219 
798	 0.288379309606389 
799	 0.287236924467039 
800	 0.286095348073299 
801	 0.284981188117725 
802	 0.283928810696553 
803	 0.282866527564191 
804	 0.281750074130085 
805	 0.280590337425358 
806	 0.279469928962896 
807	 0.278385537563447 
808	 0.277283796804784 
809	 0.276122976120421 
810	 0.27493279691483 
811	 0.273773930442085 
812	 0.272658082680909 
813	 0.271567212094865 
814	 0.270486617853248 
815	 0.269363172760438 
816	 0.268217894703461 
817	 0.267132296873399 
818	 0.266050591329033 
819	 0.26498845074015 
820	 0.263934085884595 
821	 0.262817483305912 
822	 0.261714263672566 
823	 0.26065319397462 
824	 0.259631037039051 
825	 0.258594940304557 
826	 0.25752886742102 
827	 0.256479215369959 
828	 0.255505538295854 
829	 0.254563855795224 
830	 0.253586030856281 
831	 0.252584804411642 
832	 0.251635013425276 
833	 0.250660760649596 
834	 0.249707503231088 
835	 0.2487941993727 
836	 0.24787200478788 
837	 0.246967076124082 
838	 0.246070569864069 
839	 0.245169740088656 
840	 0.244254067126316 
841	 0.243414688074814 
842	 0.242625368640371 
843	 0.241812001203919 
844	 0.240936603145563 
845	 0.240083299502313 
846	 0.239289476639054 
847	 0.238545646044073 
848	 0.237819233610356 
849	 0.237090534512728 
850	 0.236369288827847 
851	 0.2356966826147 
852	 0.235002778271357 
853	 0.234324354573441 
854	 0.233683805664526 
855	 0.233026938713021 
856	 0.232376617534881 
857	 0.231711482543426 
858	 0.231037686812583 
859	 0.230506742196165 
860	 0.229919911396465 
861	 0.229282909877655 
862	 0.22870029331171 
863	 0.228145892300356 
864	 0.227588065233721 
865	 0.227023538713475 
866	 0.226476181614536 
867	 0.225974284175762 
868	 0.225514952462031 
869	 0.225057509327751 
870	 0.224525362267467 
871	 0.224047719993602 
872	 0.223618969208058 
873	 0.223200330666188 
874	 0.222748517425598 
875	 0.222351424719435 
876	 0.221997909615958 
877	 0.221646872523868 
878	 0.221281075820594 
879	 0.220904732247273 
880	 0.220536747757871 
881	 0.220199135247217 
882	 0.219886466261391 
883	 0.219613510052502 
884	 0.219332410870417 
885	 0.218971423249513 
886	 0.218669286919561 
887	 0.218426073937101 
888	 0.218205977841996 
889	 0.217957220924214 
890	 0.217700504702297 
891	 0.21747670342171 
892	 0.217292178903019 
893	 0.217090212169609 
894	 0.216886960043514 
895	 0.216711793864435 
896	 0.216574666857418 
897	 0.216428546899167 
898	 0.216280574770126 
899	 0.216132652858543 
900	 0.215994880017064 
901	 0.21590787270463 
902	 0.215838523769252 
903	 0.215760645663425 
904	 0.215665410101944 
905	 0.215599960426534 
906	 0.215573220005297 
907	 0.215555211495524 
908	 0.2155051583271 
909	 0.215511946659732 
910	 0.215506189609039 
911	 0.21548282301541 
912	 0.215509026568685 
913	 0.215528951544808 
914	 0.215503147713425 
915	 0.215476153102299 
916	 0.215586903109996 
917	 0.215631314766212 
918	 0.215654057079413 
919	 0.215715950148254 
920	 0.215807993493867 
921	 0.215869717972737 
922	 0.215898296816481 
923	 0.215926310731271 
924	 0.216022503302772 
925	 0.216197680004422 
926	 0.216335686695255 
927	 0.216360360809954 
928	 0.216465953582317 
929	 0.216618227174098 
930	 0.216769683466951 
931	 0.216883506839706 
932	 0.217002562446119 
933	 0.217141906720099 
934	 0.217306891382407 
935	 0.217488672838802 
936	 0.217638578952104 
937	 0.217844199968377 
938	 0.218046026945028 
939	 0.2181313693768 
940	 0.218376944922156 
941	 0.21864911632046 
942	 0.218869653636027 
943	 0.219053106858953 
944	 0.219272325185977 
945	 0.219492338745104 
946	 0.21970014400967 
947	 0.219917967352686 
948	 0.220124173386115 
949	 0.220374523442194 
950	 0.220678944014266 
951	 0.220977926418596 
952	 0.221260690686478 
953	 0.221512443901087 
954	 0.221762163015112 
955	 0.222091930515683 
956	 0.222407890727565 
957	 0.222732301183173 
958	 0.223078572957538 
959	 0.223404793570198 
960	 0.223680570057544 
961	 0.223980048596653 
962	 0.224370025872472 
963	 0.224849980543092 
964	 0.225192388061494 
965	 0.225470230314802 
966	 0.22581537397676 
967	 0.226288465264732 
968	 0.226691096047649 
969	 0.22706802895512 
970	 0.227493613830461 
971	 0.227924327064419 
972	 0.228328348661841 
973	 0.228738976842479 
974	 0.229189683233243 
975	 0.229647780546972 
976	 0.23015778455006 
977	 0.230663042708857 
978	 0.231096792177074 
979	 0.231456246495711 
980	 0.231908713829921 
981	 0.232378466888508 
982	 0.232776265619163 
983	 0.233256654932884 
984	 0.23381989975874 
985	 0.234399022527457 
986	 0.234926653496902 
987	 0.235428701763899 
988	 0.235940741696309 
989	 0.236468104537613 
990	 0.236985964396651 
991	 0.237404379889516 
992	 0.237973460341176 
993	 0.238605858584582 
994	 0.23914694736682 
995	 0.23967472967682 
996	 0.240315367688774 
997	 0.240931882600474 
998	 0.24141704494042 
999	 0.242099356327467 
1000	 0.242779276488168 
1001	 0.236197196167216 
1002	 0.236807269826496 
1003	 0.237440536317669 
1004	 0.238005970473077 
1005	 0.238540859062377 
1006	 0.239104508135665 
1007	 0.239586741308348 
1008	 0.240206461561082 
1009	 0.240923631479438 
1010	 0.241594040090675 
1011	 0.242344247490563 
1012	 0.243019849332443 
1013	 0.243608305255792 
1014	 0.244259020272722 
1015	 0.244914669186218 
1016	 0.245563088316877 
1017	 0.246287950078468 
1018	 0.247025859127418 
1019	 0.247765788717178 
1020	 0.248503008600759 
1021	 0.249221648315524 
1022	 0.249895883890047 
1023	 0.250654066515821 
1024	 0.251412560372915 
1025	 0.252232811257052 
1026	 0.253160437186699 
1027	 0.254016490090966 
1028	 0.254867444725071 
1029	 0.255727227219535 
1030	 0.25655539980608 
1031	 0.257434626981705 
1032	 0.258332580210034 
1033	 0.25924454268705 
1034	 0.260189895725885 
1035	 0.261084522118344 
1036	 0.262030454025941 
1037	 0.263034978678459 
1038	 0.263989873367326 
1039	 0.264934090081045 
1040	 0.265900463674296 
1041	 0.266809888972353 
1042	 0.267810292822951 
1043	 0.268890949905913 
1044	 0.269945862668687 
1045	 0.270987352042917 
1046	 0.272059334375169 
1047	 0.2730535791248 
1048	 0.274095213177911 
1049	 0.275175823659268 
1050	 0.27623277692872 
1051	 0.277369539204665 
1052	 0.278488852371306 
1053	 0.279638758298183 
1054	 0.28085512948714 
1055	 0.282039713390333 
1056	 0.283219725792988 
1057	 0.284407747719144 
1058	 0.285588385532939 
1059	 0.286757552533428 
1060	 0.287998249116661 
1061	 0.289171418133681 
1062	 0.290433786696584 
1063	 0.291767733336959 
1064	 0.292984198737847 
1065	 0.294269691740362 
1066	 0.295533469370599 
1067	 0.296766917938569 
1068	 0.298174948651634 
1069	 0.299553755311752 
1070	 0.300950834108548 
1071	 0.302386666436176 
1072	 0.303873315971158 
1073	 0.305225735419213 
1074	 0.306639143902119 
1075	 0.308092640566849 
1076	 0.30950451997083 
1077	 0.311048528358905 
1078	 0.312601388692342 
1079	 0.314155703236408 
1080	 0.315754811925365 
1081	 0.317260221956742 
1082	 0.318783742960178 
1083	 0.320302148320547 
1084	 0.321837066560152 
1085	 0.323505887753253 
1086	 0.325149431332615 
1087	 0.32680335763563 
1088	 0.328538038402627 
1089	 0.330271269900998 
1090	 0.331893196312828 
1091	 0.333640303841 
1092	 0.335366491258993 
1093	 0.337093818961083 
1094	 0.33896629494898 
1095	 0.340737901985093 
1096	 0.342550128616071 
1097	 0.344447414671375 
1098	 0.346230120398083 
1099	 0.348095584876936 
1100	 0.349994566376485 
1101	 0.351876474094922 
1102	 0.353883595209357 
1103	 0.355860302142697 
1104	 0.357842765068634 
1105	 0.359878005930149 
1106	 0.36194495088542 
1107	 0.3638946545499 
1108	 0.365943252291447 
1109	 0.367991946731145 
1110	 0.370022287552567 
1111	 0.372210509727807 
1112	 0.374335750332727 
1113	 0.376526816604101 
1114	 0.378820936028794 
1115	 0.380976425491259 
1116	 0.383219863670756 
1117	 0.385450746389003 
1118	 0.387685823539057 
1119	 0.389920098271896 
1120	 0.392202899667807 
1121	 0.394483205719403 
1122	 0.396839193368403 
1123	 0.399251579660272 
1124	 0.40152367681736 
1125	 0.403903431860476 
1126	 0.406256122312878 
1127	 0.408563217738533 
1128	 0.411063597128099 
1129	 0.413491738536921 
1130	 0.415968918918136 
1131	 0.418555282410129 
1132	 0.420977188061351 
1133	 0.423464161347377 
1134	 0.425943143181847 
1135	 0.42846764623119 
1136	 0.43104469873467 
1137	 0.433615829627509 
1138	 0.43620167623659 
1139	 0.438825714962042 
1140	 0.441513949093588 
1141	 0.444006814833568 
1142	 0.446627476300715 
1143	 0.449233655056278 
1144	 0.451759520893213 
1145	 0.454456994030096 
1146	 0.457072273407602 
1147	 0.459743261419375 
1148	 0.462492123992592 
1149	 0.46504202957322 
1150	 0.46765493205632 
1151	 0.470257642162969 
1152	 0.472889352223378 
1153	 0.475546628129063 
1154	 0.478202152829027 
1155	 0.480899579681153 
1156	 0.483565078183634 
1157	 0.486190554085967 
1158	 0.488761928138433 
1159	 0.491326823876341 
1160	 0.493855121701645 
1161	 0.496323423131197 
1162	 0.49896536078484 
1163	 0.501531637356538 
1164	 0.50414446445985 
1165	 0.506817138137402 
1166	 0.509308065940482 
1167	 0.511876885560222 
1168	 0.51443224804606 
1169	 0.516980163533844 
1170	 0.519524094036645 
1171	 0.522068064062409 
1172	 0.524595902960402 
1173	 0.527154111461647 
1174	 0.52969767157599 
1175	 0.532220685772176 
1176	 0.534756036807948 
1177	 0.537301354849535 
1178	 0.539781909606935 
1179	 0.542424178186935 
1180	 0.544970625795521 
1181	 0.547558567152071 
1182	 0.550227359861391 
1183	 0.552722996215431 
1184	 0.55530185109691 
1185	 0.55786540284438 
1186	 0.560428912013592 
1187	 0.562978932834615 
1188	 0.565539338583709 
1189	 0.568127389970556 
1190	 0.570689441844973 
1191	 0.573222652532754 
1192	 0.575716170782081 
1193	 0.578203947825705 
1194	 0.580665654656609 
1195	 0.583109236648352 
1196	 0.585539125814542 
1197	 0.587935274823551 
1198	 0.590350623156357 
1199	 0.592798936272824 
1200	 0.595077708477546 
1201	 0.597408466371044 
1202	 0.599703751335913 
1203	 0.601944707813835 
1204	 0.604311266454805 
1205	 0.606597629291401 
1206	 0.608871852704548 
1207	 0.611172784625678 
1208	 0.613447703772381 
1209	 0.615727113445154 
1210	 0.618045310840426 
1211	 0.620338842118195 
1212	 0.6226388128627 
1213	 0.624914242343289 
1214	 0.627192748748109 
1215	 0.629446112985723 
1216	 0.631679933010802 
1217	 0.633849830871807 
1218	 0.636005896017914 
1219	 0.638103858073546 
1220	 0.640106044409199 
1221	 0.642178509094097 
1222	 0.644151036014098 
1223	 0.646132628856173 
1224	 0.648067027437244 
1225	 0.649957643737369 
1226	 0.651803673653901 
1227	 0.653606445164846 
1228	 0.655404144761984 
1229	 0.657166217379938 
1230	 0.658929637518523 
1231	 0.660686046921766 
1232	 0.662433599516637 
1233	 0.664164681593666 
1234	 0.665862045031998 
1235	 0.667527939030143 
1236	 0.669214168803477 
1237	 0.670911406077401 
1238	 0.672569315467769 
1239	 0.674211886268887 
1240	 0.675855352216304 
1241	 0.67752290272483 
1242	 0.679052613264087 
1243	 0.680607136563985 
1244	 0.682171216861528 
1245	 0.683686223452871 
1246	 0.685161688220672 
1247	 0.686600843811854 
1248	 0.68802079513658 
1249	 0.689406334240839 
1250	 0.690728909719317 
1251	 0.692042916450389 
1252	 0.693362621924707 
1253	 0.694624643494851 
1254	 0.695843379532543 
1255	 0.697041166338051 
1256	 0.69820041693164 
1257	 0.699342862497075 
1258	 0.700471689918493 
1259	 0.701555569408878 
1260	 0.702587663457306 
1261	 0.703623062421257 
1262	 0.704609520171078 
1263	 0.705630992192336 
1264	 0.706621864298948 
1265	 0.707620397497263 
1266	 0.708584763792651 
1267	 0.709525562969063 
1268	 0.710440853599543 
1269	 0.711328311183818 
1270	 0.712213048990726 
1271	 0.713080208999084 
1272	 0.713927976915874 
1273	 0.714770489494316 
1274	 0.715584096996842 
1275	 0.716356885889516 
1276	 0.717127926462248 
1277	 0.717880203044992 
1278	 0.718627792403325 
1279	 0.719369305824372 
1280	 0.720092278058341 
1281	 0.720809565658667 
1282	 0.721500474117061 
1283	 0.722162165442134 
1284	 0.722811299636875 
1285	 0.72344287968492 
1286	 0.724047777690658 
1287	 0.724659895625247 
1288	 0.725269996374685 
1289	 0.725849320467976 
1290	 0.726422021034791 
1291	 0.726963238267244 
1292	 0.727477310687273 
1293	 0.727964844709542 
1294	 0.728432035948892 
1295	 0.728871423828809 
1296	 0.729260273657873 
1297	 0.729669307364346 
1298	 0.73006600486295 
1299	 0.730462737734151 
1300	 0.730871075682246 
1301	 0.731256760106224 
1302	 0.731630534334262 
1303	 0.731991957951473 
1304	 0.732350522840697 
1305	 0.73268004204431 
1306	 0.732990725811534 
1307	 0.733283635929114 
1308	 0.733542280870394 
1309	 0.733797282331218 
1310	 0.73405158175538 
1311	 0.734298164286181 
1312	 0.734538047469141 
1313	 0.734792852328817 
1314	 0.734987474793423 
1315	 0.735151546716878 
1316	 0.735306242576443 
1317	 0.735419655998848 
1318	 0.735543139884328 
1319	 0.735666317975555 
1320	 0.735776925980919 
1321	 0.735882959527759 
1322	 0.735965764341675 
1323	 0.736042753043124 
1324	 0.736094050810877 
1325	 0.736121739753093 
1326	 0.736132534467412 
1327	 0.736129213634171 
1328	 0.736102227234495 
1329	 0.736060642218939 
1330	 0.735989212485128 
1331	 0.735886658029442 
1332	 0.73577238618443 
1333	 0.7356376545675 
1334	 0.735483138663401 
1335	 0.735312366125346 
1336	 0.735125912904457 
1337	 0.734931153714225 
1338	 0.734726798586144 
1339	 0.734486705903695 
1340	 0.734244354328195 
1341	 0.733945725849707 
1342	 0.733603169846722 
1343	 0.733237128062063 
1344	 0.732836684678983 
1345	 0.732414054456509 
1346	 0.731966746153818 
1347	 0.731489210373533 
1348	 0.730992892260218 
1349	 0.730453123238292 
1350	 0.729864744943013 
1351	 0.729269178483692 
1352	 0.728633239018547 
1353	 0.728000375659496 
1354	 0.727342199331044 
1355	 0.726706867181004 
1356	 0.726044726230001 
1357	 0.72543433988014 
1358	 0.724826221666237 
1359	 0.724285438786958 
1360	 0.723798148375031 
1361	 0.723345821479686 
1362	 0.722950611016271 
1363	 0.722613430889444 
1364	 0.722271990598865 
1365	 0.721970438142593 
1366	 0.721651955593265 
1367	 0.721344332679949 
1368	 0.721026972615453 
1369	 0.720724428291748 
1370	 0.720376946445328 
1371	 0.720028855652052 
1372	 0.71962846573068 
1373	 0.719209861289815 
1374	 0.718715991846126 
1375	 0.718183019778971 
1376	 0.717576528735785 
1377	 0.716893829342325 
1378	 0.716167957008293 
1379	 0.71535584866688 
1380	 0.714555661689004 
1381	 0.71369411007182 
1382	 0.712865430536428 
1383	 0.712059588837408 
1384	 0.711225379844247 
1385	 0.710448108108883 
1386	 0.709557758871372 
1387	 0.708680329457225 
1388	 0.707643808655728 
1389	 0.706550695169479 
1390	 0.705263413236909 
1391	 0.703816112801402 
1392	 0.702194032858822 
1393	 0.700476298154652 
1394	 0.698678963231705 
1395	 0.696948652481641 
1396	 0.695137969790351 
1397	 0.693563904504644 
1398	 0.692029600536824 
1399	 0.690694700020265 
1400	 0.689595884846914 
1401	 0.688414610727122 
1402	 0.687434233863308 
1403	 0.686150351568507 
1404	 0.684880207885498 
1405	 0.683278140439679 
1406	 0.681527633331919 
1407	 0.679432171727804 
1408	 0.67702659931143 
1409	 0.674453844307509 
1410	 0.671500392209721 
1411	 0.66858370625388 
1412	 0.665365125864604 
1413	 0.66244423656119 
1414	 0.659389251172526 
1415	 0.656751483455892 
1416	 0.654302369991307 
1417	 0.652188786842775 
1418	 0.650425131652457 
1419	 0.648849439700178 
1420	 0.647686535497446 
1421	 0.6465201887693 
1422	 0.645681946536125 
1423	 0.644631571994757 
1424	 0.643625480379412 
1425	 0.642453466273521 
1426	 0.641122866736499 
1427	 0.639549124350252 
1428	 0.63767166517099 
1429	 0.635714977238987 
1430	 0.633515759207745 
1431	 0.631044384425248 
1432	 0.628521314014351 
1433	 0.62577472843754 
1434	 0.623126907156539 
1435	 0.620358320929409 
1436	 0.617701393657143 
1437	 0.615068911254811 
1438	 0.612542609687373 
1439	 0.610035218430247 
1440	 0.60764735062284 
1441	 0.605311573789315 
1442	 0.603168911828869 
1443	 0.600997201155144 
1444	 0.599282644554647 
1445	 0.597701346794077 
1446	 0.596694795197722 
1447	 0.596007071553818 
1448	 0.595910245550918 
1449	 0.596416905042423 
1450	 0.597220888709334 
1451	 0.598718221707666 
1452	 0.600154576273306 
1453	 0.602061734964416 
1454	 0.603670955249715 
1455	 0.605360976955961 
1456	 0.606813263510184 
1457	 0.608035417420528 
1458	 0.609231453081039 
1459	 0.610153910864092 
1460	 0.611268720174066 
1461	 0.612346454715259 
1462	 0.61357339404856 
1463	 0.615002258868164 
1464	 0.616427712213331 
1465	 0.617934736475143 
1466	 0.619512976449869 
1467	 0.620969334720968 
1468	 0.62236682412399 
1469	 0.623610696708041 
1470	 0.624659637590176 
1471	 0.625614103016642 
1472	 0.626431169624997 
1473	 0.627146564306835 
1474	 0.627744573931864 
1475	 0.628221173153557 
1476	 0.628583886768253 
1477	 0.628815438600583 
1478	 0.628911074229232 
1479	 0.628902125841367 
1480	 0.628773483211345 
1481	 0.628531725232989 
1482	 0.62812435450914 
1483	 0.62772802756112 
1484	 0.627200839365491 
1485	 0.626741035502951 
1486	 0.626230575382673 
1487	 0.625843991392285 
1488	 0.625443229616668 
1489	 0.625218722784645 
1490	 0.625089772495749 
1491	 0.62511343446203 
1492	 0.625254274052271 
1493	 0.625557073283062 
1494	 0.626037791238345 
1495	 0.626603210022753 
1496	 0.627333745964278 
1497	 0.628109969966819 
1498	 0.629023541187065 
1499	 0.62992322024432 
1500	 0.630905956963718 
1501	 0.631861601292208 
1502	 0.632858568597353 
1503	 0.633780665909623 
1504	 0.634719024306279 
1505	 0.635552873324097 
1506	 0.636320452236424 
1507	 0.637007030327436 
1508	 0.637610099101734 
1509	 0.638148874199553 
1510	 0.638588027880556 
1511	 0.638994833533112 
1512	 0.639325734061196 
1513	 0.639640971629704 
1514	 0.639894727117149 
1515	 0.640161912868199 
1516	 0.640386963707373 
1517	 0.640651364488249 
1518	 0.640943235218436 
1519	 0.641234499103514 
1520	 0.641552172938576 
1521	 0.641870213013833 
1522	 0.64216505312623 
1523	 0.642448236499663 
1524	 0.642711411903072 
1525	 0.642956053827672 
1526	 0.643191760262769 
1527	 0.643419048184704 
1528	 0.643610649314631 
1529	 0.643780003917521 
1530	 0.643939051876452 
1531	 0.644057892042622 
1532	 0.644209764991719 
1533	 0.644357199386849 
1534	 0.644536299515485 
1535	 0.644717155734295 
1536	 0.644953857810911 
1537	 0.645214490534528 
1538	 0.645532616399481 
1539	 0.6458967051364 
1540	 0.64630632612924 
1541	 0.646747284887143 
1542	 0.647276283976863 
1543	 0.64785964206614 
1544	 0.648519579609862 
1545	 0.649264307525581 
1546	 0.650059000872331 
1547	 0.650926486260518 
1548	 0.651826689135792 
1549	 0.652798623585256 
1550	 0.65377713890544 
1551	 0.654793120961702 
1552	 0.655821677960742 
1553	 0.656881859169357 
1554	 0.657943700207619 
1555	 0.659035554885297 
1556	 0.660104445672078 
1557	 0.661175830459136 
1558	 0.662236826648408 
1559	 0.663302232796077 
1560	 0.664327295390874 
1561	 0.665346205498492 
1562	 0.666322562858019 
1563	 0.66726861333388 
1564	 0.668167403491991 
1565	 0.669024168283964 
1566	 0.66985812042742 
1567	 0.670637635237665 
1568	 0.671415469345601 
1569	 0.672164716206839 
1570	 0.672925263480826 
1571	 0.673688648098492 
1572	 0.674420352566385 
1573	 0.675162262873488 
1574	 0.675852668044823 
1575	 0.676504694145844 
1576	 0.677122877551219 
1577	 0.677699280624575 
1578	 0.67826142321526 
1579	 0.678782116224202 
1580	 0.67929802962685 
1581	 0.679787742028064 
1582	 0.680289108621489 
1583	 0.680781949491645 
1584	 0.681275807508037 
1585	 0.681781407575924 
1586	 0.682273070547186 
1587	 0.682746760308419 
1588	 0.683229482330353 
1589	 0.683718571833777 
1590	 0.684194959047264 
1591	 0.684655688825818 
1592	 0.685137884831337 
1593	 0.685621107552348 
1594	 0.686109921191313 
1595	 0.686630357787156 
1596	 0.687123871691052 
1597	 0.687592222271372 
1598	 0.688077544287265 
1599	 0.688564318683197 
1600	 0.689050967671469 
1601	 0.689545620609866 
1602	 0.690039418003036 
1603	 0.690546084742321 
1604	 0.691019876954184 
1605	 0.691479539623941 
1606	 0.691935451627371 
1607	 0.692383684300353 
1608	 0.692797874416643 
1609	 0.693200431873197 
1610	 0.693584272720701 
1611	 0.693927427191284 
1612	 0.694260243429054 
1613	 0.694569039289369 
1614	 0.694890649664768 
1615	 0.695215841145369 
1616	 0.695515539407497 
1617	 0.695815515811658 
1618	 0.696102891483314 
1619	 0.69635857792729 
1620	 0.696608328968034 
1621	 0.696864536635986 
1622	 0.697096922204938 
1623	 0.697295973953643 
1624	 0.697501288439553 
1625	 0.697705389905016 
1626	 0.69789417842048 
1627	 0.698060464690226 
1628	 0.698245387101992 
1629	 0.698435887653758 
1630	 0.698614310504018 
1631	 0.698799334152445 
1632	 0.698981187484646 
1633	 0.699156997463477 
1634	 0.699315246246609 
1635	 0.699476813726227 
1636	 0.699619990929786 
1637	 0.699739157229455 
1638	 0.699845984928938 
1639	 0.699933379879457 
1640	 0.700024462704771 
1641	 0.700117117657693 
1642	 0.700180183338509 
1643	 0.700232633195508 
1644	 0.700277295785597 
1645	 0.700290825782452 
1646	 0.700303448710853 
1647	 0.700312857900635 
1648	 0.700319467296431 
1649	 0.700333303263306 
1650	 0.700309646383594 
1651	 0.700273383932066 
1652	 0.700220431157361 
1653	 0.700144610046865 
1654	 0.700031348346119 
1655	 0.699904652943538 
1656	 0.699737667440937 
1657	 0.699507909533847 
1658	 0.699284149468032 
1659	 0.6990565942506 
1660	 0.69879658677036 
1661	 0.698540716073605 
1662	 0.698207662309647 
1663	 0.697823942720457 
1664	 0.697391144542825 
1665	 0.696894686115095 
1666	 0.696360578231515 
1667	 0.69579732173415 
1668	 0.695172529172346 
1669	 0.694506847507433 
1670	 0.693759464024442 
1671	 0.692927159494337 
1672	 0.692051807736014 
1673	 0.691089482341014 
1674	 0.690123235176697 
1675	 0.689117980485197 
1676	 0.688120199124734 
1677	 0.687100231436714 
1678	 0.686074457631478 
1679	 0.685023985285193 
1680	 0.683990473735724 
1681	 0.682930884805998 
1682	 0.68192732571967 
1683	 0.680942644929759 
1684	 0.680028757140741 
1685	 0.679161349091547 
1686	 0.678340295667619 
1687	 0.677555978183792 
1688	 0.676850085573031 
1689	 0.676205199518492 
1690	 0.675607639939061 
1691	 0.675119303258856 
1692	 0.674605847664313 
1693	 0.67413094484058 
1694	 0.673630821012449 
1695	 0.673141138076713 
1696	 0.672603312567786 
1697	 0.67204479345871 
1698	 0.671453208721342 
1699	 0.670838289477214 
1700	 0.670193397415846 
1701	 0.669540652479039 
1702	 0.66879933441679 
1703	 0.667990313984434 
1704	 0.667156594527996 
1705	 0.666255261930927 
1706	 0.665325086107126 
1707	 0.664423089002147 
1708	 0.663417354758497 
1709	 0.662348674673629 
1710	 0.661207795930445 
1711	 0.659916192637859 
1712	 0.65858706678032 
1713	 0.657145539835527 
1714	 0.655559510509239 
1715	 0.653994215023782 
1716	 0.652340512103989 
1717	 0.650642247853961 
1718	 0.648948126056125 
1719	 0.647129011501098 
1720	 0.645334416995407 
1721	 0.643535143711122 
1722	 0.64174839087678 
1723	 0.640120433481699 
1724	 0.638490749377502 
1725	 0.636940247273767 
1726	 0.635530153472192 
1727	 0.63411997377477 
1728	 0.632830198734495 
1729	 0.631626879947941 
1730	 0.630474367543292 
1731	 0.629465442998215 
1732	 0.628495288374386 
1733	 0.627560603119184 
1734	 0.626683370159498 
1735	 0.625775125628199 
1736	 0.624959618145643 
1737	 0.624192133713382 
1738	 0.623448061983249 
1739	 0.62277595846076 
1740	 0.622125866217 
1741	 0.621532635754042 
1742	 0.620991357566967 
1743	 0.62052731484872 
1744	 0.620091021354155 
1745	 0.619788184648132 
1746	 0.619618477401778 
1747	 0.619506610547824 
1748	 0.619486707174036 
1749	 0.61953239915059 
1750	 0.619651933084931 
1751	 0.619847596464153 
1752	 0.620144731070613 
1753	 0.620465717222146 
1754	 0.620849124959347 
1755	 0.621258167019068 
1756	 0.621699780932759 
1757	 0.622177267561055 
1758	 0.622726106762233 
1759	 0.623261764336071 
1760	 0.623864973284662 
1761	 0.624500708013475 
1762	 0.625071512349491 
1763	 0.625634934037733 
1764	 0.626132766847885 
1765	 0.626585772183818 
1766	 0.627070689542517 
1767	 0.62754856789843 
1768	 0.628039703442991 
1769	 0.628503791525762 
1770	 0.628918747029423 
1771	 0.629336854965262 
1772	 0.629745597811615 
1773	 0.630164369920651 
1774	 0.630616797236235 
1775	 0.631070659065646 
1776	 0.63151831457531 
1777	 0.631953343104522 
1778	 0.632395753263417 
1779	 0.63286595452514 
1780	 0.633352501060317 
1781	 0.633917920614243 
1782	 0.63452983574487 
1783	 0.635123586282929 
1784	 0.635785815996027 
1785	 0.636461962947556 
1786	 0.637150903045959 
1787	 0.637899355879125 
1788	 0.638613322404144 
1789	 0.639326822079171 
1790	 0.640047576851452 
1791	 0.640769944303135 
1792	 0.641479286738192 
1793	 0.642163941638103 
1794	 0.642819289659312 
1795	 0.64349089118421 
1796	 0.644166869900657 
1797	 0.644949035259233 
1798	 0.645676479508759 
1799	 0.646375839253552 
1800	 0.647049581069871 
1801	 0.664963922561117 
1802	 0.666327854527671 
1803	 0.667527446351312 
1804	 0.668577326493957 
1805	 0.669611167488534 
1806	 0.670518836272951 
1807	 0.671313339690795 
1808	 0.672075738708781 
1809	 0.672744774064352 
1810	 0.673375465456147 
1811	 0.673953773470142 
1812	 0.674487261933565 
1813	 0.674933060407465 
1814	 0.675411848597024 
1815	 0.675821140196729 
1816	 0.676217457259554 
1817	 0.676617696954779 
1818	 0.676984150684962 
1819	 0.677375590356602 
1820	 0.677776631446814 
1821	 0.678175590724093 
1822	 0.678577380788107 
1823	 0.679008130837933 
1824	 0.679384795641707 
1825	 0.679748296094099 
1826	 0.680101255721147 
1827	 0.680435419904013 
1828	 0.68073689211308 
1829	 0.681028463954491 
1830	 0.681303405264018 
1831	 0.681551791080428 
1832	 0.681774990190462 
1833	 0.681975974195637 
1834	 0.682187074357051 
1835	 0.682391780046888 
1836	 0.682564988131797 
1837	 0.682747506399676 
1838	 0.682948524732045 
1839	 0.683121214186845 
1840	 0.683265662029379 
1841	 0.68342035290002 
1842	 0.683605249859672 
1843	 0.683737475722626 
1844	 0.683811324124623 
1845	 0.683847616310069 
1846	 0.683778221708158 
1847	 0.683637672221615 
1848	 0.683442585278352 
1849	 0.683202203152035 
1850	 0.682866990014124 
1851	 0.68246673088999 
1852	 0.681983690375871 
1853	 0.681401583382655 
1854	 0.680757281203531 
1855	 0.680028651870378 
1856	 0.67923956309222 
1857	 0.678343257705061 
1858	 0.677310602924533 
1859	 0.676200422320272 
1860	 0.675016324011885 
1861	 0.67364706250043 
1862	 0.672137167112562 
1863	 0.670597920239538 
1864	 0.66881470941767 
1865	 0.666956562944106 
1866	 0.66495528803652 
1867	 0.662669352897455 
1868	 0.660301889116336 
1869	 0.657770885319115 
1870	 0.655223634079792 
1871	 0.65260544627353 
1872	 0.650011427799802 
1873	 0.647385181904861 
1874	 0.644766252684929 
1875	 0.642164339283755 
1876	 0.639253652524141 
1877	 0.636362962785256 
1878	 0.63330597612268 
1879	 0.629951416392564 
1880	 0.626704294485585 
1881	 0.623212411136285 
1882	 0.619501462235614 
1883	 0.615688738864742 
1884	 0.611761470648573 
1885	 0.607434813595997 
1886	 0.603170241949472 
1887	 0.598672535989846 
1888	 0.593961972483738 
1889	 0.589528161931291 
1890	 0.584840579475997 
1891	 0.5801205712223 
1892	 0.575485249000472 
1893	 0.570598890522943 
1894	 0.565448534152151 
1895	 0.560422337476794 
1896	 0.555271116563545 
1897	 0.549945352747163 
1898	 0.544994908079205 
1899	 0.539900982060519 
1900	 0.534871405505676 
1901	 0.530012153052414 
1902	 0.524856819063582 
1903	 0.519941969069785 
1904	 0.515081488507011 
1905	 0.510214919851395 
1906	 0.505416621776706 
1907	 0.501108316441491 
1908	 0.496704028234962 
1909	 0.492434692690564 
1910	 0.488364329444444 
1911	 0.48404627377473 
1912	 0.479942208948407 
1913	 0.475873812310111 
1914	 0.47174309072104 
1915	 0.467825615913299 
1916	 0.464140663178062 
1917	 0.460317313894855 
1918	 0.45658362056309 
1919	 0.452969033728119 
1920	 0.449115305508867 
1921	 0.445437076884502 
1922	 0.441726547303704 
1923	 0.437939443922611 
1924	 0.434473524987517 
1925	 0.430923743239041 
1926	 0.427451471263305 
1927	 0.424112457203778 
1928	 0.420762290503707 
1929	 0.417332314035696 
1930	 0.414124178292645 
1931	 0.411041760187208 
1932	 0.408068130894382 
1933	 0.40551465051903 
1934	 0.403112605558565 
1935	 0.400899841426227 
1936	 0.399013895250411 
1937	 0.397326157428766 
1938	 0.395817432710955 
1939	 0.394641555712164 
1940	 0.393736057156564 
1941	 0.39308469754262 
1942	 0.39273725692617 
1943	 0.392582681280432 
1944	 0.392643125064925 
1945	 0.392961394281367 
1946	 0.393547953858607 
1947	 0.394316050800042 
1948	 0.395386546937041 
1949	 0.396772886128436 
1950	 0.398325495304754 
1951	 0.400144059160438 
1952	 0.402149031796025 
1953	 0.404350473868948 
1954	 0.406752070329729 
1955	 0.409467043078831 
1956	 0.412169996348311 
1957	 0.414944505139811 
1958	 0.417729246948194 
1959	 0.420206053503606 
1960	 0.422560673895038 
1961	 0.424719119571271 
1962	 0.426656420661663 
1963	 0.428454771992334 
1964	 0.430083686619956 
1965	 0.431549973721344 
1966	 0.432852001764896 
1967	 0.434023803212396 
1968	 0.434989864489722 
1969	 0.435965661455487 
1970	 0.436875091925158 
1971	 0.437773111891158 
1972	 0.438796882282078 
1973	 0.439816571406751 
1974	 0.440916717394333 
1975	 0.442123008926509 
1976	 0.443335785102553 
1977	 0.444563011666143 
1978	 0.445871074780172 
1979	 0.44721549788311 
1980	 0.448625889175705 
1981	 0.450184271781607 
1982	 0.451708508710996 
1983	 0.453362878482617 
1984	 0.455082446347502 
1985	 0.456748271834129 
1986	 0.458622153428246 
1987	 0.460604904913161 
1988	 0.462593102008363 
1989	 0.46489228156086 
1990	 0.467406438035619 
1991	 0.470061822491715 
1992	 0.472933438779809 
1993	 0.476045760068088 
1994	 0.479065263875825 
1995	 0.482306163750285 
1996	 0.485571798386412 
1997	 0.488849750925827 
1998	 0.492266334162004 
1999	 0.495878478088213 
2000	 0.499300042295263 
2001	 0.502900196375518 
2002	 0.506148686438606 
2003	 0.509187045007496 
2004	 0.512174802553448 
2005	 0.514944039676244 
2006	 0.517684526359436 
2007	 0.52043154734496 
2008	 0.522973487204453 
2009	 0.525399832774477 
2010	 0.527738754870876 
2011	 0.529774976262724 
2012	 0.531736604503435 
2013	 0.533576867406685 
2014	 0.535225512579569 
2015	 0.536841097569915 
2016	 0.538406272413027 
2017	 0.539807816433982 
2018	 0.541133073519521 
2019	 0.542292508811242 
2020	 0.543264298832164 
2021	 0.544174308574514 
2022	 0.544955338660878 
2023	 0.545553370426777 
2024	 0.546087519844251 
2025	 0.546509969883575 
2026	 0.546810359091413 
2027	 0.546985899764368 
2028	 0.547070675363208 
2029	 0.546987990722841 
2030	 0.546903627063679 
2031	 0.546707616098044 
2032	 0.546532434772797 
2033	 0.546280627613648 
2034	 0.546094664624241 
2035	 0.545898447146213 
2036	 0.545738932935654 
2037	 0.545633531709511 
2038	 0.545640777972429 
2039	 0.545745806887338 
2040	 0.545932294605069 
2041	 0.54622863383943 
2042	 0.546643466738357 
2043	 0.547120880478022 
2044	 0.547720120114348 
2045	 0.548338226240534 
2046	 0.549029111667562 
2047	 0.549771012137761 
2048	 0.550556715120017 
2049	 0.551392842053139 
2050	 0.552327086004226 
2051	 0.553248882363943 
2052	 0.554199398232545 
2053	 0.555172077738092 
2054	 0.556115206897992 
2055	 0.557038691844758 
2056	 0.557998411011253 
2057	 0.558941145863238 
2058	 0.559938810249271 
2059	 0.560980935845184 
2060	 0.562021208666603 
2061	 0.563103855522798 
2062	 0.564169237392328 
2063	 0.565237903939186 
2064	 0.566310660047311 
2065	 0.567374907899029 
2066	 0.568437400639538 
2067	 0.569590939062211 
2068	 0.570696862887111 
2069	 0.571793346223537 
2070	 0.572942718391459 
2071	 0.573983254380874 
2072	 0.574948869262491 
2073	 0.575918693034788 
2074	 0.576857608883111 
2075	 0.577759740596261 
2076	 0.578659373033896 
2077	 0.579475915560195 
2078	 0.580268135802367 
2079	 0.580956972533309 
2080	 0.581544718838534 
2081	 0.582099138017998 
2082	 0.582584080609392 
2083	 0.582987978539123 
2084	 0.58339332006049 
2085	 0.583757990148086 
2086	 0.584057001399356 
2087	 0.584314842742014 
2088	 0.58449605236676 
2089	 0.584587140243525 
2090	 0.584668831282232 
2091	 0.584700419499448 
2092	 0.584692298434598 
2093	 0.584660090572913 
2094	 0.58457475399304 
2095	 0.584399357842306 
2096	 0.584239845072843 
2097	 0.58406725159003 
2098	 0.583857995762356 
2099	 0.583639446024158 
2100	 0.583414222136419 
2101	 0.583136375681209 
2102	 0.5828223236652 
2103	 0.582473506799942 
2104	 0.582070505892578 
2105	 0.581676646588261 
2106	 0.581250674616016 
2107	 0.580826571159354 
2108	 0.580415467173167 
2109	 0.579962021963225 
2110	 0.579468903313838 
2111	 0.578988557257955 
2112	 0.578484557184045 
2113	 0.577985165239759 
2114	 0.577503954689833 
2115	 0.576995085552334 
2116	 0.576467735979859 
2117	 0.575948767245853 
2118	 0.575376728886134 
2119	 0.574780683372735 
2120	 0.574161668578228 
2121	 0.573501535718846 
2122	 0.572829717120474 
2123	 0.572160304029955 
2124	 0.57142008341815 
2125	 0.570650901762339 
2126	 0.56982278423398 
2127	 0.568927299331545 
2128	 0.56801333879988 
2129	 0.567042249870452 
2130	 0.566058088717617 
2131	 0.5650830074879 
2132	 0.564021840243263 
2133	 0.562913798180005 
2134	 0.561768223792781 
2135	 0.560493682427978 
2136	 0.559216362007838 
2137	 0.557855863389805 
2138	 0.556405879017913 
2139	 0.554961122504634 
2140	 0.553477114542921 
2141	 0.551947765673401 
2142	 0.55043189947706 
2143	 0.548790406921157 
2144	 0.547050608696317 
2145	 0.545289760076585 
2146	 0.543410989714144 
2147	 0.541571362798991 
2148	 0.539755405127499 
2149	 0.537857822456924 
2150	 0.535967267967729 
2151	 0.533980074884568 
2152	 0.531851512164737 
2153	 0.529768585110665 
2154	 0.527632912876097 
2155	 0.525438725164312 
2156	 0.523348049010241 
2157	 0.521298545313536 
2158	 0.519233507465293 
2159	 0.517230867728001 
2160	 0.515163480792937 
2161	 0.513004722583697 
2162	 0.511003906490447 
2163	 0.508974212798304 
2164	 0.507129194037715 
2165	 0.505449731896444 
2166	 0.503796869047122 
2167	 0.502259103695905 
2168	 0.500752484952954 
2169	 0.499261541393552 
2170	 0.497894083987516 
2171	 0.496575144174258 
2172	 0.49539058236586 
2173	 0.494351739161488 
2174	 0.493382434751878 
2175	 0.492502591261495 
2176	 0.491710162431673 
2177	 0.490971167378536 
2178	 0.490290957131917 
2179	 0.489708111358422 
2180	 0.489205201448465 
2181	 0.488778787256079 
2182	 0.488450125820908 
2183	 0.488163196677229 
2184	 0.487964370777405 
2185	 0.487788504562554 
2186	 0.487686816779417 
2187	 0.487579832013053 
2188	 0.487535044795239 
2189	 0.487444175434078 
2190	 0.487395542902974 
2191	 0.48725116513576 
2192	 0.487079161478074 
2193	 0.486822503448271 
2194	 0.486471763031592 
2195	 0.486085924214353 
2196	 0.48564495259454 
2197	 0.48514719494554 
2198	 0.484579998522213 
2199	 0.483985881657165 
2200	 0.483325330690523 
2201	 0.482603710292876 
2202	 0.481805325185743 
2203	 0.480900887557232 
2204	 0.480070638127787 
2205	 0.479097103294964 
2206	 0.47839070284723 
2207	 0.477778339150587 
2208	 0.477314895115602 
2209	 0.477010266585641 
2210	 0.476822444762913 
2211	 0.476785103110976 
2212	 0.476824189243026 
2213	 0.477022905665701 
2214	 0.477239722248541 
2215	 0.477571922891739 
2216	 0.477883835014826 
2217	 0.478228772171797 
2218	 0.478596679608863 
2219	 0.478990686630803 
2220	 0.479389587748828 
2221	 0.47979143959663 
2222	 0.480263061428914 
2223	 0.480723700407229 
2224	 0.481163632980912 
2225	 0.481619524882901 
2226	 0.482053488485167 
2227	 0.482403683953458 
2228	 0.482749215653681 
2229	 0.482908347150609 
2230	 0.483001813271197 
2231	 0.482879691292168 
2232	 0.482610405546553 
2233	 0.482134866480546 
2234	 0.481496872616975 
2235	 0.480631338801749 
2236	 0.47956006056143 
2237	 0.478283546382546 
2238	 0.476743984792093 
2239	 0.475086722418858 
2240	 0.473257061451992 
2241	 0.471219261101069 
2242	 0.469026718682085 
2243	 0.466615657132643 
2244	 0.463848816017677 
2245	 0.461134175041407 
2246	 0.458137345684081 
2247	 0.455324922540774 
2248	 0.452534871285555 
2249	 0.44982768150566 
2250	 0.447159704218129 
2251	 0.444702897887772 
2252	 0.442155005435145 
2253	 0.439826037350201 
2254	 0.437632307145644 
2255	 0.435510810730641 
2256	 0.433624320555815 
2257	 0.431770147805862 
2258	 0.429891673373808 
2259	 0.428113883422573 
2260	 0.426162052471864 
2261	 0.424129036313355 
2262	 0.422106061884077 
2263	 0.419868252691386 
2264	 0.417956717990254 
2265	 0.416078086985299 
2266	 0.414488299388402 
2267	 0.413029212587171 
2268	 0.412002714113956 
2269	 0.411202690972714 
2270	 0.410856447816086 
2271	 0.4110343034597 
2272	 0.411368498212482 
2273	 0.412139995417459 
2274	 0.412952254279234 
2275	 0.414027212263156 
2276	 0.415112617733255 
2277	 0.416444185555463 
2278	 0.417594412294505 
2279	 0.418801352895977 
2280	 0.419849081313432 
2281	 0.420724009102893 
2282	 0.421592532212294 
2283	 0.422392068058252 
2284	 0.423129154889637 
2285	 0.42385700727802 
2286	 0.424557748472997 
2287	 0.425227660600033 
2288	 0.42588068914977 
2289	 0.426494903127921 
2290	 0.427103841236393 
2291	 0.427707128568633 
2292	 0.428355251669484 
2293	 0.42903297107587 
2294	 0.429692424992036 
2295	 0.430385003969229 
2296	 0.431069060493471 
2297	 0.431692685050199 
2298	 0.432302888090098 
2299	 0.432866614309453 
2300	 0.433366011508667 
2301	 0.433840573896976 
2302	 0.434303106000113 
2303	 0.434682200120738 
2304	 0.435004079753273 
2305	 0.435273187127526 
2306	 0.43543858442735 
2307	 0.435653595412955 
2308	 0.435819109760679 
2309	 0.436039535533947 
2310	 0.436274713815673 
2311	 0.436554202827449 
2312	 0.436855704100511 
2313	 0.437203745466611 
2314	 0.437655462040652 
2315	 0.438034103802476 
2316	 0.438411182768334 
2317	 0.438771027021162 
2318	 0.439076098714052 
2319	 0.439410653503092 
2320	 0.439809118455932 
2321	 0.440115072451174 
2322	 0.440379612156941 
2323	 0.440610491839678 
2324	 0.440762643308363 
2325	 0.440919507750721 
2326	 0.44109957642321 
2327	 0.441202318894264 
2328	 0.441251472465172 
2329	 0.441269589552096 
2330	 0.4412565923483 
2331	 0.441144861039947 
2332	 0.441012194422776 
2333	 0.440807007516919 
2334	 0.440480769099961 
2335	 0.440103853621643 
2336	 0.439595776347206 
2337	 0.438980197243462 
2338	 0.438280360064731 
2339	 0.437460633290197 
2340	 0.436686839935879 
2341	 0.435830525173506 
2342	 0.434853473254688 
2343	 0.433917991877466 
2344	 0.432889601766055 
2345	 0.431868751561008 
2346	 0.431024622776509 
2347	 0.430176307557259 
2348	 0.42934095216433 
2349	 0.428577268890478 
2350	 0.427759149225418 
2351	 0.427009977430538 
2352	 0.426330233810317 
2353	 0.425676465146765 
2354	 0.425139424855042 
2355	 0.424626749584445 
2356	 0.424152161091588 
2357	 0.423743852826279 
2358	 0.42327994385107 
2359	 0.422768451957735 
2360	 0.422241313860167 
2361	 0.421670163602736 
2362	 0.421046292542448 
2363	 0.420498390084461 
2364	 0.419953642120357 
2365	 0.419317369009218 
2366	 0.418746479748934 
2367	 0.418154530971264 
2368	 0.417503313548525 
2369	 0.416795599435113 
2370	 0.415984857413773 
2371	 0.415160064661505 
2372	 0.414348879187796 
2373	 0.413502743539944 
2374	 0.412577458540707 
2375	 0.411610922980516 
2376	 0.410538492563325 
2377	 0.409386611624443 
2378	 0.408308579386185 
2379	 0.40713016617945 
2380	 0.405911645494384 
2381	 0.404737971690734 
2382	 0.403465366099524 
2383	 0.402141123625863 
2384	 0.400795922621045 
2385	 0.399309112794061 
2386	 0.397964189770909 
2387	 0.396658443006774 
2388	 0.395362577090409 
2389	 0.394212093050131 
2390	 0.392875423046469 
2391	 0.391447487708938 
2392	 0.390037064947959 
2393	 0.388481393233543 
2394	 0.3870897800615 
2395	 0.385812603004127 
2396	 0.384456199669303 
2397	 0.38315418253265 
2398	 0.38180524610666 
2399	 0.380396538618231 
2400	 0.378986054496635 
2401	 0.377507965486122 
2402	 0.376142768455072 
2403	 0.374855973231737 
2404	 0.373668292536399 
2405	 0.37250482059584 
2406	 0.371242350430408 
2407	 0.370028746577968 
2408	 0.368906487677759 
2409	 0.367856499357185 
2410	 0.366943852694866 
2411	 0.366155807823084 
2412	 0.365390100242281 
2413	 0.364687452936763 
2414	 0.364036187652078 
2415	 0.363332185351029 
2416	 0.362595474969747 
2417	 0.361854606627408 
2418	 0.361133904975992 
2419	 0.360529655676563 
2420	 0.360078106607241 
2421	 0.359649070236785 
2422	 0.359221315573111 
2423	 0.358778347626155 
2424	 0.358246877148547 
2425	 0.35775248634284 
2426	 0.357344813571337 
2427	 0.356914736860504 
2428	 0.35643001901133 
2429	 0.35588158299084 
2430	 0.355324692057254 
2431	 0.354777892738237 
2432	 0.354231509220147 
2433	 0.353859329482905 
2434	 0.353545571931568 
2435	 0.353056690851042 
2436	 0.352597373008083 
2437	 0.352261019534387 
2438	 0.351810484354525 
2439	 0.351414813876116 
2440	 0.351152698428468 
2441	 0.350665914399268 
2442	 0.350246323074554 
2443	 0.350001800746231 
2444	 0.349623258557471 
2445	 0.349245279522512 
2446	 0.348825995973739 
2447	 0.348336754866158 
2448	 0.347881909370588 
2449	 0.347492211571683 
2450	 0.347153203133864 
2451	 0.346676725815606 
2452	 0.346136541568558 
2453	 0.345628910582561 
2454	 0.345002581779937 
2455	 0.344396907434981 
2456	 0.343854500270084 
2457	 0.343320219246648 
2458	 0.342888253136657 
2459	 0.342358339863126 
2460	 0.341824671276762 
2461	 0.341220336463937 
2462	 0.340415719639051 
2463	 0.339793503673368 
2464	 0.339125292660693 
2465	 0.338415178032087 
2466	 0.337906648341935 
2467	 0.33724528847954 
2468	 0.336648722503007 
2469	 0.336082247719902 
2470	 0.33526631710382 
2471	 0.33457290379416 
2472	 0.333933379346213 
2473	 0.333384967958479 
2474	 0.33299586826979 
2475	 0.332630812173101 
2476	 0.332267656185307 
2477	 0.331765848965648 
2478	 0.331370892417324 
2479	 0.330964388505489 
2480	 0.330710153514315 
2481	 0.330374024524267 
2482	 0.329952881727766 
2483	 0.329639060718561 
2484	 0.329282103475263 
2485	 0.32903045895329 
2486	 0.328718564188209 
2487	 0.328239638549367 
2488	 0.327846046764166 
2489	 0.327654175562158 
2490	 0.327398728023095 
2491	 0.327096644587905 
2492	 0.327008179668635 
2493	 0.326716468630803 
2494	 0.326490437506185 
2495	 0.326599712506729 
2496	 0.326404878254482 
2497	 0.326215828734209 
2498	 0.325912246928278 
2499	 0.325476539863519 
2500	 0.325511535566177 
