Wavelength	spectrum00005.asd
350	 4.90265957020103E-02 
351	 4.62129314996416E-02 
352	 4.40317435534172E-02 
353	 4.33169270189765E-02 
354	 0.044645420585347 
355	 4.47546493126603E-02 
356	 4.40086869718805E-02 
357	 4.31031508562091E-02 
358	 4.07743599917184E-02 
359	 3.87940883032669E-02 
360	 3.82179508936173E-02 
361	 3.92158824630766E-02 
362	 3.90874014420759E-02 
363	 3.77145057790051E-02 
364	 3.63062255902389E-02 
365	 3.73649719671448E-02 
366	 3.78438509655218E-02 
367	 3.73018221109233E-02 
368	 3.63836176447931E-02 
369	 3.70205959123168E-02 
370	 3.69040395181827E-02 
371	 3.61331836106801E-02 
372	 3.60960451077319E-02 
373	 3.61217627658813E-02 
374	 3.60346703427374E-02 
375	 3.59166026916003E-02 
376	 3.61428983968911E-02 
377	 3.63587314801418E-02 
378	 3.59968544634872E-02 
379	 3.48595471393141E-02 
380	 3.39158589697802E-02 
381	 3.43818876398214E-02 
382	 3.49422876887301E-02 
383	 3.33288956067367E-02 
384	 3.37217925854965E-02 
385	 3.47601090172788E-02 
386	 3.50264507522279E-02 
387	 3.40076917974712E-02 
388	 3.36683781677937E-02 
389	 3.37210517090107E-02 
390	 3.34550462980652E-02 
391	 3.31641725831276E-02 
392	 3.29156098929873E-02 
393	 3.27194087047259E-02 
394	 3.25810681151523E-02 
395	 3.29374045824386E-02 
396	 3.32290869336993E-02 
397	 3.31983538102099E-02 
398	 3.33210787531017E-02 
399	 3.28614723936241E-02 
400	 3.21169779091988E-02 
401	 3.16552332419299E-02 
402	 3.17748053076833E-02 
403	 3.21558054952679E-02 
404	 3.23177156719987E-02 
405	 3.18039574848151E-02 
406	 3.17677402353022E-02 
407	 3.16355226328575E-02 
408	 3.11839535567842E-02 
409	 3.14202858416488E-02 
410	 3.12461751984691E-02 
411	 3.09871269517633E-02 
412	 3.11853640283135E-02 
413	 3.10340368288807E-02 
414	 3.05834444551457E-02 
415	 3.02986051214079E-02 
416	 3.08773589639147E-02 
417	 3.08859125700814E-02 
418	 0.030720692984924 
419	 3.08269664734008E-02 
420	 3.09983235451653E-02 
421	 3.09219966149135E-02 
422	 3.07668604267982E-02 
423	 3.08562931786827E-02 
424	 3.10704853739406E-02 
425	 3.11250966738842E-02 
426	 3.10367029960703E-02 
427	 3.11667261891319E-02 
428	 3.12012320337387E-02 
429	 0.03120241619699 
430	 3.12536074953836E-02 
431	 3.12047765056429E-02 
432	 3.14653530106416E-02 
433	 3.17823262129528E-02 
434	 3.16461524888171E-02 
435	 3.18899538682746E-02 
436	 3.22514105665855E-02 
437	 3.24778066279661E-02 
438	 0.032518165842608 
439	 3.27047307645699E-02 
440	 3.29049769474429E-02 
441	 3.29670972161019E-02 
442	 3.32855865260288E-02 
443	 3.36118030597889E-02 
444	 3.38083272948371E-02 
445	 3.38603901762937E-02 
446	 3.38906312525924E-02 
447	 3.40401777214154E-02 
448	 3.43147317816237E-02 
449	 0.034417510884659 
450	 3.46512539269024E-02 
451	 3.48562362316679E-02 
452	 3.47880408913623E-02 
453	 0.03483570530332 
454	 3.48358471313003E-02 
455	 3.48316936783638E-02 
456	 3.51216592807584E-02 
457	 0.035131103818185 
458	 3.50770216499159E-02 
459	 3.52119912525586E-02 
460	 3.53567029399419E-02 
461	 3.53440686787868E-02 
462	 3.52603255427876E-02 
463	 3.53090103582864E-02 
464	 3.52972810958482E-02 
465	 3.53347619430348E-02 
466	 3.54446851829157E-02 
467	 3.54652409868352E-02 
468	 3.55859169025334E-02 
469	 3.56283104789445E-02 
470	 0.035474159478412 
471	 3.57233591220337E-02 
472	 3.58231080352997E-02 
473	 3.57295804567095E-02 
474	 3.58207647232967E-02 
475	 3.59966221089418E-02 
476	 3.60995310956882E-02 
477	 3.60794574763151E-02 
478	 3.61420169144761E-02 
479	 3.62336140467977E-02 
480	 3.63289191116282E-02 
481	 3.64130392229566E-02 
482	 3.64960548416593E-02 
483	 3.66328891708463E-02 
484	 3.68212017914326E-02 
485	 3.69913934652737E-02 
486	 3.71767043937149E-02 
487	 3.73236081908619E-02 
488	 3.74142667264378E-02 
489	 3.75912808924782E-02 
490	 3.78041086947976E-02 
491	 3.80325705944943E-02 
492	 3.82706135693118E-02 
493	 3.84662674806303E-02 
494	 3.87009831333957E-02 
495	 3.90046320345614E-02 
496	 3.92997891324066E-02 
497	 3.95458119707821E-02 
498	 3.98475337238383E-02 
499	 4.02848285524012E-02 
500	 4.06130485367672E-02 
501	 4.08876414730097E-02 
502	 4.12072901327798E-02 
503	 4.16820445066047E-02 
504	 4.21209261450789E-02 
505	 4.25127802947084E-02 
506	 0.042906281353784 
507	 0.043412947591443 
508	 4.38873981928483E-02 
509	 0.044369427948775 
510	 4.49580373183725E-02 
511	 4.55482780564499E-02 
512	 4.61058976717582E-02 
513	 4.66681463086531E-02 
514	 4.73562359884368E-02 
515	 4.80279348456057E-02 
516	 0.048692087139039 
517	 4.93889537226878E-02 
518	 5.01141243875384E-02 
519	 5.09151598844873E-02 
520	 5.17597616084019E-02 
521	 5.25715419440285E-02 
522	 0.053463682974021 
523	 5.44299549663789E-02 
524	 5.54342432663667E-02 
525	 5.64159580738047E-02 
526	 5.74597153010184E-02 
527	 5.85629058420241E-02 
528	 0.059704872197529 
529	 6.09492096545736E-02 
530	 6.22376739735527E-02 
531	 6.35563931603982E-02 
532	 0.064943823922353 
533	 6.63594814146988E-02 
534	 6.78354297204709E-02 
535	 6.93977989503105E-02 
536	 7.10180242322689E-02 
537	 0.072702306815705 
538	 7.44409771989412E-02 
539	 7.62188354458128E-02 
540	 7.80440790963025E-02 
541	 7.99608603221556E-02 
542	 0.081966403417439 
543	 8.39753224754268E-02 
544	 8.60166196865104E-02 
545	 8.80644653914974E-02 
546	 0.09011771641762 
547	 9.23530495105094E-02 
548	 9.46461715767617E-02 
549	 9.69570184705493E-02 
550	 9.93305838479788E-02 
551	 0.101782863232493 
552	 0.104258610136753 
553	 0.106733388895457 
554	 0.109291456099628 
555	 0.111892090942228 
556	 0.114506918411778 
557	 0.117115165784443 
558	 0.119727655902148 
559	 0.122347732999881 
560	 0.124945380498828 
561	 0.127444956790904 
562	 0.129882814136394 
563	 0.132224703877948 
564	 0.134443281682066 
565	 0.136600544041831 
566	 0.138760580326787 
567	 0.140880432002822 
568	 0.142855333666769 
569	 0.144917002116796 
570	 0.147039447934801 
571	 0.14914669220496 
572	 0.151160353820841 
573	 0.153035389175305 
574	 0.154758244577511 
575	 0.156328520087957 
576	 0.157686245421825 
577	 0.158923506118094 
578	 0.160089610763903 
579	 0.161172219333315 
580	 0.162304631790149 
581	 0.163477275579549 
582	 0.164640786740825 
583	 0.165749255715933 
584	 0.166766846492365 
585	 0.167734374506115 
586	 0.168716928523058 
587	 0.169526651610056 
588	 0.170238856474783 
589	 0.170924947372574 
590	 0.171594060339634 
591	 0.172182766510383 
592	 0.172713344920711 
593	 0.173236181800832 
594	 0.173801685063779 
595	 0.174293875483785 
596	 0.174669271072534 
597	 0.174955987970745 
598	 0.175193360771623 
599	 0.175352895942794 
600	 0.175420944702047 
601	 0.17544206555699 
602	 0.175479878079074 
603	 0.175485080958605 
604	 0.175381963291909 
605	 0.175300248623101 
606	 0.175202616444731 
607	 0.175070670089225 
608	 0.174926973619034 
609	 0.174772722172649 
610	 0.174579438375728 
611	 0.174333662361856 
612	 0.174091137162511 
613	 0.173875224920111 
614	 0.173667235958604 
615	 0.173422740609116 
616	 0.173143472039695 
617	 0.172894827794438 
618	 0.172695940270745 
619	 0.172473090446805 
620	 0.172200196235789 
621	 0.17191063815826 
622	 0.171651353434841 
623	 0.171410967845586 
624	 0.171171836665456 
625	 0.170937504386311 
626	 0.170728491887654 
627	 0.170487097880729 
628	 0.170272037690737 
629	 0.170108619190484 
630	 0.16988295018167 
631	 0.169665418824743 
632	 0.169487638887192 
633	 0.169352494977222 
634	 0.169188858357997 
635	 0.169022396746875 
636	 0.168872296878357 
637	 0.168738897950036 
638	 0.168606471144625 
639	 0.168499786834566 
640	 0.16843256425532 
641	 0.168349911588964 
642	 0.168278650251897 
643	 0.168243485777708 
644	 0.168257893798319 
645	 0.168251242149849 
646	 0.168240256045407 
647	 0.168238682417338 
648	 0.168233802829868 
649	 0.16828192993199 
650	 0.168350180256857 
651	 0.168396024824991 
652	 0.168460173710047 
653	 0.168571730902333 
654	 0.168700428170228 
655	 0.168780405028493 
656	 0.168952915324786 
657	 0.169154376678255 
658	 0.169327397065272 
659	 0.169492750515017 
660	 0.169728919882038 
661	 0.169989635111203 
662	 0.170203127735444 
663	 0.170443963299678 
664	 0.1707538608186 
665	 0.171105654675842 
666	 0.171409357629113 
667	 0.171711955420346 
668	 0.172064188254687 
669	 0.172471951981514 
670	 0.17282176702101 
671	 0.173217502131881 
672	 0.173676700141176 
673	 0.174168529575335 
674	 0.174628077806816 
675	 0.175115350853774 
676	 0.175639340037712 
677	 0.176135486406066 
678	 0.176661730581808 
679	 0.17721997749898 
680	 0.177800984683545 
681	 0.178406232502603 
682	 0.179034806250829 
683	 0.179685549079098 
684	 0.180356090497902 
685	 0.181023430174118 
686	 0.181747949781702 
687	 0.182526413593914 
688	 0.183257492989085 
689	 0.183956898188836 
690	 0.184701183408429 
691	 0.185540397921384 
692	 0.186369984073264 
693	 0.187222043851674 
694	 0.188087383899499 
695	 0.188939096514314 
696	 0.189849334663909 
697	 0.190778013658945 
698	 0.1917043630417 
699	 0.192661303999419 
700	 0.193637913353385 
701	 0.194628381451658 
702	 0.195639420648623 
703	 0.196721790260268 
704	 0.197796488183072 
705	 0.198836109367898 
706	 0.199863775533617 
707	 0.200985073584913 
708	 0.202131123797818 
709	 0.203247318269989 
710	 0.204338935650548 
711	 0.205516823074228 
712	 0.206726462575334 
713	 0.207899593767868 
714	 0.209144119443045 
715	 0.210348881370241 
716	 0.211508974111692 
717	 0.212698615489981 
718	 0.213930639026088 
719	 0.215180268735865 
720	 0.216428752646641 
721	 0.21767966773865 
722	 0.218898035305349 
723	 0.220123840903253 
724	 0.22139978060016 
725	 0.222698478370993 
726	 0.223935691556253 
727	 0.225135702575718 
728	 0.226386900936511 
729	 0.227571156174702 
730	 0.228743939439238 
731	 0.229947812123002 
732	 0.231170125611641 
733	 0.232344038926759 
734	 0.233493806408427 
735	 0.234655713266397 
736	 0.235795301564593 
737	 0.236877746690331 
738	 0.237919875807086 
739	 0.238964212164653 
740	 0.239950080640606 
741	 0.240889670382505 
742	 0.241809222120819 
743	 0.242742217388729 
744	 0.243648716798148 
745	 0.244489056499538 
746	 0.245247948935335 
747	 0.245974531878798 
748	 0.246728708535354 
749	 0.247466540538046 
750	 0.248098437755209 
751	 0.248712914448636 
752	 0.249262028765881 
753	 0.249741169485877 
754	 0.25021737223596 
755	 0.250706601692556 
756	 0.251113664227744 
757	 0.251388855898887 
758	 0.251683224560916 
759	 0.251951157869624 
760	 0.252170724457573 
761	 0.252331912908011 
762	 0.252441377339069 
763	 0.252506604221712 
764	 0.252543328330592 
765	 0.252572378997978 
766	 0.25254734433569 
767	 0.252434571517173 
768	 0.252238057896005 
769	 0.252034029475911 
770	 0.251821445306059 
771	 0.251585250088451 
772	 0.251300203705326 
773	 0.250940985244308 
774	 0.25052292842867 
775	 0.250063745815769 
776	 0.249581560212841 
777	 0.249104498069627 
778	 0.248616328166241 
779	 0.248091967770638 
780	 0.247507183001675 
781	 0.246870306780256 
782	 0.246211181294643 
783	 0.245552755069369 
784	 0.244876753607231 
785	 0.244145263062125 
786	 0.243381698365426 
787	 0.242635010637753 
788	 0.241852930902663 
789	 0.241025160741264 
790	 0.24017836081528 
791	 0.239372704119325 
792	 0.238549281962672 
793	 0.237700524940911 
794	 0.23682893002732 
795	 0.235931499472864 
796	 0.235035635977916 
797	 0.234140504005945 
798	 0.233225993970714 
799	 0.232238210051144 
800	 0.231241686035191 
801	 0.230287420060835 
802	 0.229398402688332 
803	 0.228489475062109 
804	 0.22755270025713 
805	 0.226600966981785 
806	 0.225659813733205 
807	 0.22471277969598 
808	 0.223756446639364 
809	 0.222794605931631 
810	 0.221844423442499 
811	 0.220887113351324 
812	 0.219931159613638 
813	 0.218989554513759 
814	 0.218030181520817 
815	 0.217066345131311 
816	 0.216110374778005 
817	 0.215170480508518 
818	 0.214235383998087 
819	 0.213312494135781 
820	 0.212400381965382 
821	 0.211479894922929 
822	 0.210588861179469 
823	 0.209722444228574 
824	 0.208851165474013 
825	 0.207904262602318 
826	 0.206989107198062 
827	 0.206110815480082 
828	 0.205236115051989 
829	 0.204423442458383 
830	 0.203591991841341 
831	 0.202739614082926 
832	 0.201930648675271 
833	 0.201082575073158 
834	 0.200264035404569 
835	 0.199514856585569 
836	 0.198796143673856 
837	 0.198009646172876 
838	 0.197218382059113 
839	 0.196483501925778 
840	 0.195730193096322 
841	 0.19501621922154 
842	 0.194326615179293 
843	 0.193619546314953 
844	 0.192873139870074 
845	 0.192164572878095 
846	 0.191518298700547 
847	 0.190909453949578 
848	 0.190298908480832 
849	 0.189685270101324 
850	 0.189079811104133 
851	 0.188501685407131 
852	 0.187906477957519 
853	 0.187330344209247 
854	 0.186796082127253 
855	 0.186265612891561 
856	 0.185722216051978 
857	 0.185139017633384 
858	 0.184538699253401 
859	 0.184122206645113 
860	 0.183632345591155 
861	 0.183086676102382 
862	 0.18262967958826 
863	 0.182204241936799 
864	 0.181759192786713 
865	 0.181316714409016 
866	 0.18094460246707 
867	 0.180496625743774 
868	 0.180072410279621 
869	 0.179698449152757 
870	 0.179259823918236 
871	 0.178835759207347 
872	 0.178467782787841 
873	 0.178150217947353 
874	 0.177793642902051 
875	 0.177467012682653 
876	 0.177171730130001 
877	 0.176888781737197 
878	 0.176610256199698 
879	 0.176324556199633 
880	 0.176031391758331 
881	 0.175742896001751 
882	 0.175496858572018 
883	 0.175272300004854 
884	 0.175030700727911 
885	 0.174740866867137 
886	 0.174514368122586 
887	 0.174315461289754 
888	 0.174121809617937 
889	 0.173945628770109 
890	 0.173745509870538 
891	 0.173565363827593 
892	 0.173426565701587 
893	 0.173286844090356 
894	 0.173105707204465 
895	 0.17295484095476 
896	 0.172880571773932 
897	 0.17278990880239 
898	 0.172691181306186 
899	 0.172605856505151 
900	 0.17254984081122 
901	 0.172492463442089 
902	 0.172439753934743 
903	 0.172366319408735 
904	 0.172261430541287 
905	 0.172265895752344 
906	 0.172281901252608 
907	 0.172289779011554 
908	 0.172326624849813 
909	 0.172326339360837 
910	 0.172323441268893 
911	 0.172341428157199 
912	 0.172381342387627 
913	 0.172450837342279 
914	 0.172540385671175 
915	 0.172644798363554 
916	 0.172766598284059 
917	 0.172839901601745 
918	 0.172867916281319 
919	 0.172899361979984 
920	 0.173030699654302 
921	 0.173118502368527 
922	 0.173184157562338 
923	 0.173287832772471 
924	 0.173473764046291 
925	 0.17361941083285 
926	 0.173731070407357 
927	 0.173861511658133 
928	 0.174058012702617 
929	 0.174229739236923 
930	 0.174384163849646 
931	 0.17456192167399 
932	 0.174743443446435 
933	 0.17492826927824 
934	 0.175132158102558 
935	 0.175363959982185 
936	 0.175544672068925 
937	 0.175793033935972 
938	 0.176058666628704 
939	 0.176202782805986 
940	 0.176368825937319 
941	 0.176602311746247 
942	 0.176887500936243 
943	 0.177163798032252 
944	 0.177412561651432 
945	 0.177648544821339 
946	 0.177888593734926 
947	 0.178142855498883 
948	 0.178390447482625 
949	 0.178668014096943 
950	 0.178980236449103 
951	 0.179281683965635 
952	 0.179536134391445 
953	 0.179788426685139 
954	 0.180072520610828 
955	 0.180381274920748 
956	 0.180734970144194 
957	 0.181088410383666 
958	 0.181416165526329 
959	 0.181749956154308 
960	 0.18203326983148 
961	 0.18240202699416 
962	 0.182878788131847 
963	 0.183187270975153 
964	 0.183483019336348 
965	 0.183848966266992 
966	 0.184296450947127 
967	 0.184721902997243 
968	 0.185174937444531 
969	 0.18557048678249 
970	 0.185891056038029 
971	 0.186372144038396 
972	 0.186834403752592 
973	 0.187270573898223 
974	 0.187713559109477 
975	 0.188155350521895 
976	 0.188564642142081 
977	 0.189038871273392 
978	 0.189616803261133 
979	 0.190040810824904 
980	 0.190489373536439 
981	 0.190927500974852 
982	 0.191302022675698 
983	 0.191722134995414 
984	 0.192275383903332 
985	 0.192867780023096 
986	 0.193390949825072 
987	 0.193938739157811 
988	 0.194430480226238 
989	 0.194904281919931 
990	 0.195409478337921 
991	 0.195864684101306 
992	 0.196464381831103 
993	 0.19712735206531 
994	 0.197730493604922 
995	 0.198394033080117 
996	 0.199030552839626 
997	 0.199625949109301 
998	 0.200195489490723 
999	 0.200737024323785 
1000	 0.201436616940525 
1001	 0.196581989714345 
1002	 0.197199253780502 
1003	 0.197805374622308 
1004	 0.198391889707694 
1005	 0.198968684428667 
1006	 0.199566471699242 
1007	 0.200151516132775 
1008	 0.200751629249647 
1009	 0.20133656636627 
1010	 0.201977380641701 
1011	 0.202655239838443 
1012	 0.203323161996213 
1013	 0.204043483123669 
1014	 0.204738391603584 
1015	 0.205409675717009 
1016	 0.206068335637042 
1017	 0.206760777917786 
1018	 0.20744193575168 
1019	 0.208189911928895 
1020	 0.208944893439798 
1021	 0.209689906262425 
1022	 0.210455390986058 
1023	 0.211229791626838 
1024	 0.211967031793777 
1025	 0.212779732855885 
1026	 0.213659281272462 
1027	 0.214498450910335 
1028	 0.215349317512896 
1029	 0.216233204911473 
1030	 0.217020819020239 
1031	 0.217860287886946 
1032	 0.218744678645478 
1033	 0.219585516016677 
1034	 0.220519754970524 
1035	 0.221454704526213 
1036	 0.222384037942038 
1037	 0.223348405018274 
1038	 0.224271647309478 
1039	 0.225156462419505 
1040	 0.226096733704359 
1041	 0.227019423642412 
1042	 0.227989039259502 
1043	 0.229026634310035 
1044	 0.230017666155473 
1045	 0.231042822843253 
1046	 0.232104153258273 
1047	 0.233061262077048 
1048	 0.234071145248897 
1049	 0.23506959131489 
1050	 0.236034282618603 
1051	 0.237131465249656 
1052	 0.238257181477458 
1053	 0.239390326046341 
1054	 0.24061319498306 
1055	 0.241737288985581 
1056	 0.242798612052039 
1057	 0.243909103582152 
1058	 0.244981647514937 
1059	 0.246075360441098 
1060	 0.247307999980759 
1061	 0.248515473218117 
1062	 0.249738746560617 
1063	 0.250996186671616 
1064	 0.252172091710125 
1065	 0.253389711856757 
1066	 0.254601653682719 
1067	 0.255837678509155 
1068	 0.257167490681237 
1069	 0.25840727671533 
1070	 0.259689986448747 
1071	 0.260994920765899 
1072	 0.262334337528678 
1073	 0.263596457970652 
1074	 0.264945314714623 
1075	 0.266307752682718 
1076	 0.267642428358864 
1077	 0.269048679375437 
1078	 0.270426563178044 
1079	 0.271855884748077 
1080	 0.273313259568782 
1081	 0.274669642199167 
1082	 0.276104952813144 
1083	 0.277549410006802 
1084	 0.278947257230763 
1085	 0.280473091830068 
1086	 0.281983538372169 
1087	 0.283506512994669 
1088	 0.285036706965694 
1089	 0.286610486175558 
1090	 0.288083509624826 
1091	 0.289602255809913 
1092	 0.291132864885835 
1093	 0.292647468045725 
1094	 0.294285799382045 
1095	 0.295873765480661 
1096	 0.297500053846176 
1097	 0.299204390968876 
1098	 0.300790657241053 
1099	 0.302443457702764 
1100	 0.304097063442814 
1101	 0.305709681648601 
1102	 0.307450754249763 
1103	 0.309144937575657 
1104	 0.310826266872618 
1105	 0.312563790837865 
1106	 0.31434530511083 
1107	 0.316005032107394 
1108	 0.317768918333359 
1109	 0.319505874748836 
1110	 0.321203632562734 
1111	 0.323029721512142 
1112	 0.324780333472087 
1113	 0.326596427948105 
1114	 0.328492694253883 
1115	 0.330246527373133 
1116	 0.33205691921888 
1117	 0.333874982233858 
1118	 0.335690026411746 
1119	 0.3374965738697 
1120	 0.339333096148308 
1121	 0.341178010155799 
1122	 0.343051315997486 
1123	 0.344959661429506 
1124	 0.346761405824068 
1125	 0.34862748475258 
1126	 0.350457779614312 
1127	 0.352225491193604 
1128	 0.354101673925818 
1129	 0.355920661179055 
1130	 0.357764862159785 
1131	 0.359646405991137 
1132	 0.361402394535316 
1133	 0.363219554431625 
1134	 0.364985576532612 
1135	 0.366758653239617 
1136	 0.368557569455089 
1137	 0.370328603244123 
1138	 0.372065440052266 
1139	 0.373832511070223 
1140	 0.375640357050375 
1141	 0.377299115254545 
1142	 0.379010561034506 
1143	 0.38068315676277 
1144	 0.382309840862957 
1145	 0.384017786304147 
1146	 0.385654630419085 
1147	 0.387323512705025 
1148	 0.389012985927231 
1149	 0.390571577191964 
1150	 0.392168603099105 
1151	 0.393741856375018 
1152	 0.395307942071343 
1153	 0.39687867976923 
1154	 0.398406385112508 
1155	 0.399935697120431 
1156	 0.401410689739197 
1157	 0.402825292393499 
1158	 0.404185401713872 
1159	 0.405521613088604 
1160	 0.406794588717506 
1161	 0.407989690620295 
1162	 0.409226687372108 
1163	 0.410385849703145 
1164	 0.411543060778865 
1165	 0.412731395258517 
1166	 0.413814540097728 
1167	 0.414893263513478 
1168	 0.415947082019264 
1169	 0.416971591865532 
1170	 0.417950212194692 
1171	 0.418930557408954 
1172	 0.419891717507616 
1173	 0.420852491639777 
1174	 0.421782823836045 
1175	 0.422710424267072 
1176	 0.423629913458068 
1177	 0.424563955517926 
1178	 0.425468467572218 
1179	 0.426445065266902 
1180	 0.427408645509181 
1181	 0.428403348907915 
1182	 0.429450264066641 
1183	 0.430457287077551 
1184	 0.431522945543531 
1185	 0.432606744762366 
1186	 0.433746654192052 
1187	 0.434932506567646 
1188	 0.436145852513767 
1189	 0.437409589561312 
1190	 0.438696799448658 
1191	 0.440005876642108 
1192	 0.441318670570029 
1193	 0.442670869657778 
1194	 0.444022681593472 
1195	 0.445397585665479 
1196	 0.446767025549346 
1197	 0.448134117207339 
1198	 0.449527941380856 
1199	 0.450940541939224 
1200	 0.452256794760464 
1201	 0.45363028474784 
1202	 0.454996689816646 
1203	 0.456344317311381 
1204	 0.457803177546095 
1205	 0.459249810292859 
1206	 0.460699793030624 
1207	 0.462244838076786 
1208	 0.463816219693935 
1209	 0.46545964961715 
1210	 0.467188703532171 
1211	 0.468953075175872 
1212	 0.470797244707164 
1213	 0.472653313638559 
1214	 0.474555752585102 
1215	 0.476491526773948 
1216	 0.478471851105142 
1217	 0.480422890207856 
1218	 0.482411625964344 
1219	 0.484385481102101 
1220	 0.486298554400038 
1221	 0.488296566315281 
1222	 0.490189688754622 
1223	 0.492082482118036 
1224	 0.4939283615037 
1225	 0.495727474674756 
1226	 0.497459016840445 
1227	 0.499158603189396 
1228	 0.500805966762627 
1229	 0.502385417698773 
1230	 0.503940222940315 
1231	 0.505451259380659 
1232	 0.50695159637655 
1233	 0.50841156316314 
1234	 0.509828647960421 
1235	 0.511230493373055 
1236	 0.512594022461181 
1237	 0.513894283590607 
1238	 0.515191753145462 
1239	 0.516460614254818 
1240	 0.517736453502526 
1241	 0.519007980247755 
1242	 0.520160642498258 
1243	 0.521331599417818 
1244	 0.522477466989429 
1245	 0.523599684390227 
1246	 0.524718008890949 
1247	 0.525765943307953 
1248	 0.526763054176911 
1249	 0.527749810988857 
1250	 0.528682917251262 
1251	 0.529604872192104 
1252	 0.530535001762229 
1253	 0.531406518211346 
1254	 0.532235585389537 
1255	 0.533039351897496 
1256	 0.533787073011573 
1257	 0.534546794063988 
1258	 0.535283988486078 
1259	 0.536013886917611 
1260	 0.536756689096894 
1261	 0.537469370105997 
1262	 0.538138325217998 
1263	 0.538832223177624 
1264	 0.53950212927468 
1265	 0.54016100322794 
1266	 0.540796456727767 
1267	 0.541420429587906 
1268	 0.542024973960328 
1269	 0.542589070029715 
1270	 0.543178374898559 
1271	 0.543783860153151 
1272	 0.544349715774087 
1273	 0.544900530798134 
1274	 0.545446712332103 
1275	 0.545962996405579 
1276	 0.546478136912919 
1277	 0.54699969740156 
1278	 0.547501736595359 
1279	 0.547982511716844 
1280	 0.548455972765459 
1281	 0.548931769447577 
1282	 0.549377323017065 
1283	 0.549795298265313 
1284	 0.550203702909872 
1285	 0.55059555375517 
1286	 0.550957891206437 
1287	 0.55133639791709 
1288	 0.551717530390633 
1289	 0.552073205051525 
1290	 0.552422423605385 
1291	 0.552756748322225 
1292	 0.553074339478682 
1293	 0.553372747709822 
1294	 0.553661345492725 
1295	 0.553931086401036 
1296	 0.554172375506511 
1297	 0.554410974761286 
1298	 0.554632885654648 
1299	 0.554859999475333 
1300	 0.555077544847842 
1301	 0.55529633986145 
1302	 0.555533685908127 
1303	 0.555740073554733 
1304	 0.55593537322342 
1305	 0.556112383682413 
1306	 0.556270304526008 
1307	 0.55641045671529 
1308	 0.556519716499274 
1309	 0.556637197607222 
1310	 0.556747081714867 
1311	 0.556852687284198 
1312	 0.55692631892608 
1313	 0.557002372356069 
1314	 0.557031582828271 
1315	 0.557014070539205 
1316	 0.557001198395466 
1317	 0.55696450369751 
1318	 0.556933606163127 
1319	 0.556896844987607 
1320	 0.556852527135156 
1321	 0.556820106361173 
1322	 0.556748350995508 
1323	 0.556659630943209 
1324	 0.55654847839129 
1325	 0.556413268703146 
1326	 0.556255496052325 
1327	 0.556097147336372 
1328	 0.55588529394368 
1329	 0.555641416733669 
1330	 0.55535898218744 
1331	 0.555035892345492 
1332	 0.554677334691831 
1333	 0.554295529667475 
1334	 0.553860601729938 
1335	 0.553386919985701 
1336	 0.552872133658795 
1337	 0.552320573354161 
1338	 0.551728217586126 
1339	 0.551101528802517 
1340	 0.550457845815337 
1341	 0.549729193023597 
1342	 0.548955964210972 
1343	 0.548110553384422 
1344	 0.54720045161089 
1345	 0.546221801977616 
1346	 0.545161774477943 
1347	 0.544089758971378 
1348	 0.542953690330275 
1349	 0.541803037763251 
1350	 0.540618091803893 
1351	 0.539425747306717 
1352	 0.538190293281722 
1353	 0.536964306013602 
1354	 0.535709491536735 
1355	 0.534503778078397 
1356	 0.533288284369354 
1357	 0.532124631008126 
1358	 0.531002998039521 
1359	 0.529913644464002 
1360	 0.528880295193994 
1361	 0.527846854644861 
1362	 0.526792634992133 
1363	 0.52582345032095 
1364	 0.524825951040806 
1365	 0.523833534986088 
1366	 0.522830882480516 
1367	 0.521845583373604 
1368	 0.520833577060387 
1369	 0.519799021270403 
1370	 0.518765219959695 
1371	 0.517741474928457 
1372	 0.516687278468675 
1373	 0.515613164837801 
1374	 0.514527497329807 
1375	 0.513408590197407 
1376	 0.512297531487552 
1377	 0.511169120236612 
1378	 0.510049911836875 
1379	 0.508903930361229 
1380	 0.507814321164591 
1381	 0.506722094834743 
1382	 0.505695918010093 
1383	 0.504707526373019 
1384	 0.50378294538259 
1385	 0.502953098618474 
1386	 0.502106761411735 
1387	 0.501337446320957 
1388	 0.500525522504463 
1389	 0.49974347542401 
1390	 0.498869603346147 
1391	 0.497972068013801 
1392	 0.496980231506907 
1393	 0.495945169753404 
1394	 0.494816627600563 
1395	 0.493641292673398 
1396	 0.492406514958799 
1397	 0.491150965301852 
1398	 0.489836658349675 
1399	 0.488487935128603 
1400	 0.487139924343975 
1401	 0.48567057142606 
1402	 0.484183606509154 
1403	 0.482474292182364 
1404	 0.480683843597222 
1405	 0.478672116238046 
1406	 0.476493633738788 
1407	 0.47410243193938 
1408	 0.471464204215597 
1409	 0.468763706426434 
1410	 0.465818980730545 
1411	 0.462908132207753 
1412	 0.45985509741183 
1413	 0.456952538432967 
1414	 0.45397531495525 
1415	 0.451200361322155 
1416	 0.448494931233423 
1417	 0.445996209154509 
1418	 0.443659999538313 
1419	 0.441461546397219 
1420	 0.439496241157869 
1421	 0.437588597258735 
1422	 0.43587336067361 
1423	 0.434104354108607 
1424	 0.43243841568828 
1425	 0.430680165939867 
1426	 0.428938210893032 
1427	 0.4270953380663 
1428	 0.425134360414288 
1429	 0.423221898767947 
1430	 0.421160392145147 
1431	 0.418999976261691 
1432	 0.416759055588693 
1433	 0.414404033606225 
1434	 0.41205822145482 
1435	 0.409607064776131 
1436	 0.407214081574436 
1437	 0.404793450929997 
1438	 0.402491073808456 
1439	 0.400159815589848 
1440	 0.39802630366424 
1441	 0.395922009447783 
1442	 0.39413759258395 
1443	 0.392415230899042 
1444	 0.391176752825355 
1445	 0.390173207787356 
1446	 0.38971514771834 
1447	 0.389652817982912 
1448	 0.390070699572745 
1449	 0.391097878465021 
1450	 0.392313156360396 
1451	 0.39408151673067 
1452	 0.395824116513548 
1453	 0.397942428417116 
1454	 0.399845427784627 
1455	 0.401840886330807 
1456	 0.403656253119749 
1457	 0.405331266658497 
1458	 0.406948521814118 
1459	 0.408398705896571 
1460	 0.409898642349869 
1461	 0.411327283590467 
1462	 0.412793247607187 
1463	 0.414301264187544 
1464	 0.415800992863781 
1465	 0.417295160033325 
1466	 0.418840208740344 
1467	 0.420283630449446 
1468	 0.421698171874929 
1469	 0.423038921321161 
1470	 0.424227893320429 
1471	 0.425388042535645 
1472	 0.4264839180892 
1473	 0.427506556040148 
1474	 0.428467586944922 
1475	 0.429326587879993 
1476	 0.430113393600701 
1477	 0.430793666675488 
1478	 0.431374754671285 
1479	 0.43185345055902 
1480	 0.432237628599815 
1481	 0.43252510328577 
1482	 0.432673112668131 
1483	 0.432812945485507 
1484	 0.432833781344668 
1485	 0.432923694158569 
1486	 0.432950544425889 
1487	 0.433105050598566 
1488	 0.433262563160018 
1489	 0.433586608595378 
1490	 0.433990673044947 
1491	 0.434559346055132 
1492	 0.435261431629317 
1493	 0.436110645659224 
1494	 0.43713668734874 
1495	 0.438231699163451 
1496	 0.439494195750338 
1497	 0.440769046688582 
1498	 0.442157200716032 
1499	 0.44352198115723 
1500	 0.444963226763644 
1501	 0.44633429948474 
1502	 0.447739730603467 
1503	 0.449011959010973 
1504	 0.450216274049864 
1505	 0.451341361535341 
1506	 0.452382383164675 
1507	 0.453328955875706 
1508	 0.454197162882994 
1509	 0.454980175459632 
1510	 0.45565019620104 
1511	 0.456252221518626 
1512	 0.456763811069221 
1513	 0.45722889333644 
1514	 0.457599719698071 
1515	 0.45794946525678 
1516	 0.458242462212466 
1517	 0.458523160988743 
1518	 0.458774164382192 
1519	 0.458999994394311 
1520	 0.459209896406659 
1521	 0.459394115599798 
1522	 0.459529078702874 
1523	 0.459631468558997 
1524	 0.459692168729808 
1525	 0.459708626242668 
1526	 0.459698806700315 
1527	 0.459649272178462 
1528	 0.459585741264672 
1529	 0.459491842091493 
1530	 0.459382765827635 
1531	 0.459241083682959 
1532	 0.459118941849735 
1533	 0.458967336317601 
1534	 0.458875451033866 
1535	 0.458791988292286 
1536	 0.458778397171173 
1537	 0.458798591338561 
1538	 0.458888317973834 
1539	 0.459023605935986 
1540	 0.459251700723403 
1541	 0.459544474472853 
1542	 0.459921758600885 
1543	 0.460386006729237 
1544	 0.460919491516321 
1545	 0.461529794294496 
1546	 0.462207048273112 
1547	 0.46298263686333 
1548	 0.463772838210125 
1549	 0.464622214668237 
1550	 0.465500584488359 
1551	 0.466432038210751 
1552	 0.467356549518567 
1553	 0.468319117803411 
1554	 0.469275098947867 
1555	 0.470239338104828 
1556	 0.471191936884027 
1557	 0.472159179941433 
1558	 0.473104224395534 
1559	 0.474041225472198 
1560	 0.474948392567486 
1561	 0.475848616813249 
1562	 0.476713323404954 
1563	 0.477557937681807 
1564	 0.478349236869828 
1565	 0.479096856120238 
1566	 0.479827082143108 
1567	 0.480506026254308 
1568	 0.481179024757714 
1569	 0.481838262770459 
1570	 0.482481163393222 
1571	 0.483097895014882 
1572	 0.483704611115026 
1573	 0.484305209316851 
1574	 0.484881922539926 
1575	 0.485439258400418 
1576	 0.48597716752302 
1577	 0.486492809930025 
1578	 0.48699648894874 
1579	 0.487481267796119 
1580	 0.487950885938552 
1581	 0.488396228464106 
1582	 0.488846359018393 
1583	 0.489278216483552 
1584	 0.489721396632491 
1585	 0.490185299875082 
1586	 0.490620134116779 
1587	 0.49104129016385 
1588	 0.491457586729218 
1589	 0.491846608101685 
1590	 0.49225055158466 
1591	 0.49266753921472 
1592	 0.493070837819497 
1593	 0.493478764659683 
1594	 0.49386745520864 
1595	 0.494236640825445 
1596	 0.494603976289757 
1597	 0.494955234172436 
1598	 0.495312383683865 
1599	 0.495672987984338 
1600	 0.496026861074328 
1601	 0.496383273811021 
1602	 0.496726756366816 
1603	 0.497079275824792 
1604	 0.497388691968989 
1605	 0.497672961104239 
1606	 0.497939086839299 
1607	 0.498176633903753 
1608	 0.498389620228879 
1609	 0.498590268111823 
1610	 0.498758097402763 
1611	 0.498878023664917 
1612	 0.498996313522989 
1613	 0.499091177018392 
1614	 0.499180895754217 
1615	 0.499266913110463 
1616	 0.499334249998981 
1617	 0.49938938505687 
1618	 0.499428729719815 
1619	 0.499462561022871 
1620	 0.499459926796104 
1621	 0.499438309633931 
1622	 0.499384013289234 
1623	 0.499274089651449 
1624	 0.499174224562552 
1625	 0.499055073089544 
1626	 0.498933643775514 
1627	 0.49880928850066 
1628	 0.498684886029975 
1629	 0.498537230541892 
1630	 0.498418547709733 
1631	 0.498301816270662 
1632	 0.498214306870307 
1633	 0.498168116383576 
1634	 0.498109354659744 
1635	 0.498075075485284 
1636	 0.498022126883578 
1637	 0.497950702727544 
1638	 0.497887000473517 
1639	 0.497840759773608 
1640	 0.497758183474158 
1641	 0.497669893093103 
1642	 0.497551143140147 
1643	 0.497410382411411 
1644	 0.497231374126903 
1645	 0.497042175856247 
1646	 0.496789968175473 
1647	 0.496480917099046 
1648	 0.496130676856171 
1649	 0.495745898958798 
1650	 0.495289007264048 
1651	 0.49479023443984 
1652	 0.494215041050699 
1653	 0.493575938809333 
1654	 0.49285209354515 
1655	 0.492057658167415 
1656	 0.491169464081733 
1657	 0.490222935823572 
1658	 0.489120400880458 
1659	 0.487915347825729 
1660	 0.486580669405294 
1661	 0.485124993760823 
1662	 0.483499237945262 
1663	 0.481734695010395 
1664	 0.479796316731003 
1665	 0.477696936415342 
1666	 0.475394268051205 
1667	 0.472931592943295 
1668	 0.470293097484991 
1669	 0.467450369557874 
1670	 0.46443699575848 
1671	 0.461194273417187 
1672	 0.457857046270389 
1673	 0.454339378341676 
1674	 0.450721978822419 
1675	 0.446958590632558 
1676	 0.443239432956611 
1677	 0.439406775434213 
1678	 0.435615533116536 
1679	 0.431794347007154 
1680	 0.428020704310362 
1681	 0.424238941528615 
1682	 0.42049359904761 
1683	 0.416813294202747 
1684	 0.413211045813029 
1685	 0.40962452583709 
1686	 0.406105421750464 
1687	 0.402621491205699 
1688	 0.399246250499346 
1689	 0.395904773869488 
1690	 0.392706950461761 
1691	 0.389661257259415 
1692	 0.3867644561367 
1693	 0.38399483860476 
1694	 0.381326462083634 
1695	 0.378803065141666 
1696	 0.376326421105593 
1697	 0.373949981666311 
1698	 0.371595519958526 
1699	 0.369335287948876 
1700	 0.367147209683058 
1701	 0.364996229601012 
1702	 0.362926486438219 
1703	 0.360923408610135 
1704	 0.359007646934455 
1705	 0.357144784213042 
1706	 0.355331394364123 
1707	 0.353763012958571 
1708	 0.352197644811837 
1709	 0.350701160186391 
1710	 0.349341390963733 
1711	 0.347946600308273 
1712	 0.346632538426975 
1713	 0.345355499715613 
1714	 0.344059249326402 
1715	 0.342868007235273 
1716	 0.341680813909414 
1717	 0.340535759347072 
1718	 0.339462187273341 
1719	 0.338376992265634 
1720	 0.337370875194331 
1721	 0.336455052104103 
1722	 0.335626483510493 
1723	 0.334947445785336 
1724	 0.33435962100083 
1725	 0.333867262500602 
1726	 0.333531136591729 
1727	 0.333331546278236 
1728	 0.333299369996908 
1729	 0.333445556774872 
1730	 0.333736526227286 
1731	 0.334113334062942 
1732	 0.334574714106427 
1733	 0.335064840098379 
1734	 0.335571598722639 
1735	 0.336088329195708 
1736	 0.336571424239863 
1737	 0.337009565233583 
1738	 0.337361584378883 
1739	 0.337612495519103 
1740	 0.33773567851592 
1741	 0.337841146939474 
1742	 0.337856759832413 
1743	 0.337878965885811 
1744	 0.33783327312969 
1745	 0.337867041267808 
1746	 0.337873645336938 
1747	 0.337998709873389 
1748	 0.338191485731749 
1749	 0.338487399639086 
1750	 0.338856931528057 
1751	 0.339380048698171 
1752	 0.340007126506719 
1753	 0.340793674797308 
1754	 0.341737334577842 
1755	 0.342755122513376 
1756	 0.343894133370472 
1757	 0.345123606525684 
1758	 0.346544870518511 
1759	 0.348065520765761 
1760	 0.349747915575826 
1761	 0.351563810152697 
1762	 0.353345269329764 
1763	 0.355266294899885 
1764	 0.357223257444395 
1765	 0.359185208855973 
1766	 0.361314967363878 
1767	 0.363393527025537 
1768	 0.365492673392622 
1769	 0.367618956282644 
1770	 0.369586855762353 
1771	 0.371526131003647 
1772	 0.373355918179469 
1773	 0.37506673577933 
1774	 0.376784641118645 
1775	 0.378392770694575 
1776	 0.379943617795996 
1777	 0.381402440726885 
1778	 0.382678499216311 
1779	 0.383908231089047 
1780	 0.385079550488199 
1781	 0.386193460952776 
1782	 0.387334095794105 
1783	 0.388391346313916 
1784	 0.389404761193237 
1785	 0.390355516860834 
1786	 0.391273737762006 
1787	 0.392178555775751 
1788	 0.393037653671941 
1789	 0.393867016534629 
1790	 0.394661902351905 
1791	 0.395390875779884 
1792	 0.396134857425432 
1793	 0.396835093175712 
1794	 0.39753924193988 
1795	 0.398242779679029 
1796	 0.398909345273271 
1797	 0.399584235574386 
1798	 0.400195662358444 
1799	 0.400824474961054 
1800	 0.401454785423376 
1801	 0.41472515820675 
1802	 0.415757617082011 
1803	 0.416681703567108 
1804	 0.417508031315428 
1805	 0.41831443024433 
1806	 0.419031830216248 
1807	 0.419658220998339 
1808	 0.420276577956154 
1809	 0.42083038163793 
1810	 0.421368582465068 
1811	 0.421876655336976 
1812	 0.422361403686384 
1813	 0.422793213072512 
1814	 0.423244327145486 
1815	 0.42367665310009 
1816	 0.424120097633914 
1817	 0.424568693384591 
1818	 0.425016405670974 
1819	 0.425475367384945 
1820	 0.425940513722137 
1821	 0.426411930481964 
1822	 0.426893885577214 
1823	 0.427401287043358 
1824	 0.427852519908448 
1825	 0.428310109786224 
1826	 0.428754526210646 
1827	 0.429177011942377 
1828	 0.429580345229694 
1829	 0.429973832386444 
1830	 0.430362687170975 
1831	 0.430719600141044 
1832	 0.431101068923343 
1833	 0.431466908096266 
1834	 0.431848614306979 
1835	 0.432217537802236 
1836	 0.432553106023424 
1837	 0.432908396738575 
1838	 0.433255405503889 
1839	 0.43362765345809 
1840	 0.43402222448405 
1841	 0.434405563275385 
1842	 0.43481480854192 
1843	 0.435201652625211 
1844	 0.43555740109422 
1845	 0.435879325890954 
1846	 0.436137838933135 
1847	 0.436351513335141 
1848	 0.436508084201126 
1849	 0.436628944679645 
1850	 0.436648794619146 
1851	 0.436605493269937 
1852	 0.436492476887688 
1853	 0.43628173777129 
1854	 0.436006694234258 
1855	 0.435664566663502 
1856	 0.435265183846765 
1857	 0.434761751909385 
1858	 0.434142325745399 
1859	 0.433449026285552 
1860	 0.432681888008276 
1861	 0.431771045781274 
1862	 0.430745822099144 
1863	 0.42967334045739 
1864	 0.428419672273128 
1865	 0.427106618714785 
1866	 0.425697902877093 
1867	 0.424075185708663 
1868	 0.422391051656109 
1869	 0.420567875162632 
1870	 0.418678899534781 
1871	 0.416694258757518 
1872	 0.414706999426366 
1873	 0.412665720373052 
1874	 0.410593164517579 
1875	 0.408481947964837 
1876	 0.40610890556112 
1877	 0.403723081648885 
1878	 0.401141231434077 
1879	 0.39832956831331 
1880	 0.395585414092789 
1881	 0.3925863709876 
1882	 0.389363199708449 
1883	 0.386045637985809 
1884	 0.382559989437915 
1885	 0.378666169087749 
1886	 0.374776233428002 
1887	 0.37062330613415 
1888	 0.366243317895683 
1889	 0.362098889513114 
1890	 0.35770401881341 
1891	 0.353305013040313 
1892	 0.348981663045057 
1893	 0.344514059856878 
1894	 0.339836753472725 
1895	 0.335395726630974 
1896	 0.330923692199662 
1897	 0.326435324292212 
1898	 0.322373964211541 
1899	 0.318256617509912 
1900	 0.314247684899823 
1901	 0.310479816873224 
1902	 0.306573178914712 
1903	 0.302915194427577 
1904	 0.299355556034229 
1905	 0.29587755508842 
1906	 0.292492641991234 
1907	 0.289482138559248 
1908	 0.286452986897262 
1909	 0.283560664509667 
1910	 0.280834755233309 
1911	 0.277960363612174 
1912	 0.275235079667856 
1913	 0.272545614041168 
1914	 0.269800419693131 
1915	 0.267203875681831 
1916	 0.264770127217659 
1917	 0.262251737308827 
1918	 0.259766574834024 
1919	 0.257363970384229 
1920	 0.254787344495658 
1921	 0.252282255227863 
1922	 0.249748545986272 
1923	 0.247144246557729 
1924	 0.244737836023843 
1925	 0.242276424035945 
1926	 0.239881330251957 
1927	 0.237579520870004 
1928	 0.235269879968136 
1929	 0.232908167980803 
1930	 0.230719974368262 
1931	 0.228602890256888 
1932	 0.22657979938212 
1933	 0.224876445642796 
1934	 0.223288488835722 
1935	 0.221851971976705 
1936	 0.220668687127344 
1937	 0.219638949199553 
1938	 0.218751068704798 
1939	 0.218109624102918 
1940	 0.217679858219555 
1941	 0.217436238757793 
1942	 0.217388274673096 
1943	 0.217497530070967 
1944	 0.21775989962299 
1945	 0.218200065879947 
1946	 0.218886545642636 
1947	 0.219704229564778 
1948	 0.2207733706253 
1949	 0.222121203395183 
1950	 0.223594138558708 
1951	 0.225272106577899 
1952	 0.227133551119519 
1953	 0.229160456099172 
1954	 0.23136165373906 
1955	 0.23386104297257 
1956	 0.236363257910382 
1957	 0.238928716657475 
1958	 0.241499196741135 
1959	 0.243776753778034 
1960	 0.245949202476119 
1961	 0.247924081850498 
1962	 0.249696040875767 
1963	 0.251296965594657 
1964	 0.252714228724338 
1965	 0.25397360084987 
1966	 0.255047438928364 
1967	 0.255998368628177 
1968	 0.256774357196238 
1969	 0.257541629602345 
1970	 0.258236564903836 
1971	 0.258917472401634 
1972	 0.259700193269479 
1973	 0.260515852651319 
1974	 0.261395744880455 
1975	 0.262369425752279 
1976	 0.263356274515319 
1977	 0.264366196978902 
1978	 0.265443632623489 
1979	 0.266555958276879 
1980	 0.267725144846896 
1981	 0.269031807625904 
1982	 0.270328755029626 
1983	 0.271751023178807 
1984	 0.273256307270948 
1985	 0.274701219068775 
1986	 0.276294986855687 
1987	 0.278023196241906 
1988	 0.279738115513877 
1989	 0.281779879023103 
1990	 0.284063473620065 
1991	 0.286476713519148 
1992	 0.289098274091111 
1993	 0.291955946504024 
1994	 0.29474050167949 
1995	 0.297726026829172 
1996	 0.300744370783897 
1997	 0.303762311028276 
1998	 0.306879221019151 
1999	 0.310175360592072 
2000	 0.313243222066206 
2001	 0.316436390169426 
2002	 0.319286595553597 
2003	 0.321927599545314 
2004	 0.324464199566078 
2005	 0.326758722126144 
2006	 0.329000284562326 
2007	 0.331202008907702 
2008	 0.333177156009839 
2009	 0.335031536228424 
2010	 0.336766712500653 
2011	 0.338199890747526 
2012	 0.339533778128806 
2013	 0.340747015968591 
2014	 0.341767491707168 
2015	 0.342746323147024 
2016	 0.343648920881426 
2017	 0.344415919889684 
2018	 0.345074196498069 
2019	 0.345634348093586 
2020	 0.346052661582813 
2021	 0.346411139589803 
2022	 0.346689286657527 
2023	 0.346854852544122 
2024	 0.346951538911856 
2025	 0.346986587772533 
2026	 0.346941538181086 
2027	 0.346805124600054 
2028	 0.346628781681842 
2029	 0.346366920939361 
2030	 0.346079432679292 
2031	 0.345740559125588 
2032	 0.345375371495817 
2033	 0.344940298117979 
2034	 0.344518536494411 
2035	 0.344077070905218 
2036	 0.343608306871322 
2037	 0.343163214260157 
2038	 0.34273359683843 
2039	 0.342313762826584 
2040	 0.341911356865698 
2041	 0.341501662568931 
2042	 0.341086143841412 
2043	 0.340704081269568 
2044	 0.340320299307263 
2045	 0.339968915677953 
2046	 0.339665724704718 
2047	 0.339349588718071 
2048	 0.339049934015019 
2049	 0.338746569004828 
2050	 0.338431896836976 
2051	 0.338143546618388 
2052	 0.337866314153867 
2053	 0.337575822528616 
2054	 0.337306648356442 
2055	 0.337068245595138 
2056	 0.336792680087286 
2057	 0.336519529738111 
2058	 0.336222461757345 
2059	 0.335878861958733 
2060	 0.335577910423021 
2061	 0.335253845390935 
2062	 0.334989005294917 
2063	 0.33477563699725 
2064	 0.334563095798641 
2065	 0.334380891943578 
2066	 0.334212040498786 
2067	 0.334032786617969 
2068	 0.333879320725904 
2069	 0.333734008676981 
2070	 0.33359536982725 
2071	 0.333484603064311 
2072	 0.333405095280819 
2073	 0.333309812207746 
2074	 0.333246482097091 
2075	 0.333144042266834 
2076	 0.333034376573278 
2077	 0.332894874178106 
2078	 0.332721003748433 
2079	 0.332548017215174 
2080	 0.332353741425432 
2081	 0.332150565227799 
2082	 0.331945657877149 
2083	 0.33174072983725 
2084	 0.331479198030533 
2085	 0.33120710439728 
2086	 0.330908070473645 
2087	 0.330566633584846 
2088	 0.330231490698372 
2089	 0.329883041677884 
2090	 0.329527107519921 
2091	 0.329171359398858 
2092	 0.328786233760149 
2093	 0.328386485714519 
2094	 0.327967589193022 
2095	 0.327528392812713 
2096	 0.32706344395494 
2097	 0.326582039894221 
2098	 0.326073102391884 
2099	 0.325545419880488 
2100	 0.324992620441893 
2101	 0.324408574803138 
2102	 0.323807207219248 
2103	 0.323165951631621 
2104	 0.322467203919089 
2105	 0.321785879330472 
2106	 0.321089865853014 
2107	 0.320377419989699 
2108	 0.319676684513048 
2109	 0.318925092394347 
2110	 0.318129727551253 
2111	 0.31732774408215 
2112	 0.316467611348274 
2113	 0.31564271569416 
2114	 0.314844551748969 
2115	 0.31401066015763 
2116	 0.313166943218703 
2117	 0.312331126046148 
2118	 0.311472134164198 
2119	 0.310573769014102 
2120	 0.30971377862032 
2121	 0.308846513259979 
2122	 0.308020804183936 
2123	 0.307211205461628 
2124	 0.306419151330763 
2125	 0.305674215562278 
2126	 0.304916673849816 
2127	 0.304147639803881 
2128	 0.303419537634576 
2129	 0.302692229347141 
2130	 0.302009896723213 
2131	 0.301375198191165 
2132	 0.300755469337585 
2133	 0.300177683738982 
2134	 0.299612453810901 
2135	 0.299012708217534 
2136	 0.298448204919933 
2137	 0.297880709710263 
2138	 0.297283593683616 
2139	 0.296760909322248 
2140	 0.296286346613089 
2141	 0.295806726004295 
2142	 0.295379542534757 
2143	 0.294913092173698 
2144	 0.294423799162913 
2145	 0.293963145216667 
2146	 0.293479011317753 
2147	 0.293051477155367 
2148	 0.292674543715454 
2149	 0.292293710858781 
2150	 0.291965744980991 
2151	 0.291601017584766 
2152	 0.291223185610056 
2153	 0.290840426558656 
2154	 0.290446517290103 
2155	 0.29004205405565 
2156	 0.289650503115026 
2157	 0.289265600343835 
2158	 0.288870514416278 
2159	 0.288490048224646 
2160	 0.288068090827809 
2161	 0.287619362130488 
2162	 0.287179759151936 
2163	 0.286703636803558 
2164	 0.286262877399344 
2165	 0.285830426364045 
2166	 0.285422178787699 
2167	 0.285043767341068 
2168	 0.284656178753063 
2169	 0.284272341887539 
2170	 0.283909375305729 
2171	 0.283525698960111 
2172	 0.283194666489913 
2173	 0.282900947728477 
2174	 0.282639704314756 
2175	 0.282409349957093 
2176	 0.282189065527861 
2177	 0.281995644226837 
2178	 0.281824708351876 
2179	 0.281678854648654 
2180	 0.281565269174995 
2181	 0.281452569217164 
2182	 0.281364897836146 
2183	 0.281268739891582 
2184	 0.281183883404072 
2185	 0.2810918258474 
2186	 0.281022994358255 
2187	 0.280905780244607 
2188	 0.280781300580905 
2189	 0.280607917722178 
2190	 0.280407929855418 
2191	 0.280150373345302 
2192	 0.279857264438648 
2193	 0.279507834588668 
2194	 0.279092922838072 
2195	 0.278642009194741 
2196	 0.27814771431457 
2197	 0.277591732522787 
2198	 0.277016152596401 
2199	 0.276404505385083 
2200	 0.275765568979733 
2201	 0.275110352080266 
2202	 0.274373950245269 
2203	 0.273559808306951 
2204	 0.272785037011144 
2205	 0.271925385054924 
2206	 0.271178373153812 
2207	 0.270498016472088 
2208	 0.26980665259999 
2209	 0.269151189078341 
2210	 0.26850435639282 
2211	 0.267870009717807 
2212	 0.267247722484392 
2213	 0.266639415049611 
2214	 0.266047973258384 
2215	 0.265484694731012 
2216	 0.264905337314756 
2217	 0.264338082838323 
2218	 0.263772571623872 
2219	 0.263205472611792 
2220	 0.262626234067917 
2221	 0.262050496824321 
2222	 0.261473562935154 
2223	 0.260889113226142 
2224	 0.260272427474568 
2225	 0.259615935993121 
2226	 0.25887004604856 
2227	 0.257932001084517 
2228	 0.256868656628324 
2229	 0.255649866278607 
2230	 0.254249104304229 
2231	 0.252739696573352 
2232	 0.251114953827641 
2233	 0.249300416936349 
2234	 0.24738024753686 
2235	 0.245186130646821 
2236	 0.242757957197789 
2237	 0.240191197349171 
2238	 0.237306223368225 
2239	 0.234440576098457 
2240	 0.231490654989955 
2241	 0.228400422111931 
2242	 0.225269392041357 
2243	 0.221935342148376 
2244	 0.218343780615595 
2245	 0.214779017808593 
2246	 0.210932455228022 
2247	 0.207298723211364 
2248	 0.20375219904795 
2249	 0.200219639809671 
2250	 0.196733227943061 
2251	 0.193422181521907 
2252	 0.189940625997348 
2253	 0.186618595395221 
2254	 0.183365793464783 
2255	 0.18015624203947 
2256	 0.177261155863086 
2257	 0.174416415258025 
2258	 0.171702655953049 
2259	 0.169198078182363 
2260	 0.166661842324267 
2261	 0.164150914523135 
2262	 0.161801558313525 
2263	 0.159476823717816 
2264	 0.157397338692311 
2265	 0.155506589277658 
2266	 0.153718135931385 
2267	 0.152118337069533 
2268	 0.150620044776199 
2269	 0.149253786701314 
2270	 0.148010012519401 
2271	 0.146928650121795 
2272	 0.145894325174598 
2273	 0.145021642734476 
2274	 0.144108320027752 
2275	 0.143319485329037 
2276	 0.14241271495953 
2277	 0.141483000420922 
2278	 0.140485886829047 
2279	 0.139388785375557 
2280	 0.13828123494175 
2281	 0.137153193522245 
2282	 0.135959952878005 
2283	 0.134715138312168 
2284	 0.133456975886255 
2285	 0.132065158380409 
2286	 0.130668921749933 
2287	 0.129201547179813 
2288	 0.12772027265782 
2289	 0.126383075986387 
2290	 0.125012638479486 
2291	 0.123714426216541 
2292	 0.122501921986062 
2293	 0.121198152240155 
2294	 0.119993314155859 
2295	 0.118918007616394 
2296	 0.117927789421919 
2297	 0.11716995871781 
2298	 0.116608828722487 
2299	 0.116202345163953 
2300	 0.115978617823012 
2301	 0.11593057509675 
2302	 0.116056549314607 
2303	 0.116374705620034 
2304	 0.116906599433336 
2305	 0.117585314459405 
2306	 0.118459747205475 
2307	 0.11948647940409 
2308	 0.120701164319035 
2309	 0.122050876957226 
2310	 0.123622765648046 
2311	 0.125213716726913 
2312	 0.127023310776544 
2313	 0.128709367637087 
2314	 0.130447936160282 
2315	 0.132098101444736 
2316	 0.133720538925812 
2317	 0.135215106270765 
2318	 0.136680225177467 
2319	 0.137957188691353 
2320	 0.139111435928476 
2321	 0.140076261552558 
2322	 0.140847389188183 
2323	 0.141512746904433 
2324	 0.141993194068315 
2325	 0.14237390401832 
2326	 0.142641095725148 
2327	 0.142755635497007 
2328	 0.142692863175969 
2329	 0.14254718542518 
2330	 0.142272688986378 
2331	 0.141879188933101 
2332	 0.141397749028117 
2333	 0.140800667420742 
2334	 0.140050375277192 
2335	 0.139269678297948 
2336	 0.138425518873903 
2337	 0.137506509829546 
2338	 0.136608854684467 
2339	 0.135660405926667 
2340	 0.134781757778997 
2341	 0.134021765192965 
2342	 0.133297055731939 
2343	 0.13273714060605 
2344	 0.132286234234624 
2345	 0.131974607157351 
2346	 0.13194023926197 
2347	 0.132132628877372 
2348	 0.132465854237379 
2349	 0.132984595011405 
2350	 0.133670910874006 
2351	 0.13448446961671 
2352	 0.135417609507173 
2353	 0.136420519214832 
2354	 0.137317689283552 
2355	 0.138170561744089 
2356	 0.138991506366707 
2357	 0.139654315178603 
2358	 0.140288529334786 
2359	 0.140754134464025 
2360	 0.140993480296842 
2361	 0.141126484430496 
2362	 0.14115777225576 
2363	 0.141139873874983 
2364	 0.141102326811113 
2365	 0.141004825634301 
2366	 0.140882037283415 
2367	 0.140732400501048 
2368	 0.140525458499034 
2369	 0.140327799518511 
2370	 0.140103199644323 
2371	 0.139849608921971 
2372	 0.139616455626145 
2373	 0.139359746769163 
2374	 0.139100525777498 
2375	 0.138808843902594 
2376	 0.138424757394971 
2377	 0.138066586498791 
2378	 0.13778614677401 
2379	 0.137455370355793 
2380	 0.137083011038798 
2381	 0.136660461446291 
2382	 0.136203589512548 
2383	 0.135609669181454 
2384	 0.135107272164349 
2385	 0.134635749021342 
2386	 0.134193649226147 
2387	 0.133758756743205 
2388	 0.133322013103852 
2389	 0.132958992918318 
2390	 0.132467582480166 
2391	 0.131893150913773 
2392	 0.131393640636731 
2393	 0.130840693889317 
2394	 0.130376579313638 
2395	 0.130004678165264 
2396	 0.129556235814294 
2397	 0.1290990039012 
2398	 0.128661522652507 
2399	 0.128220649007675 
2400	 0.127782320698193 
2401	 0.127339873797789 
2402	 0.126948856557945 
2403	 0.126588447142316 
2404	 0.12630049406242 
2405	 0.125960052460008 
2406	 0.125527093947304 
2407	 0.125156737346419 
2408	 0.124854482097191 
2409	 0.12455440572696 
2410	 0.124313494000612 
2411	 0.124079885763009 
2412	 0.123820074974272 
2413	 0.123570344817888 
2414	 0.123286854200812 
2415	 0.123024306940781 
2416	 0.122731874370192 
2417	 0.122477807442374 
2418	 0.122359374146568 
2419	 0.122224549236464 
2420	 0.12214511112393 
2421	 0.122055385098908 
2422	 0.121933043487512 
2423	 0.121843967250736 
2424	 0.121597196295472 
2425	 0.121394071996365 
2426	 0.121323473176922 
2427	 0.121220039901234 
2428	 0.121193095550365 
2429	 0.12111371630123 
2430	 0.120939594475543 
2431	 0.120798417402316 
2432	 0.120636380546536 
2433	 0.120507515478855 
2434	 0.120353418202377 
2435	 0.120121790329867 
2436	 0.119959305539418 
2437	 0.119894267664902 
2438	 0.119845703315395 
2439	 0.119787152660944 
2440	 0.119750725145873 
2441	 0.119566232718996 
2442	 0.119318410127462 
2443	 0.119199104416084 
2444	 0.119008476468601 
2445	 0.118944111886218 
2446	 0.118966589073887 
2447	 0.118754078785813 
2448	 0.118545258336875 
2449	 0.118301128136429 
2450	 0.117869194354472 
2451	 0.117528733792515 
2452	 0.117221285624673 
2453	 0.116835703479004 
2454	 0.116657918494611 
2455	 0.11648021294605 
2456	 0.116205723014914 
2457	 0.116058873854017 
2458	 0.115803541496216 
2459	 0.115524821149742 
2460	 0.115240879892328 
2461	 0.114888698526513 
2462	 0.114688120562812 
2463	 0.114475900769235 
2464	 0.114302594635536 
2465	 0.114200863425379 
2466	 0.113944320001467 
2467	 0.113609922211761 
2468	 0.113458376771363 
2469	 0.113317373462851 
2470	 0.113041915380847 
2471	 0.113038279958835 
2472	 0.113064927472902 
2473	 0.112864457815738 
2474	 0.112876049242921 
2475	 0.112955833317284 
2476	 0.112854437709524 
2477	 0.112951306125354 
2478	 0.11310018583177 
2479	 0.113083431740141 
2480	 0.113205498117631 
2481	 0.113350954932514 
2482	 0.113538635371885 
2483	 0.113816191127745 
2484	 0.113966971217274 
2485	 0.11391325408422 
2486	 0.113945621190269 
2487	 0.113971154264017 
2488	 0.113886398774578 
2489	 0.114220669991893 
2490	 0.114732991225813 
2491	 0.114895056743035 
2492	 0.115331830149641 
2493	 0.115560976230536 
2494	 0.115388198058006 
2495	 0.115725268012215 
2496	 0.116114231968262 
2497	 0.116227233918843 
2498	 0.116474412960661 
2499	 0.116804717724157 
2500	 0.116799173431257 
