Wavelength	spectrum00012.asd
350	 9.50341581925859E-02 
351	 9.23758256110823E-02 
352	 0.091389142690155 
353	 9.10093696340242E-02 
354	 8.95066751013848E-02 
355	 0.088180834027205 
356	 8.59501299174133E-02 
357	 8.24688281494687E-02 
358	 0.080976337563856 
359	 7.94056656547172E-02 
360	 0.078023032976371 
361	 0.078031112936125 
362	 7.80050100668534E-02 
363	 0.077063669688078 
364	 7.54295804026946E-02 
365	 7.45984739968612E-02 
366	 7.50393840664149E-02 
367	 7.46930880767055E-02 
368	 7.26452882611546E-02 
369	 0.073801231630896 
370	 7.37632114595177E-02 
371	 7.28175491602329E-02 
372	 0.073600855142971 
373	 7.36947261359072E-02 
374	 7.30763040278712E-02 
375	 7.22817487239384E-02 
376	 7.22341693672828E-02 
377	 7.19680180893584E-02 
378	 7.14699184095259E-02 
379	 7.10940957627677E-02 
380	 7.15554979106142E-02 
381	 7.21566258956626E-02 
382	 0.072083635881748 
383	 0.070816914204738 
384	 7.07339558824821E-02 
385	 7.10938457746895E-02 
386	 7.11560440020555E-02 
387	 7.07957678735387E-02 
388	 6.99695199087165E-02 
389	 6.98533291976742E-02 
390	 7.08921581759655E-02 
391	 6.96047272938043E-02 
392	 6.95009153978715E-02 
393	 7.05927024909764E-02 
394	 7.06306691247435E-02 
395	 7.05345477189518E-02 
396	 7.06132924021264E-02 
397	 7.08280078516105E-02 
398	 7.06677133254067E-02 
399	 7.07360143823985E-02 
400	 7.09490483560167E-02 
401	 7.10311968976543E-02 
402	 7.06728851938596E-02 
403	 7.14280097562593E-02 
404	 0.072566353525945 
405	 7.18907420312947E-02 
406	 7.19162914795535E-02 
407	 7.20681089561854E-02 
408	 7.19459366272895E-02 
409	 0.072428303322786 
410	 7.26861131802246E-02 
411	 7.28161577700887E-02 
412	 7.31810508628032E-02 
413	 7.38919082080674E-02 
414	 7.42835824644648E-02 
415	 7.44497844789528E-02 
416	 7.51478617856065E-02 
417	 7.58405002998987E-02 
418	 7.64267370345175E-02 
419	 7.69618324049202E-02 
420	 7.77035187537206E-02 
421	 0.0782143729037 
422	 7.86636349884868E-02 
423	 0.079401866839122 
424	 8.01743930051755E-02 
425	 8.09575564007406E-02 
426	 8.16858415319892E-02 
427	 8.22283628690364E-02 
428	 8.29889893123981E-02 
429	 8.40431024451327E-02 
430	 8.52208167552987E-02 
431	 8.58542122934552E-02 
432	 8.67813812512668E-02 
433	 8.78768733581626E-02 
434	 8.85756720670566E-02 
435	 8.97104253023161E-02 
436	 0.090947805953459 
437	 9.20254861893917E-02 
438	 9.29803401420168E-02 
439	 9.41721652856809E-02 
440	 9.54773350148571E-02 
441	 9.67077136861349E-02 
442	 9.80931457498643E-02 
443	 9.94557722607771E-02 
444	 0.100794234325555 
445	 0.102242568625134 
446	 0.103512059011061 
447	 0.104801985527707 
448	 0.106289923111158 
449	 0.107939257017557 
450	 0.109633744048649 
451	 0.111224671262734 
452	 0.112630399745676 
453	 0.114174082820254 
454	 0.115929442485087 
455	 0.117767663525794 
456	 0.119378958414797 
457	 0.121140187391395 
458	 0.12303730090446 
459	 0.124983253369685 
460	 0.126952254516069 
461	 0.128944219454975 
462	 0.130926470649283 
463	 0.132866075908142 
464	 0.134845185374901 
465	 0.136879520492822 
466	 0.138969317727428 
467	 0.141111366309687 
468	 0.143185827503873 
469	 0.145274002577947 
470	 0.147490867490316 
471	 0.14980096650617 
472	 0.15207342715798 
473	 0.154308776894047 
474	 0.156612010832997 
475	 0.158979343616588 
476	 0.161354310137668 
477	 0.163707845378209 
478	 0.166093551093163 
479	 0.168499608271624 
480	 0.170981435375063 
481	 0.173566975651226 
482	 0.175967514077588 
483	 0.178419363415282 
484	 0.180970405594405 
485	 0.183408903141147 
486	 0.185992093048637 
487	 0.18860147842757 
488	 0.191102988129544 
489	 0.193585667397841 
490	 0.196181566005256 
491	 0.198827925828023 
492	 0.201367785645529 
493	 0.203961288369786 
494	 0.206512478540961 
495	 0.209013434482563 
496	 0.211652480487202 
497	 0.214265466576102 
498	 0.216824372614141 
499	 0.219351528499405 
500	 0.221915862074644 
501	 0.224450782235812 
502	 0.226948635226073 
503	 0.229458861891018 
504	 0.231996599539646 
505	 0.234475351498548 
506	 0.236873600248841 
507	 0.239369461163844 
508	 0.241834529292154 
509	 0.244273622964255 
510	 0.246732489334649 
511	 0.249120405672189 
512	 0.251490125709646 
513	 0.253869058236955 
514	 0.256244582584385 
515	 0.258597046458605 
516	 0.260909195753612 
517	 0.263182759337028 
518	 0.265475094895368 
519	 0.267737662630801 
520	 0.269959633481872 
521	 0.27215804787876 
522	 0.274355422609832 
523	 0.276529243842887 
524	 0.278687627032665 
525	 0.280930776781537 
526	 0.283110779846808 
527	 0.285230031174618 
528	 0.287349383667004 
529	 0.28951576411654 
530	 0.291613984340761 
531	 0.293656767191309 
532	 0.295794469941073 
533	 0.297869740159949 
534	 0.299938553393019 
535	 0.302026378459282 
536	 0.303924873303767 
537	 0.305909005034282 
538	 0.30798572145356 
539	 0.310013262214982 
540	 0.312005455392289 
541	 0.313995801648192 
542	 0.315986932770032 
543	 0.317917727447575 
544	 0.319901317048529 
545	 0.321858361549791 
546	 0.323723992374659 
547	 0.325765434019078 
548	 0.327928225936172 
549	 0.330190237915778 
550	 0.332562529472342 
551	 0.33493121202747 
552	 0.337334901316563 
553	 0.33981581053815 
554	 0.342350391405611 
555	 0.34485775335502 
556	 0.347364652502442 
557	 0.349925292478065 
558	 0.352366185764559 
559	 0.354807881707316 
560	 0.357296640390743 
561	 0.359739718571935 
562	 0.362016563926548 
563	 0.364012533307434 
564	 0.365691112380536 
565	 0.367227907506433 
566	 0.368789419092802 
567	 0.370381092487083 
568	 0.371918253665746 
569	 0.373861815591444 
570	 0.376068860611723 
571	 0.378339901063908 
572	 0.380597360933511 
573	 0.382692471032864 
574	 0.384571950643686 
575	 0.38620557087873 
576	 0.387395881208775 
577	 0.388253106037338 
578	 0.388951263440122 
579	 0.389703255059748 
580	 0.390703203445154 
581	 0.391982880367896 
582	 0.39349483462829 
583	 0.395135274976361 
584	 0.396829522993218 
585	 0.398555899841959 
586	 0.400301395689456 
587	 0.401793270377297 
588	 0.403071343363012 
589	 0.40428946432074 
590	 0.405702608301942 
591	 0.407203195194643 
592	 0.408744652362235 
593	 0.410319013585919 
594	 0.412061733439496 
595	 0.413630899265276 
596	 0.414941966394786 
597	 0.416150939801347 
598	 0.417285145987521 
599	 0.418393007496632 
600	 0.419478221592092 
601	 0.420418978673564 
602	 0.421427286033924 
603	 0.422515760522113 
604	 0.423606655698489 
605	 0.424698572120271 
606	 0.425775884084917 
607	 0.42678153069611 
608	 0.4276073834776 
609	 0.428485017799542 
610	 0.429365306578815 
611	 0.430172336902223 
612	 0.430983824189584 
613	 0.431820745792078 
614	 0.432660955391509 
615	 0.43345799737837 
616	 0.434215025980031 
617	 0.435005569824589 
618	 0.435839402187609 
619	 0.436599730877896 
620	 0.437358731062824 
621	 0.438088439015445 
622	 0.438761390879573 
623	 0.43950816371294 
624	 0.440239270159283 
625	 0.440931908751588 
626	 0.441632751988333 
627	 0.442291881629798 
628	 0.442960884584281 
629	 0.443659691123662 
630	 0.44427905852967 
631	 0.444886902528366 
632	 0.445535305766115 
633	 0.446244666352969 
634	 0.4468800210809 
635	 0.447488995488737 
636	 0.448093181429763 
637	 0.44865959800297 
638	 0.449204995266992 
639	 0.449810807399584 
640	 0.450493408506471 
641	 0.451004631280702 
642	 0.451553696060479 
643	 0.452221318430036 
644	 0.452967319135457 
645	 0.453460616071822 
646	 0.45392826387747 
647	 0.454513640308564 
648	 0.455108010011269 
649	 0.455645450049912 
650	 0.456185762899754 
651	 0.456791723564134 
652	 0.457343116821611 
653	 0.457903342753102 
654	 0.458453423485049 
655	 0.458920763201341 
656	 0.459532376982039 
657	 0.460112496265247 
658	 0.460567721643052 
659	 0.461110792613035 
660	 0.461744214621399 
661	 0.462355668275224 
662	 0.462827105322904 
663	 0.463292085416964 
664	 0.46386529354937 
665	 0.464489607965812 
666	 0.464949944161615 
667	 0.465448962799325 
668	 0.465982145526465 
669	 0.466515812890994 
670	 0.467054242522073 
671	 0.467594217186457 
672	 0.468154424511018 
673	 0.468743165162291 
674	 0.469230504264987 
675	 0.469702803991643 
676	 0.470208591092108 
677	 0.470726964497906 
678	 0.471314365838301 
679	 0.471856130711422 
680	 0.47229054156898 
681	 0.472837350477371 
682	 0.473389571767706 
683	 0.473892579492142 
684	 0.474342152708139 
685	 0.474876033493703 
686	 0.475461089841144 
687	 0.476037924556799 
688	 0.476541199882804 
689	 0.476973034545035 
690	 0.477442353618569 
691	 0.478019257105831 
692	 0.478546997272045 
693	 0.479019230536535 
694	 0.479469549497143 
695	 0.47995536994291 
696	 0.480491819221822 
697	 0.481041244574197 
698	 0.481575704284117 
699	 0.482097900937094 
700	 0.482532888249437 
701	 0.482973174905627 
702	 0.483506784453882 
703	 0.484016470007428 
704	 0.484479814840833 
705	 0.484907686185828 
706	 0.485341724209337 
707	 0.485875773604025 
708	 0.486418091729381 
709	 0.48689491268126 
710	 0.487300763015794 
711	 0.487766878255089 
712	 0.488246217787635 
713	 0.488674056455485 
714	 0.489154885344813 
715	 0.489647757805703 
716	 0.490083469399762 
717	 0.490409207919553 
718	 0.490940445727346 
719	 0.491493985741176 
720	 0.491936280625508 
721	 0.492336459433221 
722	 0.492725039801176 
723	 0.493128855748313 
724	 0.493576745015461 
725	 0.494144525342304 
726	 0.494597569947966 
727	 0.494954577785277 
728	 0.495401145329842 
729	 0.49577687632266 
730	 0.496220486398187 
731	 0.496744051522357 
732	 0.497091938549078 
733	 0.497485380572528 
734	 0.497929612919146 
735	 0.498391038496307 
736	 0.498960203106717 
737	 0.499362586889022 
738	 0.499664204763756 
739	 0.500124604779983 
740	 0.500499513120547 
741	 0.500816930675167 
742	 0.501146210111049 
743	 0.501567218039412 
744	 0.501998294063795 
745	 0.502345071028508 
746	 0.502578033988891 
747	 0.502864877072499 
748	 0.503277557798981 
749	 0.503731256907181 
750	 0.504072045402634 
751	 0.504417780504866 
752	 0.504691679602104 
753	 0.504939567234492 
754	 0.505379908345793 
755	 0.505843311705669 
756	 0.506205909363233 
757	 0.506438812857908 
758	 0.506734406645964 
759	 0.50704532313169 
760	 0.507378221632733 
761	 0.507748614229824 
762	 0.50809504870365 
763	 0.50840271704041 
764	 0.508682971064842 
765	 0.508972282114969 
766	 0.509327032405006 
767	 0.509727753047065 
768	 0.510109986882167 
769	 0.510334114058166 
770	 0.51061374402394 
771	 0.510957159148939 
772	 0.511297729091075 
773	 0.511621356627517 
774	 0.511928822140022 
775	 0.512219081086041 
776	 0.512495068226177 
777	 0.512814759229923 
778	 0.513227453808356 
779	 0.513654656272899 
780	 0.513808901654636 
781	 0.514053372180731 
782	 0.514354429879489 
783	 0.514604878834807 
784	 0.514866588112591 
785	 0.515143355189906 
786	 0.515451835603404 
787	 0.515793232152388 
788	 0.516019251635363 
789	 0.516220730062143 
790	 0.516470525721687 
791	 0.516786301859176 
792	 0.517114914595758 
793	 0.517376281868512 
794	 0.517564735441219 
795	 0.517862530069348 
796	 0.518142663517683 
797	 0.518386835228934 
798	 0.518604248660073 
799	 0.518721712943267 
800	 0.518959163654177 
801	 0.51934254141556 
802	 0.519726167501247 
803	 0.519979772273212 
804	 0.520223319261426 
805	 0.520527417015496 
806	 0.520832122999182 
807	 0.52108712813461 
808	 0.521350081471998 
809	 0.521642302335102 
810	 0.52178123216567 
811	 0.521960075293895 
812	 0.522217871921707 
813	 0.522509571508218 
814	 0.522773387052159 
815	 0.522992251573253 
816	 0.523181318961409 
817	 0.523380829989012 
818	 0.523603544814043 
819	 0.523868681142961 
820	 0.524162838500978 
821	 0.524424573981781 
822	 0.524575108947955 
823	 0.524735901012263 
824	 0.5250128670116 
825	 0.525301407255573 
826	 0.525468620980075 
827	 0.525555064411718 
828	 0.525696556264396 
829	 0.52602788855189 
830	 0.526232228090369 
831	 0.526314118691296 
832	 0.526556160860905 
833	 0.526746593215349 
834	 0.526966492478264 
835	 0.527224626150195 
836	 0.527361949176716 
837	 0.527511786164277 
838	 0.527684388116427 
839	 0.527849617419338 
840	 0.527942697144818 
841	 0.528132455116132 
842	 0.528396147323531 
843	 0.528626906759719 
844	 0.528763506006627 
845	 0.528807246252182 
846	 0.528889433488542 
847	 0.529192476886076 
848	 0.529540574488327 
849	 0.529779735329123 
850	 0.529911751129719 
851	 0.530118428179005 
852	 0.530279404351258 
853	 0.530437595018442 
854	 0.530641196355606 
855	 0.530886228720488 
856	 0.531069343062608 
857	 0.531231612925242 
858	 0.531435842704353 
859	 0.531639714725056 
860	 0.531815503781858 
861	 0.531991905882355 
862	 0.532208281867547 
863	 0.532379875959924 
864	 0.532540122436375 
865	 0.532679927954604 
866	 0.532770759388105 
867	 0.533035524046061 
868	 0.533370290317308 
869	 0.533614560510155 
870	 0.533617343001702 
871	 0.533657765437053 
872	 0.533772066439876 
873	 0.533931131289874 
874	 0.534088168595793 
875	 0.534382619981402 
876	 0.534662791622935 
877	 0.534801447527447 
878	 0.535107114806058 
879	 0.5353016097669 
880	 0.535366284743092 
881	 0.535428209444394 
882	 0.535609733653719 
883	 0.535776265892394 
884	 0.53587926213633 
885	 0.535964273050236 
886	 0.536141571945316 
887	 0.536370721381053 
888	 0.536572449953496 
889	 0.536660108487976 
890	 0.536742359767931 
891	 0.536883422677053 
892	 0.537079140496429 
893	 0.537230070287186 
894	 0.537362234756247 
895	 0.537548732617918 
896	 0.537799917580688 
897	 0.537940407763779 
898	 0.538002014738642 
899	 0.538085106711389 
900	 0.538275537929342 
901	 0.53849612308129 
902	 0.538758324118336 
903	 0.538966031807938 
904	 0.539034660906438 
905	 0.539211243187565 
906	 0.539408345858232 
907	 0.539577509791929 
908	 0.539733890192145 
909	 0.540039375997787 
910	 0.540322680972428 
911	 0.540511255066961 
912	 0.54067203537586 
913	 0.540829681434869 
914	 0.541001889581888 
915	 0.54120485229225 
916	 0.541451585092238 
917	 0.541646736919039 
918	 0.541824900392787 
919	 0.541997163682744 
920	 0.542078383184893 
921	 0.542274312562862 
922	 0.542512852727733 
923	 0.542695856168218 
924	 0.542855589789427 
925	 0.543087876858539 
926	 0.543306989568131 
927	 0.543440708048446 
928	 0.543676640005163 
929	 0.543906859718373 
930	 0.544145940290669 
931	 0.544408276562052 
932	 0.544468629302952 
933	 0.5446564325244 
934	 0.544954766181535 
935	 0.545192097427319 
936	 0.545548469956714 
937	 0.545898944079785 
938	 0.546143068609294 
939	 0.546256947904882 
940	 0.546475754802326 
941	 0.546700928744829 
942	 0.54687741213332 
943	 0.547029266582767 
944	 0.547273952606833 
945	 0.547507325415761 
946	 0.547671955740907 
947	 0.547799096391514 
948	 0.547980911643368 
949	 0.548199247911891 
950	 0.548406621195907 
951	 0.548550357088729 
952	 0.548660758788839 
953	 0.548758169960875 
954	 0.548905568598496 
955	 0.549212901761808 
956	 0.549484848219483 
957	 0.54970283663098 
958	 0.549871016464625 
959	 0.549966631001989 
960	 0.550168638997171 
961	 0.550406512698614 
962	 0.550595842488586 
963	 0.550757848741754 
964	 0.550765503046992 
965	 0.550884188437218 
966	 0.551257285223137 
967	 0.551533929995762 
968	 0.551763089330864 
969	 0.551941011051623 
970	 0.552080772373322 
971	 0.552243534727076 
972	 0.552456984272149 
973	 0.552685982127398 
974	 0.552899426133364 
975	 0.553129518246769 
976	 0.553536735275246 
977	 0.553867412973373 
978	 0.55392598996208 
979	 0.554110478774826 
980	 0.554285586832497 
981	 0.554435073155668 
982	 0.55454547417217 
983	 0.554483031764678 
984	 0.554603347194261 
985	 0.554876511225422 
986	 0.555159206763424 
987	 0.555480112558496 
988	 0.555626759865482 
989	 0.555710765453093 
990	 0.555897118989398 
991	 0.556086380585823 
992	 0.556248402045195 
993	 0.556395585301744 
994	 0.556575563033707 
995	 0.556883361026141 
996	 0.557193808492559 
997	 0.557418570322092 
998	 0.557527574399436 
999	 0.557592017595002 
1000	 0.557806425706664 
1001	 0.538369228083364 
1002	 0.538518933297918 
1003	 0.538660888935326 
1004	 0.538820277148129 
1005	 0.538971141186464 
1006	 0.539139363741924 
1007	 0.53933336425951 
1008	 0.539504272939178 
1009	 0.539670208739667 
1010	 0.539820700521625 
1011	 0.53996021255611 
1012	 0.540110318601134 
1013	 0.540250646323206 
1014	 0.540387777058944 
1015	 0.540527550138665 
1016	 0.540676480614004 
1017	 0.540788244384171 
1018	 0.540903323114072 
1019	 0.541068885114028 
1020	 0.541238059733856 
1021	 0.54140362336003 
1022	 0.541607165677277 
1023	 0.541783541646664 
1024	 0.541928268603139 
1025	 0.542095310138801 
1026	 0.542279155570902 
1027	 0.542442168266559 
1028	 0.542600932943529 
1029	 0.542757009917587 
1030	 0.542897458774396 
1031	 0.543054109849176 
1032	 0.543199684214482 
1033	 0.543346673831497 
1034	 0.543512361735639 
1035	 0.54365267122599 
1036	 0.543794530005928 
1037	 0.543952042399885 
1038	 0.544086690545232 
1039	 0.544177999610918 
1040	 0.544316218430899 
1041	 0.54447951994616 
1042	 0.544616954245978 
1043	 0.544760786815282 
1044	 0.544914471798075 
1045	 0.545034276801222 
1046	 0.545158870700559 
1047	 0.545256110002111 
1048	 0.545331657590263 
1049	 0.545420272057103 
1050	 0.545507878144608 
1051	 0.545623952335299 
1052	 0.545769781283051 
1053	 0.545900370329106 
1054	 0.546059213454534 
1055	 0.546156196966737 
1056	 0.546212704397651 
1057	 0.546276030673082 
1058	 0.546310618857292 
1059	 0.546335917629853 
1060	 0.546409063756727 
1061	 0.546510577407373 
1062	 0.546606885888216 
1063	 0.546669774921921 
1064	 0.546682190879105 
1065	 0.546699129664423 
1066	 0.546744028051714 
1067	 0.54676934277538 
1068	 0.546805559966757 
1069	 0.546874476456529 
1070	 0.546952573963407 
1071	 0.547030283827159 
1072	 0.547134987256053 
1073	 0.547219658303427 
1074	 0.547281854556272 
1075	 0.547328023503791 
1076	 0.547364567709816 
1077	 0.547453461371762 
1078	 0.54754144031839 
1079	 0.547593981298918 
1080	 0.547642349919789 
1081	 0.54769591366449 
1082	 0.547736262922163 
1083	 0.54777842380698 
1084	 0.547833392393104 
1085	 0.547890810009459 
1086	 0.547959423712022 
1087	 0.548039587516976 
1088	 0.548123141791761 
1089	 0.548202708532819 
1090	 0.548257530352791 
1091	 0.548288819336314 
1092	 0.548317851391924 
1093	 0.548354563999727 
1094	 0.548422585529673 
1095	 0.548489884311225 
1096	 0.548536197230123 
1097	 0.548592854876523 
1098	 0.548642365932273 
1099	 0.54867911114854 
1100	 0.548750987495816 
1101	 0.548827018902978 
1102	 0.548874920946698 
1103	 0.548914537016157 
1104	 0.548948260728273 
1105	 0.548970798128138 
1106	 0.54898489815857 
1107	 0.549011205599695 
1108	 0.549053476889893 
1109	 0.549075407649743 
1110	 0.549083297403695 
1111	 0.549115531768053 
1112	 0.549130681010556 
1113	 0.549135168529716 
1114	 0.54917443609461 
1115	 0.549180828871381 
1116	 0.549164918021163 
1117	 0.549191451287505 
1118	 0.549207557973534 
1119	 0.549208036323922 
1120	 0.549223456323913 
1121	 0.549253427417473 
1122	 0.549280499624382 
1123	 0.549301316132126 
1124	 0.549325701954122 
1125	 0.549339619421088 
1126	 0.549339364822128 
1127	 0.549317642655435 
1128	 0.549282118214024 
1129	 0.549248883280688 
1130	 0.549206427827594 
1131	 0.54918116661664 
1132	 0.549176142427241 
1133	 0.54916525893593 
1134	 0.549151106503926 
1135	 0.549117979016887 
1136	 0.549066022175635 
1137	 0.549005341764468 
1138	 0.548939538188866 
1139	 0.548856612443962 
1140	 0.548756248012095 
1141	 0.548657314309354 
1142	 0.548547239469836 
1143	 0.548402195636258 
1144	 0.548234088450233 
1145	 0.548069271910776 
1146	 0.54789750327506 
1147	 0.547704889839296 
1148	 0.547506696275371 
1149	 0.547291068437917 
1150	 0.547060621421839 
1151	 0.546839902201362 
1152	 0.546602951635513 
1153	 0.546365142596594 
1154	 0.546111417844308 
1155	 0.545847541525448 
1156	 0.54556203193714 
1157	 0.545268171280099 
1158	 0.544959511600059 
1159	 0.54463040721691 
1160	 0.544284437198469 
1161	 0.543931119660827 
1162	 0.54356230590317 
1163	 0.543209514705118 
1164	 0.542844437091629 
1165	 0.542474624034323 
1166	 0.542135041548824 
1167	 0.541777528712226 
1168	 0.5414407256117 
1169	 0.541106035350711 
1170	 0.540775992320428 
1171	 0.540448493412291 
1172	 0.540133808766591 
1173	 0.539804878712069 
1174	 0.539482324955681 
1175	 0.539158997138726 
1176	 0.538822728910136 
1177	 0.538494768009983 
1178	 0.53817517984491 
1179	 0.537834499405598 
1180	 0.537531625179369 
1181	 0.537222012409562 
1182	 0.53689714900615 
1183	 0.536613282055956 
1184	 0.53633314334748 
1185	 0.536047994266774 
1186	 0.535784191921903 
1187	 0.535554044794206 
1188	 0.535306221909593 
1189	 0.535052708051205 
1190	 0.534809358797904 
1191	 0.534559034996745 
1192	 0.534339627800158 
1193	 0.534139988686576 
1194	 0.533942716421119 
1195	 0.533764450451627 
1196	 0.533588376099747 
1197	 0.533411026786466 
1198	 0.533243786171717 
1199	 0.533091881303388 
1200	 0.532954328167337 
1201	 0.532827530694165 
1202	 0.532703612336739 
1203	 0.532576146242057 
1204	 0.532474133043537 
1205	 0.532412620667829 
1206	 0.532340798316817 
1207	 0.532376393558714 
1208	 0.532475651546703 
1209	 0.532632237758311 
1210	 0.53286389938596 
1211	 0.533134089678289 
1212	 0.533459440658165 
1213	 0.533828113514334 
1214	 0.534248895718773 
1215	 0.534714587996473 
1216	 0.535253907539475 
1217	 0.535785064588814 
1218	 0.536354323715898 
1219	 0.53692823186046 
1220	 0.537502720813305 
1221	 0.538112646483357 
1222	 0.538690493181853 
1223	 0.53926909409315 
1224	 0.539820870438153 
1225	 0.540343386965627 
1226	 0.540850643028952 
1227	 0.541353004660862 
1228	 0.541823203397581 
1229	 0.542272162597133 
1230	 0.542694256550532 
1231	 0.543079937902627 
1232	 0.543467514598781 
1233	 0.543847653400159 
1234	 0.544186988170409 
1235	 0.544499470220215 
1236	 0.544808432225691 
1237	 0.545061172469783 
1238	 0.545344745394937 
1239	 0.54564793432243 
1240	 0.545952508981767 
1241	 0.546237866528857 
1242	 0.546512890349748 
1243	 0.546775604798899 
1244	 0.547021871755434 
1245	 0.547254971153387 
1246	 0.547486012520833 
1247	 0.547688428820195 
1248	 0.547855985547476 
1249	 0.548037024957891 
1250	 0.548212857592535 
1251	 0.548374321365562 
1252	 0.548535526451416 
1253	 0.548681831998574 
1254	 0.54880777893165 
1255	 0.548930930909247 
1256	 0.549050086905805 
1257	 0.549159636186709 
1258	 0.549247922082264 
1259	 0.549346694813954 
1260	 0.549442781215284 
1261	 0.549541392659832 
1262	 0.549646546421997 
1263	 0.549754675640589 
1264	 0.549849509945581 
1265	 0.549936105116765 
1266	 0.550031662565301 
1267	 0.550128978949466 
1268	 0.55021181509911 
1269	 0.550297580693586 
1270	 0.550368779053324 
1271	 0.550422690385493 
1272	 0.550473906505283 
1273	 0.550519877284167 
1274	 0.550562941630734 
1275	 0.550591802011518 
1276	 0.550626725905267 
1277	 0.550668185679335 
1278	 0.550699750968828 
1279	 0.55071948205478 
1280	 0.550749008149891 
1281	 0.550781932414917 
1282	 0.550808774521144 
1283	 0.550840763003469 
1284	 0.550868217661167 
1285	 0.550891208129739 
1286	 0.550906963096707 
1287	 0.550918631108651 
1288	 0.550926769228817 
1289	 0.550935960422102 
1290	 0.550937799993069 
1291	 0.550943271551714 
1292	 0.55095741482325 
1293	 0.550957407219354 
1294	 0.550953366785449 
1295	 0.550939221496486 
1296	 0.550895961489315 
1297	 0.5508921300344 
1298	 0.550905358330806 
1299	 0.55090918821447 
1300	 0.55094286563594 
1301	 0.55095018229047 
1302	 0.550937084565552 
1303	 0.550920422855 
1304	 0.550892504027288 
1305	 0.550868449613525 
1306	 0.550830472948326 
1307	 0.550804129451273 
1308	 0.550790472908715 
1309	 0.550776376236138 
1310	 0.550748460205423 
1311	 0.550712792428563 
1312	 0.550692823476872 
1313	 0.550677486381373 
1314	 0.550640728609379 
1315	 0.550621238633775 
1316	 0.550558907797015 
1317	 0.550456958054318 
1318	 0.55036276838737 
1319	 0.550248619276722 
1320	 0.550149747817938 
1321	 0.550043063275853 
1322	 0.549953112758908 
1323	 0.549881735906948 
1324	 0.549800969667093 
1325	 0.549730354454348 
1326	 0.549645874218434 
1327	 0.549562125788379 
1328	 0.549458575983784 
1329	 0.549359464487755 
1330	 0.549222157846222 
1331	 0.549040935492081 
1332	 0.548869225493534 
1333	 0.548692673374081 
1334	 0.548483769574927 
1335	 0.548284660450713 
1336	 0.548094626189758 
1337	 0.547882029263566 
1338	 0.547647390799609 
1339	 0.547426148584318 
1340	 0.547209957552419 
1341	 0.546973047240761 
1342	 0.546738285030796 
1343	 0.546475556534068 
1344	 0.54620409603079 
1345	 0.545891745347646 
1346	 0.545550112566443 
1347	 0.545196568597299 
1348	 0.54481060149411 
1349	 0.54441527166879 
1350	 0.544010912672438 
1351	 0.543586647614036 
1352	 0.54312596263651 
1353	 0.542678743056429 
1354	 0.542223024276461 
1355	 0.541772469057551 
1356	 0.541319142673508 
1357	 0.54087572370048 
1358	 0.540412595272971 
1359	 0.539991609981874 
1360	 0.53960382278235 
1361	 0.539215506331761 
1362	 0.538862855818814 
1363	 0.5385397078811 
1364	 0.538215574335609 
1365	 0.537907785630391 
1366	 0.537595796808069 
1367	 0.537294424538692 
1368	 0.536984982196816 
1369	 0.536675185429872 
1370	 0.536359145878077 
1371	 0.536059492264698 
1372	 0.535712996255577 
1373	 0.535360483337849 
1374	 0.534957930394076 
1375	 0.534521127109889 
1376	 0.534041020754448 
1377	 0.533502557965596 
1378	 0.532967369659082 
1379	 0.532371035744312 
1380	 0.531822013392638 
1381	 0.531256068718298 
1382	 0.530752931836414 
1383	 0.530281335316545 
1384	 0.529846061136002 
1385	 0.529478761072263 
1386	 0.529106378356063 
1387	 0.528753113093654 
1388	 0.528418486818461 
1389	 0.528105309735145 
1390	 0.527792244180918 
1391	 0.527500694820733 
1392	 0.527204148621004 
1393	 0.526915679990534 
1394	 0.52660778224913 
1395	 0.526279329762331 
1396	 0.525954680903095 
1397	 0.525572909100583 
1398	 0.525175161411621 
1399	 0.524695151052597 
1400	 0.524185081067049 
1401	 0.523568804916164 
1402	 0.52287858633599 
1403	 0.522105391151394 
1404	 0.521228302394837 
1405	 0.520332106808001 
1406	 0.5193634857402 
1407	 0.518372311303767 
1408	 0.517318590846923 
1409	 0.51628175090794 
1410	 0.515203128812197 
1411	 0.514147411983567 
1412	 0.51309544734601 
1413	 0.512067038712868 
1414	 0.51103700587375 
1415	 0.51003393479587 
1416	 0.50905311328413 
1417	 0.508087349176052 
1418	 0.507134293782358 
1419	 0.506203353498261 
1420	 0.50527651062623 
1421	 0.504402554235552 
1422	 0.503571675558639 
1423	 0.502752401806749 
1424	 0.501985789885082 
1425	 0.501207139749182 
1426	 0.500464612764873 
1427	 0.499700953869499 
1428	 0.498912748313139 
1429	 0.498157239809106 
1430	 0.497337856446282 
1431	 0.496489088810403 
1432	 0.495595409044693 
1433	 0.494667695680334 
1434	 0.493700571721275 
1435	 0.49268467817001 
1436	 0.491644574403511 
1437	 0.49055134929579 
1438	 0.489497499581593 
1439	 0.488376905618153 
1440	 0.487386456355893 
1441	 0.48638572943065 
1442	 0.485583673616534 
1443	 0.484836190168791 
1444	 0.484338410752857 
1445	 0.483997986633203 
1446	 0.483885912903888 
1447	 0.483995947676492 
1448	 0.484271275359506 
1449	 0.484803409987567 
1450	 0.485400695132047 
1451	 0.486199677058942 
1452	 0.487013096142304 
1453	 0.487982887370178 
1454	 0.488876464342948 
1455	 0.489827938606876 
1456	 0.490705658041585 
1457	 0.49155481209251 
1458	 0.492342777892952 
1459	 0.493088987333706 
1460	 0.493778178724986 
1461	 0.494393672563874 
1462	 0.494973405981055 
1463	 0.495501990134785 
1464	 0.495997917878984 
1465	 0.496436585603038 
1466	 0.496867020334856 
1467	 0.497271091767714 
1468	 0.497646390805723 
1469	 0.4980114439098 
1470	 0.498351086895334 
1471	 0.498678103358067 
1472	 0.498987413770923 
1473	 0.499269120663864 
1474	 0.499539637926859 
1475	 0.499767782043587 
1476	 0.49995858471745 
1477	 0.500131320250499 
1478	 0.500290550755078 
1479	 0.500384789241208 
1480	 0.500448263417969 
1481	 0.500456676210961 
1482	 0.500379987910152 
1483	 0.500327635039627 
1484	 0.500244551756227 
1485	 0.500166615587172 
1486	 0.500058021284322 
1487	 0.50001312514284 
1488	 0.499940086695893 
1489	 0.499984396250756 
1490	 0.500106088454905 
1491	 0.500276422524236 
1492	 0.50051061898845 
1493	 0.500811645168657 
1494	 0.501172895092937 
1495	 0.501591163109427 
1496	 0.502101104731105 
1497	 0.50262260509025 
1498	 0.503208421609764 
1499	 0.50378619937542 
1500	 0.504399027558996 
1501	 0.504998081637114 
1502	 0.505619724189224 
1503	 0.506197338487759 
1504	 0.506774799279381 
1505	 0.50730368543335 
1506	 0.507799924022333 
1507	 0.508252448927282 
1508	 0.508658979244393 
1509	 0.509038135562744 
1510	 0.509380764571909 
1511	 0.509683774497849 
1512	 0.509946912683864 
1513	 0.510187261066719 
1514	 0.510384542972486 
1515	 0.510563056817714 
1516	 0.51071764503269 
1517	 0.510853482289902 
1518	 0.510966068509074 
1519	 0.511054817006768 
1520	 0.511118104334675 
1521	 0.511170669103219 
1522	 0.511195323884222 
1523	 0.51119380719566 
1524	 0.511188948346929 
1525	 0.511166605457745 
1526	 0.511144577380732 
1527	 0.511112433270208 
1528	 0.511079510326394 
1529	 0.511040974897928 
1530	 0.511005553844367 
1531	 0.510958852167466 
1532	 0.510939631460791 
1533	 0.510926888974423 
1534	 0.510932969407555 
1535	 0.510946970844986 
1536	 0.511005135128842 
1537	 0.511073888537148 
1538	 0.511203933112491 
1539	 0.511382509597727 
1540	 0.511595343985844 
1541	 0.511852071556526 
1542	 0.51213968533085 
1543	 0.512475893290952 
1544	 0.512815195492275 
1545	 0.513179034935473 
1546	 0.513567486411112 
1547	 0.513978133358007 
1548	 0.514401211914098 
1549	 0.514859075241169 
1550	 0.515309713432665 
1551	 0.515765411995655 
1552	 0.516226186707326 
1553	 0.516709744758457 
1554	 0.517162669689181 
1555	 0.517613849496392 
1556	 0.518042064071471 
1557	 0.518430611829409 
1558	 0.518849906989206 
1559	 0.519274155329845 
1560	 0.519691611240844 
1561	 0.520126638269929 
1562	 0.520539293658946 
1563	 0.520941996393971 
1564	 0.521324512303941 
1565	 0.521699313898855 
1566	 0.522051036224404 
1567	 0.52237015137965 
1568	 0.522693028348655 
1569	 0.523000695868624 
1570	 0.523311170557811 
1571	 0.523618147220744 
1572	 0.523922652453357 
1573	 0.524230019870204 
1574	 0.524524300495364 
1575	 0.524813128078477 
1576	 0.52509269847448 
1577	 0.525354368440292 
1578	 0.525623387709296 
1579	 0.525892325400839 
1580	 0.526155152189421 
1581	 0.526418203116737 
1582	 0.526676121892941 
1583	 0.526926875659293 
1584	 0.527175417435865 
1585	 0.527419342414467 
1586	 0.527665025555123 
1587	 0.527902933832427 
1588	 0.528149328705829 
1589	 0.528407762636938 
1590	 0.528654201504389 
1591	 0.528891934563526 
1592	 0.52914120242062 
1593	 0.529387399981652 
1594	 0.529640320079862 
1595	 0.529908696478257 
1596	 0.530169649936269 
1597	 0.530427799573609 
1598	 0.530686766087689 
1599	 0.530953373980887 
1600	 0.531206477820726 
1601	 0.531447720972965 
1602	 0.531694602157585 
1603	 0.531930310986886 
1604	 0.532175922442673 
1605	 0.532427933830073 
1606	 0.53268494425261 
1607	 0.532965471989635 
1608	 0.53321651285398 
1609	 0.533459007253699 
1610	 0.53369456435845 
1611	 0.533909646022367 
1612	 0.534116394063741 
1613	 0.534317144637825 
1614	 0.534513601799952 
1615	 0.534698137576431 
1616	 0.534876634577454 
1617	 0.535046706558498 
1618	 0.535222759045869 
1619	 0.535389630210209 
1620	 0.53556048432652 
1621	 0.535751301183152 
1622	 0.535919762393033 
1623	 0.536074370414729 
1624	 0.536227247096016 
1625	 0.536372870752586 
1626	 0.536508477360639 
1627	 0.53663122941942 
1628	 0.5367593943893 
1629	 0.536880320433503 
1630	 0.537001080349452 
1631	 0.537129055755641 
1632	 0.5372512580904 
1633	 0.537367594423556 
1634	 0.537480257639744 
1635	 0.537591618493886 
1636	 0.537698200414128 
1637	 0.537793525760405 
1638	 0.537894879345296 
1639	 0.538011675680848 
1640	 0.538103798663025 
1641	 0.538191653479853 
1642	 0.538259331410355 
1643	 0.538300386322063 
1644	 0.538335266947424 
1645	 0.538357038741646 
1646	 0.538375234875595 
1647	 0.538374022435152 
1648	 0.538383720654995 
1649	 0.53840599727549 
1650	 0.538405553006441 
1651	 0.538405496103522 
1652	 0.538384217446247 
1653	 0.538352792413724 
1654	 0.538286542565957 
1655	 0.538207645346267 
1656	 0.538089825223514 
1657	 0.537930783474274 
1658	 0.537744955202749 
1659	 0.537535485739465 
1660	 0.537283983014565 
1661	 0.53698161176665 
1662	 0.536674605208819 
1663	 0.536342531936523 
1664	 0.535978297441076 
1665	 0.535615797466481 
1666	 0.535179834615898 
1667	 0.534686566935523 
1668	 0.534166052331186 
1669	 0.533607112569094 
1670	 0.53299883248463 
1671	 0.532349129547479 
1672	 0.531649370225978 
1673	 0.530880890910375 
1674	 0.530096965239821 
1675	 0.529281822614766 
1676	 0.528446007844906 
1677	 0.527587382585553 
1678	 0.52669331227221 
1679	 0.525779979662947 
1680	 0.524792143682532 
1681	 0.523786536808433 
1682	 0.522655641688919 
1683	 0.521430728977025 
1684	 0.520168179520606 
1685	 0.518816468053567 
1686	 0.517408851260916 
1687	 0.515945792659483 
1688	 0.514410157555571 
1689	 0.512781282008818 
1690	 0.511118578643232 
1691	 0.509408109439647 
1692	 0.50768452555574 
1693	 0.505944808683011 
1694	 0.504111478952778 
1695	 0.502219191263506 
1696	 0.500240157905889 
1697	 0.498166788306968 
1698	 0.496024079430596 
1699	 0.493813712092791 
1700	 0.491620410036046 
1701	 0.489320598718132 
1702	 0.487120773082142 
1703	 0.48490080576161 
1704	 0.482818646349558 
1705	 0.480789291882832 
1706	 0.478830563473569 
1707	 0.477107441138678 
1708	 0.475402487150262 
1709	 0.473772872439243 
1710	 0.47228214302495 
1711	 0.470773917923741 
1712	 0.469380647448042 
1713	 0.468023534470049 
1714	 0.466667958999846 
1715	 0.465423105260323 
1716	 0.464144827005714 
1717	 0.462927750522492 
1718	 0.461782613803388 
1719	 0.460615616082064 
1720	 0.459578796816437 
1721	 0.458656830170416 
1722	 0.457814958656071 
1723	 0.457180595571795 
1724	 0.456692691151935 
1725	 0.456322515286162 
1726	 0.456196315415994 
1727	 0.456257352277399 
1728	 0.456484241224015 
1729	 0.456926109273735 
1730	 0.457529614054647 
1731	 0.458224263928324 
1732	 0.459027313683732 
1733	 0.459857748811664 
1734	 0.460694962867603 
1735	 0.461529053228036 
1736	 0.462294065144229 
1737	 0.462985426940179 
1738	 0.463577630307493 
1739	 0.46398889837611 
1740	 0.464254744410949 
1741	 0.46438675842711 
1742	 0.464310900744856 
1743	 0.464211599548347 
1744	 0.463999081923006 
1745	 0.463748376721439 
1746	 0.463393529225416 
1747	 0.463093818493276 
1748	 0.462752510484297 
1749	 0.462452939390874 
1750	 0.462153907490705 
1751	 0.461944347569144 
1752	 0.461735160806097 
1753	 0.461671099558797 
1754	 0.46173890446563 
1755	 0.461863062516079 
1756	 0.462041911012532 
1757	 0.46234547004111 
1758	 0.462786550370299 
1759	 0.463313336448515 
1760	 0.464003786575708 
1761	 0.464808059705969 
1762	 0.465622324981915 
1763	 0.466577176448573 
1764	 0.467611135989622 
1765	 0.468699433597979 
1766	 0.469926148639862 
1767	 0.471137490768006 
1768	 0.472382401667897 
1769	 0.473650735792631 
1770	 0.474799685723377 
1771	 0.475940128229872 
1772	 0.477019598415489 
1773	 0.47802230599 
1774	 0.479041921009562 
1775	 0.479971897204492 
1776	 0.480861053700825 
1777	 0.48169073511548 
1778	 0.482403789917583 
1779	 0.4831235569169 
1780	 0.483791818269415 
1781	 0.484410882671478 
1782	 0.485067131247881 
1783	 0.485656321324166 
1784	 0.48623763835843 
1785	 0.48683162517401 
1786	 0.487376608774944 
1787	 0.487913922264048 
1788	 0.488415681854891 
1789	 0.488882734520482 
1790	 0.489314988598945 
1791	 0.489717840071221 
1792	 0.490109652786104 
1793	 0.490428298758632 
1794	 0.490761480734538 
1795	 0.491139549375409 
1796	 0.491519090834255 
1797	 0.491922627711871 
1798	 0.492317211237107 
1799	 0.492700659800107 
1800	 0.49305883730087 
1801	 0.505019209339673 
1802	 0.505955896920135 
1803	 0.506769970541288 
1804	 0.507479475705731 
1805	 0.508158879927272 
1806	 0.508750450610099 
1807	 0.509248796603751 
1808	 0.509738885056982 
1809	 0.510163978084265 
1810	 0.510569241297153 
1811	 0.510940635085532 
1812	 0.511286419888009 
1813	 0.51156998674371 
1814	 0.511880705058311 
1815	 0.512170092943917 
1816	 0.512465125678824 
1817	 0.512775197599938 
1818	 0.513098237965466 
1819	 0.513410608327652 
1820	 0.513721292302014 
1821	 0.514045269223776 
1822	 0.514374793794471 
1823	 0.514708854371257 
1824	 0.515032067883771 
1825	 0.515366468203405 
1826	 0.515687406628507 
1827	 0.515997776568075 
1828	 0.516296133681049 
1829	 0.516597520603761 
1830	 0.516874733268805 
1831	 0.517126357342128 
1832	 0.517388423257827 
1833	 0.517613675634939 
1834	 0.517848089425683 
1835	 0.518086894571316 
1836	 0.518300608406385 
1837	 0.51853911319456 
1838	 0.518775069363935 
1839	 0.519048149940671 
1840	 0.519343526686186 
1841	 0.519643344722586 
1842	 0.519977622997595 
1843	 0.520307033909301 
1844	 0.520607811243528 
1845	 0.520906825716282 
1846	 0.521181575244102 
1847	 0.521422273661781 
1848	 0.521635359344599 
1849	 0.521846281116122 
1850	 0.521983089820154 
1851	 0.522079977259151 
1852	 0.522126645083222 
1853	 0.522102908132338 
1854	 0.522039798414567 
1855	 0.521922717645844 
1856	 0.521779440548434 
1857	 0.521619442150547 
1858	 0.521389635750692 
1859	 0.521109431108595 
1860	 0.520805851882438 
1861	 0.520394326181997 
1862	 0.519897537875986 
1863	 0.519377693724264 
1864	 0.518741818394691 
1865	 0.518053515742018 
1866	 0.517301677284791 
1867	 0.51642864461786 
1868	 0.515503735766234 
1869	 0.514537885492794 
1870	 0.513582352484728 
1871	 0.512583036178256 
1872	 0.511645769140772 
1873	 0.5107328656861 
1874	 0.509834769631733 
1875	 0.508987363407156 
1876	 0.508052276688904 
1877	 0.507109767147883 
1878	 0.506096422135202 
1879	 0.504954503730291 
1880	 0.50380767269595 
1881	 0.502532166581153 
1882	 0.501139048792071 
1883	 0.499693588132637 
1884	 0.498139427619085 
1885	 0.496410309851326 
1886	 0.494688564002542 
1887	 0.492846739790202 
1888	 0.490928440532763 
1889	 0.4891099447229 
1890	 0.487181738507915 
1891	 0.485259684244741 
1892	 0.483378978598687 
1893	 0.481404914610017 
1894	 0.479332801177443 
1895	 0.477345144788354 
1896	 0.475297756011628 
1897	 0.473165495912309 
1898	 0.471200653359954 
1899	 0.469152949765447 
1900	 0.467122433243307 
1901	 0.465192394335885 
1902	 0.463171073695036 
1903	 0.461256242804891 
1904	 0.459379531262416 
1905	 0.457520504671064 
1906	 0.455721532926593 
1907	 0.454109428291647 
1908	 0.452479265402156 
1909	 0.450943884079017 
1910	 0.44947492073985 
1911	 0.447884350803758 
1912	 0.446383202798564 
1913	 0.444899216178591 
1914	 0.443362481908581 
1915	 0.441898847075977 
1916	 0.440522183973144 
1917	 0.439085440448086 
1918	 0.437656618714572 
1919	 0.436270061743219 
1920	 0.434809920293692 
1921	 0.433431520646455 
1922	 0.432040983944839 
1923	 0.430616847273912 
1924	 0.429292315079025 
1925	 0.427907059797193 
1926	 0.426555353450598 
1927	 0.425229626186964 
1928	 0.423913221228021 
1929	 0.422569853152736 
1930	 0.421321788071585 
1931	 0.420105634450313 
1932	 0.418926555417033 
1933	 0.417941464975007 
1934	 0.417044006182875 
1935	 0.416213606519373 
1936	 0.415532690444937 
1937	 0.41494330259628 
1938	 0.414427433724366 
1939	 0.414046123203258 
1940	 0.413788281455275 
1941	 0.413645487317419 
1942	 0.413599288441485 
1943	 0.413638459699508 
1944	 0.413757937820527 
1945	 0.413980111915186 
1946	 0.414346430861554 
1947	 0.414767037089141 
1948	 0.415317314425707 
1949	 0.416021710741089 
1950	 0.41680527841456 
1951	 0.417689845740974 
1952	 0.418690860727175 
1953	 0.419797882140612 
1954	 0.421019638644508 
1955	 0.422379645043752 
1956	 0.423743794735156 
1957	 0.425155229232916 
1958	 0.426542619172252 
1959	 0.427768291428905 
1960	 0.428933762754048 
1961	 0.429990295249184 
1962	 0.43092149695003 
1963	 0.431778618832472 
1964	 0.43253664190364 
1965	 0.433222983715084 
1966	 0.43382014676247 
1967	 0.434357847028194 
1968	 0.434798495894914 
1969	 0.43525733027664 
1970	 0.435667197969353 
1971	 0.4360627071444 
1972	 0.436532574534538 
1973	 0.436985115391687 
1974	 0.437474849797054 
1975	 0.438017030642461 
1976	 0.43855328184003 
1977	 0.439077625405477 
1978	 0.439655968492023 
1979	 0.440252946850092 
1980	 0.44088385537553 
1981	 0.441595963648198 
1982	 0.442284745856074 
1983	 0.443029561127276 
1984	 0.443801198718092 
1985	 0.44452316718246 
1986	 0.445358974462279 
1987	 0.446255436357823 
1988	 0.447149353349089 
1989	 0.448206633282985 
1990	 0.449401138633276 
1991	 0.450635849797984 
1992	 0.451965118194161 
1993	 0.453411562228948 
1994	 0.454812407168559 
1995	 0.4563075992653 
1996	 0.457834676925087 
1997	 0.459385605490216 
1998	 0.460980344202109 
1999	 0.462663100659396 
2000	 0.464257165680747 
2001	 0.465925082085857 
2002	 0.467424151721381 
2003	 0.468823373896634 
2004	 0.470197974600957 
2005	 0.471462828082972 
2006	 0.472720541903969 
2007	 0.473992012040836 
2008	 0.475154750396909 
2009	 0.476256640617419 
2010	 0.4773052812915 
2011	 0.478228670608949 
2012	 0.479151092756575 
2013	 0.480012547360786 
2014	 0.480797834075202 
2015	 0.481581900498279 
2016	 0.482358099206611 
2017	 0.483043971036702 
2018	 0.483689597771799 
2019	 0.484287829527836 
2020	 0.484807812493699 
2021	 0.485296942842125 
2022	 0.485731878795155 
2023	 0.486109871370755 
2024	 0.486472644096702 
2025	 0.486777845535467 
2026	 0.487054407450414 
2027	 0.487316243923176 
2028	 0.487532986589933 
2029	 0.487670493945022 
2030	 0.487829540034472 
2031	 0.487977504171457 
2032	 0.488114256430525 
2033	 0.488233281865214 
2034	 0.488351275120052 
2035	 0.488464770404185 
2036	 0.488560903003575 
2037	 0.488649222879445 
2038	 0.488727214552581 
2039	 0.488827394118756 
2040	 0.488922063958223 
2041	 0.48903774838521 
2042	 0.489173561998233 
2043	 0.489321018365323 
2044	 0.489478912992719 
2045	 0.489643795012702 
2046	 0.489838140741098 
2047	 0.490015879776722 
2048	 0.490194925332966 
2049	 0.490365250277215 
2050	 0.490540501208169 
2051	 0.490692501887309 
2052	 0.49082947886721 
2053	 0.490946559722148 
2054	 0.491065576269692 
2055	 0.491159913522 
2056	 0.491278471731563 
2057	 0.491409932472215 
2058	 0.491531486329001 
2059	 0.491649676641809 
2060	 0.491777111319338 
2061	 0.491901709727091 
2062	 0.492035349892085 
2063	 0.49219127956765 
2064	 0.492331591721674 
2065	 0.492473601205215 
2066	 0.492594780752713 
2067	 0.492718168968453 
2068	 0.492843090651518 
2069	 0.492983835054111 
2070	 0.49314729939644 
2071	 0.493280145624943 
2072	 0.493407517240047 
2073	 0.493536402897805 
2074	 0.493651931032326 
2075	 0.493761172781016 
2076	 0.493877116192875 
2077	 0.493982810533228 
2078	 0.494086925118359 
2079	 0.494161594843029 
2080	 0.494224644084632 
2081	 0.494275495617197 
2082	 0.494303601852463 
2083	 0.494301297103049 
2084	 0.494310157965129 
2085	 0.494326819811715 
2086	 0.494306484236207 
2087	 0.494273257748711 
2088	 0.494205835436031 
2089	 0.494092714484072 
2090	 0.493996413187584 
2091	 0.493887478687604 
2092	 0.493770882327904 
2093	 0.493672273087925 
2094	 0.49352952042263 
2095	 0.493340705816237 
2096	 0.493163036697815 
2097	 0.492962950137854 
2098	 0.492771674925879 
2099	 0.492587880995216 
2100	 0.49238881343669 
2101	 0.492161145125981 
2102	 0.491919990178491 
2103	 0.491644516058333 
2104	 0.491323378736214 
2105	 0.491022498057791 
2106	 0.490703472881738 
2107	 0.49039343813218 
2108	 0.490096055953906 
2109	 0.489780324552956 
2110	 0.489479721541179 
2111	 0.489129225536024 
2112	 0.488727403032032 
2113	 0.48834977877582 
2114	 0.487940423903756 
2115	 0.487541982596426 
2116	 0.487155939629872 
2117	 0.486797296037166 
2118	 0.486408680033549 
2119	 0.485999953344656 
2120	 0.48562043335181 
2121	 0.485232624095391 
2122	 0.484882164191778 
2123	 0.484550504699018 
2124	 0.484241379526842 
2125	 0.483963283967532 
2126	 0.483689441461898 
2127	 0.483409645734232 
2128	 0.483193781026265 
2129	 0.483032921723774 
2130	 0.482855438218149 
2131	 0.482729994057346 
2132	 0.482583238489135 
2133	 0.482429950278032 
2134	 0.482254000452198 
2135	 0.482068987128016 
2136	 0.481886074057357 
2137	 0.481679619902949 
2138	 0.481428810760165 
2139	 0.481218001960219 
2140	 0.48102340798912 
2141	 0.480807511353077 
2142	 0.48058096454094 
2143	 0.480378452367149 
2144	 0.480170970362157 
2145	 0.479979770249052 
2146	 0.479829275431987 
2147	 0.479650738442923 
2148	 0.479465808819665 
2149	 0.47926911636932 
2150	 0.479063566685541 
2151	 0.478850692554212 
2152	 0.478615795772192 
2153	 0.478400448881436 
2154	 0.478170619658218 
2155	 0.477919303969311 
2156	 0.477653053710722 
2157	 0.47738094587205 
2158	 0.477063324538839 
2159	 0.47671866476954 
2160	 0.476351897749068 
2161	 0.475949212481979 
2162	 0.475535978906363 
2163	 0.475088902253544 
2164	 0.474652977775874 
2165	 0.474211208684892 
2166	 0.473752089500664 
2167	 0.473266335171592 
2168	 0.472818920278843 
2169	 0.472374250226501 
2170	 0.471927718180427 
2171	 0.471474730881196 
2172	 0.471075726743775 
2173	 0.470683030580308 
2174	 0.470316664137676 
2175	 0.470034019571038 
2176	 0.469792663573692 
2177	 0.469538820790701 
2178	 0.469305507992461 
2179	 0.469073838959989 
2180	 0.468844061712029 
2181	 0.468633328797127 
2182	 0.468459600307859 
2183	 0.468235815909229 
2184	 0.468003611432135 
2185	 0.467771005958638 
2186	 0.46749693022263 
2187	 0.467253181286571 
2188	 0.467048122481379 
2189	 0.466804151319645 
2190	 0.466551821339862 
2191	 0.466282570258701 
2192	 0.465997569407467 
2193	 0.465691957762918 
2194	 0.465361666971202 
2195	 0.46503079176586 
2196	 0.464694420129112 
2197	 0.464325391322965 
2198	 0.463943898807891 
2199	 0.463577006099314 
2200	 0.463204048761117 
2201	 0.462839172324902 
2202	 0.462408314040256 
2203	 0.461955324696559 
2204	 0.461491917688431 
2205	 0.460952264619165 
2206	 0.460474629164475 
2207	 0.460039206978571 
2208	 0.459569119150487 
2209	 0.459097469204153 
2210	 0.458618520221591 
2211	 0.458099078137539 
2212	 0.457635188212697 
2213	 0.457163123343023 
2214	 0.456753135493891 
2215	 0.456428077083247 
2216	 0.456069730686637 
2217	 0.45571846013089 
2218	 0.455396069106436 
2219	 0.455059230244628 
2220	 0.454766635257036 
2221	 0.454502815206721 
2222	 0.454299792290997 
2223	 0.454136397677961 
2224	 0.453947250222234 
2225	 0.453769957912378 
2226	 0.453589030529802 
2227	 0.453317669612504 
2228	 0.452997406476058 
2229	 0.452619436385886 
2230	 0.45219411385113 
2231	 0.45166658753346 
2232	 0.451081474799499 
2233	 0.450388018605236 
2234	 0.449596418279428 
2235	 0.448715539867797 
2236	 0.447748475643081 
2237	 0.446685536966253 
2238	 0.445475257645561 
2239	 0.444257993622422 
2240	 0.443003233207362 
2241	 0.441623836033622 
2242	 0.440232661847315 
2243	 0.438659108056949 
2244	 0.436887177600935 
2245	 0.435086984095693 
2246	 0.433112649817261 
2247	 0.431158728137154 
2248	 0.429196859608864 
2249	 0.427150977202532 
2250	 0.425047891197327 
2251	 0.422944449122797 
2252	 0.420639156030234 
2253	 0.418360998957527 
2254	 0.416022611299486 
2255	 0.413624849888662 
2256	 0.411435528359028 
2257	 0.409207191567805 
2258	 0.40699377031415 
2259	 0.404890484617898 
2260	 0.402630751328692 
2261	 0.400252106878307 
2262	 0.397994570672515 
2263	 0.395670417446648 
2264	 0.393488169571162 
2265	 0.391450398403042 
2266	 0.389325715471058 
2267	 0.387254960201591 
2268	 0.385133854557958 
2269	 0.382923458811565 
2270	 0.380829039026248 
2271	 0.378726666881592 
2272	 0.376718798653491 
2273	 0.374825471926707 
2274	 0.372919912612265 
2275	 0.371138675734083 
2276	 0.369240000799458 
2277	 0.367329969294135 
2278	 0.365360344090576 
2279	 0.363255303452907 
2280	 0.361191145139383 
2281	 0.359168760031342 
2282	 0.357037549830232 
2283	 0.354886743598149 
2284	 0.352695845203768 
2285	 0.350212705335255 
2286	 0.347764951348187 
2287	 0.345198482756558 
2288	 0.342509680346592 
2289	 0.339981220297131 
2290	 0.337264971838218 
2291	 0.334511838725645 
2292	 0.331739905004646 
2293	 0.328667135017598 
2294	 0.325662402041528 
2295	 0.322745926713806 
2296	 0.319839744201967 
2297	 0.317262091084321 
2298	 0.31491208319434 
2299	 0.312785932181652 
2300	 0.31081766643773 
2301	 0.309260930578733 
2302	 0.307941915690926 
2303	 0.307156202733151 
2304	 0.306814292414891 
2305	 0.306834060187687 
2306	 0.307326884808294 
2307	 0.308153287734928 
2308	 0.309331434034427 
2309	 0.310975963370143 
2310	 0.313201615118557 
2311	 0.315527759198746 
2312	 0.318440304325216 
2313	 0.321137013015854 
2314	 0.324007765613268 
2315	 0.326745100316201 
2316	 0.329507243073112 
2317	 0.332038369961435 
2318	 0.334602362029219 
2319	 0.336722301653139 
2320	 0.338584056260829 
2321	 0.340131927877526 
2322	 0.341269255144869 
2323	 0.34222189274083 
2324	 0.342860948253408 
2325	 0.343329223162153 
2326	 0.343537636897869 
2327	 0.343571042203888 
2328	 0.343376351284014 
2329	 0.343025154641612 
2330	 0.342491605365648 
2331	 0.341730663388207 
2332	 0.340797206193852 
2333	 0.339637303626422 
2334	 0.338156249573013 
2335	 0.33653129236557 
2336	 0.334704950567855 
2337	 0.332642270939012 
2338	 0.330657977408471 
2339	 0.328625325852095 
2340	 0.326600117475265 
2341	 0.324712619801255 
2342	 0.322831476988387 
2343	 0.321108048521884 
2344	 0.319682444170767 
2345	 0.318643062507478 
2346	 0.318061994961462 
2347	 0.317997214095816 
2348	 0.318324576242641 
2349	 0.319125530386937 
2350	 0.320408670896898 
2351	 0.322014320555237 
2352	 0.32388804886417 
2353	 0.32600399503412 
2354	 0.328043721149793 
2355	 0.329968624654876 
2356	 0.33170164302611 
2357	 0.333116410858013 
2358	 0.334338278909242 
2359	 0.335197412310438 
2360	 0.33587061253008 
2361	 0.33639127900528 
2362	 0.336647899551769 
2363	 0.336749014919956 
2364	 0.336715088622007 
2365	 0.336593158601622 
2366	 0.336502980575236 
2367	 0.336400129389165 
2368	 0.336299418784335 
2369	 0.336260946219267 
2370	 0.336142741887574 
2371	 0.335972330888229 
2372	 0.335854983641305 
2373	 0.335782941806707 
2374	 0.335713302496465 
2375	 0.33564070408498 
2376	 0.335661058065385 
2377	 0.335649612867542 
2378	 0.33551764383242 
2379	 0.335455178923248 
2380	 0.335466694303155 
2381	 0.335466187258821 
2382	 0.335490457312377 
2383	 0.335660314063483 
2384	 0.335724910102446 
2385	 0.335698603779778 
2386	 0.335705089436889 
2387	 0.335725189820874 
2388	 0.335740532576961 
2389	 0.335752107071385 
2390	 0.335705967668259 
2391	 0.335636958709383 
2392	 0.335586543245365 
2393	 0.335509601080563 
2394	 0.335439819411932 
2395	 0.335387187427525 
2396	 0.335282617452443 
2397	 0.335114022180307 
2398	 0.33499450654658 
2399	 0.334911410214724 
2400	 0.334804189596771 
2401	 0.334678340288137 
2402	 0.334500709929548 
2403	 0.334428611627807 
2404	 0.334360327851856 
2405	 0.334284726230702 
2406	 0.334336889115816 
2407	 0.334333989324367 
2408	 0.334209648624726 
2409	 0.334199960692307 
2410	 0.33424817827707 
2411	 0.334242891173588 
2412	 0.334326597018782 
2413	 0.334441569651042 
2414	 0.33451957269731 
2415	 0.334541507366792 
2416	 0.334529516124444 
2417	 0.334605059045951 
2418	 0.334627485648423 
2419	 0.334737694111438 
2420	 0.33498299928829 
2421	 0.335097548170343 
2422	 0.335230574704534 
2423	 0.335330379909699 
2424	 0.335311939120697 
2425	 0.335415192617163 
2426	 0.335621217135672 
2427	 0.33578748303905 
2428	 0.335931123734631 
2429	 0.336060082652265 
2430	 0.336157634454637 
2431	 0.336202343527115 
2432	 0.336231654500305 
2433	 0.336349968997222 
2434	 0.336492890309978 
2435	 0.336700458564991 
2436	 0.33698547677645 
2437	 0.337086670148509 
2438	 0.337051900622646 
2439	 0.337137978378767 
2440	 0.337291884214749 
2441	 0.337436935141182 
2442	 0.337619237587014 
2443	 0.337601208443592 
2444	 0.337305001314098 
2445	 0.337164928276727 
2446	 0.336991464121636 
2447	 0.336716663247176 
2448	 0.336685673613473 
2449	 0.336390264349971 
2450	 0.336108431345206 
2451	 0.33594398564892 
2452	 0.335475471798957 
2453	 0.335200317233118 
2454	 0.334920433653888 
2455	 0.334569723163785 
2456	 0.334346353821472 
2457	 0.333998805495997 
2458	 0.333712435612755 
2459	 0.333352147223328 
2460	 0.332800558653556 
2461	 0.332456505589008 
2462	 0.332186912847228 
2463	 0.332027270505326 
2464	 0.332214164387915 
2465	 0.332230854879246 
2466	 0.33211940968362 
2467	 0.332064536057871 
2468	 0.331737426006059 
2469	 0.331637547172024 
2470	 0.331708248771149 
2471	 0.331468558094567 
2472	 0.331547103411047 
2473	 0.331677832532139 
2474	 0.331450561174551 
2475	 0.331494735627089 
2476	 0.331538031119603 
2477	 0.331562715321466 
2478	 0.33194179086146 
2479	 0.332230561369413 
2480	 0.332421307159578 
2481	 0.3326562674314 
2482	 0.332884083545604 
2483	 0.332903751201496 
2484	 0.333121367399137 
2485	 0.333325123507361 
2486	 0.333328983475959 
2487	 0.333553484426208 
2488	 0.333884447911624 
2489	 0.334279349567863 
2490	 0.334871860510896 
2491	 0.335499726571742 
2492	 0.335941895142676 
2493	 0.336191711801038 
2494	 0.336684237423907 
2495	 0.337061031405065 
2496	 0.337367930637042 
2497	 0.337830776265352 
2498	 0.337874302299773 
2499	 0.338228206372176 
2500	 0.338831512446436 
