Wavelength	spectrum00023.asd
350	 0.101477596882639 
351	 9.75331020374142E-02 
352	 0.092950411539722 
353	 9.02680811281693E-02 
354	 8.96505057609454E-02 
355	 8.84050159262314E-02 
356	 8.66668972725403E-02 
357	 8.48426033740191E-02 
358	 8.16308375815946E-02 
359	 8.03175804577071E-02 
360	 8.00445841135887E-02 
361	 7.82824539957913E-02 
362	 7.82189372976995E-02 
363	 7.69881702207251E-02 
364	 7.42007525216321E-02 
365	 7.33302346407534E-02 
366	 7.38998474695829E-02 
367	 7.39269375791257E-02 
368	 7.23539060728177E-02 
369	 7.23603821891741E-02 
370	 0.072130242431337 
371	 7.15132443580966E-02 
372	 7.12804140841613E-02 
373	 0.071045674872159 
374	 7.13959705126782E-02 
375	 7.20521808541544E-02 
376	 7.14034085116739E-02 
377	 0.071023014443731 
378	 7.05074819517583E-02 
379	 6.94707832114612E-02 
380	 6.93117536877891E-02 
381	 7.00858367013907E-02 
382	 7.01383041890646E-02 
383	 6.75426946494376E-02 
384	 0.067652910489187 
385	 6.85430603456677E-02 
386	 6.83628203270989E-02 
387	 6.66716883914948E-02 
388	 6.63081124838178E-02 
389	 6.69675929201747E-02 
390	 6.73817103277793E-02 
391	 6.64222724782012E-02 
392	 6.54742436343687E-02 
393	 6.52247724981464E-02 
394	 6.56536619192879E-02 
395	 6.51343020634641E-02 
396	 6.46950912785838E-02 
397	 6.46503555294116E-02 
398	 6.34541552769336E-02 
399	 6.35184464849807E-02 
400	 6.37951314602615E-02 
401	 0.062933105729837 
402	 6.27281675777672E-02 
403	 6.29335131515155E-02 
404	 6.30359446970184E-02 
405	 0.062480687568772 
406	 6.21224576025844E-02 
407	 6.19430682959902E-02 
408	 6.18019837927652E-02 
409	 6.15841858742991E-02 
410	 6.15149447345436E-02 
411	 6.15865434017321E-02 
412	 0.061681636841993 
413	 6.16110070597409E-02 
414	 6.13108664098205E-02 
415	 6.10683382885147E-02 
416	 6.14023516933118E-02 
417	 6.10735565985138E-02 
418	 6.07991991674654E-02 
419	 0.061058766411663 
420	 6.09567034370121E-02 
421	 6.09176523219873E-02 
422	 6.10861759778418E-02 
423	 6.14152260046477E-02 
424	 6.14104940859607E-02 
425	 6.13926982523273E-02 
426	 6.15732016963553E-02 
427	 0.061958743707659 
428	 6.21505199656093E-02 
429	 6.23324920170047E-02 
430	 6.26287013277629E-02 
431	 6.25232609428951E-02 
432	 0.062540234322127 
433	 6.27951013244554E-02 
434	 0.063150892928304 
435	 6.35627555620905E-02 
436	 6.38221816455644E-02 
437	 6.39310481187614E-02 
438	 6.42253157789665E-02 
439	 6.46275648261354E-02 
440	 6.50020275333439E-02 
441	 6.52687503209209E-02 
442	 0.065675384223851 
443	 6.61263599886601E-02 
444	 6.65541280573657E-02 
445	 6.69395369193197E-02 
446	 6.75138608195285E-02 
447	 6.79731940764927E-02 
448	 6.82150560340682E-02 
449	 6.87662179511858E-02 
450	 6.93541870405168E-02 
451	 6.98921588853365E-02 
452	 7.03786512148069E-02 
453	 7.09051736307016E-02 
454	 7.15875965863156E-02 
455	 7.23364573340937E-02 
456	 0.072850927471015 
457	 7.35290137821467E-02 
458	 7.41917611803432E-02 
459	 7.47170117486195E-02 
460	 7.55479301081255E-02 
461	 7.63917768209419E-02 
462	 7.71470760969574E-02 
463	 7.78477515330034E-02 
464	 7.86639823566032E-02 
465	 0.079593044398238 
466	 8.05305650796909E-02 
467	 8.12416952416902E-02 
468	 8.21976867716187E-02 
469	 8.32189454289044E-02 
470	 8.40837238975111E-02 
471	 8.52585966269226E-02 
472	 8.63550379818753E-02 
473	 8.73211791368733E-02 
474	 8.83875454411733E-02 
475	 8.94758724420192E-02 
476	 9.06607239743739E-02 
477	 9.19509474495171E-02 
478	 9.31634672946945E-02 
479	 9.44309497187668E-02 
480	 9.57781848045794E-02 
481	 9.71828496151752E-02 
482	 9.86056288382016E-02 
483	 0.100068193292399 
484	 0.101585797842945 
485	 0.10315768912666 
486	 0.10484427307472 
487	 0.106507065775232 
488	 0.108060341924394 
489	 0.109711306698875 
490	 0.111488021596123 
491	 0.113365768718233 
492	 0.115286740998393 
493	 0.117230632673316 
494	 0.119242773366582 
495	 0.121321078811502 
496	 0.123363654229859 
497	 0.125527308117161 
498	 0.127720031131402 
499	 0.1298478866677 
500	 0.132195410760586 
501	 0.134624735149537 
502	 0.13702764495688 
503	 0.139353832244436 
504	 0.141820337089562 
505	 0.144341686079054 
506	 0.14686155212525 
507	 0.149540244813484 
508	 0.152230003819719 
509	 0.154944468953441 
510	 0.157745098108721 
511	 0.160504440921623 
512	 0.163279470873703 
513	 0.166106987233508 
514	 0.168987623240988 
515	 0.171833096120071 
516	 0.17467287515453 
517	 0.177561686581825 
518	 0.180520352594281 
519	 0.183488746832004 
520	 0.186464077919164 
521	 0.189477240987503 
522	 0.192466930079864 
523	 0.195462249113535 
524	 0.198472432884069 
525	 0.201449011372366 
526	 0.204436300875883 
527	 0.207438757792841 
528	 0.210445802788238 
529	 0.213439301845053 
530	 0.216410594809253 
531	 0.219359518884225 
532	 0.222290729541383 
533	 0.225237831695802 
534	 0.228192772788185 
535	 0.231120096856397 
536	 0.233935081949615 
537	 0.236825033774387 
538	 0.239757174476741 
539	 0.242583834797943 
540	 0.245342985348593 
541	 0.248101188501204 
542	 0.250876887193483 
543	 0.25360278332467 
544	 0.25627338582402 
545	 0.258871258393061 
546	 0.261424846665028 
547	 0.264158519823857 
548	 0.26697654111075 
549	 0.269815000795535 
550	 0.272651281928985 
551	 0.275503185541235 
552	 0.278402417443304 
553	 0.281354524404335 
554	 0.284294122458003 
555	 0.287202032241576 
556	 0.29011478262574 
557	 0.29307412979468 
558	 0.295939304244632 
559	 0.298759218504381 
560	 0.301562909317954 
561	 0.304327679278753 
562	 0.306892519538388 
563	 0.309160613178541 
564	 0.311139929497697 
565	 0.313091683169104 
566	 0.31508909361507 
567	 0.317129196854241 
568	 0.319175436284378 
569	 0.321573625478812 
570	 0.324185672007438 
571	 0.326825880089455 
572	 0.329400212242038 
573	 0.331807095552744 
574	 0.33400022716169 
575	 0.335957108609803 
576	 0.337581665528516 
577	 0.338945767320205 
578	 0.340181823099475 
579	 0.341470697323401 
580	 0.343070138519571 
581	 0.344933351602251 
582	 0.346939219041673 
583	 0.349020987447013 
584	 0.351137982748173 
585	 0.353298009517477 
586	 0.355506131021853 
587	 0.357424305602716 
588	 0.359240219471054 
589	 0.361143878114721 
590	 0.3632120993199 
591	 0.365309536913417 
592	 0.36743643067754 
593	 0.369617536732419 
594	 0.371802942233289 
595	 0.373906010836486 
596	 0.37587773785201 
597	 0.377709904263757 
598	 0.379556558691155 
599	 0.381377143016296 
600	 0.383126850949773 
601	 0.384820114367797 
602	 0.386583575069115 
603	 0.388431853590438 
604	 0.390311898442325 
605	 0.392144083914257 
606	 0.3939822422596 
607	 0.395804963709723 
608	 0.397480895791758 
609	 0.399190463907484 
610	 0.400871975159689 
611	 0.402469181271362 
612	 0.404142536422747 
613	 0.40580639246916 
614	 0.407423639945549 
615	 0.408999161863466 
616	 0.410578926231252 
617	 0.412163022603936 
618	 0.413757512807446 
619	 0.415399398657632 
620	 0.417038127815853 
621	 0.418614551420339 
622	 0.420102199016112 
623	 0.421629041408937 
624	 0.423181463834128 
625	 0.424725139938968 
626	 0.426217992580229 
627	 0.427701165335658 
628	 0.429197300518312 
629	 0.430701528735076 
630	 0.43214503799866 
631	 0.433574340519057 
632	 0.435009812330551 
633	 0.436455370735184 
634	 0.437900078789482 
635	 0.439321307878202 
636	 0.440703818339531 
637	 0.442038301189187 
638	 0.443391245527068 
639	 0.444795954629797 
640	 0.446229436616419 
641	 0.447522261962773 
642	 0.448817229211391 
643	 0.450186675707139 
644	 0.451625500144203 
645	 0.452865816947746 
646	 0.454090925577516 
647	 0.455418902533989 
648	 0.456771991879134 
649	 0.457987495998421 
650	 0.459184671446957 
651	 0.460504976707758 
652	 0.461758940209605 
653	 0.463041585200837 
654	 0.464312679377962 
655	 0.46543809786099 
656	 0.466670363178541 
657	 0.467927347879293 
658	 0.469125494338127 
659	 0.470291358042382 
660	 0.471532220054657 
661	 0.472781527027403 
662	 0.473933984381801 
663	 0.475073381748416 
664	 0.476305858450519 
665	 0.477572009842946 
666	 0.478659004129098 
667	 0.479795278907868 
668	 0.480970723285013 
669	 0.482132697379196 
670	 0.483243651385182 
671	 0.484431095506586 
672	 0.485635571444465 
673	 0.486736530748175 
674	 0.487829483844172 
675	 0.488986570134153 
676	 0.490168146382521 
677	 0.491207734249357 
678	 0.492278656980871 
679	 0.493327237587809 
680	 0.494324006323471 
681	 0.495487369335631 
682	 0.496626472718579 
683	 0.497698951518134 
684	 0.498749304776171 
685	 0.49976992240015 
686	 0.500848317487863 
687	 0.501975942332262 
688	 0.503002421182114 
689	 0.503935463843827 
690	 0.504924767104436 
691	 0.506061871958904 
692	 0.50710305639277 
693	 0.508104839001477 
694	 0.509086853074322 
695	 0.510050391949825 
696	 0.511052931046027 
697	 0.512092561856554 
698	 0.513144334100423 
699	 0.514168668522166 
700	 0.515050076547803 
701	 0.515913287875723 
702	 0.516910258792763 
703	 0.518027010839895 
704	 0.518989799735622 
705	 0.519819762708564 
706	 0.520737610212252 
707	 0.521676068024564 
708	 0.522637871899227 
709	 0.523604655330103 
710	 0.524511957667099 
711	 0.525419503717545 
712	 0.526299708351476 
713	 0.527142646837086 
714	 0.528122694462036 
715	 0.529026993785844 
716	 0.529830991291445 
717	 0.530654875357225 
718	 0.531531540323544 
719	 0.5324786738569 
720	 0.533442818903887 
721	 0.53425900291348 
722	 0.535083299893806 
723	 0.535916751947371 
724	 0.536742324635264 
725	 0.537670777879832 
726	 0.538608545409192 
727	 0.53945403463709 
728	 0.540138881198007 
729	 0.540917881822351 
730	 0.541760053850682 
731	 0.542615049715133 
732	 0.543472621430367 
733	 0.544321760970311 
734	 0.54516219833055 
735	 0.546012451544547 
736	 0.546958646969584 
737	 0.547750142866222 
738	 0.548449928847014 
739	 0.549294693468925 
740	 0.550023745219569 
741	 0.550656148703265 
742	 0.55130237624943 
743	 0.552154445369058 
744	 0.552950973624474 
745	 0.553673427964719 
746	 0.554365158595063 
747	 0.555017605570946 
748	 0.555764627038738 
749	 0.556562994573217 
750	 0.557285019665124 
751	 0.558063219827069 
752	 0.558728414858997 
753	 0.559299325642442 
754	 0.560064947820825 
755	 0.560893060351766 
756	 0.561631214441643 
757	 0.56222604135171 
758	 0.562915381219795 
759	 0.563576215727562 
760	 0.564241638183973 
761	 0.564986218981801 
762	 0.565670414807753 
763	 0.566352482616844 
764	 0.567058136810277 
765	 0.567762691833573 
766	 0.568445019121566 
767	 0.56913258137454 
768	 0.569821572241115 
769	 0.570405844716656 
770	 0.571011321480581 
771	 0.571663920837501 
772	 0.572344969279178 
773	 0.573029591642388 
774	 0.573654407683946 
775	 0.574246369030254 
776	 0.57489967730459 
777	 0.575553513266317 
778	 0.576287244255831 
779	 0.57704244909227 
780	 0.577495282536961 
781	 0.57805684102476 
782	 0.578704435603652 
783	 0.579316498294802 
784	 0.579897526036354 
785	 0.580479689499847 
786	 0.581106622310992 
787	 0.581795403255028 
788	 0.582346666885763 
789	 0.582870731051123 
790	 0.58347124821963 
791	 0.584193423222273 
792	 0.584762491944068 
793	 0.585245322647505 
794	 0.585766653735519 
795	 0.586410147138385 
796	 0.586995650128281 
797	 0.587547334419379 
798	 0.58813421056161 
799	 0.588628148512443 
800	 0.589171842061643 
801	 0.589817316902571 
802	 0.590518501631083 
803	 0.591121417668237 
804	 0.591646203393292 
805	 0.592152341904686 
806	 0.59271237320921 
807	 0.593312330001619 
808	 0.593921833426637 
809	 0.594495329041922 
810	 0.594954675695927 
811	 0.595427381071288 
812	 0.5959443698973 
813	 0.59649028326119 
814	 0.597076440074354 
815	 0.597653713031284 
816	 0.598188283956826 
817	 0.598667117151696 
818	 0.599090190328519 
819	 0.599577994872341 
820	 0.600159358701423 
821	 0.600690143033316 
822	 0.601136054881705 
823	 0.60158734783414 
824	 0.602119772671814 
825	 0.602657629837493 
826	 0.603096596069338 
827	 0.603495846662804 
828	 0.603971490988822 
829	 0.604468717534136 
830	 0.604901705648653 
831	 0.605314045272625 
832	 0.605838812373899 
833	 0.606248382224389 
834	 0.606713223730974 
835	 0.607267512004718 
836	 0.607654611719477 
837	 0.608078486574201 
838	 0.608488796372 
839	 0.608826395283641 
840	 0.609172655659593 
841	 0.609620916577767 
842	 0.610127338530247 
843	 0.610587106957737 
844	 0.610944904070844 
845	 0.611216572273036 
846	 0.611555638855774 
847	 0.612154097386232 
848	 0.612698049067393 
849	 0.613139793927379 
850	 0.613545503672156 
851	 0.614063255065631 
852	 0.61437718347172 
853	 0.614701041726573 
854	 0.615197979615224 
855	 0.615693909861422 
856	 0.61611321694262 
857	 0.616449766588439 
858	 0.616767160933506 
859	 0.61725737021252 
860	 0.617714963330829 
861	 0.618084727959668 
862	 0.61841806290596 
863	 0.618849618730981 
864	 0.619251036875446 
865	 0.619595610998789 
866	 0.619961069132482 
867	 0.620360031344733 
868	 0.620798530884256 
869	 0.621211794225311 
870	 0.621456274232675 
871	 0.621738692732894 
872	 0.622125630018093 
873	 0.622583943014775 
874	 0.622946047234388 
875	 0.623275209761559 
876	 0.62363587654899 
877	 0.624068039119627 
878	 0.624532494816564 
879	 0.624874325932497 
880	 0.625124016758198 
881	 0.625408702576836 
882	 0.625806708093409 
883	 0.626136791014063 
884	 0.626359322091544 
885	 0.626569987870057 
886	 0.626879980128065 
887	 0.627249954669428 
888	 0.627604578819883 
889	 0.62786246927694 
890	 0.628100199687136 
891	 0.628361890685214 
892	 0.628666048494825 
893	 0.628998428620522 
894	 0.629302190886057 
895	 0.629635222879864 
896	 0.630018889414272 
897	 0.630306772499554 
898	 0.630520972079199 
899	 0.630749276605611 
900	 0.631071897223628 
901	 0.631436477718458 
902	 0.631843081285941 
903	 0.632154311310636 
904	 0.632263971450622 
905	 0.632554893371054 
906	 0.632983048678452 
907	 0.633424287076733 
908	 0.633749794565239 
909	 0.634120896599511 
910	 0.634486886139194 
911	 0.63480785012321 
912	 0.635082925714411 
913	 0.635354015095292 
914	 0.635681883351748 
915	 0.636090371348315 
916	 0.63654410349786 
917	 0.636844310087052 
918	 0.637057163770296 
919	 0.637289461794079 
920	 0.637600994142147 
921	 0.637949969544582 
922	 0.638286612500468 
923	 0.638593252253993 
924	 0.638940621890737 
925	 0.639252947125043 
926	 0.639557113083034 
927	 0.639893285769132 
928	 0.640225023408042 
929	 0.640569302582472 
930	 0.640947408640197 
931	 0.641340571016094 
932	 0.641562246310019 
933	 0.64178970970233 
934	 0.642144135025472 
935	 0.642640381320974 
936	 0.642987785640017 
937	 0.643396575711134 
938	 0.643788762446116 
939	 0.643946733259656 
940	 0.644247917180095 
941	 0.644564796693504 
942	 0.644797789848175 
943	 0.64495114170127 
944	 0.645336208640484 
945	 0.645694243690699 
946	 0.645907392102614 
947	 0.646083123069821 
948	 0.646231838893741 
949	 0.646402784073923 
950	 0.646633032095503 
951	 0.646920842387226 
952	 0.646975668602637 
953	 0.646995060473215 
954	 0.647163316843788 
955	 0.647489150838815 
956	 0.647788015606811 
957	 0.648002275694975 
958	 0.648114157424968 
959	 0.64812287088979 
960	 0.64829593946537 
961	 0.648624025921605 
962	 0.648987077048156 
963	 0.649216284107011 
964	 0.649252837124514 
965	 0.649323719510937 
966	 0.649574354852122 
967	 0.649785487638272 
968	 0.650101960119078 
969	 0.650433408761904 
970	 0.650672339270799 
971	 0.650834950276754 
972	 0.651043259861536 
973	 0.651354774082582 
974	 0.651712515884462 
975	 0.651814131593273 
976	 0.652150312436906 
977	 0.652537469054729 
978	 0.652710969648794 
979	 0.65286275293183 
980	 0.653136671006299 
981	 0.65336384694595 
982	 0.653416381528587 
983	 0.653669181837997 
984	 0.653914196499076 
985	 0.654138125349478 
986	 0.654413049219205 
987	 0.654879238384471 
988	 0.655114511825028 
989	 0.6552777596244 
990	 0.655593751054488 
991	 0.655714153373542 
992	 0.655921430030247 
993	 0.656260553594354 
994	 0.656650893262922 
995	 0.656921081289047 
996	 0.65734052716007 
997	 0.657798213444517 
998	 0.658106532639379 
999	 0.65831186873759 
1000	 0.658633865538911 
1001	 0.635334607994063 
1002	 0.635625601955635 
1003	 0.635967265764749 
1004	 0.636273328952002 
1005	 0.636587582725443 
1006	 0.636884090289531 
1007	 0.63716072698077 
1008	 0.637440235660653 
1009	 0.637706289274067 
1010	 0.637994187155609 
1011	 0.638323505332099 
1012	 0.638594306754695 
1013	 0.638823119751446 
1014	 0.639078697932848 
1015	 0.639311353435993 
1016	 0.639539570632962 
1017	 0.63984071653527 
1018	 0.640166448633663 
1019	 0.640450337719773 
1020	 0.640723126539348 
1021	 0.640995168634253 
1022	 0.641230412715903 
1023	 0.641515027173992 
1024	 0.641836100871793 
1025	 0.642131280572879 
1026	 0.642428399957314 
1027	 0.642716160743594 
1028	 0.642983811217134 
1029	 0.643280895462932 
1030	 0.643544083784981 
1031	 0.643850048106189 
1032	 0.644144041284334 
1033	 0.644417928091318 
1034	 0.644736528668962 
1035	 0.645010348056689 
1036	 0.645324017354478 
1037	 0.645682645946272 
1038	 0.645990660469927 
1039	 0.646318168413008 
1040	 0.646598609109185 
1041	 0.646806685695077 
1042	 0.647045385404888 
1043	 0.64728241251264 
1044	 0.647500665992115 
1045	 0.647732477133605 
1046	 0.647993058531375 
1047	 0.648236124736558 
1048	 0.648474310139234 
1049	 0.648721095520989 
1050	 0.648969952839559 
1051	 0.649224565993692 
1052	 0.649467225376034 
1053	 0.649701110239592 
1054	 0.649962614413768 
1055	 0.650153790701359 
1056	 0.650288456772655 
1057	 0.65044351785134 
1058	 0.650570880045602 
1059	 0.650697515843694 
1060	 0.650859002496777 
1061	 0.65100561955468 
1062	 0.651158837964217 
1063	 0.651294176404498 
1064	 0.651420702146304 
1065	 0.651575269462319 
1066	 0.651710395355518 
1067	 0.651818527970892 
1068	 0.65192594027074 
1069	 0.652010194896115 
1070	 0.652113378640502 
1071	 0.652211786420749 
1072	 0.652364001051202 
1073	 0.652510076078026 
1074	 0.652638132208039 
1075	 0.652776282937652 
1076	 0.652891544123214 
1077	 0.65297617885707 
1078	 0.653070732411725 
1079	 0.653165168880186 
1080	 0.653241746855686 
1081	 0.653334681161501 
1082	 0.653434189348642 
1083	 0.653541904950699 
1084	 0.653645571311221 
1085	 0.653747835387784 
1086	 0.653860258939259 
1087	 0.653979154388897 
1088	 0.654098771008304 
1089	 0.654238908748846 
1090	 0.654372659964367 
1091	 0.654479242415241 
1092	 0.654556887352423 
1093	 0.654631699494159 
1094	 0.65472070666675 
1095	 0.654791943503418 
1096	 0.654881128593724 
1097	 0.654981540397092 
1098	 0.655042171796097 
1099	 0.655121203681601 
1100	 0.655237349706846 
1101	 0.655319574793101 
1102	 0.655387893977437 
1103	 0.655468832425214 
1104	 0.655556914404755 
1105	 0.655623212401096 
1106	 0.655692330790645 
1107	 0.655758457526725 
1108	 0.655805429796508 
1109	 0.655856981303181 
1110	 0.655913222927734 
1111	 0.655979071139871 
1112	 0.656059842979757 
1113	 0.65613427414761 
1114	 0.656202194316276 
1115	 0.656276477002535 
1116	 0.656338668708773 
1117	 0.656380420232764 
1118	 0.656414818605873 
1119	 0.656432627467797 
1120	 0.656463400025364 
1121	 0.656493540836527 
1122	 0.656510040028751 
1123	 0.656545584199276 
1124	 0.656570446983859 
1125	 0.656576616282894 
1126	 0.656590369538509 
1127	 0.656592873305239 
1128	 0.656571092007973 
1129	 0.656519624314128 
1130	 0.656452269341191 
1131	 0.656372919220002 
1132	 0.656292145086412 
1133	 0.656221653749912 
1134	 0.656128667859851 
1135	 0.656028805567624 
1136	 0.655931718753936 
1137	 0.655804793551294 
1138	 0.655681251528944 
1139	 0.65549953383563 
1140	 0.655287160941186 
1141	 0.655026643812408 
1142	 0.654736890882858 
1143	 0.654443702833956 
1144	 0.654114446683611 
1145	 0.653739845562607 
1146	 0.653358745900627 
1147	 0.652928276398881 
1148	 0.652474462589845 
1149	 0.652051854002917 
1150	 0.651599260943966 
1151	 0.651117908037773 
1152	 0.650598289308619 
1153	 0.650047155024011 
1154	 0.64947693878937 
1155	 0.648865955989892 
1156	 0.648243779871182 
1157	 0.647619237623008 
1158	 0.646971219411215 
1159	 0.646293746786323 
1160	 0.645602085938041 
1161	 0.644883234614948 
1162	 0.644129964347793 
1163	 0.643393343291613 
1164	 0.642618192784267 
1165	 0.641852605958191 
1166	 0.641148277780586 
1167	 0.640432205990371 
1168	 0.639746947084206 
1169	 0.639064733431861 
1170	 0.638392431785377 
1171	 0.63773702514909 
1172	 0.637084470979222 
1173	 0.636454327502138 
1174	 0.635862579374348 
1175	 0.635272846088331 
1176	 0.634681794485378 
1177	 0.634123288488125 
1178	 0.633600665814005 
1179	 0.633038628894565 
1180	 0.632539498424649 
1181	 0.632062730693809 
1182	 0.631590466790948 
1183	 0.631188168774932 
1184	 0.630779846442903 
1185	 0.630386028793186 
1186	 0.630037057032494 
1187	 0.62970791209154 
1188	 0.629418157516494 
1189	 0.629184873522958 
1190	 0.628947071677916 
1191	 0.628728811421258 
1192	 0.628531943801954 
1193	 0.628357944191126 
1194	 0.628186605796806 
1195	 0.628034359269793 
1196	 0.627886634173406 
1197	 0.627744807867276 
1198	 0.627604730111737 
1199	 0.627482891258191 
1200	 0.627370728086445 
1201	 0.627255346852316 
1202	 0.627164250757727 
1203	 0.627088757997396 
1204	 0.627033308210143 
1205	 0.627048793693448 
1206	 0.627083195863313 
1207	 0.627232090169271 
1208	 0.627443488553025 
1209	 0.627756783090741 
1210	 0.628159403027155 
1211	 0.62864879194367 
1212	 0.629259274502983 
1213	 0.629896536372581 
1214	 0.630631031503193 
1215	 0.631379681920048 
1216	 0.632167372948303 
1217	 0.632973957095584 
1218	 0.633833825563542 
1219	 0.634694875958095 
1220	 0.63553362759215 
1221	 0.63644011524601 
1222	 0.637295017250659 
1223	 0.638116836338425 
1224	 0.638914810357039 
1225	 0.639698903476966 
1226	 0.640415560969317 
1227	 0.641088354056193 
1228	 0.641737420891951 
1229	 0.642335532083138 
1230	 0.642923173373631 
1231	 0.643481224319181 
1232	 0.644033905441924 
1233	 0.64455919391147 
1234	 0.645071023776488 
1235	 0.645574805352345 
1236	 0.646066763555984 
1237	 0.646534853226833 
1238	 0.647001304972141 
1239	 0.647468194056352 
1240	 0.647917894366653 
1241	 0.648356831207433 
1242	 0.648764151034677 
1243	 0.649159499408814 
1244	 0.649524945821057 
1245	 0.649906354777311 
1246	 0.65029734799186 
1247	 0.6506422605681 
1248	 0.650983305376213 
1249	 0.651285858839713 
1250	 0.651528336030604 
1251	 0.65178889183775 
1252	 0.652053443170312 
1253	 0.652287846442773 
1254	 0.652513838041687 
1255	 0.652711239744757 
1256	 0.652862587463228 
1257	 0.653029422092746 
1258	 0.653192173544323 
1259	 0.653341766475754 
1260	 0.653483398400401 
1261	 0.653624314618233 
1262	 0.653746540931231 
1263	 0.653874576858539 
1264	 0.654008914592291 
1265	 0.654153194975901 
1266	 0.654293955724136 
1267	 0.654443367786988 
1268	 0.654569240239289 
1269	 0.654686309186369 
1270	 0.654802126958007 
1271	 0.654909543713845 
1272	 0.655002466467292 
1273	 0.655087869752547 
1274	 0.655171748911754 
1275	 0.655240294376767 
1276	 0.655306035361037 
1277	 0.655372020025475 
1278	 0.655436417376482 
1279	 0.655479825322266 
1280	 0.655540057612383 
1281	 0.655633669455787 
1282	 0.655690997248843 
1283	 0.65574382384556 
1284	 0.655777338106614 
1285	 0.655790939164261 
1286	 0.655773399964384 
1287	 0.655759203830447 
1288	 0.655732943571217 
1289	 0.655706102854766 
1290	 0.655683829654301 
1291	 0.6556212355466 
1292	 0.65553668970734 
1293	 0.655454655018308 
1294	 0.655339797994025 
1295	 0.655241915977623 
1296	 0.655157150317575 
1297	 0.655063180051674 
1298	 0.654960104645492 
1299	 0.654859880365695 
1300	 0.654774191301259 
1301	 0.65466372397656 
1302	 0.654550153449591 
1303	 0.654414225086539 
1304	 0.654253948419701 
1305	 0.654088349332474 
1306	 0.653918198803492 
1307	 0.653724338002578 
1308	 0.653510943923032 
1309	 0.653285981460058 
1310	 0.653067040572773 
1311	 0.652834387156729 
1312	 0.652599734025068 
1313	 0.652375075156277 
1314	 0.652129114027901 
1315	 0.651873464220879 
1316	 0.651592812598438 
1317	 0.651298300217964 
1318	 0.650993434100021 
1319	 0.650659834121833 
1320	 0.650332524341863 
1321	 0.650010431792338 
1322	 0.649670169940187 
1323	 0.649321782138374 
1324	 0.648957667532203 
1325	 0.648585897328987 
1326	 0.648193043332307 
1327	 0.647803221115505 
1328	 0.64736323639523 
1329	 0.646882337067632 
1330	 0.64639411542168 
1331	 0.645869367573656 
1332	 0.645337351066824 
1333	 0.644825528099397 
1334	 0.644250075874952 
1335	 0.643672418252656 
1336	 0.643074099708163 
1337	 0.642455605343516 
1338	 0.641813622893047 
1339	 0.641169093698529 
1340	 0.640513317656371 
1341	 0.639834490307219 
1342	 0.639145933653654 
1343	 0.638432100226176 
1344	 0.637707844759414 
1345	 0.636931467644768 
1346	 0.636126573077222 
1347	 0.635296325561359 
1348	 0.63441773037114 
1349	 0.633528922319488 
1350	 0.632627511386417 
1351	 0.631693144944693 
1352	 0.630716140879292 
1353	 0.629740329540419 
1354	 0.628725424908417 
1355	 0.627741711605499 
1356	 0.626751007335475 
1357	 0.625785931631073 
1358	 0.624830271304886 
1359	 0.623902955635185 
1360	 0.623009193944257 
1361	 0.622118556179236 
1362	 0.62122926326951 
1363	 0.620399490753639 
1364	 0.61954867381137 
1365	 0.618721983581472 
1366	 0.617840976266105 
1367	 0.616963853547956 
1368	 0.616026599397182 
1369	 0.615066717931136 
1370	 0.614016047852546 
1371	 0.612929435031902 
1372	 0.611762075796343 
1373	 0.610535916031042 
1374	 0.609195319101349 
1375	 0.607784947092279 
1376	 0.606260537914446 
1377	 0.60460720808584 
1378	 0.602878623328972 
1379	 0.601017557677245 
1380	 0.599164746806866 
1381	 0.597219170325867 
1382	 0.595289579212133 
1383	 0.593352004896804 
1384	 0.591403570145012 
1385	 0.589479455549253 
1386	 0.587481640979104 
1387	 0.585472147373572 
1388	 0.583419052830027 
1389	 0.581338906031043 
1390	 0.579162464490848 
1391	 0.576977561852439 
1392	 0.574608418458453 
1393	 0.572258839305296 
1394	 0.569786134897098 
1395	 0.567271702729858 
1396	 0.56473297151724 
1397	 0.56209191954773 
1398	 0.559372878527885 
1399	 0.556547365254434 
1400	 0.553625092992363 
1401	 0.550646108446451 
1402	 0.547565769251773 
1403	 0.544423441566243 
1404	 0.541196623195681 
1405	 0.537999513578496 
1406	 0.534722070197334 
1407	 0.531480818258466 
1408	 0.528217998190762 
1409	 0.525029393344695 
1410	 0.521828680071802 
1411	 0.518707903675629 
1412	 0.515654327180005 
1413	 0.512692179662806 
1414	 0.5097654665767 
1415	 0.506937212008583 
1416	 0.504191926533885 
1417	 0.501536169816258 
1418	 0.498947116912111 
1419	 0.496459220136686 
1420	 0.49405904480337 
1421	 0.491790727337148 
1422	 0.489640909159992 
1423	 0.487565767796481 
1424	 0.485656110046884 
1425	 0.483711577459277 
1426	 0.481931997866163 
1427	 0.480203130725686 
1428	 0.478496425435276 
1429	 0.476947869574188 
1430	 0.475336380972589 
1431	 0.473758188214338 
1432	 0.472114129954603 
1433	 0.470474276494836 
1434	 0.468768697816751 
1435	 0.466999938493112 
1436	 0.465219434830301 
1437	 0.463382367193066 
1438	 0.461616711559533 
1439	 0.459774318770439 
1440	 0.458129523118718 
1441	 0.456487580620668 
1442	 0.455135704431677 
1443	 0.453869090088389 
1444	 0.452977732150017 
1445	 0.452327937494108 
1446	 0.452010123547914 
1447	 0.45202055339621 
1448	 0.4522822054944 
1449	 0.452923367697575 
1450	 0.453660896816022 
1451	 0.454733666647912 
1452	 0.45576951515959 
1453	 0.456995355163317 
1454	 0.458120735789579 
1455	 0.459292926229133 
1456	 0.460376504385668 
1457	 0.461440338587885 
1458	 0.462402736019392 
1459	 0.463277802071476 
1460	 0.46410505441437 
1461	 0.464841065880553 
1462	 0.465531327283659 
1463	 0.466159580642246 
1464	 0.466765219220459 
1465	 0.467304687035411 
1466	 0.467834929630914 
1467	 0.468345683076525 
1468	 0.468847630648079 
1469	 0.469361375503552 
1470	 0.469847476137949 
1471	 0.470342859749043 
1472	 0.470847240810495 
1473	 0.471329611958964 
1474	 0.471822896541036 
1475	 0.472236717931418 
1476	 0.472630776506679 
1477	 0.472952414907917 
1478	 0.473209053578585 
1479	 0.473413822465109 
1480	 0.473585325770462 
1481	 0.473661787681437 
1482	 0.473634679907881 
1483	 0.473613382548403 
1484	 0.473513140151585 
1485	 0.473443992685806 
1486	 0.473331899355308 
1487	 0.473308487500144 
1488	 0.473258711553166 
1489	 0.473354505139613 
1490	 0.47352653894651 
1491	 0.473815793158442 
1492	 0.474200530509459 
1493	 0.474702918201979 
1494	 0.475334628862246 
1495	 0.476036159738459 
1496	 0.476873384253093 
1497	 0.477726853525455 
1498	 0.478680507746687 
1499	 0.479619168220177 
1500	 0.48060084395984 
1501	 0.481572410434342 
1502	 0.482583746596008 
1503	 0.483528687619672 
1504	 0.484470446638951 
1505	 0.485353899163041 
1506	 0.486194722478718 
1507	 0.48697532212667 
1508	 0.487703446142073 
1509	 0.488388718449193 
1510	 0.489006222333849 
1511	 0.489589903236911 
1512	 0.49013550826612 
1513	 0.490642821410629 
1514	 0.491103117063734 
1515	 0.491531383860197 
1516	 0.491919333872207 
1517	 0.492279848906381 
1518	 0.492597433367933 
1519	 0.492896789593285 
1520	 0.493172761924532 
1521	 0.493424776422514 
1522	 0.493644197068382 
1523	 0.493838967524699 
1524	 0.49400242091985 
1525	 0.494123444682962 
1526	 0.494255415482741 
1527	 0.494364691311911 
1528	 0.494483824132531 
1529	 0.494606373351283 
1530	 0.494712879163801 
1531	 0.494795444723095 
1532	 0.494925411621736 
1533	 0.495055058869207 
1534	 0.495224394510935 
1535	 0.495429905338148 
1536	 0.495654478940494 
1537	 0.49587404824786 
1538	 0.496188856233389 
1539	 0.496553025658307 
1540	 0.496975406711456 
1541	 0.497476696530443 
1542	 0.497998079676078 
1543	 0.498555674002432 
1544	 0.499165002984022 
1545	 0.499826620207836 
1546	 0.500514570590659 
1547	 0.501260968158944 
1548	 0.502004326631027 
1549	 0.502786292160813 
1550	 0.503543369943043 
1551	 0.50431870190775 
1552	 0.505055310131515 
1553	 0.505768874388422 
1554	 0.506476687555089 
1555	 0.50717389534421 
1556	 0.507844725029266 
1557	 0.508504938591133 
1558	 0.50913851504779 
1559	 0.509744764886723 
1560	 0.510328601588638 
1561	 0.510897967210182 
1562	 0.511433387846105 
1563	 0.51193270880041 
1564	 0.512417853767818 
1565	 0.512872047199136 
1566	 0.513321395348086 
1567	 0.513747082810844 
1568	 0.514177299430617 
1569	 0.514601510311634 
1570	 0.515019502662865 
1571	 0.515431566254545 
1572	 0.515842230725095 
1573	 0.516253533800904 
1574	 0.516648129642754 
1575	 0.517031894778777 
1576	 0.517416397873283 
1577	 0.517779169406325 
1578	 0.518159921248725 
1579	 0.518561033583217 
1580	 0.518942223180354 
1581	 0.519320215865822 
1582	 0.519692923211982 
1583	 0.520049932308579 
1584	 0.520412400189696 
1585	 0.520771830891999 
1586	 0.521139044349359 
1587	 0.521513972854274 
1588	 0.521879975008088 
1589	 0.522249466268524 
1590	 0.522613009788498 
1591	 0.522955112329909 
1592	 0.523319479106195 
1593	 0.523696841829682 
1594	 0.524073210759874 
1595	 0.524457982416825 
1596	 0.524844981860889 
1597	 0.525234796136028 
1598	 0.525622267835296 
1599	 0.526024597876795 
1600	 0.526409236787725 
1601	 0.526780920868121 
1602	 0.527149567927627 
1603	 0.527510777661845 
1604	 0.527864459081096 
1605	 0.528214551073874 
1606	 0.528555900617291 
1607	 0.528889510948026 
1608	 0.529211996916982 
1609	 0.529535458022092 
1610	 0.529832757266585 
1611	 0.53011216319055 
1612	 0.530374295356893 
1613	 0.530609315588726 
1614	 0.530837436392824 
1615	 0.531054959656878 
1616	 0.531258311821457 
1617	 0.531436912719556 
1618	 0.531624608185289 
1619	 0.531819204872896 
1620	 0.531985640080595 
1621	 0.532146676916153 
1622	 0.532290298767033 
1623	 0.532404106415931 
1624	 0.532509553931483 
1625	 0.5326017374231 
1626	 0.532692679638452 
1627	 0.532768693434191 
1628	 0.532842179398726 
1629	 0.532917426302954 
1630	 0.532983822361706 
1631	 0.533039427013724 
1632	 0.533091865009806 
1633	 0.533150465626878 
1634	 0.533184397550101 
1635	 0.533208246998528 
1636	 0.533211745284654 
1637	 0.533194199889937 
1638	 0.533161313080286 
1639	 0.533111684589543 
1640	 0.533044671864371 
1641	 0.532961319126376 
1642	 0.532855997016091 
1643	 0.532729315692709 
1644	 0.532588895992061 
1645	 0.532424343201513 
1646	 0.53225394801659 
1647	 0.532068321523325 
1648	 0.531874230140875 
1649	 0.531683688303722 
1650	 0.531456931570873 
1651	 0.531217257488386 
1652	 0.530947140666677 
1653	 0.530654555668592 
1654	 0.530314438675683 
1655	 0.529931815483812 
1656	 0.529526020540185 
1657	 0.529079289188563 
1658	 0.528606689514558 
1659	 0.528127316318785 
1660	 0.527592192317644 
1661	 0.527000100075674 
1662	 0.526387462395686 
1663	 0.525733715848231 
1664	 0.525048406123857 
1665	 0.524360247736775 
1666	 0.52358554839442 
1667	 0.522755574754881 
1668	 0.521881641020678 
1669	 0.520944419733642 
1670	 0.519960171248097 
1671	 0.518923459633374 
1672	 0.517839245272327 
1673	 0.516698297030974 
1674	 0.515507044994318 
1675	 0.5142800220397 
1676	 0.513010124531696 
1677	 0.511693006126854 
1678	 0.51031010780157 
1679	 0.508862099772761 
1680	 0.507370803700238 
1681	 0.505827409881863 
1682	 0.504215674345136 
1683	 0.502550394275406 
1684	 0.500862445337002 
1685	 0.499102035678911 
1686	 0.497320290698013 
1687	 0.495483621238661 
1688	 0.493663102002207 
1689	 0.491808573474234 
1690	 0.489957491876543 
1691	 0.488144107237602 
1692	 0.486310418110674 
1693	 0.484468557949008 
1694	 0.482586504778506 
1695	 0.480684574951882 
1696	 0.478725109636976 
1697	 0.476720352311193 
1698	 0.474658216953468 
1699	 0.472555345774497 
1700	 0.470469715473494 
1701	 0.468309179246128 
1702	 0.466227824677439 
1703	 0.464147271285519 
1704	 0.462126228093876 
1705	 0.460131565602541 
1706	 0.458166978601955 
1707	 0.456384106095158 
1708	 0.454603285526738 
1709	 0.452892885378114 
1710	 0.45124165065324 
1711	 0.449516279602241 
1712	 0.447898940728442 
1713	 0.446250218996582 
1714	 0.444537682244829 
1715	 0.44294823591963 
1716	 0.441302217564217 
1717	 0.439675416309389 
1718	 0.438108091450722 
1719	 0.436493219519386 
1720	 0.434974998121015 
1721	 0.433494809203037 
1722	 0.43208437634424 
1723	 0.430871318350565 
1724	 0.429720280521151 
1725	 0.42873890729559 
1726	 0.428002691792082 
1727	 0.42740752080048 
1728	 0.427029488895101 
1729	 0.426858651494172 
1730	 0.426867571726964 
1731	 0.427030450543886 
1732	 0.427352758474311 
1733	 0.427760518199929 
1734	 0.428214501565832 
1735	 0.428705868883099 
1736	 0.429171451719216 
1737	 0.429581969024505 
1738	 0.429932679429118 
1739	 0.430178266820895 
1740	 0.430350492077533 
1741	 0.430412748376439 
1742	 0.430345576383377 
1743	 0.430242774258532 
1744	 0.430008207412669 
1745	 0.429808590518164 
1746	 0.429574748994754 
1747	 0.429364757008759 
1748	 0.429144440610646 
1749	 0.428966472813903 
1750	 0.428782022368747 
1751	 0.428682323735408 
1752	 0.428620057506038 
1753	 0.428648323073891 
1754	 0.428745761790741 
1755	 0.42892580093557 
1756	 0.429179055979314 
1757	 0.429515305799744 
1758	 0.429954456944544 
1759	 0.430475124792259 
1760	 0.431117759285167 
1761	 0.431840778797528 
1762	 0.432611949792418 
1763	 0.433484109650538 
1764	 0.434395287175665 
1765	 0.435368231690363 
1766	 0.436450502561234 
1767	 0.437541684233882 
1768	 0.438657354241455 
1769	 0.439765797925565 
1770	 0.440814560637621 
1771	 0.441846736695337 
1772	 0.442782505189228 
1773	 0.443655303567913 
1774	 0.444507301844978 
1775	 0.445264572795705 
1776	 0.446021476877691 
1777	 0.446742079812261 
1778	 0.447358577982429 
1779	 0.447953271096449 
1780	 0.448517447664442 
1781	 0.449071221834677 
1782	 0.449624594856947 
1783	 0.45013072889414 
1784	 0.450631659876458 
1785	 0.45109433666133 
1786	 0.451565601925518 
1787	 0.452051033982561 
1788	 0.452494534166405 
1789	 0.452924110260187 
1790	 0.453339029660197 
1791	 0.453724476104623 
1792	 0.454107499867218 
1793	 0.454468679520766 
1794	 0.454802288807027 
1795	 0.455124059701141 
1796	 0.455444711629132 
1797	 0.455837871010439 
1798	 0.45623895229219 
1799	 0.456644619139848 
1800	 0.457052041168304 
1801	 0.464239435279952 
1802	 0.465255576965251 
1803	 0.466122923105873 
1804	 0.466887880167133 
1805	 0.46762631223341 
1806	 0.468262046664515 
1807	 0.468773756987612 
1808	 0.469297385202104 
1809	 0.469769836076624 
1810	 0.470208143537903 
1811	 0.470596229357532 
1812	 0.470982394226192 
1813	 0.471326423214332 
1814	 0.471673874601784 
1815	 0.472012515008698 
1816	 0.472330255819442 
1817	 0.472657661485678 
1818	 0.472960583406727 
1819	 0.473288032329985 
1820	 0.473631340032712 
1821	 0.473977539554638 
1822	 0.474329893575096 
1823	 0.474687094810375 
1824	 0.475046386574463 
1825	 0.475408768282866 
1826	 0.475760037530772 
1827	 0.476121583451737 
1828	 0.476436745810232 
1829	 0.476728011771228 
1830	 0.477014960421798 
1831	 0.477274746011253 
1832	 0.477539601028221 
1833	 0.47777943760147 
1834	 0.478016415720778 
1835	 0.478228518278634 
1836	 0.478414624683329 
1837	 0.47862412801721 
1838	 0.478833525331223 
1839	 0.479050013907877 
1840	 0.479287311798892 
1841	 0.479511449119469 
1842	 0.479745906321075 
1843	 0.479962839273945 
1844	 0.480161130805323 
1845	 0.480294110570779 
1846	 0.480393736567127 
1847	 0.48046686998728 
1848	 0.480477886388782 
1849	 0.48046434024364 
1850	 0.480364018297035 
1851	 0.480215396302948 
1852	 0.479970839169261 
1853	 0.479624221487142 
1854	 0.479237888011333 
1855	 0.478775442214334 
1856	 0.478247790512042 
1857	 0.477658812103072 
1858	 0.476951857359097 
1859	 0.476169922827448 
1860	 0.475310162720783 
1861	 0.474320399255879 
1862	 0.473222044148511 
1863	 0.472089854439794 
1864	 0.470771676805778 
1865	 0.469372974832394 
1866	 0.467858281688176 
1867	 0.466123143253308 
1868	 0.464331943677681 
1869	 0.462408045989736 
1870	 0.460440680871223 
1871	 0.458402211648705 
1872	 0.45636689204516 
1873	 0.454283887572701 
1874	 0.452193751417437 
1875	 0.450085031964293 
1876	 0.447707657435564 
1877	 0.445351627423807 
1878	 0.44280107222729 
1879	 0.439978473268815 
1880	 0.437245665805862 
1881	 0.434261064627158 
1882	 0.431045401186027 
1883	 0.427721758070235 
1884	 0.424267262748245 
1885	 0.420395659640811 
1886	 0.416496151732934 
1887	 0.412297743584492 
1888	 0.407849763501832 
1889	 0.403612127102408 
1890	 0.399087742434089 
1891	 0.394519756149529 
1892	 0.389967830668427 
1893	 0.385142235253975 
1894	 0.380012732213014 
1895	 0.374992312532831 
1896	 0.369808201850196 
1897	 0.364455198297488 
1898	 0.359460088500129 
1899	 0.354264132120506 
1900	 0.349130031714652 
1901	 0.34416014036173 
1902	 0.338904527201677 
1903	 0.333921755702167 
1904	 0.329036850252233 
1905	 0.324176188490029 
1906	 0.319430507733989 
1907	 0.315222568548418 
1908	 0.311004692888575 
1909	 0.306982913946595 
1910	 0.303235757666709 
1911	 0.29934584482578 
1912	 0.295708800764944 
1913	 0.292211916306532 
1914	 0.288773135529209 
1915	 0.285619896334712 
1916	 0.282762978744459 
1917	 0.279927688300949 
1918	 0.277250576385033 
1919	 0.274778370329807 
1920	 0.272237817099785 
1921	 0.269895907709283 
1922	 0.267633631037605 
1923	 0.265409954584737 
1924	 0.263468133349479 
1925	 0.261542784818941 
1926	 0.259724545882305 
1927	 0.258068843148488 
1928	 0.256449913099225 
1929	 0.254856317610211 
1930	 0.253420750076525 
1931	 0.252086139384163 
1932	 0.250800384142556 
1933	 0.249736677953849 
1934	 0.248768757969746 
1935	 0.247891684710066 
1936	 0.247167944736269 
1937	 0.246533007039432 
1938	 0.245980815506204 
1939	 0.245576431616137 
1940	 0.245290662504143 
1941	 0.245136851448062 
1942	 0.245116238933716 
1943	 0.245178615591898 
1944	 0.245315978947322 
1945	 0.24554393716644 
1946	 0.245890687225372 
1947	 0.24627625274368 
1948	 0.246780795624465 
1949	 0.247412650966912 
1950	 0.248107152849002 
1951	 0.248884264445099 
1952	 0.249764343868312 
1953	 0.250734421162446 
1954	 0.251793043713479 
1955	 0.252978071722138 
1956	 0.254160062867888 
1957	 0.255375666708482 
1958	 0.256594589455372 
1959	 0.257706059779909 
1960	 0.258783230508217 
1961	 0.259797110917165 
1962	 0.260742693116308 
1963	 0.261633808815222 
1964	 0.262471129633314 
1965	 0.263247962388702 
1966	 0.263963702658162 
1967	 0.264633726442703 
1968	 0.265231677767094 
1969	 0.265837540209321 
1970	 0.266414075099565 
1971	 0.266988709778866 
1972	 0.267616373010244 
1973	 0.268245920698553 
1974	 0.268925199264698 
1975	 0.269660349617501 
1976	 0.270401294136935 
1977	 0.271156727202272 
1978	 0.271959420160407 
1979	 0.272776055438066 
1980	 0.273645162557931 
1981	 0.274609599409788 
1982	 0.275557631224603 
1983	 0.276571879288959 
1984	 0.277600019674461 
1985	 0.27857081101187 
1986	 0.279639930127996 
1987	 0.28076265577391 
1988	 0.28187495302481 
1989	 0.283145568248288 
1990	 0.284538569657092 
1991	 0.285970190878505 
1992	 0.287494769141257 
1993	 0.289126003382594 
1994	 0.290686903264377 
1995	 0.292349187657421 
1996	 0.294042972344142 
1997	 0.295742291802248 
1998	 0.297498356297461 
1999	 0.299354506895388 
2000	 0.301108285067532 
2001	 0.302914569173152 
2002	 0.304595682390671 
2003	 0.30619066617223 
2004	 0.307772162476517 
2005	 0.309272190634768 
2006	 0.310760743996489 
2007	 0.312258838978674 
2008	 0.313670942429844 
2009	 0.31503215894981 
2010	 0.316358402903298 
2011	 0.317517641438832 
2012	 0.318630967328037 
2013	 0.319701348512113 
2014	 0.320667840283238 
2015	 0.321652708396521 
2016	 0.322646221934929 
2017	 0.323545929724488 
2018	 0.324424940894112 
2019	 0.325212220833241 
2020	 0.325892553605217 
2021	 0.326556741382512 
2022	 0.327162362971164 
2023	 0.32767615978626 
2024	 0.328188500974356 
2025	 0.328641591431881 
2026	 0.329033193673422 
2027	 0.329375016696623 
2028	 0.329671599308522 
2029	 0.329891357848733 
2030	 0.330090239125262 
2031	 0.33024803904854 
2032	 0.330381503544444 
2033	 0.330462273179654 
2034	 0.330532931346474 
2035	 0.330593848717107 
2036	 0.330614119195608 
2037	 0.330582157050831 
2038	 0.330557593557953 
2039	 0.330530226184932 
2040	 0.33047487494508 
2041	 0.330434355689737 
2042	 0.330405505869419 
2043	 0.330369258946765 
2044	 0.330323232935428 
2045	 0.330281532727195 
2046	 0.330232351481199 
2047	 0.330204169524491 
2048	 0.330167341799063 
2049	 0.330162214497991 
2050	 0.330184338194046 
2051	 0.33021669248586 
2052	 0.330274062096277 
2053	 0.330363755382273 
2054	 0.330480823719035 
2055	 0.33062081579348 
2056	 0.330810582453229 
2057	 0.331015589364804 
2058	 0.331296774687289 
2059	 0.331645424970067 
2060	 0.332020404174739 
2061	 0.33246666117168 
2062	 0.332920473037347 
2063	 0.333413982043551 
2064	 0.333906579449897 
2065	 0.334411956710479 
2066	 0.334935094688489 
2067	 0.335497664321318 
2068	 0.336062947195062 
2069	 0.336621235014806 
2070	 0.337220906965568 
2071	 0.33776503265946 
2072	 0.338287802032922 
2073	 0.338776324153086 
2074	 0.33924426212227 
2075	 0.339679259963997 
2076	 0.340070789933927 
2077	 0.340449866980082 
2078	 0.340832315042669 
2079	 0.34114776538595 
2080	 0.341400961873819 
2081	 0.341654300822589 
2082	 0.341872914035878 
2083	 0.342055865251144 
2084	 0.342247167287317 
2085	 0.34243214110123 
2086	 0.342564576509608 
2087	 0.342659201896122 
2088	 0.342727136995015 
2089	 0.342755294723627 
2090	 0.342766739797512 
2091	 0.342760859017482 
2092	 0.342711089846695 
2093	 0.342626295295411 
2094	 0.342518349821238 
2095	 0.342363754471878 
2096	 0.342199997222083 
2097	 0.34202637480981 
2098	 0.341815058369763 
2099	 0.341594592967371 
2100	 0.341351618475952 
2101	 0.341066234858477 
2102	 0.340757625412108 
2103	 0.340409802083917 
2104	 0.340005071711945 
2105	 0.339602689768728 
2106	 0.339176366315147 
2107	 0.338733458215922 
2108	 0.338294580647605 
2109	 0.337796265805001 
2110	 0.337259587499481 
2111	 0.336701159297786 
2112	 0.336073126729949 
2113	 0.335464111689298 
2114	 0.334860325660892 
2115	 0.334223860097605 
2116	 0.333575056196019 
2117	 0.332928684284922 
2118	 0.33220682121609 
2119	 0.33143144851492 
2120	 0.3306615141909 
2121	 0.329827939584736 
2122	 0.329038934264595 
2123	 0.328272077350927 
2124	 0.327474475134475 
2125	 0.326701032914159 
2126	 0.325858191445939 
2127	 0.324952892019 
2128	 0.32407533239351 
2129	 0.323143531330209 
2130	 0.322254552088736 
2131	 0.321436487057776 
2132	 0.320552681076896 
2133	 0.319648541305111 
2134	 0.318744704740775 
2135	 0.317748725749519 
2136	 0.316775837284634 
2137	 0.315802227853416 
2138	 0.314799142356948 
2139	 0.313844676071016 
2140	 0.312923591394112 
2141	 0.311977502853942 
2142	 0.311045287089197 
2143	 0.310110229573887 
2144	 0.309156455189143 
2145	 0.308227694921206 
2146	 0.307289311466806 
2147	 0.306399225627196 
2148	 0.305537351960503 
2149	 0.304690499313061 
2150	 0.303903165738266 
2151	 0.303097890351071 
2152	 0.302262045038544 
2153	 0.301480152647079 
2154	 0.300735860432627 
2155	 0.299993238324711 
2156	 0.299321524216268 
2157	 0.298720369466848 
2158	 0.298111961469332 
2159	 0.297548513045381 
2160	 0.296964168230836 
2161	 0.296370652439399 
2162	 0.295827560659658 
2163	 0.295278729688464 
2164	 0.294795374274256 
2165	 0.294381525709094 
2166	 0.293965719376957 
2167	 0.293576083312016 
2168	 0.293215636591117 
2169	 0.292879972992911 
2170	 0.292563378258066 
2171	 0.292269977046134 
2172	 0.292007960185944 
2173	 0.291768544018852 
2174	 0.291550370866907 
2175	 0.291390606242908 
2176	 0.291241948009108 
2177	 0.291108975049832 
2178	 0.291001342167494 
2179	 0.290903995689885 
2180	 0.290819571386826 
2181	 0.290754429757795 
2182	 0.290714408357843 
2183	 0.290673064230529 
2184	 0.290647817567802 
2185	 0.290621477609773 
2186	 0.290592321377597 
2187	 0.290582469005946 
2188	 0.290591199219363 
2189	 0.290594090600353 
2190	 0.290611513767293 
2191	 0.290620476572654 
2192	 0.29061411298335 
2193	 0.290621094704956 
2194	 0.290635935348343 
2195	 0.290652969318412 
2196	 0.290676951796729 
2197	 0.290709683715245 
2198	 0.29071805954883 
2199	 0.290735572464338 
2200	 0.290762435453795 
2201	 0.290793219505134 
2202	 0.290814959742606 
2203	 0.290839400738442 
2204	 0.290871348535321 
2205	 0.290888394172014 
2206	 0.290933808808598 
2207	 0.291012428208759 
2208	 0.291070776469152 
2209	 0.291113396031275 
2210	 0.291191523762709 
2211	 0.291269352599987 
2212	 0.291379856151063 
2213	 0.291524020742016 
2214	 0.291684928760427 
2215	 0.291858391821042 
2216	 0.292063166594179 
2217	 0.292284672689253 
2218	 0.292548791771511 
2219	 0.292887800027577 
2220	 0.293190160828646 
2221	 0.293503061588775 
2222	 0.293826222198935 
2223	 0.294131447438263 
2224	 0.29442177509993 
2225	 0.294705838286064 
2226	 0.294964156413573 
2227	 0.295141614367854 
2228	 0.295256387588772 
2229	 0.295322838038033 
2230	 0.295340725490195 
2231	 0.295284372051002 
2232	 0.295179250523125 
2233	 0.294981463527157 
2234	 0.29473087194054 
2235	 0.294334783506699 
2236	 0.293812278101794 
2237	 0.293241064530218 
2238	 0.292526818699225 
2239	 0.291808594327343 
2240	 0.291075978113412 
2241	 0.290235533759904 
2242	 0.28931793751653 
2243	 0.288337150077189 
2244	 0.287259197414487 
2245	 0.286143853086353 
2246	 0.284934047048428 
2247	 0.283728202922843 
2248	 0.282506031693024 
2249	 0.281219025295213 
2250	 0.279864483099813 
2251	 0.278553955024128 
2252	 0.277134479536237 
2253	 0.27571874464385 
2254	 0.274314529809921 
2255	 0.272845665483971 
2256	 0.271422670825929 
2257	 0.269964242380319 
2258	 0.268544731068667 
2259	 0.267168965550742 
2260	 0.265741483715769 
2261	 0.26430198673393 
2262	 0.262872081085039 
2263	 0.261368916640668 
2264	 0.259984465751197 
2265	 0.258653173954696 
2266	 0.257351306347079 
2267	 0.256148030828003 
2268	 0.254897132878323 
2269	 0.253617289843139 
2270	 0.252416553673269 
2271	 0.251221132596996 
2272	 0.250088514769064 
2273	 0.249050998949887 
2274	 0.248002252098924 
2275	 0.247032634314617 
2276	 0.245977008581205 
2277	 0.244920655757044 
2278	 0.24381158000245 
2279	 0.242599355427978 
2280	 0.241408895749147 
2281	 0.240222222998028 
2282	 0.23899793311264 
2283	 0.23777024988696 
2284	 0.236516394568771 
2285	 0.235117869125152 
2286	 0.233736247626128 
2287	 0.232251475883839 
2288	 0.230655872084763 
2289	 0.229147792320894 
2290	 0.227530150709101 
2291	 0.225885912973697 
2292	 0.224290943453799 
2293	 0.22256595122274 
2294	 0.220827811970251 
2295	 0.219132319991528 
2296	 0.217467286816542 
2297	 0.215980873978329 
2298	 0.214620056826885 
2299	 0.213361458530312 
2300	 0.212221728192706 
2301	 0.211225293442853 
2302	 0.210303356007111 
2303	 0.209648625750354 
2304	 0.209151380999966 
2305	 0.208939256615524 
2306	 0.208979679078625 
2307	 0.209241375253796 
2308	 0.20976213233051 
2309	 0.210523318389057 
2310	 0.211571560932141 
2311	 0.212768660552995 
2312	 0.214358365659797 
2313	 0.215828070194808 
2314	 0.217449285317706 
2315	 0.21899014380864 
2316	 0.220574798524323 
2317	 0.221977155794947 
2318	 0.22339838186968 
2319	 0.224542805175398 
2320	 0.225500299610386 
2321	 0.226259945296767 
2322	 0.226780407475034 
2323	 0.227171336976497 
2324	 0.227337987176281 
2325	 0.227412086034898 
2326	 0.227342045215324 
2327	 0.227124113612992 
2328	 0.226737954012766 
2329	 0.226260308927851 
2330	 0.225621531627069 
2331	 0.224907651628374 
2332	 0.224128255412517 
2333	 0.223185932049705 
2334	 0.22204507137865 
2335	 0.220835080354059 
2336	 0.219452731935387 
2337	 0.217961312140524 
2338	 0.216589666440093 
2339	 0.215076183648746 
2340	 0.213578474693986 
2341	 0.212188544219817 
2342	 0.210690834385521 
2343	 0.209396538064449 
2344	 0.208300224911073 
2345	 0.207352261022514 
2346	 0.206758782446375 
2347	 0.206434878081524 
2348	 0.206356652436825 
2349	 0.206590466121104 
2350	 0.207055650193219 
2351	 0.207767328308347 
2352	 0.208645704903939 
2353	 0.209650234105929 
2354	 0.210582728107516 
2355	 0.211476282806658 
2356	 0.212273670452845 
2357	 0.212850225258404 
2358	 0.213414463999482 
2359	 0.213811141779649 
2360	 0.214044106975074 
2361	 0.214169301629437 
2362	 0.214120706979958 
2363	 0.213911392778863 
2364	 0.213693585717718 
2365	 0.213451105883221 
2366	 0.213077959790186 
2367	 0.212770111213616 
2368	 0.212479222379348 
2369	 0.212100833198929 
2370	 0.211790771086174 
2371	 0.21149714925452 
2372	 0.211163314645408 
2373	 0.210843318357377 
2374	 0.210509684240103 
2375	 0.210195693849088 
2376	 0.209792160022703 
2377	 0.209362988954037 
2378	 0.209080370765581 
2379	 0.208669020611285 
2380	 0.20822264832734 
2381	 0.207886070973903 
2382	 0.207482242754731 
2383	 0.207015148003195 
2384	 0.206588409788196 
2385	 0.20616594318451 
2386	 0.205737575616913 
2387	 0.205267853753518 
2388	 0.204861790007897 
2389	 0.20451056973485 
2390	 0.204150741363466 
2391	 0.203853740900364 
2392	 0.203462226977759 
2393	 0.203033635243541 
2394	 0.202622428029711 
2395	 0.202115015789434 
2396	 0.201666119010321 
2397	 0.201335860551446 
2398	 0.200837950081364 
2399	 0.200243783980103 
2400	 0.199744524233837 
2401	 0.199165923305089 
2402	 0.198659154002843 
2403	 0.198267527244484 
2404	 0.197815469054188 
2405	 0.197290321775891 
2406	 0.196837717653044 
2407	 0.196454654466516 
2408	 0.19601045176347 
2409	 0.195593083223657 
2410	 0.195235456113277 
2411	 0.194679971150913 
2412	 0.194116869591064 
2413	 0.193699026236137 
2414	 0.193105673247492 
2415	 0.192536600337097 
2416	 0.192036628196929 
2417	 0.191502100487007 
2418	 0.19111806912155 
2419	 0.190760600708248 
2420	 0.190372689466663 
2421	 0.189831450392119 
2422	 0.189244488025029 
2423	 0.188775454648051 
2424	 0.188181775911093 
2425	 0.187707299474733 
2426	 0.187359668929686 
2427	 0.18695189649638 
2428	 0.186754834309124 
2429	 0.186516603866412 
2430	 0.186081584719029 
2431	 0.185614090800813 
2432	 0.184964965252337 
2433	 0.184417069595772 
2434	 0.18411125037733 
2435	 0.183635841592209 
2436	 0.183031426346426 
2437	 0.182443225924675 
2438	 0.181818824589773 
2439	 0.18132630496705 
2440	 0.181060843035888 
2441	 0.18073139157371 
2442	 0.180225629882654 
2443	 0.179698083759687 
2444	 0.179159274747157 
2445	 0.178644095398696 
2446	 0.178103300044239 
2447	 0.177464969149418 
2448	 0.176776122915787 
2449	 0.176079308420671 
2450	 0.17538162436428 
2451	 0.174759336452697 
2452	 0.174349112880024 
2453	 0.173774183892033 
2454	 0.173073454634667 
2455	 0.172561787201005 
2456	 0.17194103708766 
2457	 0.171320985129315 
2458	 0.170780446022471 
2459	 0.170137230867891 
2460	 0.169422974954799 
2461	 0.168833674854849 
2462	 0.168477070713049 
2463	 0.168172561594581 
2464	 0.167834025014605 
2465	 0.167460752539745 
2466	 0.167005862011692 
2467	 0.16645498791552 
2468	 0.166003442350246 
2469	 0.165685566652832 
2470	 0.165161931572153 
2471	 0.164676025264029 
2472	 0.164224141168447 
2473	 0.163613261737195 
2474	 0.163431482820157 
2475	 0.163384345737523 
2476	 0.163213629702077 
2477	 0.163181754901259 
2478	 0.162904080165001 
2479	 0.162581826438611 
2480	 0.162162216664416 
2481	 0.161853076524697 
2482	 0.161721549327693 
2483	 0.161712523067331 
2484	 0.161837501998657 
2485	 0.161722366480298 
2486	 0.161282359651405 
2487	 0.161109340477666 
2488	 0.160801192076057 
2489	 0.160446482832057 
2490	 0.160448809942941 
2491	 0.160244119160381 
2492	 0.159745009367689 
2493	 0.159610951366003 
2494	 0.159748600118753 
2495	 0.159825651059217 
2496	 0.160042907456611 
2497	 0.160203608106039 
2498	 0.160006070087245 
2499	 0.159788222560236 
2500	 0.159738309272385 
