Wavelength	spectrum00018.asd
350	 9.11132608212544E-02 
351	 8.92109813469088E-02 
352	 8.57506650591766E-02 
353	 8.16776623282559E-02 
354	 8.01380717668805E-02 
355	 0.079004364561451 
356	 7.72929648946143E-02 
357	 7.48222861563047E-02 
358	 7.27551684049316E-02 
359	 7.14190753125329E-02 
360	 0.070423641864751 
361	 6.91430400048862E-02 
362	 6.85534575098362E-02 
363	 6.71342366220179E-02 
364	 6.49291989574521E-02 
365	 6.42415674634618E-02 
366	 6.51739224736757E-02 
367	 6.53259906217906E-02 
368	 6.33278305609523E-02 
369	 6.29997610071458E-02 
370	 6.30333601746236E-02 
371	 0.062488423546523 
372	 6.09374478637727E-02 
373	 6.01232803511469E-02 
374	 6.01762085341423E-02 
375	 6.05086886010784E-02 
376	 5.98386921314159E-02 
377	 5.92938677893482E-02 
378	 5.88715441051544E-02 
379	 5.84206686086425E-02 
380	 5.83523218167032E-02 
381	 5.84290313783902E-02 
382	 5.77096348666502E-02 
383	 5.53544614682136E-02 
384	 5.52211604060334E-02 
385	 5.60739030026878E-02 
386	 5.63738317958008E-02 
387	 0.055091205218426 
388	 5.43444209282438E-02 
389	 5.42157776982965E-02 
390	 5.41269308507025E-02 
391	 5.33937665446476E-02 
392	 0.053045789182255 
393	 5.28859209315917E-02 
394	 5.20439821759814E-02 
395	 5.18982359157768E-02 
396	 0.051763306516359 
397	 5.12498442634466E-02 
398	 5.08807552062732E-02 
399	 5.06028641975669E-02 
400	 5.03737561699641E-02 
401	 5.00672067441019E-02 
402	 4.91777516476705E-02 
403	 4.88876432037804E-02 
404	 0.049012979387095 
405	 4.84203741175433E-02 
406	 4.81680015114035E-02 
407	 0.047790349821202 
408	 4.71328938883248E-02 
409	 4.71103316073113E-02 
410	 4.66678889718428E-02 
411	 4.63409531738784E-02 
412	 4.67847142206624E-02 
413	 0.046621735084974 
414	 4.59810243288727E-02 
415	 4.54029048922527E-02 
416	 4.56282556291996E-02 
417	 0.045417533841964 
418	 0.045274966331066 
419	 4.55085567862169E-02 
420	 4.52089743263384E-02 
421	 4.50250958429637E-02 
422	 4.50840123191104E-02 
423	 4.52666134236101E-02 
424	 4.54157953872932E-02 
425	 0.045419680467918 
426	 4.53242783082633E-02 
427	 4.53379044489654E-02 
428	 4.53279322908706E-02 
429	 4.54021466441896E-02 
430	 4.55796536255854E-02 
431	 4.54192923732436E-02 
432	 4.55628799947969E-02 
433	 4.59407237842671E-02 
434	 4.61060372581579E-02 
435	 4.62054284900699E-02 
436	 4.63521757473455E-02 
437	 4.65742717562577E-02 
438	 0.046769066199882 
439	 4.70366515525599E-02 
440	 4.73345539098111E-02 
441	 4.76011700610307E-02 
442	 0.047863199531934 
443	 4.82430802511425E-02 
444	 0.048702089237748 
445	 0.049075524006508 
446	 4.93322073067511E-02 
447	 4.96680165112792E-02 
448	 5.01868980611475E-02 
449	 5.07271640527403E-02 
450	 5.12016148676217E-02 
451	 5.16418054878849E-02 
452	 5.21224384707923E-02 
453	 5.26000281957349E-02 
454	 5.31695361486265E-02 
455	 0.053824549081248 
456	 5.44430732030379E-02 
457	 5.51398291712967E-02 
458	 5.58521682556209E-02 
459	 5.65375522984337E-02 
460	 5.73434695754703E-02 
461	 5.80404608017144E-02 
462	 5.87132326278748E-02 
463	 5.95946697276533E-02 
464	 6.05158244242244E-02 
465	 6.14822737274731E-02 
466	 6.24349761402374E-02 
467	 6.31779855984809E-02 
468	 6.40697775850753E-02 
469	 6.50939625733527E-02 
470	 6.61686008533449E-02 
471	 6.74712634332509E-02 
472	 6.86380755111783E-02 
473	 6.96978491545433E-02 
474	 7.09819474863158E-02 
475	 7.22260928708027E-02 
476	 0.073507496329342 
477	 7.48703575888917E-02 
478	 7.61617138252925E-02 
479	 0.077504905555232 
480	 7.89472370889005E-02 
481	 0.080492799261266 
482	 8.20857034370894E-02 
483	 8.36907515771859E-02 
484	 8.53117933835109E-02 
485	 8.69902883810673E-02 
486	 0.088696701262423 
487	 9.04487779144238E-02 
488	 9.22620697070801E-02 
489	 9.41253892213604E-02 
490	 9.59916439751825E-02 
491	 9.79183444598188E-02 
492	 9.99951695596789E-02 
493	 0.101977486286554 
494	 0.103959223189766 
495	 0.10602817792803 
496	 0.108195543225757 
497	 0.11033237798478 
498	 0.112465365396295 
499	 0.114667966027887 
500	 0.116992343109666 
501	 0.119341844983736 
502	 0.12168949889355 
503	 0.124078748738518 
504	 0.126569931840821 
505	 0.129051353184569 
506	 0.131468148432784 
507	 0.133974527071152 
508	 0.136478061286515 
509	 0.139045433398592 
510	 0.141764939462487 
511	 0.144385334308605 
512	 0.147006134713045 
513	 0.149688929226422 
514	 0.152415175442711 
515	 0.155107527551204 
516	 0.157841823344522 
517	 0.16066966772099 
518	 0.163406611897622 
519	 0.166142610378238 
520	 0.168951471256683 
521	 0.171870448410124 
522	 0.174712904046646 
523	 0.177563200014973 
524	 0.180465546062743 
525	 0.183313741149527 
526	 0.186145766757486 
527	 0.189021777610457 
528	 0.191975140380768 
529	 0.194827529816726 
530	 0.197664206297137 
531	 0.200536808806693 
532	 0.203437187869881 
533	 0.20627004712972 
534	 0.209100002903283 
535	 0.211975751368232 
536	 0.214804386789601 
537	 0.217639951665207 
538	 0.220474565293957 
539	 0.223271285395682 
540	 0.226060430282472 
541	 0.22884104533211 
542	 0.231600187404892 
543	 0.234306979713819 
544	 0.236963495929614 
545	 0.239551374389202 
546	 0.2420956078243 
547	 0.244831940739192 
548	 0.247603688002843 
549	 0.250372256720452 
550	 0.253213770311457 
551	 0.256073924708455 
552	 0.258959541225594 
553	 0.261876684367457 
554	 0.264801513972957 
555	 0.267692913898532 
556	 0.270575840603369 
557	 0.273488099508396 
558	 0.276304075800983 
559	 0.27908454836914 
560	 0.281857631528933 
561	 0.284581969961388 
562	 0.287157852606997 
563	 0.2894977994012 
564	 0.291576222363521 
565	 0.293527581081063 
566	 0.295537648535481 
567	 0.297595538190483 
568	 0.299571519681239 
569	 0.301895456160045 
570	 0.304434155906348 
571	 0.30701014808568 
572	 0.30957569237983 
573	 0.31196940219084 
574	 0.314155915789856 
575	 0.316142564342302 
576	 0.317802630879941 
577	 0.319193498693751 
578	 0.320452774374092 
579	 0.321785293339516 
580	 0.323336174754107 
581	 0.325124881804257 
582	 0.32710021338142 
583	 0.329135356926298 
584	 0.331235257419126 
585	 0.333390977554404 
586	 0.335568333809622 
587	 0.337557311783758 
588	 0.339422633840267 
589	 0.34128227355064 
590	 0.343265952476157 
591	 0.345338274415213 
592	 0.347476189602176 
593	 0.349657973705733 
594	 0.351895597465702 
595	 0.354002159482009 
596	 0.355956444750616 
597	 0.35787946503517 
598	 0.359694734134695 
599	 0.361498863872034 
600	 0.363342725482749 
601	 0.365076654916457 
602	 0.366882167974666 
603	 0.368759884540083 
604	 0.370630716408744 
605	 0.372492329272951 
606	 0.374362916880047 
607	 0.376222125165404 
608	 0.377996251107995 
609	 0.379733379929629 
610	 0.381448846853221 
611	 0.383158842290426 
612	 0.384897686242385 
613	 0.386623129416972 
614	 0.388329230314593 
615	 0.390037149897687 
616	 0.391749336610932 
617	 0.393448079412088 
618	 0.395132618828706 
619	 0.396843383132984 
620	 0.398548974667991 
621	 0.400200985764999 
622	 0.401779104555209 
623	 0.403424763127066 
624	 0.40502522930795 
625	 0.406591187298743 
626	 0.40824783039352 
627	 0.409803107896388 
628	 0.411346266843877 
629	 0.412935464665267 
630	 0.414407654487493 
631	 0.415865175500316 
632	 0.417365118400992 
633	 0.418920064746645 
634	 0.420402642701308 
635	 0.42184676825981 
636	 0.423266787715358 
637	 0.424629937369317 
638	 0.425943259408049 
639	 0.427308080995363 
640	 0.428744478535897 
641	 0.429918723461956 
642	 0.431210979865729 
643	 0.432643782657293 
644	 0.434002997142126 
645	 0.435147553033667 
646	 0.436269271196888 
647	 0.437487492971833 
648	 0.438733615205565 
649	 0.439891785431033 
650	 0.441032887675032 
651	 0.442249237093931 
652	 0.443438142924646 
653	 0.444634474571086 
654	 0.445818029015249 
655	 0.446933241269828 
656	 0.448134881753624 
657	 0.449368541662195 
658	 0.450574357652801 
659	 0.451749965440455 
660	 0.453027053654601 
661	 0.454296371593524 
662	 0.455417739860319 
663	 0.45661647755544 
664	 0.45794110231532 
665	 0.45928812820259 
666	 0.460430922292991 
667	 0.461677100392304 
668	 0.462974730785341 
669	 0.464230978152231 
670	 0.465433007774041 
671	 0.466750554580018 
672	 0.46812558806269 
673	 0.469410994626185 
674	 0.47064398495151 
675	 0.471962428701567 
676	 0.473331981162318 
677	 0.474508074046146 
678	 0.475827956861651 
679	 0.47713666750479 
680	 0.478305054617455 
681	 0.479653098930517 
682	 0.480980889111019 
683	 0.482236375546404 
684	 0.483464837049152 
685	 0.484756378430622 
686	 0.486105404099285 
687	 0.487466022771709 
688	 0.488757357071904 
689	 0.489929398408118 
690	 0.491116373102232 
691	 0.492433017869915 
692	 0.493749290745677 
693	 0.495010417631293 
694	 0.496209732657854 
695	 0.497384425828689 
696	 0.498647871461377 
697	 0.499930036669983 
698	 0.501180104014489 
699	 0.502421723863505 
700	 0.503547907132488 
701	 0.50467066231231 
702	 0.505910623676592 
703	 0.50717467840506 
704	 0.50836526364178 
705	 0.509475424510186 
706	 0.510570021064272 
707	 0.51171016626342 
708	 0.512869264250532 
709	 0.514015551513494 
710	 0.515131812582709 
711	 0.516232002155057 
712	 0.517310522666263 
713	 0.51837365357974 
714	 0.519497500826085 
715	 0.520623958753399 
716	 0.521681704474814 
717	 0.522618412595076 
718	 0.523636854309752 
719	 0.524755808168153 
720	 0.525899230937246 
721	 0.526881966512474 
722	 0.527833127029844 
723	 0.528782819913358 
724	 0.529752054712955 
725	 0.530850778689261 
726	 0.53193746947244 
727	 0.532935648203241 
728	 0.533833305023605 
729	 0.534687438303899 
730	 0.5355799153899 
731	 0.536554820508767 
732	 0.537600293492516 
733	 0.538550292578812 
734	 0.539449096433178 
735	 0.54039517491073 
736	 0.541429567581664 
737	 0.542361643477802 
738	 0.54320677413599 
739	 0.544105627194018 
740	 0.54495952546591 
741	 0.545755840825673 
742	 0.546534667755767 
743	 0.547397730375291 
744	 0.548266889643551 
745	 0.549075222264922 
746	 0.549798489886537 
747	 0.550514977650548 
748	 0.551389887253876 
749	 0.552313461915324 
750	 0.553056277760598 
751	 0.553856248077682 
752	 0.554564990547766 
753	 0.555194829122238 
754	 0.556005525157583 
755	 0.556841411533187 
756	 0.55761965129018 
757	 0.558316036350676 
758	 0.559016053044837 
759	 0.559715756353774 
760	 0.560413208542328 
761	 0.561109120846425 
762	 0.561836752337818 
763	 0.562533476431855 
764	 0.563212532771447 
765	 0.563968567181103 
766	 0.564689735854687 
767	 0.565402192954321 
768	 0.566115628364631 
769	 0.566732481383006 
770	 0.567361709437603 
771	 0.568026097627115 
772	 0.568704456926613 
773	 0.569329992716639 
774	 0.570007079673425 
775	 0.570699282440478 
776	 0.571273146944586 
777	 0.571915705568443 
778	 0.57264293087762 
779	 0.573366213372835 
780	 0.573865886510964 
781	 0.57441490974453 
782	 0.575020452293244 
783	 0.575628704589191 
784	 0.576266308639459 
785	 0.576880417781872 
786	 0.577491127069049 
787	 0.578130212859243 
788	 0.578575475598571 
789	 0.579058166317646 
790	 0.579700744782181 
791	 0.58043443356435 
792	 0.580989969790179 
793	 0.581446657211862 
794	 0.581940187965112 
795	 0.582545465437554 
796	 0.583145171427529 
797	 0.583712782544126 
798	 0.5842523066319 
799	 0.584737470014483 
800	 0.585190925015726 
801	 0.585692416714026 
802	 0.58633531323391 
803	 0.586939879778415 
804	 0.587452747992514 
805	 0.587922179997591 
806	 0.588512521911538 
807	 0.589066021835477 
808	 0.589608564542673 
809	 0.590159547015712 
810	 0.590570532752135 
811	 0.59102260485218 
812	 0.591524105586835 
813	 0.592016307042266 
814	 0.59256241153642 
815	 0.59305973834588 
816	 0.593493760569381 
817	 0.593934886577005 
818	 0.594373876455453 
819	 0.594844320423449 
820	 0.595349070277037 
821	 0.595835075274648 
822	 0.596286573485632 
823	 0.596668652351205 
824	 0.597015928324186 
825	 0.597600338018438 
826	 0.598001426722715 
827	 0.598293307532852 
828	 0.598739845397841 
829	 0.599221961839104 
830	 0.599664081889397 
831	 0.600062272588411 
832	 0.600471259058257 
833	 0.600841842500929 
834	 0.601274483336833 
835	 0.60176808994381 
836	 0.602141077503071 
837	 0.602521706453283 
838	 0.60289583654468 
839	 0.603211998487614 
840	 0.603379698759668 
841	 0.603814642805993 
842	 0.604397275012758 
843	 0.604822889577505 
844	 0.605125476945263 
845	 0.605343129178524 
846	 0.60559508448452 
847	 0.606025183985691 
848	 0.606512426613466 
849	 0.606931400118839 
850	 0.607288962320903 
851	 0.607742540239042 
852	 0.608024531680857 
853	 0.608317626772845 
854	 0.608767700079416 
855	 0.609252568173966 
856	 0.609611874656764 
857	 0.609875522290781 
858	 0.610157171281239 
859	 0.610607658661544 
860	 0.610951902391864 
861	 0.611208703247981 
862	 0.611534702992262 
863	 0.611876643196425 
864	 0.612182918510967 
865	 0.612457932293855 
866	 0.612757087808286 
867	 0.613106019982319 
868	 0.613544325267389 
869	 0.613986832679514 
870	 0.614198607154342 
871	 0.614457539247203 
872	 0.614753321181613 
873	 0.615051292418312 
874	 0.615408447320296 
875	 0.615806853943678 
876	 0.616146275499621 
877	 0.616389396867588 
878	 0.616814744160953 
879	 0.617123745074718 
880	 0.617336219709948 
881	 0.61761034943 
882	 0.617910475675294 
883	 0.61813588244022 
884	 0.61830214710362 
885	 0.618516743816199 
886	 0.618801977301532 
887	 0.619212768011931 
888	 0.619634268882822 
889	 0.619788847975852 
890	 0.619909613926153 
891	 0.620092833293513 
892	 0.620364365536849 
893	 0.620674988167837 
894	 0.62091646043175 
895	 0.621219060143742 
896	 0.621630987568377 
897	 0.621828786726692 
898	 0.621966328653618 
899	 0.622164338925139 
900	 0.622485448395923 
901	 0.622818033394401 
902	 0.623116109553484 
903	 0.623340271581164 
904	 0.623496043321063 
905	 0.623752466649781 
906	 0.624102881329348 
907	 0.624448700258719 
908	 0.624670446666158 
909	 0.62494424680715 
910	 0.625235545392061 
911	 0.625517968586602 
912	 0.625794445829337 
913	 0.626046491566998 
914	 0.626312170063329 
915	 0.626599233249236 
916	 0.626865528634706 
917	 0.627167476382153 
918	 0.627423241624977 
919	 0.627615443285924 
920	 0.627888915091515 
921	 0.628278142555504 
922	 0.628613011712797 
923	 0.628792301143267 
924	 0.629023747020853 
925	 0.629316146512616 
926	 0.629583577343703 
927	 0.629773814398318 
928	 0.630072388917952 
929	 0.630335375531362 
930	 0.630695157396121 
931	 0.631245609942864 
932	 0.631423167186149 
933	 0.631594712673806 
934	 0.631930871083909 
935	 0.632413889819513 
936	 0.632775863639455 
937	 0.633193579225706 
938	 0.633564778499695 
939	 0.633669461415412 
940	 0.633950473693289 
941	 0.634258032157455 
942	 0.634520709419695 
943	 0.634785586981003 
944	 0.63510527365835 
945	 0.63538460408318 
946	 0.635590921962333 
947	 0.635775758666705 
948	 0.635921994057953 
949	 0.636141507877452 
950	 0.636426473111146 
951	 0.636608707625055 
952	 0.636704848371068 
953	 0.636789396026628 
954	 0.636944961692431 
955	 0.637231706808023 
956	 0.637513121043974 
957	 0.637678998963103 
958	 0.637720679060357 
959	 0.637780432826793 
960	 0.637893528230525 
961	 0.638173924423563 
962	 0.638584084092116 
963	 0.638789171762952 
964	 0.638859361932991 
965	 0.638944711214629 
966	 0.63914212747639 
967	 0.639366568055944 
968	 0.639618254960119 
969	 0.639900384557198 
970	 0.640194600713994 
971	 0.64042745403379 
972	 0.640615403233512 
973	 0.640782351955635 
974	 0.640944402113518 
975	 0.641068018751938 
976	 0.641393882288692 
977	 0.641731425645994 
978	 0.64187307828519 
979	 0.642011277638714 
980	 0.642205353655465 
981	 0.642381039501246 
982	 0.642483658215509 
983	 0.642691175326811 
984	 0.642896380529333 
985	 0.643117222975293 
986	 0.64339760405262 
987	 0.643723899545615 
988	 0.644031020254644 
989	 0.644240905300636 
990	 0.644350797342321 
991	 0.64459347663809 
992	 0.64480425951224 
993	 0.644965025085137 
994	 0.645140704760774 
995	 0.645466952487195 
996	 0.645871802492642 
997	 0.646201977827717 
998	 0.646373333515795 
999	 0.64660003126001 
1000	 0.646916210331599 
1001	 0.625681602834817 
1002	 0.625957807032471 
1003	 0.626238858191977 
1004	 0.626494197341161 
1005	 0.626734732807972 
1006	 0.626986861157381 
1007	 0.627222313828253 
1008	 0.627471203100013 
1009	 0.627708129547872 
1010	 0.627986912050912 
1011	 0.628318506141252 
1012	 0.628595096534832 
1013	 0.628885542113803 
1014	 0.629157081457841 
1015	 0.629410456475707 
1016	 0.62958848214817 
1017	 0.629809660976589 
1018	 0.630049735656272 
1019	 0.630301141406838 
1020	 0.630591108129772 
1021	 0.630856294791987 
1022	 0.631145203851458 
1023	 0.631404908929756 
1024	 0.631631709670007 
1025	 0.631874964692892 
1026	 0.632116794190589 
1027	 0.632374480267993 
1028	 0.632648980485062 
1029	 0.632900678878376 
1030	 0.633154621826039 
1031	 0.633418555847552 
1032	 0.633638072020207 
1033	 0.633869294540384 
1034	 0.634115448315044 
1035	 0.634306880382788 
1036	 0.634536121082907 
1037	 0.634785009617552 
1038	 0.635017538192674 
1039	 0.635262813664155 
1040	 0.635503738451269 
1041	 0.63571483375934 
1042	 0.635935669506558 
1043	 0.636172193637417 
1044	 0.636406671357247 
1045	 0.636592749330242 
1046	 0.636814528203887 
1047	 0.637030087588615 
1048	 0.637205889767863 
1049	 0.637377462401209 
1050	 0.637589150892498 
1051	 0.637818652821282 
1052	 0.638035033653331 
1053	 0.638265293799628 
1054	 0.638557142468118 
1055	 0.638770806059761 
1056	 0.638949259308056 
1057	 0.639109796991686 
1058	 0.639222284187648 
1059	 0.639349466656147 
1060	 0.639508494316164 
1061	 0.639669463120326 
1062	 0.639883769760019 
1063	 0.640066931489001 
1064	 0.640210552036969 
1065	 0.640399396979023 
1066	 0.640531858708859 
1067	 0.640641360196259 
1068	 0.640788943430373 
1069	 0.640928108550463 
1070	 0.641077881412128 
1071	 0.641252527578293 
1072	 0.641434648888481 
1073	 0.641587183620796 
1074	 0.641725512990577 
1075	 0.641833315684901 
1076	 0.641949810192678 
1077	 0.642116797592372 
1078	 0.642271261622903 
1079	 0.642440672987002 
1080	 0.642632696592794 
1081	 0.642777553285353 
1082	 0.642906841050994 
1083	 0.643054136019967 
1084	 0.643195536328535 
1085	 0.643334862126387 
1086	 0.643474082502632 
1087	 0.643613721900737 
1088	 0.643751455492951 
1089	 0.643901429123054 
1090	 0.644013539077871 
1091	 0.64411472516409 
1092	 0.644216933653117 
1093	 0.644300445864797 
1094	 0.644454233245319 
1095	 0.644610842002967 
1096	 0.644696850280981 
1097	 0.644772122152508 
1098	 0.644833343000053 
1099	 0.64489283573275 
1100	 0.645008588891841 
1101	 0.645144052242783 
1102	 0.64524702729002 
1103	 0.64533731052313 
1104	 0.645409799121419 
1105	 0.645472434147565 
1106	 0.645532398835 
1107	 0.645603832786546 
1108	 0.645676144015521 
1109	 0.645742314063798 
1110	 0.645806874896687 
1111	 0.645868691804865 
1112	 0.645928853414188 
1113	 0.645984934183811 
1114	 0.646033809218754 
1115	 0.646062381329927 
1116	 0.646087922233669 
1117	 0.646130023933971 
1118	 0.646159857189382 
1119	 0.64620097441961 
1120	 0.646219621435793 
1121	 0.646234452547787 
1122	 0.646203132911524 
1123	 0.646174831432716 
1124	 0.646146771830805 
1125	 0.646116160243226 
1126	 0.646102497691809 
1127	 0.646077466428064 
1128	 0.64604326769638 
1129	 0.645985151790274 
1130	 0.64591305350691 
1131	 0.645835887042438 
1132	 0.645734754731705 
1133	 0.645622443429584 
1134	 0.645500416428867 
1135	 0.645373335401675 
1136	 0.645239254308086 
1137	 0.645091312795407 
1138	 0.644960719918359 
1139	 0.644774449261055 
1140	 0.644556535278265 
1141	 0.644314998535472 
1142	 0.644050955983761 
1143	 0.643751846185618 
1144	 0.643429323826564 
1145	 0.64309288235651 
1146	 0.642726712348373 
1147	 0.642316140218818 
1148	 0.641895073997074 
1149	 0.641474577633587 
1150	 0.641033150858592 
1151	 0.640589704572398 
1152	 0.64011324368858 
1153	 0.639618076505386 
1154	 0.63909559735093 
1155	 0.63854824321735 
1156	 0.637968162937444 
1157	 0.637364949093327 
1158	 0.636748379044363 
1159	 0.636091402323424 
1160	 0.635439751854426 
1161	 0.634784603340649 
1162	 0.634077667872922 
1163	 0.633396407667536 
1164	 0.632697718408567 
1165	 0.631999079817843 
1166	 0.631352022129113 
1167	 0.630682279737489 
1168	 0.630018829695976 
1169	 0.629363742746051 
1170	 0.628706570637177 
1171	 0.628064376709419 
1172	 0.627435833784769 
1173	 0.626804957114452 
1174	 0.626179850129327 
1175	 0.625575332578025 
1176	 0.624968882026531 
1177	 0.624391479828442 
1178	 0.623849967481064 
1179	 0.623285509252488 
1180	 0.622766259009857 
1181	 0.622241250579372 
1182	 0.621724717112829 
1183	 0.621271251868233 
1184	 0.62081753001434 
1185	 0.620409246942904 
1186	 0.620019424897161 
1187	 0.619656630618221 
1188	 0.619311035131882 
1189	 0.618978233418354 
1190	 0.618688703636994 
1191	 0.618437346984275 
1192	 0.618204637980861 
1193	 0.618023680920797 
1194	 0.617823710076621 
1195	 0.617629060462319 
1196	 0.617441389252679 
1197	 0.617261149633459 
1198	 0.617070510692364 
1199	 0.616889502928487 
1200	 0.616722346524658 
1201	 0.616569536522319 
1202	 0.616454835655243 
1203	 0.616366998185883 
1204	 0.616322327720465 
1205	 0.61634992197843 
1206	 0.616405329696821 
1207	 0.616566309235347 
1208	 0.616789996085806 
1209	 0.617132562674687 
1210	 0.617576916658097 
1211	 0.618090123311878 
1212	 0.618721375740888 
1213	 0.6193938518943 
1214	 0.620127287543023 
1215	 0.62092924340042 
1216	 0.621834308794729 
1217	 0.62273629163896 
1218	 0.623704648815885 
1219	 0.624672996631755 
1220	 0.625608382492932 
1221	 0.626610944956668 
1222	 0.627562175890094 
1223	 0.628486751082018 
1224	 0.629410841684209 
1225	 0.630333374807114 
1226	 0.631192524877417 
1227	 0.632041623580386 
1228	 0.632835622044058 
1229	 0.633577299771282 
1230	 0.6342830588157 
1231	 0.634932610035219 
1232	 0.635587101215451 
1233	 0.636212127429297 
1234	 0.636803625841245 
1235	 0.637383914343416 
1236	 0.637940288823059 
1237	 0.638432167580229 
1238	 0.638946398277546 
1239	 0.639469479508189 
1240	 0.639978750864633 
1241	 0.640489463876517 
1242	 0.64095597373369 
1243	 0.641405435467161 
1244	 0.641822542683385 
1245	 0.642247557873426 
1246	 0.64267548133505 
1247	 0.643047125807541 
1248	 0.643398000112671 
1249	 0.643727511853155 
1250	 0.644001188569597 
1251	 0.644282238546193 
1252	 0.644560805072937 
1253	 0.644825416330667 
1254	 0.645082622214001 
1255	 0.645310268551796 
1256	 0.6455225298625 
1257	 0.645720948079221 
1258	 0.645885255280372 
1259	 0.646043796426625 
1260	 0.64619462487946 
1261	 0.646336181711304 
1262	 0.646449364167456 
1263	 0.646573967375055 
1264	 0.646702840035286 
1265	 0.646824901393614 
1266	 0.646974028643311 
1267	 0.647149075224157 
1268	 0.647296159469304 
1269	 0.647448337241934 
1270	 0.647593385759166 
1271	 0.647725176553078 
1272	 0.647849982684075 
1273	 0.647969005096946 
1274	 0.648095186422259 
1275	 0.648202516079884 
1276	 0.648327790130491 
1277	 0.648490911432281 
1278	 0.648616817577247 
1279	 0.648731673329452 
1280	 0.648834702000973 
1281	 0.648900088094615 
1282	 0.648985898734455 
1283	 0.649075453013566 
1284	 0.64916426854676 
1285	 0.6492561193306 
1286	 0.649362093082679 
1287	 0.649443695023107 
1288	 0.649517406214024 
1289	 0.649582356884656 
1290	 0.649635835050664 
1291	 0.649685371853992 
1292	 0.649733581254222 
1293	 0.649762248679123 
1294	 0.649774354586327 
1295	 0.649788390530637 
1296	 0.649782298835232 
1297	 0.649792808708278 
1298	 0.649825007962648 
1299	 0.64982694485197 
1300	 0.649823402265608 
1301	 0.649807821232089 
1302	 0.649767584469188 
1303	 0.649729014472746 
1304	 0.649696917364699 
1305	 0.649644034487592 
1306	 0.649583190547643 
1307	 0.649504170649816 
1308	 0.649408478243532 
1309	 0.649295004033096 
1310	 0.649180053200114 
1311	 0.649049928122836 
1312	 0.648924369679637 
1313	 0.64879732650574 
1314	 0.648663445887118 
1315	 0.648541208153234 
1316	 0.648372420706828 
1317	 0.648185925765117 
1318	 0.647979242934348 
1319	 0.647727103585767 
1320	 0.647495887873713 
1321	 0.647265892248453 
1322	 0.647025253662215 
1323	 0.646791109318334 
1324	 0.646531768903881 
1325	 0.646256886550243 
1326	 0.645970164384767 
1327	 0.645677363851216 
1328	 0.645356717513658 
1329	 0.645017211358231 
1330	 0.644663361883936 
1331	 0.644286625436408 
1332	 0.643896287264089 
1333	 0.643509865232923 
1334	 0.643082240221154 
1335	 0.642631836373553 
1336	 0.642151173161885 
1337	 0.641670516493015 
1338	 0.641170291504205 
1339	 0.640655481970319 
1340	 0.640150128345264 
1341	 0.63958359624724 
1342	 0.638978033921764 
1343	 0.638353487163303 
1344	 0.637704080910144 
1345	 0.637011683736243 
1346	 0.636291660573553 
1347	 0.635539953070739 
1348	 0.634745222079923 
1349	 0.633928219114822 
1350	 0.633082718411511 
1351	 0.632214974987947 
1352	 0.631315464336511 
1353	 0.630394848327689 
1354	 0.629419970009276 
1355	 0.62848672808051 
1356	 0.627541980949716 
1357	 0.626616389172211 
1358	 0.625717455867491 
1359	 0.624826041993464 
1360	 0.623948113058776 
1361	 0.623060311049504 
1362	 0.622191415234063 
1363	 0.621375261982041 
1364	 0.620531565298212 
1365	 0.619707784921113 
1366	 0.618843263229966 
1367	 0.617973789668586 
1368	 0.617063452521519 
1369	 0.616147477275601 
1370	 0.61514603507514 
1371	 0.614118340432226 
1372	 0.613004201411967 
1373	 0.611822347039359 
1374	 0.610564846710048 
1375	 0.609234805662181 
1376	 0.607833409187808 
1377	 0.606346555105911 
1378	 0.604800274637814 
1379	 0.603146207292074 
1380	 0.601513034546235 
1381	 0.599790810373053 
1382	 0.59813715078157 
1383	 0.5965093151467 
1384	 0.594888409683337 
1385	 0.593334419173456 
1386	 0.591724968147476 
1387	 0.590106901686017 
1388	 0.588479083839138 
1389	 0.586844983821788 
1390	 0.585158562986389 
1391	 0.583476419065892 
1392	 0.581688346631555 
1393	 0.579937912568418 
1394	 0.578112255792292 
1395	 0.576263317238848 
1396	 0.574413690080613 
1397	 0.572499254114937 
1398	 0.570542740389388 
1399	 0.568497959245961 
1400	 0.566397827890305 
1401	 0.564238817834496 
1402	 0.561987000642142 
1403	 0.559705300079247 
1404	 0.557372262631829 
1405	 0.555044307197407 
1406	 0.552652176281754 
1407	 0.550287496100458 
1408	 0.547895019163654 
1409	 0.545566398977756 
1410	 0.543242855940979 
1411	 0.540962275884616 
1412	 0.538719891613302 
1413	 0.536550222757566 
1414	 0.534406111549305 
1415	 0.532330227608088 
1416	 0.530309241596084 
1417	 0.528364673641961 
1418	 0.526464198638738 
1419	 0.524647277313135 
1420	 0.522915551156832 
1421	 0.521271630615605 
1422	 0.519711483677077 
1423	 0.518208150356444 
1424	 0.516824209182265 
1425	 0.515420288666518 
1426	 0.514135087613676 
1427	 0.512870080579488 
1428	 0.51160396756659 
1429	 0.510433824540954 
1430	 0.509190777349468 
1431	 0.507957806174163 
1432	 0.506629646742165 
1433	 0.505262756182167 
1434	 0.503844726272102 
1435	 0.502347895191762 
1436	 0.500835958765923 
1437	 0.499266069238997 
1438	 0.497757836643602 
1439	 0.496156788598655 
1440	 0.494757576612895 
1441	 0.493363452149794 
1442	 0.492250136089138 
1443	 0.491228589563037 
1444	 0.490550553990868 
1445	 0.490096436145214 
1446	 0.489964732736357 
1447	 0.490134586477623 
1448	 0.49055792269356 
1449	 0.491362008944661 
1450	 0.492245271884126 
1451	 0.493434903416706 
1452	 0.494611702602194 
1453	 0.495984992515288 
1454	 0.497248331021431 
1455	 0.498574797775606 
1456	 0.499795516947156 
1457	 0.500961281760701 
1458	 0.502054394985369 
1459	 0.503085991558134 
1460	 0.504045580378917 
1461	 0.504904866107486 
1462	 0.505730215880162 
1463	 0.506481565511937 
1464	 0.507214029312834 
1465	 0.507883991448061 
1466	 0.508578978135707 
1467	 0.509215411826206 
1468	 0.509830056491592 
1469	 0.51045860551351 
1470	 0.51102710315905 
1471	 0.511609612925218 
1472	 0.512193269866524 
1473	 0.512742604576034 
1474	 0.513290941228506 
1475	 0.513763194456869 
1476	 0.514207094056025 
1477	 0.514577434310521 
1478	 0.514883384229938 
1479	 0.515133655079385 
1480	 0.515338200338304 
1481	 0.51546089778052 
1482	 0.515493025964788 
1483	 0.51551373929083 
1484	 0.515449488008822 
1485	 0.515418851244345 
1486	 0.515331998666152 
1487	 0.515349611643549 
1488	 0.515349925164692 
1489	 0.515498795310572 
1490	 0.51573683362697 
1491	 0.51607705303999 
1492	 0.516506339715227 
1493	 0.517061064840846 
1494	 0.517746597468494 
1495	 0.518491045090654 
1496	 0.519374017693526 
1497	 0.520268627625262 
1498	 0.521241214450508 
1499	 0.522216191741854 
1500	 0.523264425235613 
1501	 0.524265091870936 
1502	 0.525282580628284 
1503	 0.526244754884991 
1504	 0.527183458461029 
1505	 0.528073712335751 
1506	 0.528932981604162 
1507	 0.529737079654868 
1508	 0.530497368443382 
1509	 0.531200498257543 
1510	 0.531839865375401 
1511	 0.532438198515037 
1512	 0.532982024937892 
1513	 0.533487346043102 
1514	 0.533948728913644 
1515	 0.53437137431138 
1516	 0.534730858445355 
1517	 0.535083663350889 
1518	 0.535402374674977 
1519	 0.535705121320755 
1520	 0.535999710740029 
1521	 0.536269642225968 
1522	 0.536497695033577 
1523	 0.536719734138606 
1524	 0.536897907297067 
1525	 0.537032460500191 
1526	 0.537185206046276 
1527	 0.537316759055989 
1528	 0.537448737871797 
1529	 0.537590605809343 
1530	 0.537701582479647 
1531	 0.537773113634915 
1532	 0.537897221079256 
1533	 0.53801267830708 
1534	 0.53818682436881 
1535	 0.538398528111273 
1536	 0.538641442091903 
1537	 0.538905447761146 
1538	 0.539237282623504 
1539	 0.539610125147016 
1540	 0.540044148843701 
1541	 0.540539757692569 
1542	 0.541082215475146 
1543	 0.541680022492555 
1544	 0.542315391869368 
1545	 0.543007416078572 
1546	 0.543725655145084 
1547	 0.544496427080409 
1548	 0.545265666278968 
1549	 0.54607591764747 
1550	 0.546867176189103 
1551	 0.547667435492844 
1552	 0.548450871558071 
1553	 0.549225067236406 
1554	 0.550004071141021 
1555	 0.550795704369352 
1556	 0.551542184446983 
1557	 0.552282024249244 
1558	 0.552990284948572 
1559	 0.553646719383578 
1560	 0.554312598157897 
1561	 0.554980438365242 
1562	 0.555616919862279 
1563	 0.556243597837459 
1564	 0.556831724853839 
1565	 0.557386987302334 
1566	 0.557923381156125 
1567	 0.55841459022193 
1568	 0.558919795637451 
1569	 0.55939710327521 
1570	 0.559906867780851 
1571	 0.560452464026354 
1572	 0.56095651486599 
1573	 0.561459040806326 
1574	 0.561948192324804 
1575	 0.562393038621848 
1576	 0.562864198573404 
1577	 0.563360616500338 
1578	 0.563829663499083 
1579	 0.564285647521285 
1580	 0.564743541375812 
1581	 0.565186627704183 
1582	 0.565633660455645 
1583	 0.566084825502779 
1584	 0.566535544662682 
1585	 0.566979954051977 
1586	 0.56743019794073 
1587	 0.567886553450815 
1588	 0.568340207859586 
1589	 0.568786380203992 
1590	 0.569247802775851 
1591	 0.569724448705372 
1592	 0.570190225692461 
1593	 0.570655172487914 
1594	 0.5711285021169 
1595	 0.571590939816801 
1596	 0.572068624280848 
1597	 0.572575980524544 
1598	 0.573061857947461 
1599	 0.573546987593777 
1600	 0.57402323096055 
1601	 0.574479702285236 
1602	 0.574946418187274 
1603	 0.575414429005965 
1604	 0.575878301984174 
1605	 0.576354460318364 
1606	 0.576809265506044 
1607	 0.577263182490784 
1608	 0.577689442555242 
1609	 0.578089072298583 
1610	 0.578482457593882 
1611	 0.57885818288714 
1612	 0.579217836492182 
1613	 0.579560154818673 
1614	 0.579898437186754 
1615	 0.580229797711856 
1616	 0.580542133531546 
1617	 0.580843615786747 
1618	 0.581136264144052 
1619	 0.58140266541849 
1620	 0.581666860006059 
1621	 0.581938093665778 
1622	 0.582185315858724 
1623	 0.582417817508304 
1624	 0.582634912800216 
1625	 0.582830698536421 
1626	 0.583015975515346 
1627	 0.58318445739678 
1628	 0.583345831333822 
1629	 0.58348214179088 
1630	 0.583635025840758 
1631	 0.583796065892836 
1632	 0.58394646162528 
1633	 0.584107908821188 
1634	 0.584251180326 
1635	 0.584398599527264 
1636	 0.58449879470834 
1637	 0.584571935131815 
1638	 0.584622894681142 
1639	 0.584629142477935 
1640	 0.584624221085064 
1641	 0.584602445192451 
1642	 0.584569059665047 
1643	 0.584515672463529 
1644	 0.584445314938714 
1645	 0.584370858543816 
1646	 0.584267486521692 
1647	 0.584122728043389 
1648	 0.583984797404916 
1649	 0.583849664686203 
1650	 0.583674977725752 
1651	 0.583494047154147 
1652	 0.583278337934065 
1653	 0.583029096223393 
1654	 0.582741779775712 
1655	 0.582422430910775 
1656	 0.582070848187247 
1657	 0.581682043432719 
1658	 0.581253376538198 
1659	 0.580792395520886 
1660	 0.580298689280471 
1661	 0.579761056789554 
1662	 0.579194629654145 
1663	 0.578600064323543 
1664	 0.577960257809933 
1665	 0.577310894051057 
1666	 0.576554932834717 
1667	 0.575744249234472 
1668	 0.574857443762864 
1669	 0.573871825828918 
1670	 0.572832974831997 
1671	 0.571727109914152 
1672	 0.570556740980887 
1673	 0.569324196967081 
1674	 0.568012047909147 
1675	 0.566629093934342 
1676	 0.565204071044542 
1677	 0.563717005845883 
1678	 0.562148355690242 
1679	 0.560507847895891 
1680	 0.558805898280248 
1681	 0.557032365406229 
1682	 0.555169305464489 
1683	 0.553240981690209 
1684	 0.55126683085734 
1685	 0.549192243364225 
1686	 0.547092015990558 
1687	 0.544926235953084 
1688	 0.542745477539592 
1689	 0.540507920958671 
1690	 0.538258437402101 
1691	 0.536008767957544 
1692	 0.533774943216514 
1693	 0.531533080952127 
1694	 0.529249773321468 
1695	 0.526964046850214 
1696	 0.52460314556493 
1697	 0.52218672917352 
1698	 0.519707466075475 
1699	 0.517168880060054 
1700	 0.514681791253678 
1701	 0.512122004253175 
1702	 0.509669980655171 
1703	 0.507247113984357 
1704	 0.504905397670422 
1705	 0.502595455009887 
1706	 0.500353972803568 
1707	 0.498332852466104 
1708	 0.496335392562454 
1709	 0.494427762350595 
1710	 0.492608664106472 
1711	 0.490721935369038 
1712	 0.488949954491405 
1713	 0.487172784228717 
1714	 0.485369500279618 
1715	 0.483735663468046 
1716	 0.482030808182364 
1717	 0.480340201888095 
1718	 0.478726093522611 
1719	 0.477071321274033 
1720	 0.475567671419306 
1721	 0.474142754134486 
1722	 0.472789011372591 
1723	 0.471666209718215 
1724	 0.470669966415951 
1725	 0.469875105191319 
1726	 0.469348063195704 
1727	 0.468989936273345 
1728	 0.468840849156172 
1729	 0.468970781986142 
1730	 0.4693630924966 
1731	 0.469914903929046 
1732	 0.470684208695455 
1733	 0.471489415808936 
1734	 0.472319545076277 
1735	 0.473252572803838 
1736	 0.474095960183596 
1737	 0.47486676248977 
1738	 0.475558942240638 
1739	 0.476047103060275 
1740	 0.476369987706701 
1741	 0.476579093867393 
1742	 0.476593940924408 
1743	 0.47656507684409 
1744	 0.476413311949226 
1745	 0.476240352844555 
1746	 0.475966314238814 
1747	 0.475736606482356 
1748	 0.475460472149972 
1749	 0.475243056102501 
1750	 0.475034804875228 
1751	 0.474904221746388 
1752	 0.474793796870287 
1753	 0.474809251838895 
1754	 0.474894195545721 
1755	 0.475107443438181 
1756	 0.475428951569363 
1757	 0.475857115207583 
1758	 0.476425531380788 
1759	 0.477109494977245 
1760	 0.47794330067627 
1761	 0.478932824481863 
1762	 0.480017429643168 
1763	 0.481243683283229 
1764	 0.482530889880274 
1765	 0.483906292741579 
1766	 0.485419541113023 
1767	 0.486900867144187 
1768	 0.488437934526233 
1769	 0.489977599650531 
1770	 0.491350701924384 
1771	 0.492708145529417 
1772	 0.494005592138788 
1773	 0.495210426877022 
1774	 0.496435569483122 
1775	 0.497583398699289 
1776	 0.498674083809582 
1777	 0.4996887621305 
1778	 0.500589263391417 
1779	 0.501487001253701 
1780	 0.502320508755498 
1781	 0.503107270768999 
1782	 0.503909103703257 
1783	 0.504615288906313 
1784	 0.505316690150467 
1785	 0.505998495767198 
1786	 0.506658496614895 
1787	 0.507333799194616 
1788	 0.507949174205335 
1789	 0.508532810817448 
1790	 0.509076548836573 
1791	 0.509555558942799 
1792	 0.510057282392784 
1793	 0.51051546134385 
1794	 0.511014508845625 
1795	 0.511524132715262 
1796	 0.512008663271256 
1797	 0.512498354323975 
1798	 0.512962439067503 
1799	 0.513427453208526 
1800	 0.513880853649202 
1801	 0.524327145688107 
1802	 0.525454941146004 
1803	 0.526441187444526 
1804	 0.527314479017933 
1805	 0.528166060880777 
1806	 0.52890524908538 
1807	 0.529542647259611 
1808	 0.530145235322877 
1809	 0.530651309830232 
1810	 0.531149526518551 
1811	 0.531588353549351 
1812	 0.532022593305741 
1813	 0.532410688081057 
1814	 0.532829926281515 
1815	 0.533208659327702 
1816	 0.533597150666472 
1817	 0.533989083930485 
1818	 0.534365886563225 
1819	 0.534759636478499 
1820	 0.535162272461696 
1821	 0.535571449587864 
1822	 0.535974468191712 
1823	 0.536432093550759 
1824	 0.536848908231853 
1825	 0.537274867547558 
1826	 0.537698703287618 
1827	 0.538129214644747 
1828	 0.538514304245434 
1829	 0.538891369367621 
1830	 0.539251010914339 
1831	 0.539571796179113 
1832	 0.539904588046015 
1833	 0.540208274198998 
1834	 0.540524663622285 
1835	 0.540829698029398 
1836	 0.541079655362516 
1837	 0.541374480458145 
1838	 0.541671494428871 
1839	 0.541994741847426 
1840	 0.54235485674995 
1841	 0.54270308853941 
1842	 0.54307368774501 
1843	 0.543432814851206 
1844	 0.543761773037422 
1845	 0.544033707170478 
1846	 0.544282532887628 
1847	 0.54448273715205 
1848	 0.544630911653398 
1849	 0.544765404532986 
1850	 0.544798566730618 
1851	 0.544765697510846 
1852	 0.544662377076338 
1853	 0.544485412694224 
1854	 0.544236060693036 
1855	 0.543911744963805 
1856	 0.543531338208013 
1857	 0.543056879695052 
1858	 0.542481875192946 
1859	 0.541840954683865 
1860	 0.541136460865171 
1861	 0.540305446120164 
1862	 0.539388811812708 
1863	 0.538401822469693 
1864	 0.537218470167064 
1865	 0.53595894423045 
1866	 0.534529338251552 
1867	 0.532913175859039 
1868	 0.531258033567177 
1869	 0.529485518753348 
1870	 0.527689751949662 
1871	 0.525845041803994 
1872	 0.523998777391589 
1873	 0.522114526478952 
1874	 0.520226712249778 
1875	 0.518354444952568 
1876	 0.516263306826407 
1877	 0.514169276230895 
1878	 0.511906158828586 
1879	 0.509379948587466 
1880	 0.506895686280254 
1881	 0.504179300961201 
1882	 0.501246332441626 
1883	 0.498215360183156 
1884	 0.495036032488489 
1885	 0.491488039234636 
1886	 0.487938264579382 
1887	 0.484131996237448 
1888	 0.480105757635169 
1889	 0.476269297589509 
1890	 0.472185818712931 
1891	 0.468070061130041 
1892	 0.464000735702772 
1893	 0.459705088224866 
1894	 0.455167369044333 
1895	 0.450731190945766 
1896	 0.446171018674561 
1897	 0.441483037860399 
1898	 0.437146662919447 
1899	 0.432683729639172 
1900	 0.428292451224645 
1901	 0.424074847439118 
1902	 0.419625509057467 
1903	 0.415432637673891 
1904	 0.411336427065289 
1905	 0.407286189867535 
1906	 0.403340628391655 
1907	 0.399852858534247 
1908	 0.39632536893067 
1909	 0.392946720465303 
1910	 0.389799272110746 
1911	 0.386517606796839 
1912	 0.383444882979577 
1913	 0.380479792398457 
1914	 0.377534050740992 
1915	 0.374804556969377 
1916	 0.37230061272205 
1917	 0.369778867109122 
1918	 0.367383926989808 
1919	 0.365128434004479 
1920	 0.362771190555376 
1921	 0.360593863570054 
1922	 0.358477380872992 
1923	 0.356412696379777 
1924	 0.354597830059523 
1925	 0.352786864431301 
1926	 0.351068020929837 
1927	 0.349478415636338 
1928	 0.347910382147028 
1929	 0.346349730157549 
1930	 0.344959714011239 
1931	 0.343641487975422 
1932	 0.342386837333607 
1933	 0.341350273914847 
1934	 0.340383243602477 
1935	 0.339514437657378 
1936	 0.338846279167443 
1937	 0.338296535391615 
1938	 0.33787030676099 
1939	 0.337590523828034 
1940	 0.337462039059396 
1941	 0.337462116541551 
1942	 0.337574161141238 
1943	 0.337808327162825 
1944	 0.338128127620668 
1945	 0.338525972832489 
1946	 0.339063670281437 
1947	 0.339659496488723 
1948	 0.340411675974132 
1949	 0.341323511255059 
1950	 0.342298771536344 
1951	 0.343376255742093 
1952	 0.344579896114102 
1953	 0.345884912250458 
1954	 0.347290994725612 
1955	 0.34886026551215 
1956	 0.350419156299582 
1957	 0.352024873665681 
1958	 0.35362536519729 
1959	 0.355073451707167 
1960	 0.35648580599458 
1961	 0.357768954997713 
1962	 0.358904623812643 
1963	 0.35999540652887 
1964	 0.361001286308646 
1965	 0.361920757360812 
1966	 0.362751748829188 
1967	 0.363550226495352 
1968	 0.364224565346798 
1969	 0.364923770856137 
1970	 0.365610018161375 
1971	 0.366274850381715 
1972	 0.367013737123869 
1973	 0.367749226387735 
1974	 0.368522369801785 
1975	 0.369344953516934 
1976	 0.370177540006444 
1977	 0.371006253755378 
1978	 0.371903803150342 
1979	 0.372837464528496 
1980	 0.373800063808653 
1981	 0.374863029645984 
1982	 0.375912557265689 
1983	 0.377031494557486 
1984	 0.378189237964091 
1985	 0.379291242886709 
1986	 0.380517330407106 
1987	 0.381801596160982 
1988	 0.383073245769447 
1989	 0.3845266563825 
1990	 0.386139331103341 
1991	 0.387765062440535 
1992	 0.389474911843439 
1993	 0.391318416691475 
1994	 0.39308208362661 
1995	 0.394971270062179 
1996	 0.396887807357802 
1997	 0.398802566773093 
1998	 0.400765402926276 
1999	 0.402807174422267 
2000	 0.404751401727502 
2001	 0.406776113787597 
2002	 0.408611516067057 
2003	 0.410345902663677 
2004	 0.412022938215482 
2005	 0.413552555080105 
2006	 0.415080516202697 
2007	 0.416612747847905 
2008	 0.418014489555723 
2009	 0.419343425145543 
2010	 0.420625071051469 
2011	 0.421736429118389 
2012	 0.422800312766093 
2013	 0.423805841806025 
2014	 0.424734469756834 
2015	 0.425615730745239 
2016	 0.426455638766838 
2017	 0.427200149758289 
2018	 0.427891397644173 
2019	 0.428485871649614 
2020	 0.4289655922097 
2021	 0.429408015150593 
2022	 0.42978558375336 
2023	 0.430068937500048 
2024	 0.430324536797672 
2025	 0.430519988450437 
2026	 0.430641880385231 
2027	 0.430696430010842 
2028	 0.430695926783409 
2029	 0.430604808437299 
2030	 0.430495622210957 
2031	 0.430344076454468 
2032	 0.430145782611853 
2033	 0.429882642878671 
2034	 0.429614896609633 
2035	 0.429308841966758 
2036	 0.428965238052979 
2037	 0.428641169091272 
2038	 0.428319976517932 
2039	 0.428000329179061 
2040	 0.427689490902406 
2041	 0.427360557326393 
2042	 0.427022122887397 
2043	 0.426693275456515 
2044	 0.426338123607249 
2045	 0.42601868703775 
2046	 0.42571301891558 
2047	 0.425425756486784 
2048	 0.425157661379419 
2049	 0.424911022656836 
2050	 0.424674004374195 
2051	 0.424472539610253 
2052	 0.424302995404023 
2053	 0.424140488515865 
2054	 0.424020900655597 
2055	 0.423924131281752 
2056	 0.423884170176405 
2057	 0.423877143858501 
2058	 0.423928479607447 
2059	 0.424034011095041 
2060	 0.424186966180453 
2061	 0.424397730381902 
2062	 0.424638595087016 
2063	 0.424955266761156 
2064	 0.425262604762951 
2065	 0.425578246527969 
2066	 0.425935870926931 
2067	 0.426320932746725 
2068	 0.426682696141631 
2069	 0.427065550902798 
2070	 0.427492960895217 
2071	 0.42786333313789 
2072	 0.428226201350745 
2073	 0.428557519874822 
2074	 0.428851712467704 
2075	 0.429144496684729 
2076	 0.429421020048584 
2077	 0.429680405810206 
2078	 0.429951696237227 
2079	 0.430165209979343 
2080	 0.430337470741953 
2081	 0.430487682842757 
2082	 0.430600998743357 
2083	 0.430688784846879 
2084	 0.43074717269057 
2085	 0.430770071577034 
2086	 0.430746367192347 
2087	 0.430664266164099 
2088	 0.430572820672144 
2089	 0.430437066432455 
2090	 0.430304381224594 
2091	 0.430170659599401 
2092	 0.429992642662126 
2093	 0.429787948010288 
2094	 0.429561306961355 
2095	 0.429279250629437 
2096	 0.429007192556804 
2097	 0.428730944807044 
2098	 0.428447106668118 
2099	 0.428141396706383 
2100	 0.427822629971864 
2101	 0.4274473757975 
2102	 0.427023913441974 
2103	 0.426600141088522 
2104	 0.426135176061899 
2105	 0.425672516331206 
2106	 0.425209890738762 
2107	 0.424719529457756 
2108	 0.424213283279467 
2109	 0.423676243674111 
2110	 0.423121424550685 
2111	 0.422538723969193 
2112	 0.421896477670721 
2113	 0.421279683773114 
2114	 0.420673172081982 
2115	 0.420029398151638 
2116	 0.419369383821769 
2117	 0.418719027746722 
2118	 0.418028946813548 
2119	 0.417297852270347 
2120	 0.416573737339936 
2121	 0.415838821726141 
2122	 0.415094493375113 
2123	 0.414329559905504 
2124	 0.413565109405773 
2125	 0.412814078414127 
2126	 0.412020781011461 
2127	 0.411189001292673 
2128	 0.410383853478698 
2129	 0.409554765621793 
2130	 0.408737776305746 
2131	 0.407978214047949 
2132	 0.407155182092929 
2133	 0.406291921694358 
2134	 0.405436100047698 
2135	 0.404521095320429 
2136	 0.403603960564723 
2137	 0.402685355260061 
2138	 0.401743207183142 
2139	 0.400832711405557 
2140	 0.399938603270905 
2141	 0.399025113613279 
2142	 0.398133960483733 
2143	 0.397204487983394 
2144	 0.396222777313372 
2145	 0.395292741656803 
2146	 0.394339717770311 
2147	 0.39344938915922 
2148	 0.392628711717585 
2149	 0.391784932325865 
2150	 0.390983958458717 
2151	 0.390154254089203 
2152	 0.389282141576719 
2153	 0.388448956222168 
2154	 0.3876363579831 
2155	 0.386804320416356 
2156	 0.386024351198845 
2157	 0.385284199194978 
2158	 0.384545129168908 
2159	 0.383849133205759 
2160	 0.383103833906275 
2161	 0.3823285676973 
2162	 0.381608440280169 
2163	 0.380861575584507 
2164	 0.380181253983137 
2165	 0.379579115741716 
2166	 0.378962332096167 
2167	 0.378347062568405 
2168	 0.377776316935394 
2169	 0.377226926187068 
2170	 0.376711376351971 
2171	 0.376226946607539 
2172	 0.375780260425984 
2173	 0.375375629579706 
2174	 0.37498879749499 
2175	 0.374640394502 
2176	 0.374315678800555 
2177	 0.37399032605796 
2178	 0.373669141500243 
2179	 0.373385505901291 
2180	 0.373122042053845 
2181	 0.372870983037486 
2182	 0.372658563239143 
2183	 0.372431241114546 
2184	 0.372207723558101 
2185	 0.371985302235527 
2186	 0.371755221998434 
2187	 0.371550505200762 
2188	 0.371361798913278 
2189	 0.371175568909472 
2190	 0.371023576253715 
2191	 0.370840133996108 
2192	 0.370650329165857 
2193	 0.370440961865851 
2194	 0.370207131446786 
2195	 0.369973130394329 
2196	 0.369721332053872 
2197	 0.369466655936349 
2198	 0.36922894960698 
2199	 0.369017650695352 
2200	 0.368786596534216 
2201	 0.368574891447674 
2202	 0.368318505216921 
2203	 0.368029909055774 
2204	 0.367757124886958 
2205	 0.367463508694938 
2206	 0.367194130288299 
2207	 0.366933876260445 
2208	 0.366681322873519 
2209	 0.366432253283485 
2210	 0.366200500652445 
2211	 0.365972148608414 
2212	 0.365779219341053 
2213	 0.365583465026861 
2214	 0.365457233927764 
2215	 0.365404673931981 
2216	 0.365336614512467 
2217	 0.365308465063152 
2218	 0.365283277185687 
2219	 0.365242414727108 
2220	 0.365238194006288 
2221	 0.365249837406335 
2222	 0.365323272143391 
2223	 0.365402004557155 
2224	 0.36542607367296 
2225	 0.365433368844536 
2226	 0.365367888187437 
2227	 0.365222168315887 
2228	 0.365006683220213 
2229	 0.364725063069657 
2230	 0.364372385629371 
2231	 0.363934081187491 
2232	 0.363438726821925 
2233	 0.362826367998523 
2234	 0.362115914310426 
2235	 0.361307642623006 
2236	 0.360384365289416 
2237	 0.359395764319609 
2238	 0.358293756513 
2239	 0.357149902541647 
2240	 0.355951341006832 
2241	 0.354652905949425 
2242	 0.353308940206137 
2243	 0.351828900811227 
2244	 0.350196517775751 
2245	 0.348537704474527 
2246	 0.346707173572231 
2247	 0.344933828399258 
2248	 0.343185923046529 
2249	 0.341366705370791 
2250	 0.339505963989828 
2251	 0.337691954179044 
2252	 0.335686034168346 
2253	 0.333676186641578 
2254	 0.331657528783249 
2255	 0.32956402329443 
2256	 0.3276170326718 
2257	 0.325680127934562 
2258	 0.323773979538659 
2259	 0.32198007439041 
2260	 0.320032041087646 
2261	 0.31799736170747 
2262	 0.316068746174206 
2263	 0.314032147966138 
2264	 0.312209792756456 
2265	 0.310573692399095 
2266	 0.308877410561867 
2267	 0.307273574704577 
2268	 0.305617358275981 
2269	 0.303907670490412 
2270	 0.302303108313919 
2271	 0.300705098909694 
2272	 0.299190554916232 
2273	 0.297784887836439 
2274	 0.2963625732879 
2275	 0.295049768943297 
2276	 0.293626837671248 
2277	 0.292180185809448 
2278	 0.290712369056185 
2279	 0.289141629871651 
2280	 0.287596737834601 
2281	 0.286103077364556 
2282	 0.284514921110299 
2283	 0.28288776555964 
2284	 0.281245548761458 
2285	 0.279397723074625 
2286	 0.277569994157183 
2287	 0.275639662321229 
2288	 0.273635715507208 
2289	 0.271794290603519 
2290	 0.269807568060675 
2291	 0.267785451032345 
2292	 0.265761850915846 
2293	 0.263521899850613 
2294	 0.261331292786553 
2295	 0.259192520237914 
2296	 0.25705947715484 
2297	 0.255185352575837 
2298	 0.253467601902238 
2299	 0.251916686676207 
2300	 0.250534398158467 
2301	 0.249376053423047 
2302	 0.248347721201606 
2303	 0.247670341802681 
2304	 0.247249361173733 
2305	 0.247148777289495 
2306	 0.247375381285521 
2307	 0.247870277141565 
2308	 0.248664163611588 
2309	 0.249784055955398 
2310	 0.251311546708351 
2311	 0.252943993495903 
2312	 0.255005985249185 
2313	 0.256964703663752 
2314	 0.259107521809543 
2315	 0.261115789149927 
2316	 0.2631785886243 
2317	 0.265045179515413 
2318	 0.266905429323594 
2319	 0.268434967554333 
2320	 0.269771220794515 
2321	 0.270873734708776 
2322	 0.271645717256749 
2323	 0.272295827771445 
2324	 0.272752687261329 
2325	 0.273038487870191 
2326	 0.273139034975233 
2327	 0.273058148525711 
2328	 0.272715984096918 
2329	 0.272308995537051 
2330	 0.271752874683727 
2331	 0.271041996991444 
2332	 0.270259577703287 
2333	 0.269297682957641 
2334	 0.268144840602783 
2335	 0.266816301324587 
2336	 0.26525703409461 
2337	 0.263664244208616 
2338	 0.262075898606282 
2339	 0.260374070818894 
2340	 0.258782328906665 
2341	 0.257241695439466 
2342	 0.255628653584214 
2343	 0.254273752633532 
2344	 0.253204850471837 
2345	 0.252306712068322 
2346	 0.251797392830215 
2347	 0.251691505415018 
2348	 0.251759613476653 
2349	 0.252262641991557 
2350	 0.253181003270372 
2351	 0.254304109575197 
2352	 0.25567387113845 
2353	 0.25725865721888 
2354	 0.258739823451568 
2355	 0.260143466390534 
2356	 0.26147935968027 
2357	 0.262527434481796 
2358	 0.263412375822411 
2359	 0.264042637543324 
2360	 0.264442345248819 
2361	 0.26467781915752 
2362	 0.2647772834054 
2363	 0.264810956320045 
2364	 0.264830059370974 
2365	 0.264819207009268 
2366	 0.26473015995404 
2367	 0.264616713334413 
2368	 0.264453968226362 
2369	 0.264245995898413 
2370	 0.264023592552303 
2371	 0.263838521092295 
2372	 0.263654066571 
2373	 0.26341528172122 
2374	 0.263222957454063 
2375	 0.26303437396712 
2376	 0.262824807245626 
2377	 0.262621627265737 
2378	 0.262410073237728 
2379	 0.262189890075288 
2380	 0.262020041818798 
2381	 0.261924500187361 
2382	 0.261754586858166 
2383	 0.261589910992981 
2384	 0.261411046408491 
2385	 0.261174017061681 
2386	 0.260923203011546 
2387	 0.2606840012663 
2388	 0.260435655690303 
2389	 0.260139640898694 
2390	 0.259892461056041 
2391	 0.259680309235559 
2392	 0.259414764206557 
2393	 0.259147048910696 
2394	 0.258822887257352 
2395	 0.258403675089982 
2396	 0.258136456084414 
2397	 0.257943701409275 
2398	 0.257677978907876 
2399	 0.257471311965694 
2400	 0.257227589083947 
2401	 0.256880143693508 
2402	 0.256573680634079 
2403	 0.256338845675658 
2404	 0.256082669485666 
2405	 0.255799978296621 
2406	 0.25552583781756 
2407	 0.255224418416707 
2408	 0.254920138331649 
2409	 0.254695147794179 
2410	 0.254494841260519 
2411	 0.254200412549708 
2412	 0.253876708284793 
2413	 0.253599859748105 
2414	 0.253274864685613 
2415	 0.253044204907949 
2416	 0.252817470092127 
2417	 0.252394242594397 
2418	 0.252092900019903 
2419	 0.251804300855757 
2420	 0.251446933147161 
2421	 0.251213216655011 
2422	 0.250837255111418 
2423	 0.250394752859207 
2424	 0.250047775891594 
2425	 0.249716359360418 
2426	 0.249476959837989 
2427	 0.249335424116018 
2428	 0.249154619185472 
2429	 0.248848055019286 
2430	 0.2485227460873 
2431	 0.248104874394749 
2432	 0.247545459757925 
2433	 0.246992301204178 
2434	 0.246466896948518 
2435	 0.245968495919356 
2436	 0.245615416233776 
2437	 0.245319902983812 
2438	 0.245006466136319 
2439	 0.24469968668365 
2440	 0.244149811281324 
2441	 0.2436672617165 
2442	 0.243270956106466 
2443	 0.242733313822621 
2444	 0.2424179722606 
2445	 0.241996282765194 
2446	 0.241425595857609 
2447	 0.241010991082984 
2448	 0.240595453029636 
2449	 0.240212838919266 
2450	 0.239765204484238 
2451	 0.239167333153127 
2452	 0.23859708228388 
2453	 0.238021314407514 
2454	 0.237468941047803 
2455	 0.236999018703699 
2456	 0.236167261855875 
2457	 0.235299969798725 
2458	 0.234750672482417 
2459	 0.234000574441265 
2460	 0.233418500754703 
2461	 0.233177342806639 
2462	 0.232823769899854 
2463	 0.232459105760007 
2464	 0.232136839333307 
2465	 0.231644315684305 
2466	 0.231046931457537 
2467	 0.230538462093493 
2468	 0.230108868588092 
2469	 0.229790739468519 
2470	 0.229467193174176 
2471	 0.229323188088619 
2472	 0.229443011453471 
2473	 0.229224514912225 
2474	 0.22892908740459 
2475	 0.228629763950796 
2476	 0.227882563679287 
2477	 0.22744612319241 
2478	 0.227452713453033 
2479	 0.227257502575016 
2480	 0.227281796006459 
2481	 0.227334865862158 
2482	 0.227132251199978 
2483	 0.227310468635359 
2484	 0.227543420339596 
2485	 0.227603032339114 
2486	 0.227644887273065 
2487	 0.227541755935564 
2488	 0.227422890327209 
2489	 0.227320358194101 
2490	 0.227170398655431 
2491	 0.226901401020436 
2492	 0.226744065506375 
2493	 0.22678805424728 
2494	 0.226934239804607 
2495	 0.227213057867489 
2496	 0.227384681838335 
2497	 0.227343805999889 
2498	 0.227180463004384 
2499	 0.227278355978736 
2500	 0.227589899121263 
