Wavelength	spectrum00020.asd
350	 7.08659182872619E-02 
351	 6.70780397843927E-02 
352	 6.58114689882444E-02 
353	 6.56789942160749E-02 
354	 6.26938051564149E-02 
355	 6.07832375446668E-02 
356	 0.05979961317369 
357	 5.85819346836414E-02 
358	 5.57090769476682E-02 
359	 5.32942246504178E-02 
360	 5.24434869043013E-02 
361	 5.31374523383154E-02 
362	 5.19064013069729E-02 
363	 4.95901763042018E-02 
364	 4.78382187499082E-02 
365	 4.87087919035136E-02 
366	 4.95288808332743E-02 
367	 4.88962557216591E-02 
368	 4.69227465902072E-02 
369	 4.72180963735991E-02 
370	 0.047611483993335 
371	 0.047341290017742 
372	 4.66326340804618E-02 
373	 4.63682064043622E-02 
374	 4.64599920597942E-02 
375	 4.64221559159454E-02 
376	 4.53709310378104E-02 
377	 4.53451586702232E-02 
378	 4.58367089941253E-02 
379	 4.57880818493651E-02 
380	 4.46381761319276E-02 
381	 0.044577748633883 
382	 4.50454255118828E-02 
383	 4.41321148236557E-02 
384	 4.44575178886713E-02 
385	 4.56697986261506E-02 
386	 4.64007320792498E-02 
387	 4.42566328860236E-02 
388	 0.043515196496411 
389	 4.40878955349942E-02 
390	 4.45810810768625E-02 
391	 4.37125940402089E-02 
392	 4.36368587059014E-02 
393	 4.44107409303544E-02 
394	 4.47090072208196E-02 
395	 4.49128593389331E-02 
396	 4.48472527503987E-02 
397	 4.45899126501507E-02 
398	 4.47089508129414E-02 
399	 4.49967730138436E-02 
400	 4.49940080905355E-02 
401	 4.45257962417007E-02 
402	 0.044806034547345 
403	 4.55411864208155E-02 
404	 4.60694595307822E-02 
405	 4.56773825706012E-02 
406	 4.61314904482689E-02 
407	 4.66396813419104E-02 
408	 4.66978889954552E-02 
409	 4.71157911961278E-02 
410	 0.047314510405341 
411	 4.75897026907377E-02 
412	 4.82973837310066E-02 
413	 4.86951925422397E-02 
414	 4.88112681528251E-02 
415	 0.048975251641638 
416	 4.96881089075209E-02 
417	 5.01931575378473E-02 
418	 0.050634099537583 
419	 5.11888837533265E-02 
420	 5.17146536371534E-02 
421	 5.23053595324054E-02 
422	 0.053050543247429 
423	 5.39593372886379E-02 
424	 0.054572080959441 
425	 5.51090552328686E-02 
426	 0.055780735406881 
427	 5.67141971412836E-02 
428	 5.73793856729838E-02 
429	 5.80638592876511E-02 
430	 5.90048512356027E-02 
431	 5.96795983910012E-02 
432	 6.05720241801986E-02 
433	 6.15625062228128E-02 
434	 6.22675491513494E-02 
435	 6.32466048802625E-02 
436	 6.43671612273766E-02 
437	 6.54066782775027E-02 
438	 6.61016511828499E-02 
439	 6.71881299129157E-02 
440	 6.84072420604387E-02 
441	 6.93601882054262E-02 
442	 7.03965548954686E-02 
443	 7.14976105193484E-02 
444	 7.26275926812095E-02 
445	 7.37547630796456E-02 
446	 0.074968335839625 
447	 0.076159350451911 
448	 7.72929551571045E-02 
449	 0.078555358588397 
450	 7.98798028689248E-02 
451	 8.12362370445336E-02 
452	 8.25975311164595E-02 
453	 0.083909357897224 
454	 8.52321193806068E-02 
455	 8.65937177411918E-02 
456	 8.79820810393453E-02 
457	 8.94923777923066E-02 
458	 9.09632170396877E-02 
459	 9.23367288812289E-02 
460	 9.40482359042109E-02 
461	 9.56641624441583E-02 
462	 9.71379422653349E-02 
463	 9.86583221602502E-02 
464	 0.100352989900457 
465	 0.102060937107167 
466	 0.103686857356159 
467	 0.105284917353837 
468	 0.107027036443739 
469	 0.108856864561815 
470	 0.110664694297585 
471	 0.112427200770249 
472	 0.114204774323086 
473	 0.116068995272704 
474	 0.118073877689821 
475	 0.119943129817647 
476	 0.121867597581666 
477	 0.123959775452477 
478	 0.126005782580494 
479	 0.127943984276606 
480	 0.129875969372732 
481	 0.131948730974854 
482	 0.134082245569515 
483	 0.136279856135641 
484	 0.138515777827786 
485	 0.140724077596482 
486	 0.143047587101079 
487	 0.145390575633666 
488	 0.147661892509868 
489	 0.149959125651817 
490	 0.152355613438277 
491	 0.154794580779275 
492	 0.15717059220181 
493	 0.15971731437862 
494	 0.162281840943957 
495	 0.164789748244201 
496	 0.167375441622186 
497	 0.169903565591146 
498	 0.172461686693443 
499	 0.175155575835871 
500	 0.177878155685353 
501	 0.180577081022292 
502	 0.183252461658694 
503	 0.185954248636646 
504	 0.188803788391368 
505	 0.191665346286399 
506	 0.194443427600636 
507	 0.197247340023882 
508	 0.200080942366659 
509	 0.202930509644666 
510	 0.205777830470751 
511	 0.208669685464234 
512	 0.211584203028737 
513	 0.214530199123573 
514	 0.217579179665767 
515	 0.220409415956478 
516	 0.223213984195341 
517	 0.226201421312366 
518	 0.229130571033493 
519	 0.232045557730129 
520	 0.234955345049116 
521	 0.237842464829278 
522	 0.240737559736506 
523	 0.243571908598958 
524	 0.246351761322249 
525	 0.249279381930215 
526	 0.252126366174044 
527	 0.254933325636544 
528	 0.257807032306269 
529	 0.260642719921029 
530	 0.263409424179153 
531	 0.26612945837475 
532	 0.268870223209275 
533	 0.271581601751692 
534	 0.274252546077072 
535	 0.276873300530372 
536	 0.279417102150198 
537	 0.28197056616179 
538	 0.284519464207554 
539	 0.28699779622993 
540	 0.289427791958822 
541	 0.291868033366427 
542	 0.294317708569868 
543	 0.29667289468686 
544	 0.298947730081355 
545	 0.301150896097333 
546	 0.303330208002353 
547	 0.305686355410296 
548	 0.30811823103207 
549	 0.31062190287847 
550	 0.31327553631553 
551	 0.315814050011609 
552	 0.318317087668861 
553	 0.320873464590837 
554	 0.323419571765237 
555	 0.325908165750605 
556	 0.328354926353208 
557	 0.330791612716629 
558	 0.333103641174234 
559	 0.335393578272978 
560	 0.337709505086519 
561	 0.339998004787137 
562	 0.342127798608211 
563	 0.343944862762894 
564	 0.345397042770097 
565	 0.346764727646914 
566	 0.348131466127335 
567	 0.34951841391955 
568	 0.350930704871829 
569	 0.352812135837486 
570	 0.355077201403728 
571	 0.357529438781065 
572	 0.359972855512451 
573	 0.362217747080457 
574	 0.364099611861547 
575	 0.365516788155606 
576	 0.366529234040097 
577	 0.36724040542968 
578	 0.367764345191466 
579	 0.368222110689209 
580	 0.369013256601725 
581	 0.370192130327629 
582	 0.371671585262725 
583	 0.373270484766518 
584	 0.374942775750107 
585	 0.376699945416347 
586	 0.378543965350046 
587	 0.380019401279974 
588	 0.381329541567928 
589	 0.382679315585385 
590	 0.384123527760016 
591	 0.385658156832969 
592	 0.38732652140392 
593	 0.389136340687504 
594	 0.390937839323066 
595	 0.392545093449098 
596	 0.393923649597957 
597	 0.395174522389344 
598	 0.396359115050278 
599	 0.397512757912781 
600	 0.398670867707018 
601	 0.399885123039042 
602	 0.401157683177303 
603	 0.402421245154401 
604	 0.403609406482726 
605	 0.404907635887568 
606	 0.406210371532749 
607	 0.407443648125239 
608	 0.408601681337121 
609	 0.40973167107767 
610	 0.410823130249586 
611	 0.41187799268211 
612	 0.412980874348949 
613	 0.414091557304569 
614	 0.415191601351645 
615	 0.416278365114976 
616	 0.417334043436922 
617	 0.418387142713054 
618	 0.419450383588653 
619	 0.420499181746472 
620	 0.421575991771993 
621	 0.42262906555243 
622	 0.423605010164036 
623	 0.424605770186285 
624	 0.425564605563838 
625	 0.426502263749625 
626	 0.427518188519028 
627	 0.428464207029796 
628	 0.429386380775752 
629	 0.430325464626376 
630	 0.43121208366521 
631	 0.432062684988362 
632	 0.432930167211183 
633	 0.433854446267822 
634	 0.434665919425174 
635	 0.435494966316624 
636	 0.436368238516792 
637	 0.437150830131073 
638	 0.43787695544674 
639	 0.438654306532983 
640	 0.43950756787109 
641	 0.440112665552232 
642	 0.440830389206588 
643	 0.441675910565631 
644	 0.442448370909426 
645	 0.443137934397287 
646	 0.443791427554342 
647	 0.444447632094818 
648	 0.445117769338384 
649	 0.445688591363201 
650	 0.44630366966209 
651	 0.447095132530271 
652	 0.447796257960007 
653	 0.448485536383785 
654	 0.449169165684275 
655	 0.449796326999382 
656	 0.450485963532855 
657	 0.451189591582034 
658	 0.451866021352657 
659	 0.452546685941748 
660	 0.453278613185648 
661	 0.453999056162445 
662	 0.454650834751628 
663	 0.455461680365577 
664	 0.456264138383175 
665	 0.456978365152881 
666	 0.457642709489027 
667	 0.458382972394227 
668	 0.459172826052769 
669	 0.459955686965724 
670	 0.460685371904262 
671	 0.461467659389473 
672	 0.462282496256035 
673	 0.463055676973859 
674	 0.46377341717466 
675	 0.464546761101219 
676	 0.465366434067243 
677	 0.466070204578145 
678	 0.466876113850284 
679	 0.467651515024599 
680	 0.468296692909398 
681	 0.469065320991345 
682	 0.469859927464767 
683	 0.470611117295759 
684	 0.471292112613567 
685	 0.472085632669116 
686	 0.472863790446083 
687	 0.473587784335893 
688	 0.474390991604664 
689	 0.475082411630931 
690	 0.475755608841231 
691	 0.476518650139885 
692	 0.47725734077455 
693	 0.477957988235448 
694	 0.478626032260014 
695	 0.479287521047207 
696	 0.480019841965881 
697	 0.480808946185159 
698	 0.481600365305051 
699	 0.482305027564617 
700	 0.482839707539203 
701	 0.48342555207363 
702	 0.484238939973791 
703	 0.484945509825075 
704	 0.485601801140098 
705	 0.486212774466743 
706	 0.486763687345353 
707	 0.487425640757798 
708	 0.488145160359973 
709	 0.488826374135072 
710	 0.489352664061341 
711	 0.489936768246912 
712	 0.490591118334408 
713	 0.49126000735998 
714	 0.491893824105712 
715	 0.492520806023434 
716	 0.493115817859247 
717	 0.493631260350755 
718	 0.494209482048739 
719	 0.49487273804255 
720	 0.495552390618485 
721	 0.496060421251169 
722	 0.496518879885263 
723	 0.497028334792052 
724	 0.497660435698698 
725	 0.498426434331598 
726	 0.49905302746782 
727	 0.499489034626507 
728	 0.499872459635477 
729	 0.500433790801871 
730	 0.501037940930378 
731	 0.50158291742936 
732	 0.502110936853927 
733	 0.502637915186726 
734	 0.503167290431984 
735	 0.503713595681989 
736	 0.504367654736468 
737	 0.504895898401975 
738	 0.505331685830124 
739	 0.505863490371559 
740	 0.506309393020841 
741	 0.506690657923703 
742	 0.507074730474604 
743	 0.50755979542941 
744	 0.50798415796064 
745	 0.508393272147013 
746	 0.508832970159162 
747	 0.509124715867442 
748	 0.509609027682218 
749	 0.510205628704676 
750	 0.510619326629522 
751	 0.511006608683741 
752	 0.511320052238038 
753	 0.511635950070213 
754	 0.512201537168507 
755	 0.51271834784935 
756	 0.513091150327239 
757	 0.513359075279738 
758	 0.513779666646183 
759	 0.514206886317925 
760	 0.514608401092833 
761	 0.515011814726464 
762	 0.515487855727235 
763	 0.51584326907544 
764	 0.516076598356116 
765	 0.516407551339797 
766	 0.516888939407657 
767	 0.517390901830391 
768	 0.517796576748163 
769	 0.518095652400677 
770	 0.518500153074152 
771	 0.51893431861564 
772	 0.519257527415569 
773	 0.519607615820291 
774	 0.5199036792126 
775	 0.520173041156725 
776	 0.520530112951227 
777	 0.520940130420578 
778	 0.521412007358276 
779	 0.521881763478196 
780	 0.522156250262268 
781	 0.52243468919217 
782	 0.522753633805633 
783	 0.523095378363166 
784	 0.523427562400652 
785	 0.523786419152353 
786	 0.524144552828188 
787	 0.524444630711258 
788	 0.524696491334425 
789	 0.52497663085173 
790	 0.525321898749301 
791	 0.525712144975751 
792	 0.526122423583647 
793	 0.526430967969439 
794	 0.526618824828786 
795	 0.526951899717052 
796	 0.527284342259046 
797	 0.527628249562023 
798	 0.527998329260573 
799	 0.528151744626717 
800	 0.528338474628109 
801	 0.528690317727122 
802	 0.529193791851882 
803	 0.529591448073948 
804	 0.529875188583986 
805	 0.530109093229469 
806	 0.5304008236195 
807	 0.530692016275157 
808	 0.531020215067365 
809	 0.531403881606785 
810	 0.531749379573304 
811	 0.532039080509834 
812	 0.532303068586853 
813	 0.532587648735672 
814	 0.532873565450811 
815	 0.533167516061638 
816	 0.533447302941216 
817	 0.533667785591875 
818	 0.533815319651258 
819	 0.534061026113554 
820	 0.534444948541013 
821	 0.53475470745977 
822	 0.535034259206682 
823	 0.53525752280555 
824	 0.535447109262117 
825	 0.535825783029701 
826	 0.53609497451918 
827	 0.536277870584212 
828	 0.536523326634165 
829	 0.536740887004536 
830	 0.536936683067129 
831	 0.537151856824389 
832	 0.537433573094325 
833	 0.537590043081361 
834	 0.537756051433958 
835	 0.53800923256459 
836	 0.538263683951599 
837	 0.538519763367501 
838	 0.538694017870663 
839	 0.53876608555474 
840	 0.538923658552186 
841	 0.539171956649124 
842	 0.539477546497991 
843	 0.539773903170551 
844	 0.539972153705109 
845	 0.540113361458851 
846	 0.540247205854834 
847	 0.540420457182206 
848	 0.540640239483289 
849	 0.540889727707796 
850	 0.541172331728464 
851	 0.541510699994131 
852	 0.541607924979705 
853	 0.541700999953457 
854	 0.541987544415088 
855	 0.542346559155676 
856	 0.542583083292817 
857	 0.542707394441329 
858	 0.542830187268476 
859	 0.543127339726344 
860	 0.543371633865858 
861	 0.543514110608217 
862	 0.543631942422045 
863	 0.543896350691764 
864	 0.544153775733358 
865	 0.544307380993991 
866	 0.544356749628726 
867	 0.54448648476766 
868	 0.544732277221089 
869	 0.545015899197476 
870	 0.545151797943925 
871	 0.545302528198027 
872	 0.54551778043758 
873	 0.545768008861064 
874	 0.545910795169322 
875	 0.546025851905255 
876	 0.546158201807135 
877	 0.546339240056265 
878	 0.546606920468152 
879	 0.546722039290234 
880	 0.546751254720367 
881	 0.546881540448678 
882	 0.547031390274132 
883	 0.54716568898077 
884	 0.547279062105139 
885	 0.547390712354232 
886	 0.547508179959813 
887	 0.547684917113758 
888	 0.547866740052662 
889	 0.547891737513934 
890	 0.547945144566348 
891	 0.547992539442742 
892	 0.548041764198236 
893	 0.548236046051448 
894	 0.54827328560285 
895	 0.548327676109264 
896	 0.548522986831922 
897	 0.548532740807121 
898	 0.548462642834316 
899	 0.548483098790588 
900	 0.548694751605852 
901	 0.548841072222742 
902	 0.549044180709371 
903	 0.549221279533343 
904	 0.549240295871281 
905	 0.549261685174311 
906	 0.549416522434324 
907	 0.549643925424448 
908	 0.549778857312128 
909	 0.549990964067113 
910	 0.550261227891371 
911	 0.550510774108429 
912	 0.550643013891186 
913	 0.550807151634736 
914	 0.55105465080631 
915	 0.551352182265103 
916	 0.551582477452095 
917	 0.551819032136076 
918	 0.552012017572288 
919	 0.552172772462893 
920	 0.552462858737768 
921	 0.552640593519354 
922	 0.552794691784187 
923	 0.553031141464936 
924	 0.55326380512065 
925	 0.553589437556205 
926	 0.553920363247648 
927	 0.55414884292941 
928	 0.554303980057958 
929	 0.554501115436945 
930	 0.554800079303963 
931	 0.555168544582159 
932	 0.555341765416732 
933	 0.55551094597073 
934	 0.555788898256397 
935	 0.5561894102349 
936	 0.556525854925328 
937	 0.55689984772652 
938	 0.557233637536313 
939	 0.557370416574961 
940	 0.557539533184949 
941	 0.557810485820252 
942	 0.558086634361321 
943	 0.558193097839506 
944	 0.558443147122088 
945	 0.558675555778974 
946	 0.558799056580594 
947	 0.558869107319504 
948	 0.559018505027697 
949	 0.559181727204326 
950	 0.559304924471051 
951	 0.559391560207883 
952	 0.559412567490169 
953	 0.559415079024923 
954	 0.559492567190691 
955	 0.559763845337256 
956	 0.559980039651811 
957	 0.560086765629947 
958	 0.560110379313312 
959	 0.560132084662396 
960	 0.560278951675259 
961	 0.560440728509412 
962	 0.560526887053161 
963	 0.560612704492399 
964	 0.560537989354572 
965	 0.560505505166252 
966	 0.560637628975691 
967	 0.560660416369004 
968	 0.560782291631133 
969	 0.560994694018 
970	 0.561190431678936 
971	 0.561185122878457 
972	 0.561199797879524 
973	 0.561298198614052 
974	 0.561446487136097 
975	 0.561496555793365 
976	 0.561590468197512 
977	 0.5616686138735 
978	 0.561665430567325 
979	 0.561689329115947 
980	 0.561822718670918 
981	 0.561892031259783 
982	 0.561795698171418 
983	 0.56195302197803 
984	 0.562082285691999 
985	 0.562085575122034 
986	 0.562015753028767 
987	 0.562172595626904 
988	 0.562313971949469 
989	 0.562452679119847 
990	 0.562645232605549 
991	 0.562764443693141 
992	 0.562910148408967 
993	 0.563123517171981 
994	 0.563377472706744 
995	 0.563502472709209 
996	 0.563729937444655 
997	 0.563990105782402 
998	 0.564172131649948 
999	 0.564424123340622 
1000	 0.564635117929999 
1001	 0.53672906478724 
1002	 0.537006473470193 
1003	 0.537309923803659 
1004	 0.537591141050685 
1005	 0.537908860299229 
1006	 0.538187137434301 
1007	 0.538428916486848 
1008	 0.538698026475274 
1009	 0.538980370640203 
1010	 0.539244546600618 
1011	 0.539516595139422 
1012	 0.5397654841206 
1013	 0.53997916603163 
1014	 0.540214211632495 
1015	 0.540438629191395 
1016	 0.540681210420425 
1017	 0.540950450310235 
1018	 0.541234046998931 
1019	 0.541548806690465 
1020	 0.541853900209259 
1021	 0.542133854832061 
1022	 0.542386507983498 
1023	 0.542682915294636 
1024	 0.542989192174668 
1025	 0.54327987228091 
1026	 0.543598691711622 
1027	 0.543891287812809 
1028	 0.544146998422169 
1029	 0.544410313931756 
1030	 0.544718786492968 
1031	 0.5450382042884 
1032	 0.54531767797204 
1033	 0.545597285344211 
1034	 0.545860723434314 
1035	 0.54610387153704 
1036	 0.546374150634275 
1037	 0.546684974461556 
1038	 0.54694112013655 
1039	 0.547168396123417 
1040	 0.547425312282539 
1041	 0.547669781755274 
1042	 0.547908814240014 
1043	 0.548167280536917 
1044	 0.548431312453422 
1045	 0.548622528048583 
1046	 0.548832119454299 
1047	 0.549075978613438 
1048	 0.549266632476381 
1049	 0.549476232203521 
1050	 0.549706969077245 
1051	 0.549891189568831 
1052	 0.550098949609062 
1053	 0.550306785522257 
1054	 0.550527363849657 
1055	 0.550704678023297 
1056	 0.550880280197071 
1057	 0.551033647355906 
1058	 0.551141368487535 
1059	 0.551268173252346 
1060	 0.551426332345702 
1061	 0.551534170094578 
1062	 0.551667404306636 
1063	 0.551818260890305 
1064	 0.551894675912504 
1065	 0.551985774910458 
1066	 0.552099222590031 
1067	 0.552164802621373 
1068	 0.552263237006703 
1069	 0.552391549375984 
1070	 0.552487914377386 
1071	 0.552562825883022 
1072	 0.552645367996654 
1073	 0.552702526311649 
1074	 0.552758852437825 
1075	 0.552829708994554 
1076	 0.552873243582672 
1077	 0.552954554016112 
1078	 0.553047356353127 
1079	 0.553140155551369 
1080	 0.553246098756819 
1081	 0.553320728103008 
1082	 0.553351652172313 
1083	 0.553372932676242 
1084	 0.553420944796231 
1085	 0.55348429801948 
1086	 0.553547070885079 
1087	 0.553632179373133 
1088	 0.553710561205153 
1089	 0.553745308928347 
1090	 0.553775158983903 
1091	 0.553824753625363 
1092	 0.55384752803851 
1093	 0.553894434491353 
1094	 0.553979250631705 
1095	 0.554032643825839 
1096	 0.554082903906719 
1097	 0.554126630184263 
1098	 0.554153614991607 
1099	 0.55418739360755 
1100	 0.554234958125756 
1101	 0.554305628905493 
1102	 0.55435720359289 
1103	 0.554393009724477 
1104	 0.554413228555974 
1105	 0.554444734476889 
1106	 0.554461206153366 
1107	 0.554469270690798 
1108	 0.554500120313028 
1109	 0.554529905253808 
1110	 0.554548112832311 
1111	 0.554576421717975 
1112	 0.554617448736475 
1113	 0.554656453902594 
1114	 0.554684120488655 
1115	 0.55469877738262 
1116	 0.554703996319438 
1117	 0.554708203409452 
1118	 0.554691378858648 
1119	 0.554658344785592 
1120	 0.554630746172367 
1121	 0.554603427771117 
1122	 0.554534622069949 
1123	 0.554481796756272 
1124	 0.554442906467483 
1125	 0.554365671171631 
1126	 0.554280725277374 
1127	 0.55418245524157 
1128	 0.554040866665827 
1129	 0.553853102198386 
1130	 0.553637102877278 
1131	 0.553386859266225 
1132	 0.553106411066553 
1133	 0.552817358631772 
1134	 0.552516953107989 
1135	 0.552189873498748 
1136	 0.551839720985481 
1137	 0.551464327866035 
1138	 0.551075185836578 
1139	 0.550649314418518 
1140	 0.550187088836246 
1141	 0.549726012289434 
1142	 0.549224709755271 
1143	 0.548684445228466 
1144	 0.548108464074729 
1145	 0.547464151978826 
1146	 0.546821762867229 
1147	 0.546164604847102 
1148	 0.54547108454908 
1149	 0.544820363560455 
1150	 0.544150313418911 
1151	 0.543441511634199 
1152	 0.542698605971712 
1153	 0.541939279631718 
1154	 0.54113476702759 
1155	 0.540306864013752 
1156	 0.53939947166833 
1157	 0.538457746606795 
1158	 0.537463253301042 
1159	 0.536377834164988 
1160	 0.535289476615814 
1161	 0.534186119187855 
1162	 0.532959973421582 
1163	 0.531743683001755 
1164	 0.530462124412136 
1165	 0.529137179243452 
1166	 0.527906196905113 
1167	 0.526627926027233 
1168	 0.525354454321506 
1169	 0.524094839862951 
1170	 0.522810593101063 
1171	 0.521578578145639 
1172	 0.520378368701336 
1173	 0.519190719958003 
1174	 0.518032874434162 
1175	 0.516917480994248 
1176	 0.515798062725765 
1177	 0.514749929906529 
1178	 0.513764161339999 
1179	 0.512772421008779 
1180	 0.511897394012547 
1181	 0.51107762198605 
1182	 0.510329892706354 
1183	 0.509736517048883 
1184	 0.509199493013243 
1185	 0.508728121639804 
1186	 0.508345731507612 
1187	 0.508055714137059 
1188	 0.507820530733445 
1189	 0.507669044166131 
1190	 0.507561559145933 
1191	 0.50753555937825 
1192	 0.507521421150184 
1193	 0.5075515511758 
1194	 0.507609866141166 
1195	 0.507712498247913 
1196	 0.507819172091664 
1197	 0.507942864045132 
1198	 0.508104332075517 
1199	 0.508280497272497 
1200	 0.508458967926505 
1201	 0.508671094851047 
1202	 0.508903475107376 
1203	 0.509144685769605 
1204	 0.509431047330532 
1205	 0.509785200203976 
1206	 0.510153469294561 
1207	 0.510670819390051 
1208	 0.51125968698276 
1209	 0.5119757517551 
1210	 0.512823639733577 
1211	 0.513743981744449 
1212	 0.514800159471675 
1213	 0.515878580137097 
1214	 0.517050556857976 
1215	 0.518242539041579 
1216	 0.519498224470813 
1217	 0.520736628816138 
1218	 0.522021129355117 
1219	 0.523292077467818 
1220	 0.524500601558088 
1221	 0.525753641928346 
1222	 0.526939937737483 
1223	 0.528098715332391 
1224	 0.5292193834556 
1225	 0.530318188597715 
1226	 0.531340712053497 
1227	 0.532301720350043 
1228	 0.533248176667637 
1229	 0.534139350750469 
1230	 0.535021155051018 
1231	 0.53588427256891 
1232	 0.536725978393682 
1233	 0.537542971052491 
1234	 0.538321730960789 
1235	 0.539059351821213 
1236	 0.539801416814925 
1237	 0.540506703079625 
1238	 0.541219836050491 
1239	 0.541932177939084 
1240	 0.542657036849201 
1241	 0.543382815888874 
1242	 0.544043343621251 
1243	 0.544702115801808 
1244	 0.545353248025724 
1245	 0.545971799183974 
1246	 0.546565342841978 
1247	 0.54713210556869 
1248	 0.547680728396322 
1249	 0.54819310287335 
1250	 0.548674554648619 
1251	 0.549121307813746 
1252	 0.549531174113555 
1253	 0.549923873576908 
1254	 0.550287134985224 
1255	 0.550627754755065 
1256	 0.550930502113326 
1257	 0.551242704143061 
1258	 0.551539564779427 
1259	 0.551823593044107 
1260	 0.552104885791045 
1261	 0.552379761825612 
1262	 0.552622286767396 
1263	 0.552887485569425 
1264	 0.553140705834078 
1265	 0.553392925643925 
1266	 0.553653300634961 
1267	 0.553915126885982 
1268	 0.554166628966357 
1269	 0.554433963319269 
1270	 0.554668955738902 
1271	 0.554880916977638 
1272	 0.555087420671799 
1273	 0.555273380487214 
1274	 0.55546543455116 
1275	 0.555651301426452 
1276	 0.555833799771475 
1277	 0.556018127436887 
1278	 0.556192640678061 
1279	 0.556365808201589 
1280	 0.556520805454883 
1281	 0.55665991083661 
1282	 0.556796300489929 
1283	 0.556931708652671 
1284	 0.557040670540728 
1285	 0.557134333304672 
1286	 0.557215871647597 
1287	 0.557295961222514 
1288	 0.557354130502262 
1289	 0.55741479825625 
1290	 0.55748931715211 
1291	 0.557527529087375 
1292	 0.557546564013497 
1293	 0.557548311532006 
1294	 0.557530783077748 
1295	 0.557500724540995 
1296	 0.557454296534163 
1297	 0.557392504521183 
1298	 0.557304275528212 
1299	 0.557227293960528 
1300	 0.557138861873522 
1301	 0.557053976301293 
1302	 0.556986882014771 
1303	 0.556896440936212 
1304	 0.55679810183232 
1305	 0.556684881025015 
1306	 0.556557373890521 
1307	 0.556418363751766 
1308	 0.556271128413058 
1309	 0.556105451556201 
1310	 0.555928170273368 
1311	 0.555737010920875 
1312	 0.555537407017194 
1313	 0.555326480116185 
1314	 0.555102402806902 
1315	 0.554868900054339 
1316	 0.55462267174489 
1317	 0.55436361995786 
1318	 0.554091433518937 
1319	 0.55380236900905 
1320	 0.553515654054384 
1321	 0.553218765755581 
1322	 0.552919229397077 
1323	 0.552632138720274 
1324	 0.552314352026923 
1325	 0.551988591920191 
1326	 0.551633829631186 
1327	 0.551273655195619 
1328	 0.550862078653122 
1329	 0.550406295383834 
1330	 0.549938795593693 
1331	 0.549443805086378 
1332	 0.548917369704206 
1333	 0.548390294475676 
1334	 0.547808105627064 
1335	 0.547191432735907 
1336	 0.546539033465541 
1337	 0.54583383469037 
1338	 0.545092405651502 
1339	 0.544301042929263 
1340	 0.543476098175098 
1341	 0.5425639028133 
1342	 0.541591802510035 
1343	 0.540569836496039 
1344	 0.539481142170974 
1345	 0.538334443673123 
1346	 0.537129038805504 
1347	 0.535900793935721 
1348	 0.534601931782088 
1349	 0.533294075747603 
1350	 0.531950862974736 
1351	 0.530610915945598 
1352	 0.529233569209885 
1353	 0.527868209050031 
1354	 0.526472698870207 
1355	 0.5251457229867 
1356	 0.523838093472815 
1357	 0.522555065162707 
1358	 0.521312811824066 
1359	 0.520102189736312 
1360	 0.518920905439147 
1361	 0.517743164956431 
1362	 0.516595970017699 
1363	 0.515539467568305 
1364	 0.514453808401173 
1365	 0.513399839011886 
1366	 0.512299246975652 
1367	 0.511189749578313 
1368	 0.510083778621617 
1369	 0.508965440913241 
1370	 0.507826243951018 
1371	 0.506701263966388 
1372	 0.50554104772646 
1373	 0.504341301748209 
1374	 0.503132990262772 
1375	 0.501903578345756 
1376	 0.500668137464919 
1377	 0.499400697890956 
1378	 0.498137306066351 
1379	 0.496836216397996 
1380	 0.495603917943691 
1381	 0.494365229408404 
1382	 0.493193752014428 
1383	 0.492083489320986 
1384	 0.491010960606396 
1385	 0.490010634173766 
1386	 0.489001522854751 
1387	 0.488052572284121 
1388	 0.487078368917928 
1389	 0.486119469448603 
1390	 0.485113858603349 
1391	 0.484114152977105 
1392	 0.483033293071824 
1393	 0.481968285394578 
1394	 0.480802265212103 
1395	 0.479530738242766 
1396	 0.478220780692262 
1397	 0.476740892913762 
1398	 0.475153627516885 
1399	 0.473382988817427 
1400	 0.471471148531387 
1401	 0.469418248981895 
1402	 0.467191503811969 
1403	 0.464850051454105 
1404	 0.462367043227028 
1405	 0.459822689013194 
1406	 0.457148280555486 
1407	 0.454402724379597 
1408	 0.45154055046728 
1409	 0.448672855747775 
1410	 0.445723640808716 
1411	 0.442741305836596 
1412	 0.439720639509346 
1413	 0.436716583577405 
1414	 0.433647106709231 
1415	 0.430607553851407 
1416	 0.427546185240522 
1417	 0.424552814809179 
1418	 0.421543374792313 
1419	 0.418621080007819 
1420	 0.415748018548667 
1421	 0.413000845426287 
1422	 0.410328096871175 
1423	 0.407743524717498 
1424	 0.405344042988806 
1425	 0.402872875883924 
1426	 0.400585293800283 
1427	 0.398292306683285 
1428	 0.395973025074232 
1429	 0.393789422481592 
1430	 0.391413444734314 
1431	 0.389017244876514 
1432	 0.386399679014764 
1433	 0.383664078632822 
1434	 0.380759922038768 
1435	 0.377663218546074 
1436	 0.374479367189982 
1437	 0.37107904259376 
1438	 0.367835746711332 
1439	 0.36439780438845 
1440	 0.361333470920651 
1441	 0.358257891212377 
1442	 0.355733246945083 
1443	 0.353325718094973 
1444	 0.351687613722603 
1445	 0.350513402423901 
1446	 0.350018035098096 
1447	 0.350187621945465 
1448	 0.350852437003424 
1449	 0.352282017247093 
1450	 0.353897348641449 
1451	 0.356154750705218 
1452	 0.358379868105684 
1453	 0.361006959150157 
1454	 0.363428139858738 
1455	 0.365986802239529 
1456	 0.368327757715312 
1457	 0.370590133786588 
1458	 0.372673060262821 
1459	 0.374589916845917 
1460	 0.376390331819415 
1461	 0.378008333740738 
1462	 0.379530404216066 
1463	 0.380906890773942 
1464	 0.382235202102141 
1465	 0.383426072397162 
1466	 0.384623371808246 
1467	 0.385738621621495 
1468	 0.386808944494079 
1469	 0.387869063208705 
1470	 0.388821333589383 
1471	 0.389777095312538 
1472	 0.390708965498243 
1473	 0.391592712003253 
1474	 0.392462081349744 
1475	 0.393212263317457 
1476	 0.393928525461726 
1477	 0.39448464100615 
1478	 0.394927011631705 
1479	 0.395245856377223 
1480	 0.39544206653256 
1481	 0.395533508276612 
1482	 0.395465982072377 
1483	 0.395391531246474 
1484	 0.395179830399658 
1485	 0.395046526712253 
1486	 0.394832984383036 
1487	 0.394790919478186 
1488	 0.394732177617155 
1489	 0.394937078900712 
1490	 0.395260074995136 
1491	 0.395834750559726 
1492	 0.396612912300248 
1493	 0.397614118252555 
1494	 0.398878032341885 
1495	 0.400258403453939 
1496	 0.401886650568504 
1497	 0.403563936396138 
1498	 0.405447390654565 
1499	 0.407273136781132 
1500	 0.409199502632995 
1501	 0.411062621386041 
1502	 0.412957626876616 
1503	 0.414718044898016 
1504	 0.416447114414909 
1505	 0.418062136801016 
1506	 0.419575073728892 
1507	 0.420975181447656 
1508	 0.422286620627179 
1509	 0.42348638484934 
1510	 0.424546458010616 
1511	 0.425520412693709 
1512	 0.426402745665372 
1513	 0.427184586249512 
1514	 0.427854347687332 
1515	 0.428442489511118 
1516	 0.428909628953464 
1517	 0.429330510630573 
1518	 0.429663500506048 
1519	 0.429949258125492 
1520	 0.430172487549406 
1521	 0.430360829618805 
1522	 0.430476086650774 
1523	 0.430552161164985 
1524	 0.430580003551532 
1525	 0.430550673069206 
1526	 0.430504860433927 
1527	 0.430407168342288 
1528	 0.430325423591663 
1529	 0.430226285276826 
1530	 0.430121371950408 
1531	 0.429990776335667 
1532	 0.429918352924125 
1533	 0.429833012796328 
1534	 0.429831182237976 
1535	 0.429867196551014 
1536	 0.430002505723518 
1537	 0.430168155187849 
1538	 0.430497511507698 
1539	 0.430944157194962 
1540	 0.431491121945764 
1541	 0.432157250618886 
1542	 0.432923969645197 
1543	 0.433803578794031 
1544	 0.434757306453498 
1545	 0.435826386784797 
1546	 0.436952314515014 
1547	 0.438177597189071 
1548	 0.439415323155858 
1549	 0.440739283730709 
1550	 0.442046157038544 
1551	 0.443381590293586 
1552	 0.444701542381957 
1553	 0.446040544370424 
1554	 0.447358044763103 
1555	 0.448676566800449 
1556	 0.449957628857771 
1557	 0.451226782620401 
1558	 0.452464963328738 
1559	 0.453672634898174 
1560	 0.454850279806281 
1561	 0.456005865969666 
1562	 0.457130446625579 
1563	 0.458219908759336 
1564	 0.459281596049692 
1565	 0.460317012325059 
1566	 0.461324120402028 
1567	 0.462297843827493 
1568	 0.46324563840948 
1569	 0.464156238899835 
1570	 0.465063867373304 
1571	 0.465959894085932 
1572	 0.466817453006636 
1573	 0.467650749570188 
1574	 0.468471214790841 
1575	 0.469253148167056 
1576	 0.470030242899284 
1577	 0.470794120417053 
1578	 0.47156034973218 
1579	 0.472313262102619 
1580	 0.473058172951748 
1581	 0.473804637911409 
1582	 0.474543834991614 
1583	 0.475272695837715 
1584	 0.475989629418786 
1585	 0.476696643504841 
1586	 0.477407802906491 
1587	 0.478103570341275 
1588	 0.478803303356913 
1589	 0.479500670685597 
1590	 0.480215749410278 
1591	 0.48094308837804 
1592	 0.48166147432414 
1593	 0.482393269264247 
1594	 0.483119233856146 
1595	 0.483827222530039 
1596	 0.484543051198663 
1597	 0.485281930252956 
1598	 0.485994412338566 
1599	 0.48670289482125 
1600	 0.487388933360572 
1601	 0.488052572351753 
1602	 0.488704600667379 
1603	 0.48933026852127 
1604	 0.489958344449853 
1605	 0.49058704706579 
1606	 0.491193843973849 
1607	 0.491807101298799 
1608	 0.492379380849641 
1609	 0.492919058720383 
1610	 0.493438130697107 
1611	 0.493922817526188 
1612	 0.494391242748852 
1613	 0.494835608342154 
1614	 0.495267943767821 
1615	 0.495691896785136 
1616	 0.496084881560318 
1617	 0.496450155659065 
1618	 0.496805935366785 
1619	 0.497131954951799 
1620	 0.497448018259325 
1621	 0.497784997646051 
1622	 0.498053150591014 
1623	 0.498265492415009 
1624	 0.498475368873252 
1625	 0.498623542272235 
1626	 0.498795355512672 
1627	 0.498967406744987 
1628	 0.499148628183228 
1629	 0.499319386060047 
1630	 0.499521472011689 
1631	 0.499757475343903 
1632	 0.499986410382317 
1633	 0.500232074450296 
1634	 0.500476445720146 
1635	 0.500724361863459 
1636	 0.500957006849787 
1637	 0.501189771790593 
1638	 0.501416923291076 
1639	 0.501639163363559 
1640	 0.501843732034133 
1641	 0.502066927405191 
1642	 0.502229678574099 
1643	 0.502366544609368 
1644	 0.502446584080428 
1645	 0.502472104239235 
1646	 0.502461813060534 
1647	 0.502406654615206 
1648	 0.502303687007328 
1649	 0.50217284022655 
1650	 0.501967920875996 
1651	 0.501715968496472 
1652	 0.501384985389101 
1653	 0.500982101531807 
1654	 0.500508683054097 
1655	 0.499977317772949 
1656	 0.499332560152062 
1657	 0.498620109692096 
1658	 0.497777661369338 
1659	 0.496823373494251 
1660	 0.495756381320506 
1661	 0.494599057039559 
1662	 0.493271382320963 
1663	 0.491815182405496 
1664	 0.490174587246114 
1665	 0.488387040221554 
1666	 0.486378153847567 
1667	 0.484180961972447 
1668	 0.481822322882449 
1669	 0.479269678340261 
1670	 0.476531002288545 
1671	 0.473567889269521 
1672	 0.470487064967092 
1673	 0.467202756815297 
1674	 0.463818199597392 
1675	 0.460277113226965 
1676	 0.45677236019057 
1677	 0.453148430854345 
1678	 0.449548348103201 
1679	 0.445901851269612 
1680	 0.442304239808543 
1681	 0.438694251510024 
1682	 0.435108507709054 
1683	 0.43158961378641 
1684	 0.428119190019511 
1685	 0.424636861061286 
1686	 0.421223479943936 
1687	 0.417828935230077 
1688	 0.414535558099019 
1689	 0.411271880894614 
1690	 0.408147967720252 
1691	 0.405170513088761 
1692	 0.402327514994201 
1693	 0.399599199478053 
1694	 0.396964695625776 
1695	 0.39445629077013 
1696	 0.39200155451709 
1697	 0.389647761865189 
1698	 0.387317892663067 
1699	 0.385093787980588 
1700	 0.382911037069771 
1701	 0.380759446698761 
1702	 0.378662833938547 
1703	 0.376603772184619 
1704	 0.374618597333449 
1705	 0.372675980870993 
1706	 0.370771647736879 
1707	 0.369067681324111 
1708	 0.367360620084106 
1709	 0.365734179837003 
1710	 0.36419792139598 
1711	 0.36260964338877 
1712	 0.36113976094278 
1713	 0.359639859475309 
1714	 0.358089418173728 
1715	 0.356686359291653 
1716	 0.3552270917971 
1717	 0.353780617987054 
1718	 0.352432948186541 
1719	 0.351031381008148 
1720	 0.349696248844458 
1721	 0.34844348817578 
1722	 0.347248905800324 
1723	 0.346232274670327 
1724	 0.345317726635911 
1725	 0.344507113657062 
1726	 0.343863576150523 
1727	 0.343322940185546 
1728	 0.342934775353707 
1729	 0.342724351947171 
1730	 0.342651418578584 
1731	 0.342679536688116 
1732	 0.342788328416161 
1733	 0.342937784398016 
1734	 0.343119989296098 
1735	 0.343297956374802 
1736	 0.343467647499645 
1737	 0.343591976848588 
1738	 0.343639969879718 
1739	 0.343653123755683 
1740	 0.343596125894045 
1741	 0.343514041259384 
1742	 0.343363623088768 
1743	 0.343251714887005 
1744	 0.343087707708697 
1745	 0.343016472093084 
1746	 0.342955612714508 
1747	 0.343042030103019 
1748	 0.343200222542672 
1749	 0.343491217222679 
1750	 0.34391624918189 
1751	 0.344456623700783 
1752	 0.345093394928526 
1753	 0.345899970527535 
1754	 0.346859436846673 
1755	 0.347919159616921 
1756	 0.349128759386185 
1757	 0.350389326731645 
1758	 0.351835075056509 
1759	 0.353351060843082 
1760	 0.355006492616267 
1761	 0.356825335686821 
1762	 0.358616331841967 
1763	 0.360498003754339 
1764	 0.362408041583877 
1765	 0.364356503454611 
1766	 0.366453589459957 
1767	 0.36848836372567 
1768	 0.370568052982617 
1769	 0.372643327075507 
1770	 0.374540832470199 
1771	 0.376441871557772 
1772	 0.378244710617393 
1773	 0.37992613160855 
1774	 0.381629748676797 
1775	 0.383218384768806 
1776	 0.384793498287925 
1777	 0.386329842576993 
1778	 0.387695357852558 
1779	 0.389072523886553 
1780	 0.390390024449485 
1781	 0.391628756635833 
1782	 0.392920985986632 
1783	 0.3941674511134 
1784	 0.395428801366778 
1785	 0.396642525394397 
1786	 0.397802648542884 
1787	 0.398927959532297 
1788	 0.400031569969196 
1789	 0.401125669749692 
1790	 0.40217603414018 
1791	 0.403184503054649 
1792	 0.404182089599861 
1793	 0.40510855126068 
1794	 0.406047727053225 
1795	 0.406969932764196 
1796	 0.407854021265029 
1797	 0.408804369393133 
1798	 0.409720785694049 
1799	 0.410630706091504 
1800	 0.411491519395479 
1801	 0.424503609884265 
1802	 0.425834616330696 
1803	 0.427005743547601 
1804	 0.428022947869442 
1805	 0.42903184806431 
1806	 0.429935672507734 
1807	 0.430730130828926 
1808	 0.431502300671789 
1809	 0.432209413364648 
1810	 0.432872634053664 
1811	 0.433459971212223 
1812	 0.434043702143316 
1813	 0.434562662107558 
1814	 0.435120425362482 
1815	 0.435654327655544 
1816	 0.436177508415232 
1817	 0.436705804655903 
1818	 0.437220655792633 
1819	 0.437745306930882 
1820	 0.438268367512236 
1821	 0.438804812087837 
1822	 0.439346020281598 
1823	 0.43991890183063 
1824	 0.440455428555931 
1825	 0.440986219149271 
1826	 0.441491011910003 
1827	 0.441978994789443 
1828	 0.442424322379289 
1829	 0.442837963606792 
1830	 0.443249039094258 
1831	 0.443632190335221 
1832	 0.444010605016546 
1833	 0.444352373531258 
1834	 0.444692122718057 
1835	 0.445035344225834 
1836	 0.445342349127342 
1837	 0.44566658849208 
1838	 0.446013899176629 
1839	 0.446340737800775 
1840	 0.446663118425639 
1841	 0.446964443567673 
1842	 0.447261090504825 
1843	 0.447545504921346 
1844	 0.447809404218793 
1845	 0.448018332840215 
1846	 0.448210049151149 
1847	 0.44834887617418 
1848	 0.448390376719996 
1849	 0.448395471594783 
1850	 0.448264739233881 
1851	 0.448044306794449 
1852	 0.447701446508229 
1853	 0.447252270265574 
1854	 0.446726002544333 
1855	 0.446091307194335 
1856	 0.445394080316714 
1857	 0.444588852835841 
1858	 0.443614199675578 
1859	 0.442552978665343 
1860	 0.441418673027098 
1861	 0.440079037759589 
1862	 0.438577760391578 
1863	 0.437024810105846 
1864	 0.435231093961575 
1865	 0.433330975354381 
1866	 0.431324161873279 
1867	 0.429064253683651 
1868	 0.426759090873993 
1869	 0.424291060362897 
1870	 0.421732373685025 
1871	 0.419071393478276 
1872	 0.416394103703841 
1873	 0.41363326898074 
1874	 0.410836574312823 
1875	 0.408015274085573 
1876	 0.404883589378285 
1877	 0.401741768225864 
1878	 0.39837238234544 
1879	 0.394708344899303 
1880	 0.391169023038091 
1881	 0.387353219857683 
1882	 0.383280684118694 
1883	 0.379117626694066 
1884	 0.374863314512297 
1885	 0.370146394714133 
1886	 0.365465603173196 
1887	 0.360549047106283 
1888	 0.355371450176877 
1889	 0.350467838382212 
1890	 0.34532087817299 
1891	 0.340186468009469 
1892	 0.335151215328196 
1893	 0.32992397405341 
1894	 0.324462152305587 
1895	 0.319224290400567 
1896	 0.3139100395279 
1897	 0.308533313373013 
1898	 0.303627219370931 
1899	 0.298606709294373 
1900	 0.293668563353779 
1901	 0.288975779587715 
1902	 0.28402788464708 
1903	 0.279337395032672 
1904	 0.27474011631602 
1905	 0.270203852899522 
1906	 0.265718890308521 
1907	 0.261711533343845 
1908	 0.257633723885831 
1909	 0.253675936384828 
1910	 0.249924134260797 
1911	 0.245934132996077 
1912	 0.24212204385025 
1913	 0.23832834938061 
1914	 0.234458405021724 
1915	 0.230766929577677 
1916	 0.227269856302966 
1917	 0.223632342540172 
1918	 0.220056008511538 
1919	 0.216530476580587 
1920	 0.212726215178677 
1921	 0.209048591283234 
1922	 0.205290150175913 
1923	 0.201415898273576 
1924	 0.197833131531491 
1925	 0.194120953575169 
1926	 0.190460360710991 
1927	 0.186891097357896 
1928	 0.183292929860579 
1929	 0.179577105954762 
1930	 0.176084742059012 
1931	 0.172694212053002 
1932	 0.169435414583549 
1933	 0.166634161044011 
1934	 0.164004732342775 
1935	 0.16161390964096 
1936	 0.159601668187713 
1937	 0.157806485798559 
1938	 0.156214539762422 
1939	 0.154993908160236 
1940	 0.154073426898026 
1941	 0.153451666737343 
1942	 0.153151127456189 
1943	 0.153090228464737 
1944	 0.153269649220048 
1945	 0.153708451164019 
1946	 0.154471829046154 
1947	 0.155456099089172 
1948	 0.156808131691337 
1949	 0.158529746453732 
1950	 0.160472783843499 
1951	 0.162734224613498 
1952	 0.165263195387599 
1953	 0.16804408165953 
1954	 0.171109924941788 
1955	 0.174559737057475 
1956	 0.17802377073527 
1957	 0.181600364376312 
1958	 0.185180265927623 
1959	 0.188377071980879 
1960	 0.191423198968148 
1961	 0.194164189718267 
1962	 0.196596087481821 
1963	 0.198784795807554 
1964	 0.200722050078981 
1965	 0.202394691027702 
1966	 0.2037698717483 
1967	 0.204973392680387 
1968	 0.205945979215431 
1969	 0.206883601242833 
1970	 0.207771095346939 
1971	 0.20867387193805 
1972	 0.209661735695195 
1973	 0.210690010004468 
1974	 0.211828080986306 
1975	 0.213091267009649 
1976	 0.214379522706111 
1977	 0.215730124055928 
1978	 0.217162735465141 
1979	 0.218642589670412 
1980	 0.220181898667455 
1981	 0.221929443271993 
1982	 0.223645447212911 
1983	 0.225517806973509 
1984	 0.227508958306617 
1985	 0.22944416119358 
1986	 0.231586539614564 
1987	 0.233924273193428 
1988	 0.236285436992574 
1989	 0.239066641256281 
1990	 0.242152416741427 
1991	 0.245443775465114 
1992	 0.249040231749594 
1993	 0.252930323205042 
1994	 0.256738530617687 
1995	 0.260842475510513 
1996	 0.264971923491912 
1997	 0.269112203157406 
1998	 0.273384726315475 
1999	 0.277902642966885 
2000	 0.282116265191769 
2001	 0.286488713860328 
2002	 0.290420897557681 
2003	 0.29408246309474 
2004	 0.297622655911043 
2005	 0.300862946256885 
2006	 0.304023414952844 
2007	 0.307142254248275 
2008	 0.309946040254597 
2009	 0.312584642973938 
2010	 0.31511104486031 
2011	 0.317240614279117 
2012	 0.319238555055749 
2013	 0.321103526599539 
2014	 0.322735254206139 
2015	 0.324305349442722 
2016	 0.325791924946198 
2017	 0.327104610153176 
2018	 0.328294318401476 
2019	 0.32931751507183 
2020	 0.330138839290388 
2021	 0.330888356778656 
2022	 0.331505742389578 
2023	 0.331993174006232 
2024	 0.332436232246339 
2025	 0.332773597488952 
2026	 0.333005666401348 
2027	 0.33311039702006 
2028	 0.333172431331795 
2029	 0.333118239731952 
2030	 0.333045797631137 
2031	 0.332914560704034 
2032	 0.332754964353113 
2033	 0.332513187546507 
2034	 0.332288537996238 
2035	 0.33204705852986 
2036	 0.331779560237553 
2037	 0.331512730406172 
2038	 0.331260314194137 
2039	 0.331018244009146 
2040	 0.330769277754397 
2041	 0.330554852331257 
2042	 0.330361373493505 
2043	 0.330186012811263 
2044	 0.330026605445079 
2045	 0.329887157985562 
2046	 0.329780514437472 
2047	 0.329670515238946 
2048	 0.329590091254662 
2049	 0.329492066780907 
2050	 0.329394269772732 
2051	 0.329286157544825 
2052	 0.329182599465726 
2053	 0.329051339741696 
2054	 0.328904318397061 
2055	 0.328731230639144 
2056	 0.32857709669118 
2057	 0.328408063167346 
2058	 0.328246202710591 
2059	 0.328095849226221 
2060	 0.327951125267939 
2061	 0.327776515561989 
2062	 0.327653677532404 
2063	 0.327563287022202 
2064	 0.327486698668742 
2065	 0.327442383851076 
2066	 0.327405546006641 
2067	 0.327395405862634 
2068	 0.327379017341067 
2069	 0.327367063213041 
2070	 0.327364866920137 
2071	 0.327372018358856 
2072	 0.327382549205243 
2073	 0.327393572845861 
2074	 0.327438931987394 
2075	 0.327434172488734 
2076	 0.327421027002516 
2077	 0.327374835288123 
2078	 0.327290294871061 
2079	 0.327190685922931 
2080	 0.32706054661081 
2081	 0.326923544770082 
2082	 0.326776448165206 
2083	 0.326619556882397 
2084	 0.32640626528109 
2085	 0.326177551706213 
2086	 0.325921227273079 
2087	 0.325620735124178 
2088	 0.32530839369112 
2089	 0.324982080205258 
2090	 0.324628402309741 
2091	 0.32424176369814 
2092	 0.323837532765928 
2093	 0.323419839071976 
2094	 0.322978040710091 
2095	 0.322504349262192 
2096	 0.322015629963435 
2097	 0.321515384044776 
2098	 0.320978055124217 
2099	 0.320445328785385 
2100	 0.319877009768727 
2101	 0.319270083907787 
2102	 0.318637516116779 
2103	 0.31797880128789 
2104	 0.317259495185017 
2105	 0.316561454614687 
2106	 0.315856129331005 
2107	 0.31513716220956 
2108	 0.314435980405576 
2109	 0.313672041150483 
2110	 0.312875920609862 
2111	 0.312055909349615 
2112	 0.311129827350123 
2113	 0.310285501012847 
2114	 0.309483578926765 
2115	 0.308655370135037 
2116	 0.307849414094089 
2117	 0.307065458316023 
2118	 0.306217001967031 
2119	 0.305310876888438 
2120	 0.304451101072761 
2121	 0.303563424906391 
2122	 0.302731571222489 
2123	 0.301940094887806 
2124	 0.301133460461521 
2125	 0.300346910749767 
2126	 0.299563760929698 
2127	 0.298782872246155 
2128	 0.298010230698622 
2129	 0.297227347729414 
2130	 0.29648561907953 
2131	 0.295776460201835 
2132	 0.295056268360293 
2133	 0.294345882448648 
2134	 0.293678467371684 
2135	 0.292970316578116 
2136	 0.292277369338931 
2137	 0.291597782172588 
2138	 0.290928368985641 
2139	 0.290278216091026 
2140	 0.289641336617165 
2141	 0.289017374105234 
2142	 0.288421543822461 
2143	 0.287820802721508 
2144	 0.287226653320326 
2145	 0.286637477595682 
2146	 0.286035652531711 
2147	 0.285475001644536 
2148	 0.284944805153564 
2149	 0.284407600572565 
2150	 0.283908790318723 
2151	 0.283390651408477 
2152	 0.282852094135387 
2153	 0.282321969104515 
2154	 0.281814881731936 
2155	 0.281300982927423 
2156	 0.280792012026116 
2157	 0.280296309585603 
2158	 0.279789735418258 
2159	 0.279279806973703 
2160	 0.278764154919945 
2161	 0.278246810389572 
2162	 0.277729122482342 
2163	 0.277180983636504 
2164	 0.276681279734999 
2165	 0.276208320411291 
2166	 0.27573151900088 
2167	 0.275289597633385 
2168	 0.274832461380075 
2169	 0.274318216469387 
2170	 0.273891332234934 
2171	 0.273472219696297 
2172	 0.273129333043756 
2173	 0.272869160879806 
2174	 0.272652084995042 
2175	 0.272447346886112 
2176	 0.272289440643004 
2177	 0.272154615435577 
2178	 0.272044330827373 
2179	 0.27195919661221 
2180	 0.271922130866682 
2181	 0.27187443369232 
2182	 0.27183584685223 
2183	 0.271814675334307 
2184	 0.271826733329901 
2185	 0.271810418775521 
2186	 0.271813222478277 
2187	 0.271773064589146 
2188	 0.271714440997834 
2189	 0.271619157116008 
2190	 0.271500113948834 
2191	 0.271346689826788 
2192	 0.271150788979629 
2193	 0.270936681540394 
2194	 0.270694951035518 
2195	 0.270426734073575 
2196	 0.270138701053757 
2197	 0.269814226184974 
2198	 0.269460293838766 
2199	 0.2690673023785 
2200	 0.268654438427512 
2201	 0.268217867069213 
2202	 0.267732357736561 
2203	 0.267208099578606 
2204	 0.26666808158388 
2205	 0.266079003312255 
2206	 0.265485620745876 
2207	 0.264886591742878 
2208	 0.264246263014663 
2209	 0.263559002609501 
2210	 0.262885839320162 
2211	 0.262153211451747 
2212	 0.261506352458084 
2213	 0.2608678229108 
2214	 0.260296522748471 
2215	 0.25978378936324 
2216	 0.259319547022809 
2217	 0.258894398039875 
2218	 0.258541089843249 
2219	 0.258259361256261 
2220	 0.258023460558713 
2221	 0.25785879652785 
2222	 0.257749227857109 
2223	 0.257634043246661 
2224	 0.257523486372427 
2225	 0.257385219056085 
2226	 0.257150516350614 
2227	 0.256813134254798 
2228	 0.256437023450241 
2229	 0.255862155938266 
2230	 0.255150147756548 
2231	 0.254299466365951 
2232	 0.253311079581438 
2233	 0.252146856978954 
2234	 0.250893766433714 
2235	 0.249335681870984 
2236	 0.247513201052882 
2237	 0.24558037518546 
2238	 0.243344510259642 
2239	 0.241104272407672 
2240	 0.23878764748114 
2241	 0.236318700451826 
2242	 0.233799845102289 
2243	 0.231040260816564 
2244	 0.228020649597946 
2245	 0.224990480797234 
2246	 0.221676800214754 
2247	 0.218474966006834 
2248	 0.215322067771089 
2249	 0.212098707533346 
2250	 0.208848933705386 
2251	 0.205642420611732 
2252	 0.20219516743933 
2253	 0.198882756991417 
2254	 0.195536868131503 
2255	 0.192199043988317 
2256	 0.189194573579674 
2257	 0.186174089658367 
2258	 0.183301448379006 
2259	 0.180608951627615 
2260	 0.177927547496869 
2261	 0.175270235876385 
2262	 0.172822889324783 
2263	 0.170447110997193 
2264	 0.168298588231755 
2265	 0.166350255858237 
2266	 0.164521610375395 
2267	 0.162921267034654 
2268	 0.161353389817622 
2269	 0.159909442678763 
2270	 0.158564129478656 
2271	 0.157319852048307 
2272	 0.156134090967612 
2273	 0.155127468984507 
2274	 0.154040042233414 
2275	 0.15301488164595 
2276	 0.151912499851861 
2277	 0.150795155552222 
2278	 0.149611722552932 
2279	 0.148348201418183 
2280	 0.147064645260984 
2281	 0.145749576954784 
2282	 0.144371441986897 
2283	 0.142950021504674 
2284	 0.141512323617838 
2285	 0.139889610720716 
2286	 0.138269049843229 
2287	 0.136619842502342 
2288	 0.134896015531113 
2289	 0.133359574746107 
2290	 0.131816178282995 
2291	 0.130270467888114 
2292	 0.128825298766254 
2293	 0.12727733649247 
2294	 0.125830729370524 
2295	 0.124567783570096 
2296	 0.123381573696763 
2297	 0.122434389327108 
2298	 0.121708671518297 
2299	 0.121121335610819 
2300	 0.120682606407726 
2301	 0.120508091493465 
2302	 0.120507098958191 
2303	 0.120796240379882 
2304	 0.12141166313126 
2305	 0.122143838229498 
2306	 0.123120108924663 
2307	 0.124270460899277 
2308	 0.12558787283237 
2309	 0.12711155139558 
2310	 0.128948859517585 
2311	 0.130764330879198 
2312	 0.132831217193873 
2313	 0.134753274572611 
2314	 0.136710012544719 
2315	 0.138590106603128 
2316	 0.140447119382049 
2317	 0.142161985339027 
2318	 0.143864975460152 
2319	 0.145318677775513 
2320	 0.146615746364446 
2321	 0.147725075705219 
2322	 0.148611830775736 
2323	 0.149354562894547 
2324	 0.149912780278993 
2325	 0.150320242476981 
2326	 0.15053653044264 
2327	 0.150621038319607 
2328	 0.150522480616818 
2329	 0.150303601553084 
2330	 0.149921356290626 
2331	 0.149425622067047 
2332	 0.148844130399536 
2333	 0.148156415140572 
2334	 0.147332094002979 
2335	 0.146423285155977 
2336	 0.14540899621857 
2337	 0.144331107262696 
2338	 0.143316272061285 
2339	 0.142282909126354 
2340	 0.141267045159474 
2341	 0.14030549116012 
2342	 0.139386795741232 
2343	 0.138642412381255 
2344	 0.138079199372544 
2345	 0.137723844376347 
2346	 0.13760447589453 
2347	 0.137764090890304 
2348	 0.138154121006467 
2349	 0.138749921613786 
2350	 0.139558420293655 
2351	 0.140507179403265 
2352	 0.141519398073316 
2353	 0.14261543220671 
2354	 0.14360894038282 
2355	 0.144520639365028 
2356	 0.145364903802717 
2357	 0.145994184380069 
2358	 0.146551561961893 
2359	 0.146949376506482 
2360	 0.147168570969019 
2361	 0.147261288091563 
2362	 0.147222987315869 
2363	 0.147095474061813 
2364	 0.146918031697488 
2365	 0.146718174393707 
2366	 0.146491925544006 
2367	 0.146267343592056 
2368	 0.14595116722547 
2369	 0.145548866554826 
2370	 0.14520511895892 
2371	 0.14480676809861 
2372	 0.144408982791485 
2373	 0.144036241199126 
2374	 0.143512088175071 
2375	 0.143013255527999 
2376	 0.142539895178821 
2377	 0.141987059167829 
2378	 0.141418388128289 
2379	 0.140791429722567 
2380	 0.140184077869377 
2381	 0.139639211984424 
2382	 0.139067315656737 
2383	 0.138629750393604 
2384	 0.137958272318185 
2385	 0.137073989766667 
2386	 0.136346940042951 
2387	 0.135597250288913 
2388	 0.134849303752207 
2389	 0.134211325652402 
2390	 0.133447008400192 
2391	 0.132559705682378 
2392	 0.131714085261846 
2393	 0.130846374861358 
2394	 0.130065654197353 
2395	 0.129286181353704 
2396	 0.128546975243088 
2397	 0.12795700711283 
2398	 0.127182903242945 
2399	 0.126285217070223 
2400	 0.125519256297378 
2401	 0.124711943228835 
2402	 0.124034475328654 
2403	 0.123358973339439 
2404	 0.122648607145294 
2405	 0.121929021700776 
2406	 0.121098226234557 
2407	 0.120438089736919 
2408	 0.119777178232955 
2409	 0.119043146133839 
2410	 0.118559509599691 
2411	 0.118098006854097 
2412	 0.117620043636 
2413	 0.117187690267995 
2414	 0.116591396057578 
2415	 0.115981460898003 
2416	 0.115522660089328 
2417	 0.115105082413587 
2418	 0.114790169279312 
2419	 0.114599285546021 
2420	 0.114349588756908 
2421	 0.114103448692161 
2422	 0.11389828048444 
2423	 0.113580790557465 
2424	 0.113191393422202 
2425	 0.112817828626887 
2426	 0.112483363594866 
2427	 0.112165769108575 
2428	 0.111885077086749 
2429	 0.111639301550712 
2430	 0.111383646714856 
2431	 0.111216912077909 
2432	 0.111061358310525 
2433	 0.110834898915498 
2434	 0.110667963426422 
2435	 0.110414955955599 
2436	 0.109998002401538 
2437	 0.109637888745391 
2438	 0.109275625771555 
2439	 0.108920926786599 
2440	 0.108659675185511 
2441	 0.108390578509841 
2442	 0.108220874964224 
2443	 0.108042722603029 
2444	 0.10785464993724 
2445	 0.107735059966324 
2446	 0.107418250329052 
2447	 0.107067282043059 
2448	 0.106775082032992 
2449	 0.106379042811054 
2450	 0.106024403701899 
2451	 0.105681690505261 
2452	 0.105229144846893 
2453	 0.104827211027996 
2454	 0.104467213680775 
2455	 0.104021028244474 
2456	 0.103587342680177 
2457	 0.103257781563995 
2458	 0.103007176943021 
2459	 0.102724016955788 
2460	 0.102370200200832 
2461	 0.102015645606861 
2462	 0.101678182376554 
2463	 0.101300591129567 
2464	 0.100843836890706 
2465	 0.100325411026489 
2466	 9.98832928114348E-02 
2467	 9.96035174019374E-02 
2468	 9.93613475714695E-02 
2469	 9.91454480847081E-02 
2470	 9.88679495101669E-02 
2471	 9.85075644434323E-02 
2472	 9.83189357593429E-02 
2473	 9.82840015893393E-02 
2474	 9.83119258218899E-02 
2475	 9.83280815131917E-02 
2476	 9.82271703796073E-02 
2477	 9.82939740354437E-02 
2478	 9.83403974701365E-02 
2479	 0.098084724655853 
2480	 9.80640762563475E-02 
2481	 9.81396067946691E-02 
2482	 9.82868454412429E-02 
2483	 9.86434557788122E-02 
2484	 9.88558969184313E-02 
2485	 9.87497030921653E-02 
2486	 9.86652888750675E-02 
2487	 9.86895280111952E-02 
2488	 0.098872890886784 
2489	 9.92287207065449E-02 
2490	 9.92926286214376E-02 
2491	 9.90826214755997E-02 
2492	 9.90382729463707E-02 
2493	 9.93932469595013E-02 
2494	 0.100081153992169 
2495	 0.100536963960787 
2496	 0.100584994733715 
2497	 0.100495486944341 
2498	 0.100331056644408 
2499	 0.100608994416472 
2500	 0.101435365725868 
