Wavelength	spectrum00022.asd
350	 8.19414392081561E-02 
351	 7.85777807247278E-02 
352	 7.66911501376445E-02 
353	 7.58312904321582E-02 
354	 7.45640939040061E-02 
355	 7.18757569276184E-02 
356	 0.069022829667038 
357	 6.69357935068662E-02 
358	 6.37766772214916E-02 
359	 6.13894498157854E-02 
360	 6.04899965858353E-02 
361	 6.08349257514395E-02 
362	 6.04898383686837E-02 
363	 5.86534918457552E-02 
364	 5.63436770452506E-02 
365	 5.66687669679145E-02 
366	 0.056892860690302 
367	 0.056263121521239 
368	 5.49908970799682E-02 
369	 5.45983369499477E-02 
370	 0.054639035474388 
371	 5.46821018754381E-02 
372	 5.43659204523107E-02 
373	 5.38783936524014E-02 
374	 5.31715238707505E-02 
375	 5.24818937346232E-02 
376	 5.24756542865868E-02 
377	 5.20779273291802E-02 
378	 5.15111931266132E-02 
379	 5.10876946690003E-02 
380	 5.01028784434454E-02 
381	 4.95847903215655E-02 
382	 4.93173739076694E-02 
383	 4.84885682633888E-02 
384	 4.85674263361663E-02 
385	 4.85980276780593E-02 
386	 0.047986835314539 
387	 4.70817957511154E-02 
388	 4.63980807486144E-02 
389	 4.61214984899967E-02 
390	 4.60789079302107E-02 
391	 4.53047974619708E-02 
392	 4.45536568093634E-02 
393	 4.41271835620449E-02 
394	 4.39528478599411E-02 
395	 4.37390852809302E-02 
396	 4.35597756952569E-02 
397	 4.33722105724067E-02 
398	 0.042820810074232 
399	 4.26426968284585E-02 
400	 4.24117949565574E-02 
401	 4.16439715156717E-02 
402	 4.10293392300491E-02 
403	 4.08628192276318E-02 
404	 4.09223476889875E-02 
405	 0.040648549714063 
406	 4.01926636643803E-02 
407	 3.96424286713854E-02 
408	 0.039163048560622 
409	 3.91027085974964E-02 
410	 3.90666193399689E-02 
411	 3.89702283323143E-02 
412	 0.038828819474889 
413	 3.85959542516828E-02 
414	 3.83230266153973E-02 
415	 0.038120041386893 
416	 0.038128413695348 
417	 3.82129253046548E-02 
418	 0.038114216485228 
419	 0.037814070095229 
420	 3.78964065621249E-02 
421	 0.037858694114827 
422	 3.77472745794802E-02 
423	 3.77928098297504E-02 
424	 0.037848971709116 
425	 3.78682414899472E-02 
426	 3.79211193454022E-02 
427	 0.03819785895092 
428	 3.82307687731721E-02 
429	 3.84043928885233E-02 
430	 3.89263345717508E-02 
431	 3.88386243115083E-02 
432	 3.90941040583657E-02 
433	 3.96117343923719E-02 
434	 3.97971807037084E-02 
435	 4.02074889197236E-02 
436	 4.06244599704163E-02 
437	 4.09059251643827E-02 
438	 4.11422736818132E-02 
439	 4.16447373620989E-02 
440	 4.22492253738854E-02 
441	 4.27358477637621E-02 
442	 4.33082146027241E-02 
443	 4.39931399378398E-02 
444	 4.46827860175873E-02 
445	 4.51997646540958E-02 
446	 4.59220703423609E-02 
447	 4.66478924051207E-02 
448	 4.73232591884588E-02 
449	 4.84644929446171E-02 
450	 4.94851694740987E-02 
451	 5.03803886429188E-02 
452	 5.13561829310343E-02 
453	 5.23730721281469E-02 
454	 5.36311015412233E-02 
455	 5.50170034927275E-02 
456	 5.60801598192611E-02 
457	 5.73577087692036E-02 
458	 5.88050446674774E-02 
459	 6.03010046239565E-02 
460	 6.19293907106897E-02 
461	 6.34431497928003E-02 
462	 6.49568706011672E-02 
463	 6.67537218873286E-02 
464	 6.85981023076447E-02 
465	 7.05964696573432E-02 
466	 7.27043638127882E-02 
467	 7.45809568384131E-02 
468	 7.67171258121258E-02 
469	 7.90158022215061E-02 
470	 8.12916124930902E-02 
471	 8.37610255547981E-02 
472	 8.61953387682665E-02 
473	 8.86235141063395E-02 
474	 9.12701668183948E-02 
475	 9.39235012081152E-02 
476	 9.67253101002268E-02 
477	 9.97071562835274E-02 
478	 0.102517551605211 
479	 0.105540943264701 
480	 0.108722731167092 
481	 0.111866180825643 
482	 0.115063749950396 
483	 0.118327889955225 
484	 0.121690058204026 
485	 0.125199304726284 
486	 0.128784874580896 
487	 0.132381769197057 
488	 0.135956189208121 
489	 0.139561282990226 
490	 0.143259953062474 
491	 0.147070452505617 
492	 0.150970572614652 
493	 0.154848565439718 
494	 0.158715546624464 
495	 0.162595375487194 
496	 0.166497353717766 
497	 0.170454327998981 
498	 0.174436950051596 
499	 0.178402257511331 
500	 0.18238067854259 
501	 0.186383828772715 
502	 0.190428185484386 
503	 0.194524524485427 
504	 0.198438940259297 
505	 0.202288352942143 
506	 0.206203518604571 
507	 0.21018712869395 
508	 0.214143751350309 
509	 0.218014670945402 
510	 0.221791938782288 
511	 0.22568935618677 
512	 0.229539955374717 
513	 0.233305261755691 
514	 0.237172360827169 
515	 0.240849742396947 
516	 0.244481919244711 
517	 0.248215922012989 
518	 0.251782911879684 
519	 0.255334590358064 
520	 0.258881410620433 
521	 0.262338526593359 
522	 0.265816755845993 
523	 0.269252468724084 
524	 0.272615019891822 
525	 0.27601125287074 
526	 0.27926517069066 
527	 0.282469198379515 
528	 0.285764012223767 
529	 0.288973043489277 
530	 0.292062928567152 
531	 0.295083342271246 
532	 0.298152462343992 
533	 0.301160670773952 
534	 0.304102626938985 
535	 0.306972818110381 
536	 0.309689692448973 
537	 0.312477640536946 
538	 0.315303558574031 
539	 0.317999536843204 
540	 0.320624371034707 
541	 0.323198525055635 
542	 0.325753486676304 
543	 0.328345622308073 
544	 0.330825827324916 
545	 0.333174535515273 
546	 0.335464545414402 
547	 0.337958155992122 
548	 0.340503625228626 
549	 0.343076890590213 
550	 0.34577333240106 
551	 0.348447273028079 
552	 0.351154056661127 
553	 0.353936996683478 
554	 0.356714399986689 
555	 0.359437975639484 
556	 0.362143855705837 
557	 0.36488052087949 
558	 0.367440780299716 
559	 0.369969146749187 
560	 0.37252078752533 
561	 0.374983120976594 
562	 0.377242727143414 
563	 0.379179107499617 
564	 0.380765588031313 
565	 0.382241505830954 
566	 0.383836643882986 
567	 0.385520146163886 
568	 0.387099012628638 
569	 0.389041899706092 
570	 0.391230335404519 
571	 0.393480164015162 
572	 0.395697119776008 
573	 0.397766468176033 
574	 0.399625915609744 
575	 0.401230022405736 
576	 0.402438594782623 
577	 0.403326350165931 
578	 0.404037238395466 
579	 0.404769476330507 
580	 0.40576724346857 
581	 0.407104546430519 
582	 0.408741639651542 
583	 0.410496673454144 
584	 0.412276726471876 
585	 0.414079264782796 
586	 0.415920206462106 
587	 0.417393553476629 
588	 0.41869622044864 
589	 0.420069208656111 
590	 0.421689761091569 
591	 0.423400730625584 
592	 0.42513854542054 
593	 0.426895379586145 
594	 0.428807555097347 
595	 0.430565967628797 
596	 0.432117791616902 
597	 0.433640234462016 
598	 0.435056503138923 
599	 0.436410392922338 
600	 0.437737749704156 
601	 0.438991293945304 
602	 0.440279724931984 
603	 0.441642535293326 
604	 0.443067682887565 
605	 0.444465068464042 
606	 0.445858682200787 
607	 0.447213657464623 
608	 0.448408720878612 
609	 0.449643658823994 
610	 0.450859990807191 
611	 0.451990586233057 
612	 0.453150964274049 
613	 0.454358144333132 
614	 0.455567828060806 
615	 0.456706692960097 
616	 0.45782712928818 
617	 0.458981495589109 
618	 0.460173140573038 
619	 0.461324424836783 
620	 0.462465674963872 
621	 0.463572347649944 
622	 0.464621205421205 
623	 0.46566894009927 
624	 0.466741311921757 
625	 0.46782090831339 
626	 0.468856293414948 
627	 0.469893095490815 
628	 0.470933778374046 
629	 0.471968887232235 
630	 0.472977669532134 
631	 0.473963088567447 
632	 0.474941131372075 
633	 0.475931501112621 
634	 0.476942105414669 
635	 0.477927914836224 
636	 0.478864172718965 
637	 0.479754212817681 
638	 0.480659456130538 
639	 0.481634501353976 
640	 0.482657909559583 
641	 0.483473672946399 
642	 0.484329067295794 
643	 0.485278165071347 
644	 0.486237302289647 
645	 0.487077248353058 
646	 0.487879888515742 
647	 0.488725742272527 
648	 0.489649517550737 
649	 0.490491996713431 
650	 0.491308739011469 
651	 0.492184219979543 
652	 0.493010540505274 
653	 0.493834091143732 
654	 0.494648209016474 
655	 0.495408006713447 
656	 0.496222583177303 
657	 0.497036675480937 
658	 0.497810438393045 
659	 0.498587851760266 
660	 0.499462913917543 
661	 0.500312248438025 
662	 0.500992513908437 
663	 0.501737832338658 
664	 0.502578324225322 
665	 0.503409147776884 
666	 0.504022612779234 
667	 0.504772770026145 
668	 0.505583190814322 
669	 0.506327844265918 
670	 0.506974361447307 
671	 0.507736672803075 
672	 0.508549702004113 
673	 0.509245462032227 
674	 0.509925457342824 
675	 0.510678043274367 
676	 0.511458474144391 
677	 0.512069640164758 
678	 0.512763643531013 
679	 0.513446076604492 
680	 0.514042272529331 
681	 0.514801541167958 
682	 0.515523243269179 
683	 0.516179129740497 
684	 0.516836393575097 
685	 0.517475477895913 
686	 0.518156909205322 
687	 0.518873727424524 
688	 0.519518950819039 
689	 0.520039629767728 
690	 0.520570767463297 
691	 0.521244142011153 
692	 0.522006196287173 
693	 0.522684855165131 
694	 0.523259062277769 
695	 0.523816263644908 
696	 0.524429350013459 
697	 0.525098183400244 
698	 0.52578569703643 
699	 0.526423586901041 
700	 0.526919924334558 
701	 0.527413260149068 
702	 0.528049302291744 
703	 0.528737050633475 
704	 0.529342246639073 
705	 0.529856046772621 
706	 0.530368016848469 
707	 0.530963910260173 
708	 0.531609240472923 
709	 0.53223610459543 
710	 0.532750431848318 
711	 0.533302717271967 
712	 0.533856198206933 
713	 0.534355514144476 
714	 0.534908812048524 
715	 0.535488170114554 
716	 0.536016760702521 
717	 0.536417712331856 
718	 0.536967795475853 
719	 0.537596171217709 
720	 0.538193854724159 
721	 0.538674322034048 
722	 0.539137900989223 
723	 0.53961043770282 
724	 0.540111265775293 
725	 0.540740325222418 
726	 0.541330534820201 
727	 0.541810464516051 
728	 0.542200689134028 
729	 0.542621758241005 
730	 0.543128481489197 
731	 0.543707970134101 
732	 0.544265033490294 
733	 0.544717204425177 
734	 0.545184284784952 
735	 0.545788047276234 
736	 0.546429201355316 
737	 0.546908837216837 
738	 0.547295046021789 
739	 0.547803970198586 
740	 0.548223009407008 
741	 0.548593999909886 
742	 0.54898600642287 
743	 0.549460926112352 
744	 0.549965509586766 
745	 0.550406513999265 
746	 0.550735014593957 
747	 0.551056508696441 
748	 0.551514334174661 
749	 0.552054749037561 
750	 0.552515505034964 
751	 0.552917247332625 
752	 0.553247801523368 
753	 0.553558745088618 
754	 0.553979221192456 
755	 0.554507006660233 
756	 0.554990861862708 
757	 0.555331144587452 
758	 0.555664333017048 
759	 0.55605455270922 
760	 0.556483798876595 
761	 0.556889932927726 
762	 0.557242695658416 
763	 0.557630872893895 
764	 0.558057483450071 
765	 0.558431561792588 
766	 0.558856079614051 
767	 0.559303872055713 
768	 0.559720926928943 
769	 0.56004172461026 
770	 0.560406750725413 
771	 0.560810315019919 
772	 0.561204180204981 
773	 0.56163711597408 
774	 0.562024399407161 
775	 0.562349501339247 
776	 0.562664685332904 
777	 0.563051358699581 
778	 0.563571131455708 
779	 0.564113166456506 
780	 0.564288914333336 
781	 0.564575657507605 
782	 0.564974129937377 
783	 0.565356468465209 
784	 0.565657672294966 
785	 0.566039376053373 
786	 0.566481773768997 
787	 0.566858784375945 
788	 0.56712738607744 
789	 0.567410053775386 
790	 0.567784817294022 
791	 0.568247947089561 
792	 0.568631469705869 
793	 0.568924820505851 
794	 0.569190416199098 
795	 0.569574707616029 
796	 0.569938993818982 
797	 0.570280040412222 
798	 0.570618113886826 
799	 0.570823043251256 
800	 0.571100847863361 
801	 0.571523235280896 
802	 0.57202083725025 
803	 0.57238620146093 
804	 0.572653317751477 
805	 0.572933582895416 
806	 0.573389035593345 
807	 0.573763979603505 
808	 0.574099066859985 
809	 0.574451449631267 
810	 0.574680545618332 
811	 0.57495331641587 
812	 0.575271989285031 
813	 0.575579349106045 
814	 0.575954580459227 
815	 0.576317773785034 
816	 0.576630897491544 
817	 0.576904403377919 
818	 0.577137301295974 
819	 0.577417139849018 
820	 0.577770770564114 
821	 0.578109749470039 
822	 0.57834887789072 
823	 0.578575569192144 
824	 0.578889866353131 
825	 0.579290444873562 
826	 0.579509191739973 
827	 0.579667675838726 
828	 0.580011626138562 
829	 0.580339243402036 
830	 0.5805836858684 
831	 0.580795230069413 
832	 0.581102879456035 
833	 0.581377362775059 
834	 0.581672012757525 
835	 0.581973614990016 
836	 0.58213248719117 
837	 0.582380523945477 
838	 0.582622372212455 
839	 0.58276027290448 
840	 0.582909676438214 
841	 0.583229785169369 
842	 0.583618117442711 
843	 0.583875086573976 
844	 0.583946638117267 
845	 0.584024474788159 
846	 0.58423227157176 
847	 0.584600547048107 
848	 0.584979572919942 
849	 0.585263160395798 
850	 0.585485279011072 
851	 0.58582648205344 
852	 0.585961257267912 
853	 0.58611181898861 
854	 0.58643636641845 
855	 0.58671846059121 
856	 0.586969516417509 
857	 0.587143494559527 
858	 0.58726407912099 
859	 0.587647243966088 
860	 0.587907703485719 
861	 0.588062100656444 
862	 0.588311637375228 
863	 0.588551641441868 
864	 0.588790887292169 
865	 0.589012160638692 
866	 0.589184826348357 
867	 0.589404658994931 
868	 0.589733282564781 
869	 0.590074868459185 
870	 0.590150090609804 
871	 0.590210979522021 
872	 0.590398165129384 
873	 0.590713207204315 
874	 0.590915786497924 
875	 0.591185700290303 
876	 0.591473759749079 
877	 0.59170872566943 
878	 0.592010482888558 
879	 0.592218859513186 
880	 0.592338398881182 
881	 0.592466217870686 
882	 0.592696818136763 
883	 0.592882892473062 
884	 0.59299424460387 
885	 0.593111559742332 
886	 0.593316536499539 
887	 0.593580015569656 
888	 0.593834663293617 
889	 0.59399536000227 
890	 0.594075504659941 
891	 0.594160294529114 
892	 0.594311889650951 
893	 0.594527573455987 
894	 0.594689379888353 
895	 0.594889725210759 
896	 0.595172736653541 
897	 0.595320754143631 
898	 0.595368849306037 
899	 0.595465577644155 
900	 0.5957265746366 
901	 0.595985046687664 
902	 0.596219433917343 
903	 0.596350493602495 
904	 0.596349231611174 
905	 0.596549400995083 
906	 0.596817407715188 
907	 0.597043144574304 
908	 0.597187970606623 
909	 0.597441960613213 
910	 0.597690416260444 
911	 0.597883057782471 
912	 0.598066870301106 
913	 0.598231263875281 
914	 0.598417282358889 
915	 0.598639639540358 
916	 0.598867836180971 
917	 0.599087615807887 
918	 0.599305089414426 
919	 0.599529622255871 
920	 0.599766258531391 
921	 0.600000917934649 
922	 0.600199805428706 
923	 0.600356889099451 
924	 0.600539971547244 
925	 0.600778466951054 
926	 0.601012442998728 
927	 0.601195965156101 
928	 0.601439929879762 
929	 0.601662773842701 
930	 0.601953154373371 
931	 0.602362308574092 
932	 0.6024756316808 
933	 0.602644636056113 
934	 0.602974314119902 
935	 0.603390858188403 
936	 0.60377561463934 
937	 0.604107092386731 
938	 0.604319396837383 
939	 0.604374641977752 
940	 0.604609029702778 
941	 0.604870999208569 
942	 0.605071630138514 
943	 0.605237475907912 
944	 0.605538164338595 
945	 0.605791940539608 
946	 0.605904723736047 
947	 0.60593902103429 
948	 0.606064902864714 
949	 0.606268475481438 
950	 0.606483692000715 
951	 0.606628096329721 
952	 0.606703522424708 
953	 0.606759606279284 
954	 0.606852121529936 
955	 0.607024306042706 
956	 0.607325681530286 
957	 0.607480429245289 
958	 0.607404220170582 
959	 0.607441283618242 
960	 0.607519937272074 
961	 0.607704385385076 
962	 0.607956398684965 
963	 0.608007513880013 
964	 0.607978194696905 
965	 0.608060172888329 
966	 0.608309410849898 
967	 0.608442593105181 
968	 0.60864441198407 
969	 0.608829754615364 
970	 0.608909536426237 
971	 0.60897189519269 
972	 0.60905056752252 
973	 0.609189589911296 
974	 0.609388340461862 
975	 0.60953470437372 
976	 0.609692469494361 
977	 0.609811803444777 
978	 0.609868826959883 
979	 0.610028109610569 
980	 0.610107424189243 
981	 0.610109947338113 
982	 0.610112965324333 
983	 0.610198451906467 
984	 0.6103167274784 
985	 0.610453780869914 
986	 0.610623171464313 
987	 0.610895237244679 
988	 0.611120889791164 
989	 0.611181015943907 
990	 0.611106501739592 
991	 0.611337920676572 
992	 0.611528566182246 
993	 0.611641241296271 
994	 0.611796268079096 
995	 0.612222048825069 
996	 0.612599701938409 
997	 0.612834353724781 
998	 0.61297741578083 
999	 0.613225767051798 
1000	 0.613443112312436 
1001	 0.592248393867219 
1002	 0.592528705342687 
1003	 0.592833407892745 
1004	 0.593131179794872 
1005	 0.5934608666392 
1006	 0.593760615867253 
1007	 0.594043540666997 
1008	 0.594338029303322 
1009	 0.594635427680594 
1010	 0.594931086546617 
1011	 0.595258378639523 
1012	 0.595524544585086 
1013	 0.595751343276001 
1014	 0.595986447151674 
1015	 0.596164902468888 
1016	 0.596373042692452 
1017	 0.596677919136445 
1018	 0.596971732399393 
1019	 0.597307020470752 
1020	 0.597638543998324 
1021	 0.597906756587292 
1022	 0.598109951764905 
1023	 0.598377277312209 
1024	 0.598624667480701 
1025	 0.598892609404516 
1026	 0.599210499429378 
1027	 0.599492951607885 
1028	 0.599751369174331 
1029	 0.600034701894222 
1030	 0.600315982257008 
1031	 0.600564467314069 
1032	 0.600812167652457 
1033	 0.60108335498576 
1034	 0.601318272621296 
1035	 0.601537627816801 
1036	 0.601773667173275 
1037	 0.602011373206607 
1038	 0.602235739468022 
1039	 0.602464021710404 
1040	 0.602698364920268 
1041	 0.602913878349177 
1042	 0.603132706385516 
1043	 0.603363178143068 
1044	 0.603602395081979 
1045	 0.603797996481807 
1046	 0.604000680548797 
1047	 0.604200336977885 
1048	 0.604374877959333 
1049	 0.604563657646172 
1050	 0.604768889458707 
1051	 0.604980014767804 
1052	 0.605206563231949 
1053	 0.605424578671366 
1054	 0.605667071647959 
1055	 0.605861869111878 
1056	 0.606040826718235 
1057	 0.606209873549615 
1058	 0.606346441742264 
1059	 0.606474309427972 
1060	 0.606666368960642 
1061	 0.606817384219046 
1062	 0.606963526037488 
1063	 0.607130695775142 
1064	 0.607231318515291 
1065	 0.607294986497522 
1066	 0.607403502638361 
1067	 0.607540758550524 
1068	 0.607684915674306 
1069	 0.607832801133219 
1070	 0.607964395501013 
1071	 0.608083638922597 
1072	 0.608181491768154 
1073	 0.608297039246867 
1074	 0.608460063841978 
1075	 0.608600575442537 
1076	 0.608721543099397 
1077	 0.608849748423163 
1078	 0.608937780056935 
1079	 0.609040060304313 
1080	 0.609171932767171 
1081	 0.609267598438126 
1082	 0.609332293903412 
1083	 0.609414802693227 
1084	 0.609520130382693 
1085	 0.609628300053396 
1086	 0.609732196820245 
1087	 0.609852837342083 
1088	 0.609975427762163 
1089	 0.610066701022006 
1090	 0.610167731480157 
1091	 0.610309253093286 
1092	 0.610410827711354 
1093	 0.610493118391727 
1094	 0.610604818685963 
1095	 0.610677747511293 
1096	 0.610724118569928 
1097	 0.610804063584591 
1098	 0.610872486311803 
1099	 0.610939602513464 
1100	 0.611050928586326 
1101	 0.611162245845252 
1102	 0.61122127307539 
1103	 0.611273777110399 
1104	 0.611303478720267 
1105	 0.611349098442529 
1106	 0.61138964077481 
1107	 0.611442040160387 
1108	 0.611508325955386 
1109	 0.611537501597201 
1110	 0.611572093606846 
1111	 0.611648656078811 
1112	 0.611712682113476 
1113	 0.611784798467206 
1114	 0.611866365376011 
1115	 0.611898832944261 
1116	 0.611942111958683 
1117	 0.611996152099948 
1118	 0.612027101434929 
1119	 0.612041363403576 
1120	 0.612059292969216 
1121	 0.612072185057869 
1122	 0.612068499519828 
1123	 0.612063091379021 
1124	 0.612030059208453 
1125	 0.612011691835365 
1126	 0.612021407401924 
1127	 0.612024549672197 
1128	 0.612014056809726 
1129	 0.611970538576164 
1130	 0.611898970771199 
1131	 0.611814772075248 
1132	 0.611733337877893 
1133	 0.611667202091532 
1134	 0.611577199666608 
1135	 0.611468374966932 
1136	 0.611353893580564 
1137	 0.611214501043553 
1138	 0.611055455280668 
1139	 0.61086658781752 
1140	 0.610657293902761 
1141	 0.610428795735425 
1142	 0.610155656119769 
1143	 0.609854499246026 
1144	 0.609526079287869 
1145	 0.609135243554701 
1146	 0.608719652710239 
1147	 0.608267386007985 
1148	 0.607787189984397 
1149	 0.607320115240155 
1150	 0.606797708568977 
1151	 0.60627142733783 
1152	 0.605720684959642 
1153	 0.605132762379624 
1154	 0.604528749144 
1155	 0.603936831191379 
1156	 0.603271368612694 
1157	 0.602567165525245 
1158	 0.60184091593306 
1159	 0.601054355914431 
1160	 0.600268821394795 
1161	 0.599481181915213 
1162	 0.598610903122767 
1163	 0.597767192771662 
1164	 0.596888473427731 
1165	 0.595981059065616 
1166	 0.595160872025151 
1167	 0.594324599651002 
1168	 0.593494773503274 
1169	 0.592662876842336 
1170	 0.591816926842067 
1171	 0.591005506834441 
1172	 0.590185349861421 
1173	 0.589417105570289 
1174	 0.588699892717919 
1175	 0.58800896043739 
1176	 0.587338005287475 
1177	 0.586703420364684 
1178	 0.586109686238826 
1179	 0.585519059793067 
1180	 0.584974642777202 
1181	 0.584467648788032 
1182	 0.584011352267092 
1183	 0.583619094008649 
1184	 0.583252343716433 
1185	 0.582919142404409 
1186	 0.582588128348991 
1187	 0.582269766769594 
1188	 0.581966681938115 
1189	 0.581679474325765 
1190	 0.58140141803604 
1191	 0.581135522736359 
1192	 0.580888144258517 
1193	 0.58065611493561 
1194	 0.580437041567466 
1195	 0.580228742748041 
1196	 0.580042310771686 
1197	 0.579880096343224 
1198	 0.579714101077267 
1199	 0.579552625223132 
1200	 0.579418278023859 
1201	 0.579278494945042 
1202	 0.579156702701832 
1203	 0.579087694300876 
1204	 0.579064952886167 
1205	 0.579135621038144 
1206	 0.579246875343871 
1207	 0.579496671023799 
1208	 0.579840273495287 
1209	 0.580296059000464 
1210	 0.58087155269222 
1211	 0.581524845941421 
1212	 0.582315823149841 
1213	 0.583122827190888 
1214	 0.584021487148115 
1215	 0.584936463534468 
1216	 0.585908379157337 
1217	 0.58686947810855 
1218	 0.587870130298893 
1219	 0.588864473002115 
1220	 0.589821485165951 
1221	 0.590825608859348 
1222	 0.591765183499878 
1223	 0.592678062918333 
1224	 0.593551980924206 
1225	 0.594383218288979 
1226	 0.595178961476339 
1227	 0.59594166913725 
1228	 0.596676785155042 
1229	 0.597369583673855 
1230	 0.598050878116437 
1231	 0.598694456642803 
1232	 0.599347040212032 
1233	 0.599990172276502 
1234	 0.600611420940118 
1235	 0.601219013017178 
1236	 0.601823158738111 
1237	 0.602393883685601 
1238	 0.602987252212944 
1239	 0.603594917168499 
1240	 0.60420175383284 
1241	 0.604817621567654 
1242	 0.605387915482183 
1243	 0.605954106143257 
1244	 0.606511196876802 
1245	 0.607036851903928 
1246	 0.607551461033872 
1247	 0.608023441185724 
1248	 0.608464298708436 
1249	 0.608877253845982 
1250	 0.609252209827647 
1251	 0.609610531490863 
1252	 0.609947196639924 
1253	 0.610255442953284 
1254	 0.610535756774045 
1255	 0.610797428981498 
1256	 0.611019533727443 
1257	 0.611248020862496 
1258	 0.611468466070755 
1259	 0.611673544730676 
1260	 0.611855225868581 
1261	 0.612050458588395 
1262	 0.612232015059179 
1263	 0.612426415215519 
1264	 0.612626568061788 
1265	 0.612849631129939 
1266	 0.613048038951138 
1267	 0.613237299224811 
1268	 0.613430377220766 
1269	 0.613623695618894 
1270	 0.613803654235653 
1271	 0.613978288946093 
1272	 0.614150860467378 
1273	 0.614312712819201 
1274	 0.61447128536665 
1275	 0.614631987301777 
1276	 0.614782486357883 
1277	 0.614911393227746 
1278	 0.615055926718138 
1279	 0.615213567602056 
1280	 0.615355156133883 
1281	 0.615500321161631 
1282	 0.615631604475555 
1283	 0.615733759993921 
1284	 0.615849052946971 
1285	 0.615966166256653 
1286	 0.616087877716028 
1287	 0.616191920512249 
1288	 0.616301122471715 
1289	 0.616384088300188 
1290	 0.616451006925706 
1291	 0.616498952628995 
1292	 0.616528929389041 
1293	 0.616552355588445 
1294	 0.616549706910738 
1295	 0.616557789111548 
1296	 0.616554404632186 
1297	 0.616570668578643 
1298	 0.616615439313241 
1299	 0.616619534325008 
1300	 0.61663166121461 
1301	 0.616608189415849 
1302	 0.616537370823563 
1303	 0.616470841706536 
1304	 0.616386910082488 
1305	 0.616305856655669 
1306	 0.616222291194821 
1307	 0.616130668089182 
1308	 0.616050119154435 
1309	 0.615943939770412 
1310	 0.61581789851096 
1311	 0.615674986213488 
1312	 0.615520744952691 
1313	 0.615348840919686 
1314	 0.615160392620867 
1315	 0.61496983366081 
1316	 0.614739768495861 
1317	 0.614469085400118 
1318	 0.61421031812543 
1319	 0.613928311146286 
1320	 0.613657169613625 
1321	 0.613402338817372 
1322	 0.613120842541841 
1323	 0.612832408812454 
1324	 0.612526273073466 
1325	 0.612206355885621 
1326	 0.611868600739695 
1327	 0.611539303569251 
1328	 0.611153641122779 
1329	 0.610726602552208 
1330	 0.610286180968373 
1331	 0.609803450533421 
1332	 0.609311838613934 
1333	 0.608823456023373 
1334	 0.608293174639039 
1335	 0.607756797583515 
1336	 0.607202779746433 
1337	 0.606623195832643 
1338	 0.606031074370145 
1339	 0.605407202308904 
1340	 0.604765552716593 
1341	 0.604074233374781 
1342	 0.603350254121412 
1343	 0.602595755064703 
1344	 0.601800555267485 
1345	 0.60097672411201 
1346	 0.600127998170202 
1347	 0.599249789708045 
1348	 0.598338019561808 
1349	 0.597396098841545 
1350	 0.596411917932684 
1351	 0.595424958715268 
1352	 0.594399565158818 
1353	 0.593381330426793 
1354	 0.592343977673618 
1355	 0.591336051668246 
1356	 0.590322693660645 
1357	 0.589334101069221 
1358	 0.588345822501548 
1359	 0.587408466658474 
1360	 0.586507727259805 
1361	 0.585623217947866 
1362	 0.584763725373809 
1363	 0.583997040004471 
1364	 0.583195141245083 
1365	 0.582415277200984 
1366	 0.581614302648915 
1367	 0.580815170622827 
1368	 0.580008453211365 
1369	 0.579210288614241 
1370	 0.578360824853209 
1371	 0.577509022143196 
1372	 0.576607843568747 
1373	 0.575668867737804 
1374	 0.574681594277095 
1375	 0.573663723542561 
1376	 0.572585386529891 
1377	 0.571430953548797 
1378	 0.570263897929987 
1379	 0.569025949880516 
1380	 0.567825256647574 
1381	 0.566585177081118 
1382	 0.565403931562866 
1383	 0.56424780305822 
1384	 0.563122832870069 
1385	 0.562063221076791 
1386	 0.560984345088803 
1387	 0.559944709935573 
1388	 0.55887705986954 
1389	 0.557824303782053 
1390	 0.55671133058323 
1391	 0.555593681763741 
1392	 0.554378531109614 
1393	 0.553182874070157 
1394	 0.551881377090886 
1395	 0.550489826936887 
1396	 0.549068230639202 
1397	 0.547476095069147 
1398	 0.545783029978909 
1399	 0.543907059969019 
1400	 0.541888130313844 
1401	 0.539734616180198 
1402	 0.537411064173758 
1403	 0.534981804457807 
1404	 0.532426647724217 
1405	 0.529788445009368 
1406	 0.527007812582362 
1407	 0.524176503365807 
1408	 0.521218397187465 
1409	 0.518274148829525 
1410	 0.51527267065617 
1411	 0.512240070563318 
1412	 0.509172568806795 
1413	 0.50612774142692 
1414	 0.503035651358419 
1415	 0.499964695567806 
1416	 0.496875973881629 
1417	 0.493844029640246 
1418	 0.490803991728649 
1419	 0.487825282935643 
1420	 0.484866060456403 
1421	 0.482041020320814 
1422	 0.479283364702733 
1423	 0.476605253460559 
1424	 0.47411533060103 
1425	 0.471545848053374 
1426	 0.469152517971311 
1427	 0.466730308056837 
1428	 0.464248856372035 
1429	 0.46189319877281 
1430	 0.459319955116578 
1431	 0.456700964937265 
1432	 0.453824154984717 
1433	 0.450812282441569 
1434	 0.447592468008085 
1435	 0.444141605270103 
1436	 0.440562875612336 
1437	 0.436744358350967 
1438	 0.433032734074829 
1439	 0.429043369872019 
1440	 0.425473557589997 
1441	 0.421827141974358 
1442	 0.418850838450797 
1443	 0.416021339088879 
1444	 0.414045601703094 
1445	 0.412603540989095 
1446	 0.411918805542441 
1447	 0.411953683458589 
1448	 0.412583454015126 
1449	 0.414106337658777 
1450	 0.415816473803076 
1451	 0.418267102908164 
1452	 0.420656562761291 
1453	 0.423478566174655 
1454	 0.426062085504766 
1455	 0.428787382405888 
1456	 0.43126557649372 
1457	 0.433641669849675 
1458	 0.435815507919325 
1459	 0.437800018909694 
1460	 0.439651907758996 
1461	 0.441298193689744 
1462	 0.442832187927665 
1463	 0.444206509454089 
1464	 0.44551094804989 
1465	 0.446663269783664 
1466	 0.447785648695389 
1467	 0.448810356759328 
1468	 0.449792904878188 
1469	 0.450736325892421 
1470	 0.451576204807205 
1471	 0.452416562598046 
1472	 0.4532327687265 
1473	 0.453975254010268 
1474	 0.454690670809848 
1475	 0.45529177860901 
1476	 0.455842901768098 
1477	 0.456235231479093 
1478	 0.456537151002646 
1479	 0.456662698118103 
1480	 0.456636877470443 
1481	 0.456493124091543 
1482	 0.456158252893217 
1483	 0.455818662194099 
1484	 0.455321099241988 
1485	 0.454917083492555 
1486	 0.454409349347537 
1487	 0.454127856192093 
1488	 0.453846427995433 
1489	 0.453864640204291 
1490	 0.454047898191034 
1491	 0.454487154359612 
1492	 0.455146574126479 
1493	 0.456055086723697 
1494	 0.457258014670833 
1495	 0.458575491011196 
1496	 0.460157406324428 
1497	 0.461799934342393 
1498	 0.463645787156772 
1499	 0.465460543223986 
1500	 0.467422364377264 
1501	 0.469292420373165 
1502	 0.471193197466183 
1503	 0.472960214402273 
1504	 0.474696730543315 
1505	 0.476298376773401 
1506	 0.477793541852652 
1507	 0.479168594784304 
1508	 0.48042783883029 
1509	 0.481580373574415 
1510	 0.482597303967216 
1511	 0.483523187162879 
1512	 0.484343385183481 
1513	 0.485074028785023 
1514	 0.485681934610933 
1515	 0.486235804620799 
1516	 0.486702165864285 
1517	 0.487106180149207 
1518	 0.487431499191426 
1519	 0.48770987022858 
1520	 0.487922667076157 
1521	 0.488087506394474 
1522	 0.488183548412323 
1523	 0.488239740221914 
1524	 0.488246767617852 
1525	 0.488182570414958 
1526	 0.488120747309101 
1527	 0.488018460399445 
1528	 0.487932093317123 
1529	 0.487825733341796 
1530	 0.487737521641994 
1531	 0.487639846347606 
1532	 0.48759226756326 
1533	 0.487537712979711 
1534	 0.487583664294823 
1535	 0.487677596531364 
1536	 0.48785336745931 
1537	 0.488079273170054 
1538	 0.488436934514676 
1539	 0.488865628345079 
1540	 0.489445020341974 
1541	 0.49015499016642 
1542	 0.490975694486857 
1543	 0.491937742829697 
1544	 0.492956548700194 
1545	 0.494085319765652 
1546	 0.49528201717114 
1547	 0.496587616420776 
1548	 0.497890405846107 
1549	 0.499282359594098 
1550	 0.500647742334897 
1551	 0.502031044936665 
1552	 0.5033900260832 
1553	 0.504762753865417 
1554	 0.506110047768087 
1555	 0.507440901878977 
1556	 0.508744034885051 
1557	 0.510040143201517 
1558	 0.51130232632761 
1559	 0.512539459275545 
1560	 0.513730331976157 
1561	 0.514892933046953 
1562	 0.516019266072081 
1563	 0.517096334295231 
1564	 0.518147281256541 
1565	 0.519166940346475 
1566	 0.520163958169335 
1567	 0.521123861972647 
1568	 0.522063928488303 
1569	 0.522984061404283 
1570	 0.523879568924337 
1571	 0.524735042172904 
1572	 0.525590783496083 
1573	 0.52643050670038 
1574	 0.527262366463073 
1575	 0.528101739121656 
1576	 0.528896348905979 
1577	 0.529661941130635 
1578	 0.530414379312524 
1579	 0.53111937077579 
1580	 0.531840465818908 
1581	 0.532563763875421 
1582	 0.533275968417186 
1583	 0.533976803407324 
1584	 0.534685130324095 
1585	 0.535387519902071 
1586	 0.536094682549641 
1587	 0.53682351586357 
1588	 0.537521789642814 
1589	 0.538193135645582 
1590	 0.538881896282415 
1591	 0.539549904529593 
1592	 0.540246412331262 
1593	 0.540971367264759 
1594	 0.541694629491835 
1595	 0.542439882093928 
1596	 0.543161889622965 
1597	 0.543874483163853 
1598	 0.544588402183803 
1599	 0.545294418310769 
1600	 0.545996262337442 
1601	 0.54669692058778 
1602	 0.54739905522685 
1603	 0.548098416111948 
1604	 0.548785737705729 
1605	 0.54947583270236 
1606	 0.550152440696861 
1607	 0.55081929981877 
1608	 0.551470822467397 
1609	 0.552122984983941 
1610	 0.552743967977923 
1611	 0.553329776245039 
1612	 0.553909279835718 
1613	 0.554476444384223 
1614	 0.555020765292284 
1615	 0.555559262713478 
1616	 0.55606721037192 
1617	 0.556530250029499 
1618	 0.556998900035433 
1619	 0.557455986231804 
1620	 0.5578945301452 
1621	 0.558333232451447 
1622	 0.558744573291754 
1623	 0.559125826126964 
1624	 0.559499292369621 
1625	 0.5598414140056 
1626	 0.560196815367752 
1627	 0.560558764951253 
1628	 0.560899055083453 
1629	 0.561227965033005 
1630	 0.561563460491209 
1631	 0.56187390275253 
1632	 0.562204383951784 
1633	 0.562568064423495 
1634	 0.562907369792601 
1635	 0.563248410144955 
1636	 0.563568835280909 
1637	 0.563869398891817 
1638	 0.56415966513659 
1639	 0.56445001750053 
1640	 0.564705480310888 
1641	 0.564935418938803 
1642	 0.565151709352528 
1643	 0.565330299495561 
1644	 0.565508345694003 
1645	 0.565700344997938 
1646	 0.565844627797193 
1647	 0.565953377518373 
1648	 0.566050997402915 
1649	 0.566122218868515 
1650	 0.566167577841217 
1651	 0.566203545871833 
1652	 0.566210774903481 
1653	 0.566197121506227 
1654	 0.566129104421802 
1655	 0.566039615800704 
1656	 0.565887457857339 
1657	 0.56566501302322 
1658	 0.565413549282836 
1659	 0.565118168988445 
1660	 0.564783847319967 
1661	 0.564420297572803 
1662	 0.563996600510281 
1663	 0.563538136686382 
1664	 0.562995203335398 
1665	 0.562385772154799 
1666	 0.561700521368618 
1667	 0.56094189551341 
1668	 0.56011584807232 
1669	 0.559235170815571 
1670	 0.558253529476454 
1671	 0.557172604589865 
1672	 0.556022189502344 
1673	 0.554784078314209 
1674	 0.55346824230307 
1675	 0.552071254334144 
1676	 0.550640675731279 
1677	 0.549148122317439 
1678	 0.547575316491723 
1679	 0.545933459751851 
1680	 0.544231494146962 
1681	 0.542452984536479 
1682	 0.540590520583038 
1683	 0.538683271425695 
1684	 0.536705313591156 
1685	 0.534620420068785 
1686	 0.532493647597915 
1687	 0.530295639192751 
1688	 0.528042373522947 
1689	 0.525717175422683 
1690	 0.523339378394371 
1691	 0.520927178215891 
1692	 0.518484802047909 
1693	 0.516001966555782 
1694	 0.513448319084255 
1695	 0.510833897688975 
1696	 0.508133179437448 
1697	 0.505348398703083 
1698	 0.502480932905092 
1699	 0.499532977669953 
1700	 0.496638711999863 
1701	 0.493661577110812 
1702	 0.490765089828752 
1703	 0.487848995951514 
1704	 0.485066984002892 
1705	 0.4823257242356 
1706	 0.479644231016113 
1707	 0.47724160559343 
1708	 0.474851690180761 
1709	 0.472526979599541 
1710	 0.470326408023984 
1711	 0.468057490885576 
1712	 0.465890083872218 
1713	 0.463701157634284 
1714	 0.46145372249386 
1715	 0.459357999802405 
1716	 0.457181561659565 
1717	 0.455029145299668 
1718	 0.452972129864295 
1719	 0.450848909642531 
1720	 0.448847010278692 
1721	 0.446903419374474 
1722	 0.445039381054872 
1723	 0.443441504940195 
1724	 0.441950526158491 
1725	 0.44063135852583 
1726	 0.439551786105935 
1727	 0.438591874087528 
1728	 0.437853955456039 
1729	 0.437312764139227 
1730	 0.43693540169989 
1731	 0.436705121920634 
1732	 0.436556921549076 
1733	 0.436459647900999 
1734	 0.436398084450159 
1735	 0.436310696747527 
1736	 0.43617911488859 
1737	 0.435965865927781 
1738	 0.435661360962149 
1739	 0.435273497130337 
1740	 0.434781399442086 
1741	 0.434248267996988 
1742	 0.433589890813968 
1743	 0.432962977748748 
1744	 0.432249524832077 
1745	 0.431644125801595 
1746	 0.431043331395202 
1747	 0.430614768586155 
1748	 0.4302726192869 
1749	 0.430081921313815 
1750	 0.430023242189047 
1751	 0.430109588232458 
1752	 0.43032794964202 
1753	 0.430708517828506 
1754	 0.431246633704412 
1755	 0.431927343372402 
1756	 0.432773142382185 
1757	 0.433750102647017 
1758	 0.43489715706578 
1759	 0.436107014518644 
1760	 0.437448403600775 
1761	 0.438915607270373 
1762	 0.44037553304365 
1763	 0.441943695372507 
1764	 0.443519803768026 
1765	 0.445099606571232 
1766	 0.446783561714607 
1767	 0.448378672664456 
1768	 0.449993054633325 
1769	 0.45159233441689 
1770	 0.453025098085668 
1771	 0.454453350246495 
1772	 0.455808829982049 
1773	 0.457063187165387 
1774	 0.458334260168255 
1775	 0.45952060993784 
1776	 0.460686706468844 
1777	 0.46183859049657 
1778	 0.462884869132909 
1779	 0.463970062584412 
1780	 0.465049153168822 
1781	 0.46608841810787 
1782	 0.467189527980595 
1783	 0.468245420001091 
1784	 0.469296223176071 
1785	 0.470369833752507 
1786	 0.471421969791444 
1787	 0.472509155466875 
1788	 0.473556057748093 
1789	 0.474577377771242 
1790	 0.475589454956047 
1791	 0.476584285365938 
1792	 0.477567672765218 
1793	 0.478511950570879 
1794	 0.479442928376125 
1795	 0.48036200088184 
1796	 0.481272564475474 
1797	 0.48222613088238 
1798	 0.483105591166552 
1799	 0.483976499069938 
1800	 0.484805416916888 
1801	 0.494557102581159 
1802	 0.496007192854373 
1803	 0.497299376787062 
1804	 0.49844266831727 
1805	 0.499596446121261 
1806	 0.500612797555561 
1807	 0.501514090238413 
1808	 0.502367217492619 
1809	 0.503132741700057 
1810	 0.503848837643073 
1811	 0.504453234679734 
1812	 0.505080963665322 
1813	 0.505655785152887 
1814	 0.50625314537046 
1815	 0.506838620290505 
1816	 0.507434891013407 
1817	 0.50802888744178 
1818	 0.508631589346173 
1819	 0.509203912498102 
1820	 0.50977723350906 
1821	 0.510323115973189 
1822	 0.510828158968994 
1823	 0.511356428603468 
1824	 0.511864270195138 
1825	 0.512362946559872 
1826	 0.512844866249023 
1827	 0.513325816890652 
1828	 0.513750134494822 
1829	 0.514156040448205 
1830	 0.514530761496214 
1831	 0.514868571878066 
1832	 0.515178502368414 
1833	 0.515450497090627 
1834	 0.515725648151898 
1835	 0.515976252202964 
1836	 0.516209300938046 
1837	 0.516444948006521 
1838	 0.516672787706208 
1839	 0.516894065651716 
1840	 0.517118502909295 
1841	 0.517325256049023 
1842	 0.517544459577191 
1843	 0.517727639707993 
1844	 0.517867863044079 
1845	 0.517946611198727 
1846	 0.517941945737896 
1847	 0.517894917864149 
1848	 0.517771495538361 
1849	 0.517610029638207 
1850	 0.517314085354964 
1851	 0.516949333610998 
1852	 0.516456831012493 
1853	 0.515833975513601 
1854	 0.515144874193925 
1855	 0.51431688096734 
1856	 0.513401575473916 
1857	 0.512357535477218 
1858	 0.511123122250447 
1859	 0.509802745714396 
1860	 0.508389657936889 
1861	 0.506783001813499 
1862	 0.505012381082272 
1863	 0.503201136554349 
1864	 0.501148987104759 
1865	 0.498994591334573 
1866	 0.496682395892551 
1867	 0.494082893626413 
1868	 0.491405228954945 
1869	 0.488515419778348 
1870	 0.485557104825479 
1871	 0.482499286671322 
1872	 0.479417958771363 
1873	 0.476228747815474 
1874	 0.473059902802838 
1875	 0.469894383767537 
1876	 0.466373557777294 
1877	 0.462898039943179 
1878	 0.459195471257504 
1879	 0.455161452133063 
1880	 0.451278632045442 
1881	 0.447122594931635 
1882	 0.442714116731694 
1883	 0.438223684150224 
1884	 0.43362172191371 
1885	 0.428529022437816 
1886	 0.423484006135117 
1887	 0.418173107611812 
1888	 0.412597274338336 
1889	 0.40732805024232 
1890	 0.401806533518787 
1891	 0.396284642699965 
1892	 0.390847955926473 
1893	 0.385159326984709 
1894	 0.3792011861675 
1895	 0.373436114774071 
1896	 0.367493497448839 
1897	 0.361380061618877 
1898	 0.355748181796215 
1899	 0.34991252490007 
1900	 0.344145860291156 
1901	 0.338602916873344 
1902	 0.332686570949022 
1903	 0.327003099446987 
1904	 0.321384198877313 
1905	 0.315748904131098 
1906	 0.310186791104886 
1907	 0.305173893006359 
1908	 0.300046970480308 
1909	 0.295076149028444 
1910	 0.290314826656497 
1911	 0.285230352737509 
1912	 0.280388696449634 
1913	 0.275550217864442 
1914	 0.270587405803176 
1915	 0.265872471020617 
1916	 0.261414527459926 
1917	 0.256770119261103 
1918	 0.252206059223222 
1919	 0.247745799781024 
1920	 0.24292651851644 
1921	 0.238262384217611 
1922	 0.233495212502971 
1923	 0.228582345072081 
1924	 0.224034179260451 
1925	 0.219329414838063 
1926	 0.214711730689886 
1927	 0.210237282524522 
1928	 0.205710018671254 
1929	 0.201041020531727 
1930	 0.196665628724055 
1931	 0.192392159067696 
1932	 0.188268494588989 
1933	 0.1847271698824 
1934	 0.181362818855641 
1935	 0.178306514702832 
1936	 0.175720400825766 
1937	 0.173386310818122 
1938	 0.171286808997015 
1939	 0.169679894899172 
1940	 0.168448995568377 
1941	 0.167574875383941 
1942	 0.167138976650525 
1943	 0.166989045453943 
1944	 0.167104460634729 
1945	 0.167551609096976 
1946	 0.168383479008503 
1947	 0.16946542997786 
1948	 0.171011691266505 
1949	 0.173009247136276 
1950	 0.175266566985409 
1951	 0.177922220781787 
1952	 0.180885040098587 
1953	 0.184143611513856 
1954	 0.187721909523975 
1955	 0.191787829220367 
1956	 0.195864195622525 
1957	 0.200059252887216 
1958	 0.204264231007515 
1959	 0.207995556088457 
1960	 0.211525643115984 
1961	 0.21470178944587 
1962	 0.217510820744799 
1963	 0.220030206432247 
1964	 0.222249999954715 
1965	 0.224151875124967 
1966	 0.225697463169473 
1967	 0.227044009229907 
1968	 0.228099192807786 
1969	 0.229117765242665 
1970	 0.230087201110491 
1971	 0.231054400417139 
1972	 0.232137029236281 
1973	 0.233275674646873 
1974	 0.234537760053551 
1975	 0.235945683027856 
1976	 0.23738858595154 
1977	 0.238898102251911 
1978	 0.240514111244063 
1979	 0.242195895924227 
1980	 0.243952309527767 
1981	 0.245929104748428 
1982	 0.247881423873221 
1983	 0.250001627662567 
1984	 0.252245095923059 
1985	 0.254457049700005 
1986	 0.25693534616899 
1987	 0.259619682980376 
1988	 0.262329711257539 
1989	 0.265532268185786 
1990	 0.269072701396042 
1991	 0.272863733376723 
1992	 0.277002780894071 
1993	 0.281537185946308 
1994	 0.285961708580983 
1995	 0.290730767816078 
1996	 0.295553921863693 
1997	 0.300379491175024 
1998	 0.305395596929674 
1999	 0.310721582925462 
2000	 0.315697147517168 
2001	 0.320900540850443 
2002	 0.325561941022409 
2003	 0.329874316002254 
2004	 0.334079081260347 
2005	 0.337932661395289 
2006	 0.341723223791228 
2007	 0.345481639425381 
2008	 0.348919161995365 
2009	 0.352175764657842 
2010	 0.355297287949242 
2011	 0.358007487740235 
2012	 0.360612585912902 
2013	 0.363047805178185 
2014	 0.365213218394353 
2015	 0.367363967633289 
2016	 0.369436915870879 
2017	 0.371320838825055 
2018	 0.373122017820041 
2019	 0.374731072302412 
2020	 0.376098906540151 
2021	 0.377405877998702 
2022	 0.378589826210194 
2023	 0.379623132446996 
2024	 0.380642565165359 
2025	 0.381527751776919 
2026	 0.38232564298043 
2027	 0.383039800982675 
2028	 0.383655815982979 
2029	 0.384119821285239 
2030	 0.384585397525405 
2031	 0.384964899244642 
2032	 0.385332566743497 
2033	 0.385645706725928 
2034	 0.385952036931609 
2035	 0.386215072616593 
2036	 0.386485317598969 
2037	 0.386746932070659 
2038	 0.387042829870665 
2039	 0.387344326204599 
2040	 0.387648587238468 
2041	 0.387987235320621 
2042	 0.388348010912441 
2043	 0.388721885993505 
2044	 0.389144704572877 
2045	 0.389537590447916 
2046	 0.389915677092687 
2047	 0.390317457837164 
2048	 0.390733417474522 
2049	 0.391135053735407 
2050	 0.391567732787518 
2051	 0.391964812456682 
2052	 0.392322959522488 
2053	 0.392648643784744 
2054	 0.392954205194438 
2055	 0.393213733842233 
2056	 0.393497024256411 
2057	 0.393766982794802 
2058	 0.394037923981346 
2059	 0.394315962283924 
2060	 0.394581059072166 
2061	 0.394819298027341 
2062	 0.395084714638096 
2063	 0.395355135926694 
2064	 0.395633741256213 
2065	 0.395913437659022 
2066	 0.39622578654238 
2067	 0.396554256379463 
2068	 0.396871596397333 
2069	 0.397192397219547 
2070	 0.397542579231236 
2071	 0.397844337630534 
2072	 0.398130772737319 
2073	 0.398394538749026 
2074	 0.398633127487636 
2075	 0.398856951013564 
2076	 0.399073809221973 
2077	 0.399248859083199 
2078	 0.399423928007082 
2079	 0.399523823176297 
2080	 0.399561673240144 
2081	 0.399569095607631 
2082	 0.399527050587545 
2083	 0.399440339737718 
2084	 0.399309534630698 
2085	 0.399176999032832 
2086	 0.398989402175541 
2087	 0.398751588148945 
2088	 0.398489848220205 
2089	 0.398196653653949 
2090	 0.39786406398518 
2091	 0.397493343076419 
2092	 0.397093215206803 
2093	 0.396653795668972 
2094	 0.396191695075674 
2095	 0.395683745053046 
2096	 0.395173780537122 
2097	 0.394666308209106 
2098	 0.3940972586545 
2099	 0.393518472660914 
2100	 0.392934142105819 
2101	 0.392305001178154 
2102	 0.391641267155393 
2103	 0.390953229094336 
2104	 0.390225828401999 
2105	 0.389490641197496 
2106	 0.388728837550328 
2107	 0.387951347061462 
2108	 0.387172754006859 
2109	 0.386349182870484 
2110	 0.385485294527507 
2111	 0.384614673985882 
2112	 0.383691763231928 
2113	 0.382790338252723 
2114	 0.381890585707193 
2115	 0.380981805174697 
2116	 0.380077174925393 
2117	 0.37918903238669 
2118	 0.378225426912637 
2119	 0.377224459116448 
2120	 0.376225160934743 
2121	 0.375143035724415 
2122	 0.374162998424057 
2123	 0.373233977563972 
2124	 0.372282948163336 
2125	 0.371381942814898 
2126	 0.370436255021726 
2127	 0.369433336569249 
2128	 0.368495073989585 
2129	 0.367567079803042 
2130	 0.366656035391311 
2131	 0.365805350626668 
2132	 0.364925346456972 
2133	 0.364035582254633 
2134	 0.363156769657098 
2135	 0.362247642781615 
2136	 0.361377846728437 
2137	 0.360482334805199 
2138	 0.359571596634783 
2139	 0.358683533402854 
2140	 0.357804192692756 
2141	 0.356908380276268 
2142	 0.356034651823199 
2143	 0.355124732871057 
2144	 0.354177397328939 
2145	 0.35325393408621 
2146	 0.352301329082509 
2147	 0.351396133534215 
2148	 0.350524513415983 
2149	 0.349645518417299 
2150	 0.348805431925791 
2151	 0.347940641192957 
2152	 0.347038973130883 
2153	 0.346185742398576 
2154	 0.345310209108365 
2155	 0.344431503150693 
2156	 0.343600171048321 
2157	 0.342794048202729 
2158	 0.341991641268441 
2159	 0.341247511784446 
2160	 0.340430507315667 
2161	 0.339562154651181 
2162	 0.338761249005282 
2163	 0.337924049578918 
2164	 0.337169232428969 
2165	 0.336502966759793 
2166	 0.335816213081402 
2167	 0.335154902966106 
2168	 0.334503518970785 
2169	 0.333828517672546 
2170	 0.333229500955246 
2171	 0.332644943327839 
2172	 0.332136464184426 
2173	 0.331698484985227 
2174	 0.331312921648528 
2175	 0.330993915605691 
2176	 0.330730933756659 
2177	 0.330494153559362 
2178	 0.330307830422682 
2179	 0.330164139449531 
2180	 0.33006614647903 
2181	 0.329979407696827 
2182	 0.329957326318668 
2183	 0.32990944097046 
2184	 0.32985956615477 
2185	 0.32982218447403 
2186	 0.329822833072003 
2187	 0.329771798686787 
2188	 0.329711653868575 
2189	 0.329632290359779 
2190	 0.329525563452024 
2191	 0.329389721820889 
2192	 0.329260740091799 
2193	 0.329070516901384 
2194	 0.328816458566871 
2195	 0.328552445247764 
2196	 0.328264595451228 
2197	 0.327917949890734 
2198	 0.327572021824271 
2199	 0.327231110815505 
2200	 0.326866310947833 
2201	 0.326499660982793 
2202	 0.326072769896753 
2203	 0.325618584970057 
2204	 0.325130979582053 
2205	 0.324563104773906 
2206	 0.324045555297833 
2207	 0.32352344694945 
2208	 0.323010148639361 
2209	 0.322490892031962 
2210	 0.322017696493697 
2211	 0.321525102930171 
2212	 0.321126599900838 
2213	 0.320763591789681 
2214	 0.320500545881573 
2215	 0.320276574733043 
2216	 0.320201430132853 
2217	 0.320211101048282 
2218	 0.320378276520465 
2219	 0.320696720890334 
2220	 0.321136543911462 
2221	 0.321719293978661 
2222	 0.322454235527292 
2223	 0.323236383322211 
2224	 0.324088210226998 
2225	 0.324968923520947 
2226	 0.325809793121346 
2227	 0.32660541814081 
2228	 0.327438919429921 
2229	 0.328084043070301 
2230	 0.32866646513915 
2231	 0.329070267439975 
2232	 0.329345474199982 
2233	 0.329462025494016 
2234	 0.329426960400993 
2235	 0.329240896153898 
2236	 0.328893897913514 
2237	 0.32841327233163 
2238	 0.327768052675446 
2239	 0.327006940765375 
2240	 0.326097465204215 
2241	 0.325061778502734 
2242	 0.323932834735187 
2243	 0.322599277760858 
2244	 0.321049145058304 
2245	 0.319446481224372 
2246	 0.317612471634346 
2247	 0.315791671717464 
2248	 0.313973975327507 
2249	 0.312021235309155 
2250	 0.30998249277056 
2251	 0.307888447568794 
2252	 0.305548679823122 
2253	 0.303208295835423 
2254	 0.300798604434955 
2255	 0.298317998203899 
2256	 0.296009568831589 
2257	 0.29361256410857 
2258	 0.291248679902175 
2259	 0.288937886703285 
2260	 0.286544759654793 
2261	 0.284072423704371 
2262	 0.281719731130855 
2263	 0.279282143635091 
2264	 0.277085964829486 
2265	 0.275053553365571 
2266	 0.273046412335861 
2267	 0.271193138376248 
2268	 0.269339404379495 
2269	 0.267486609094996 
2270	 0.265778264607965 
2271	 0.264122223485899 
2272	 0.262613086600359 
2273	 0.261299258366902 
2274	 0.259952764920127 
2275	 0.258757936319256 
2276	 0.257476848370171 
2277	 0.25619813950256 
2278	 0.254867682188395 
2279	 0.253494127774907 
2280	 0.252083061115126 
2281	 0.250642736191366 
2282	 0.24913865739828 
2283	 0.247617279343776 
2284	 0.246013324411821 
2285	 0.244216845995835 
2286	 0.242454525806221 
2287	 0.240583814560962 
2288	 0.238613688432117 
2289	 0.236756390986934 
2290	 0.234801523904308 
2291	 0.232813643212137 
2292	 0.230819898304908 
2293	 0.228665959391683 
2294	 0.226554009630654 
2295	 0.224540009726469 
2296	 0.222619867570799 
2297	 0.220993695466894 
2298	 0.219591440416387 
2299	 0.218409266833375 
2300	 0.217418665627337 
2301	 0.216759337160542 
2302	 0.216346366434023 
2303	 0.216305880630873 
2304	 0.216646437739107 
2305	 0.217201547260522 
2306	 0.218100765106617 
2307	 0.219201964187192 
2308	 0.220537085750683 
2309	 0.222186011443261 
2310	 0.224231944198003 
2311	 0.226312026835475 
2312	 0.228799982826392 
2313	 0.231071581141939 
2314	 0.23343245263098 
2315	 0.235625190015877 
2316	 0.237752082352728 
2317	 0.239718058815985 
2318	 0.241664163169147 
2319	 0.243249045645832 
2320	 0.244654166994102 
2321	 0.245728625651439 
2322	 0.246397309952488 
2323	 0.246942328328356 
2324	 0.247233270581392 
2325	 0.247340379899616 
2326	 0.247242036217618 
2327	 0.246929803151502 
2328	 0.246317317671047 
2329	 0.245619728419077 
2330	 0.244758793818442 
2331	 0.243726898638879 
2332	 0.24253925637896 
2333	 0.241127775527167 
2334	 0.239447767181325 
2335	 0.237652006292551 
2336	 0.235688295920314 
2337	 0.233642729453442 
2338	 0.23167206984341 
2339	 0.229587688359607 
2340	 0.227596534562635 
2341	 0.225763427222564 
2342	 0.223902178712749 
2343	 0.222305783500027 
2344	 0.221044579830951 
2345	 0.220038841971535 
2346	 0.219403998688066 
2347	 0.219171545715046 
2348	 0.219185652967354 
2349	 0.219578841599903 
2350	 0.220295194605328 
2351	 0.221212054910185 
2352	 0.222330179051733 
2353	 0.22352587188021 
2354	 0.224612207287281 
2355	 0.225625536445738 
2356	 0.22645858282339 
2357	 0.226998873635748 
2358	 0.227399683176034 
2359	 0.227541028747975 
2360	 0.227491165074897 
2361	 0.227258169291328 
2362	 0.226851707491705 
2363	 0.226362009895863 
2364	 0.225866962954036 
2365	 0.2252742685715 
2366	 0.224504880201768 
2367	 0.223786227876206 
2368	 0.222994649990532 
2369	 0.22207364027837 
2370	 0.22128209700693 
2371	 0.220500778838642 
2372	 0.219623317238751 
2373	 0.218769110905062 
2374	 0.217864067071527 
2375	 0.216925989271662 
2376	 0.215965906795077 
2377	 0.215021199183307 
2378	 0.214146229445503 
2379	 0.213195047567746 
2380	 0.212301870963553 
2381	 0.211388313278684 
2382	 0.210377267744953 
2383	 0.209310519962039 
2384	 0.208260494827749 
2385	 0.207088538656647 
2386	 0.206033358811523 
2387	 0.20504101418594 
2388	 0.203969644035487 
2389	 0.202956493732133 
2390	 0.20182872178952 
2391	 0.200656365821987 
2392	 0.199399172359464 
2393	 0.197966275970519 
2394	 0.19667095696236 
2395	 0.1953713871487 
2396	 0.194043765574246 
2397	 0.192831147715872 
2398	 0.191489371438306 
2399	 0.190004083000789 
2400	 0.188655845973608 
2401	 0.187294696726144 
2402	 0.18597407435246 
2403	 0.184698159589074 
2404	 0.183374963848281 
2405	 0.18216074832328 
2406	 0.180910945760798 
2407	 0.179692414008646 
2408	 0.178460192424389 
2409	 0.1772000505936 
2410	 0.176130663469864 
2411	 0.175079944861976 
2412	 0.174101371164474 
2413	 0.173218200609205 
2414	 0.17226864250962 
2415	 0.171368998233434 
2416	 0.170488698197427 
2417	 0.169645680689331 
2418	 0.168900931496956 
2419	 0.168245632959018 
2420	 0.167698792768944 
2421	 0.167214354560458 
2422	 0.166676771974756 
2423	 0.166112541018842 
2424	 0.165611145543298 
2425	 0.165091455817542 
2426	 0.16466848002734 
2427	 0.164291741466478 
2428	 0.163758243257042 
2429	 0.163266438936809 
2430	 0.162902346646813 
2431	 0.162456755228237 
2432	 0.162028896914623 
2433	 0.161597997496723 
2434	 0.161003308546182 
2435	 0.160521949137059 
2436	 0.16017990030265 
2437	 0.159885138824272 
2438	 0.159590497245601 
2439	 0.159160367227541 
2440	 0.158673491457926 
2441	 0.158196214273959 
2442	 0.157766730312373 
2443	 0.157451140000437 
2444	 0.157090152296122 
2445	 0.156563855168229 
2446	 0.156022610645769 
2447	 0.155494775261465 
2448	 0.155093647735527 
2449	 0.154852646745114 
2450	 0.154583155634074 
2451	 0.154229758570175 
2452	 0.153781861662964 
2453	 0.153214142167897 
2454	 0.152607619134711 
2455	 0.152099222177172 
2456	 0.151497342946798 
2457	 0.150846883508051 
2458	 0.150384775472531 
2459	 0.149750864814329 
2460	 0.14902589889974 
2461	 0.148478864164872 
2462	 0.147744459354675 
2463	 0.147040603888828 
2464	 0.14648334078201 
2465	 0.145827178677586 
2466	 0.145344140129149 
2467	 0.144758610159516 
2468	 0.144057379848118 
2469	 0.14363340362861 
2470	 0.142988181938083 
2471	 0.142291244606588 
2472	 0.141898617716565 
2473	 0.141159470225217 
2474	 0.140532392024419 
2475	 0.140357600515869 
2476	 0.140032644799505 
2477	 0.139809640769605 
2478	 0.139569168599095 
2479	 0.139183423794364 
2480	 0.139016455281154 
2481	 0.138839237126299 
2482	 0.13871749817856 
2483	 0.138491023347897 
2484	 0.138355022428359 
2485	 0.138491226453793 
2486	 0.138682201748261 
2487	 0.138565409504633 
2488	 0.138275286935759 
2489	 0.138107194211631 
2490	 0.138152745085496 
2491	 0.138380978424137 
2492	 0.138768578576665 
2493	 0.139124575546912 
2494	 0.13930748019801 
2495	 0.139316679905005 
2496	 0.139428029981652 
2497	 0.139642102133037 
2498	 0.139778359289001 
2499	 0.14014796318442 
2500	 0.140746601115992 
