Wavelength	spectrum00006.asd
350	 0.107120166409715 
351	 0.104736873241601 
352	 0.102102659931324 
353	 9.97305825253186E-02 
354	 0.099140564599419 
355	 9.58935063457733E-02 
356	 9.27747261291512E-02 
357	 9.20026675141313E-02 
358	 8.91509417730086E-02 
359	 8.62697504813412E-02 
360	 8.45862759626942E-02 
361	 8.44248830686841E-02 
362	 0.083210960668795 
363	 8.19480130500646E-02 
364	 8.09126215833867E-02 
365	 7.89289399909514E-02 
366	 7.90616706505632E-02 
367	 7.91719875461483E-02 
368	 7.74406184723668E-02 
369	 7.72672748715102E-02 
370	 7.72243646936451E-02 
371	 7.68003144880307E-02 
372	 7.60895655682808E-02 
373	 7.52949326014332E-02 
374	 7.53384426901134E-02 
375	 7.59786373863221E-02 
376	 7.52702754204069E-02 
377	 7.51390017890654E-02 
378	 7.52344797777888E-02 
379	 7.49011703171233E-02 
380	 7.45492126219775E-02 
381	 0.074319763119322 
382	 7.41117010247614E-02 
383	 7.36648539076917E-02 
384	 7.27184799263049E-02 
385	 7.20774080899226E-02 
386	 7.18221497059156E-02 
387	 7.07583155209931E-02 
388	 7.03071914173121E-02 
389	 7.00995924921109E-02 
390	 0.069559167827666 
391	 6.92634259608084E-02 
392	 0.069000670477347 
393	 0.06878717238279 
394	 6.87785200806142E-02 
395	 6.88438358531014E-02 
396	 6.90366509650323E-02 
397	 6.90987465219967E-02 
398	 6.81532806020667E-02 
399	 6.78138325169537E-02 
400	 6.78730142176001E-02 
401	 6.76398667629456E-02 
402	 6.68304678931747E-02 
403	 6.64818727415627E-02 
404	 6.65471340216022E-02 
405	 0.066190908133228 
406	 6.58806275819027E-02 
407	 0.065564035150235 
408	 6.52211443546154E-02 
409	 6.50590623917838E-02 
410	 6.46926850855077E-02 
411	 6.43790813830912E-02 
412	 6.44707577853693E-02 
413	 6.47731382626099E-02 
414	 6.44899955159315E-02 
415	 6.39361567505847E-02 
416	 6.43424744383693E-02 
417	 6.44355241572479E-02 
418	 6.44009173712991E-02 
419	 6.44769389338299E-02 
420	 6.43828375638786E-02 
421	 6.43392330745489E-02 
422	 6.44532993284262E-02 
423	 6.47228997379418E-02 
424	 6.48179601585886E-02 
425	 6.48555744834393E-02 
426	 6.49486548466905E-02 
427	 0.065157856302263 
428	 6.52444959027283E-02 
429	 6.53605837138717E-02 
430	 0.065619044550604 
431	 6.57154477015532E-02 
432	 6.60264549255496E-02 
433	 6.63942733072541E-02 
434	 6.64636460018917E-02 
435	 6.70887274010924E-02 
436	 6.75445920659846E-02 
437	 6.76090170855212E-02 
438	 6.81099431303653E-02 
439	 6.85610210431331E-02 
440	 6.89886560928718E-02 
441	 6.95195272782482E-02 
442	 7.00814551477819E-02 
443	 7.06989801758806E-02 
444	 7.13895241351817E-02 
445	 7.21554895898157E-02 
446	 0.072873849870933 
447	 7.35052613905908E-02 
448	 7.41347449653952E-02 
449	 7.50972087842783E-02 
450	 7.60202093927286E-02 
451	 7.69073127260092E-02 
452	 7.78919054069349E-02 
453	 7.89225582966575E-02 
454	 8.01387901480557E-02 
455	 8.14681032451761E-02 
456	 8.26083424948414E-02 
457	 8.39213492562603E-02 
458	 8.53629090687118E-02 
459	 8.68445712419459E-02 
460	 8.84288943258121E-02 
461	 9.00836988974306E-02 
462	 9.18201559434145E-02 
463	 9.36579942274846E-02 
464	 0.095425533506489 
465	 9.73853138019147E-02 
466	 9.96060904813118E-02 
467	 0.101788085643509 
468	 0.104106835577552 
469	 0.106532521605688 
470	 0.10904209945783 
471	 0.111860977077756 
472	 0.114729276572058 
473	 0.117624574755137 
474	 0.120715562271881 
475	 0.123880003648306 
476	 0.127265069704243 
477	 0.130890053701857 
478	 0.134389853788341 
479	 0.138123114016081 
480	 0.142093885968981 
481	 0.146174851282229 
482	 0.150376986771174 
483	 0.154652163202915 
484	 0.159025361336903 
485	 0.163596282873595 
486	 0.168369970436516 
487	 0.17325418940175 
488	 0.178161569709508 
489	 0.183100000084016 
490	 0.18824074184749 
491	 0.193509687144907 
492	 0.198707622730239 
493	 0.203934629078884 
494	 0.209250397189552 
495	 0.214678362162887 
496	 0.220198088684499 
497	 0.22562359417398 
498	 0.230989974889891 
499	 0.236386102331391 
500	 0.241827096564792 
501	 0.247218935636327 
502	 0.252570838156699 
503	 0.25797982827862 
504	 0.263309249488418 
505	 0.268551794703309 
506	 0.273741668996705 
507	 0.278948606424447 
508	 0.284082813511884 
509	 0.289115223233361 
510	 0.294059254057934 
511	 0.299036315205403 
512	 0.303942397742297 
513	 0.308749047216267 
514	 0.313569111987941 
515	 0.318304438085143 
516	 0.322974157546924 
517	 0.327607920618781 
518	 0.332150748578342 
519	 0.336662738328241 
520	 0.341154992482803 
521	 0.34559724432719 
522	 0.349968244364669 
523	 0.354247430332645 
524	 0.358452038649387 
525	 0.362692386828784 
526	 0.36683785085074 
527	 0.370907314270255 
528	 0.374964979620373 
529	 0.378987927488762 
530	 0.382942371917859 
531	 0.386834293019774 
532	 0.390706051403381 
533	 0.394508537653518 
534	 0.398235462966667 
535	 0.401886750987532 
536	 0.405462077025514 
537	 0.409003241817387 
538	 0.412533495209507 
539	 0.416049588843564 
540	 0.41942008521121 
541	 0.422753954499296 
542	 0.426091642364752 
543	 0.429314144579516 
544	 0.43243297867288 
545	 0.435452400836819 
546	 0.438434049165126 
547	 0.441674710218179 
548	 0.444995731309064 
549	 0.448326700347176 
550	 0.451710647886816 
551	 0.455164903860434 
552	 0.458646267400342 
553	 0.462136670773723 
554	 0.465720711638787 
555	 0.469229327298885 
556	 0.4726668508294 
557	 0.476094034994842 
558	 0.479311857867712 
559	 0.482472885275515 
560	 0.485651499382918 
561	 0.488770478986522 
562	 0.491638195780546 
563	 0.494085900636635 
564	 0.496084091299958 
565	 0.497995058889624 
566	 0.499971009054971 
567	 0.501985540876788 
568	 0.503913947656703 
569	 0.506227746326191 
570	 0.508892716679729 
571	 0.511743743236831 
572	 0.514560307959312 
573	 0.517170062356965 
574	 0.519517465973911 
575	 0.521582189489856 
576	 0.52316189443805 
577	 0.524254304410782 
578	 0.525032258260023 
579	 0.525840304576536 
580	 0.527027629266334 
581	 0.528576056587617 
582	 0.530360489248283 
583	 0.532297747924824 
584	 0.534280229319554 
585	 0.536347957925668 
586	 0.538568406320442 
587	 0.540369833679974 
588	 0.54196353400567 
589	 0.543595796274164 
590	 0.545388664875085 
591	 0.547297058995038 
592	 0.549304441860191 
593	 0.551413875224832 
594	 0.553726538987692 
595	 0.555931189581297 
596	 0.557905872513655 
597	 0.559707342203676 
598	 0.561327261974045 
599	 0.562809512377831 
600	 0.564217742582106 
601	 0.565620683941059 
602	 0.567104532171245 
603	 0.568638910632184 
604	 0.570155361589298 
605	 0.57178274894939 
606	 0.573327057564893 
607	 0.574715098042208 
608	 0.576050659323247 
609	 0.577332052805197 
610	 0.578575408338448 
611	 0.579812697496347 
612	 0.581113841410142 
613	 0.582436203775986 
614	 0.583709899774194 
615	 0.584876224357645 
616	 0.586144391267623 
617	 0.587423757845658 
618	 0.588650580266167 
619	 0.589889705671863 
620	 0.591062633565684 
621	 0.592204686100925 
622	 0.59337405283897 
623	 0.594551821953455 
624	 0.595644182513622 
625	 0.596660210970021 
626	 0.597707965028188 
627	 0.59880634145971 
628	 0.59991144916735 
629	 0.600975899187741 
630	 0.601973748473606 
631	 0.602946287118619 
632	 0.603946367468028 
633	 0.605006168024068 
634	 0.606002416998983 
635	 0.606964597436503 
636	 0.607913654942259 
637	 0.608839348515415 
638	 0.609727695618582 
639	 0.610658071666662 
640	 0.611652116478882 
641	 0.612459020842116 
642	 0.61334502988856 
643	 0.614345309805027 
644	 0.615327748802477 
645	 0.616081452187913 
646	 0.616791731367352 
647	 0.617618116792624 
648	 0.618603041610747 
649	 0.619402136254397 
650	 0.620137578951181 
651	 0.621006580840599 
652	 0.621843215834564 
653	 0.622633322576573 
654	 0.623360732957346 
655	 0.624020189457646 
656	 0.624824192001039 
657	 0.625606989347051 
658	 0.626280701992156 
659	 0.627056490661912 
660	 0.627872940626867 
661	 0.628601661903695 
662	 0.629162004871388 
663	 0.629884974930418 
664	 0.630706669374704 
665	 0.631478696471438 
666	 0.632012987753748 
667	 0.632624961687066 
668	 0.633300750901049 
669	 0.633960565530318 
670	 0.634524541636474 
671	 0.635225215492983 
672	 0.635982294721778 
673	 0.636611478869545 
674	 0.637313000330533 
675	 0.637984822414357 
676	 0.638551525264254 
677	 0.639002383922009 
678	 0.639593311263352 
679	 0.640203766783066 
680	 0.640722544066732 
681	 0.641371476010667 
682	 0.641981198545384 
683	 0.64249225555636 
684	 0.642940770878715 
685	 0.643569195857528 
686	 0.644227685068011 
687	 0.644808194429309 
688	 0.645325155779963 
689	 0.645748413762358 
690	 0.646238936095495 
691	 0.646890500463563 
692	 0.647401858096481 
693	 0.647868545933732 
694	 0.648330080996539 
695	 0.648798811061542 
696	 0.64939738081194 
697	 0.649976160846727 
698	 0.650472462948165 
699	 0.651016150510936 
700	 0.65142849519269 
701	 0.651836182196648 
702	 0.65238131592024 
703	 0.652924094315175 
704	 0.653425157312576 
705	 0.65386662749334 
706	 0.654254019807518 
707	 0.654619839946126 
708	 0.655122886466648 
709	 0.655724648200329 
710	 0.656032370243005 
711	 0.656474522353941 
712	 0.656969524152249 
713	 0.65736236745885 
714	 0.657850913341672 
715	 0.658356774974116 
716	 0.658760116790893 
717	 0.658967164268261 
718	 0.659418952449567 
719	 0.659952587795927 
720	 0.660407308774398 
721	 0.660776154012623 
722	 0.661102169347849 
723	 0.661451552365781 
724	 0.66187996793531 
725	 0.66239248990794 
726	 0.662859526563816 
727	 0.663219045011888 
728	 0.663486757870577 
729	 0.663877444337813 
730	 0.664309680137261 
731	 0.664712546434633 
732	 0.66510383831694 
733	 0.66551206041422 
734	 0.665887045158603 
735	 0.666216192920962 
736	 0.666730183570325 
737	 0.667116319579918 
738	 0.667393765107333 
739	 0.667778927623284 
740	 0.66805051959448 
741	 0.668307839667884 
742	 0.668653232963971 
743	 0.669139890052793 
744	 0.669436635403343 
745	 0.669581209149084 
746	 0.66972980643273 
747	 0.670028738946769 
748	 0.670480862669242 
749	 0.670907434812661 
750	 0.671089872742005 
751	 0.671382300455168 
752	 0.671637201165287 
753	 0.671852355895595 
754	 0.672270977491361 
755	 0.672694872195363 
756	 0.672970235616567 
757	 0.673077926448407 
758	 0.673323592394558 
759	 0.673633614563771 
760	 0.673961099005118 
761	 0.674269484638011 
762	 0.674549454641014 
763	 0.674834324225221 
764	 0.675131941691413 
765	 0.675419892087058 
766	 0.675693143779647 
767	 0.675997205745811 
768	 0.676324907919191 
769	 0.676519280583149 
770	 0.676731483439815 
771	 0.677020741156701 
772	 0.6773745522687 
773	 0.677627091435266 
774	 0.677848770468423 
775	 0.678036277911534 
776	 0.678144462353989 
777	 0.678452201265967 
778	 0.678876437835057 
779	 0.679238165300606 
780	 0.679293772693823 
781	 0.679461320603967 
782	 0.67973236246213 
783	 0.679998528253964 
784	 0.68028122298123 
785	 0.680565988212571 
786	 0.680837473714555 
787	 0.681073600388419 
788	 0.681192652000226 
789	 0.681379782001846 
790	 0.681668592454822 
791	 0.681890995475307 
792	 0.682153476241294 
793	 0.682400336785985 
794	 0.682598393667789 
795	 0.682845357530375 
796	 0.683093899147575 
797	 0.683335932175822 
798	 0.683558358333961 
799	 0.683653293036475 
800	 0.683804617940049 
801	 0.684089182326475 
802	 0.684471313227582 
803	 0.684832968284893 
804	 0.685065795755386 
805	 0.685220521267578 
806	 0.685566715296978 
807	 0.685850187556958 
808	 0.686102295013267 
809	 0.686363968699532 
810	 0.686473591380134 
811	 0.686647733961947 
812	 0.686879901011338 
813	 0.68708652249715 
814	 0.687394357235441 
815	 0.687646112579948 
816	 0.687799942331655 
817	 0.687935707822604 
818	 0.688091331542109 
819	 0.688326984284081 
820	 0.688614879430647 
821	 0.688790507192332 
822	 0.688882194542504 
823	 0.689039145381326 
824	 0.689346986081941 
825	 0.689614272737815 
826	 0.689705172606628 
827	 0.689736615067885 
828	 0.689911255534881 
829	 0.690144475172579 
830	 0.690311463468226 
831	 0.690435724525961 
832	 0.690656773156156 
833	 0.69084573082355 
834	 0.691018461316096 
835	 0.691184185301782 
836	 0.691310635508528 
837	 0.691485047791811 
838	 0.691621175007558 
839	 0.691643175529649 
840	 0.691592228097915 
841	 0.691835345664947 
842	 0.692218727500314 
843	 0.692413833819254 
844	 0.69245716143613 
845	 0.692440698354251 
846	 0.692522165896168 
847	 0.692853078995031 
848	 0.693213514471294 
849	 0.693433981949344 
850	 0.693535732724544 
851	 0.69375195759324 
852	 0.693857261511333 
853	 0.694026548431116 
854	 0.694346478079352 
855	 0.694556776482904 
856	 0.694668964582044 
857	 0.694694789992137 
858	 0.694721227973119 
859	 0.695074388567027 
860	 0.695285074004916 
861	 0.695388733397988 
862	 0.695649834465353 
863	 0.695961090646307 
864	 0.696071657038614 
865	 0.696031024135104 
866	 0.69613497395227 
867	 0.696280715891995 
868	 0.696537247876288 
869	 0.696825269057709 
870	 0.696858440048032 
871	 0.696827014594273 
872	 0.696859974031552 
873	 0.697023931187913 
874	 0.697287122464388 
875	 0.697494069058058 
876	 0.697696957772451 
877	 0.69795060116026 
878	 0.698062766403086 
879	 0.698105491473473 
880	 0.698106651689058 
881	 0.698104801267839 
882	 0.698303609593011 
883	 0.698514183458529 
884	 0.698645810168943 
885	 0.698707374211352 
886	 0.698655977536003 
887	 0.698745040122896 
888	 0.698977013549362 
889	 0.699050050249594 
890	 0.699115732066843 
891	 0.699223544819119 
892	 0.699366853534002 
893	 0.699475198409468 
894	 0.699450552287558 
895	 0.699495496797178 
896	 0.699739905460971 
897	 0.699945477482941 
898	 0.699946171682236 
899	 0.699968036941787 
900	 0.700236762367903 
901	 0.700399840046071 
902	 0.700598466491266 
903	 0.700751851061191 
904	 0.700746219227826 
905	 0.70088057730558 
906	 0.701189882930574 
907	 0.701490583404914 
908	 0.701533561144038 
909	 0.701714141248938 
910	 0.701987036713607 
911	 0.702228226875174 
912	 0.702309038983953 
913	 0.702403749222161 
914	 0.702555926566245 
915	 0.70275949528999 
916	 0.702969348302957 
917	 0.703153902056081 
918	 0.703261240959353 
919	 0.703323247289189 
920	 0.703516534066523 
921	 0.703804109769188 
922	 0.704020512268729 
923	 0.704087187889095 
924	 0.704223035098373 
925	 0.704418261105313 
926	 0.704620245758341 
927	 0.704782601607052 
928	 0.704949872983209 
929	 0.705122448711663 
930	 0.705334991716334 
931	 0.70558037017232 
932	 0.705616807277287 
933	 0.705753494529589 
934	 0.706036953493038 
935	 0.706344947676826 
936	 0.706593065271947 
937	 0.706791083230081 
938	 0.706936004193022 
939	 0.707028888024253 
940	 0.707170694792357 
941	 0.707333061177239 
942	 0.707483331518694 
943	 0.707613361731999 
944	 0.707857554023894 
945	 0.708104113517704 
946	 0.708242817815877 
947	 0.708223648890767 
948	 0.708190513647785 
949	 0.708316257629812 
950	 0.708562782111328 
951	 0.708649636365837 
952	 0.708678021739165 
953	 0.708643270964626 
954	 0.708597337372385 
955	 0.708684749716321 
956	 0.708964742837254 
957	 0.709168632124767 
958	 0.709174558639599 
959	 0.709228784789835 
960	 0.70937934770146 
961	 0.70958510364595 
962	 0.709771646996693 
963	 0.709867072122941 
964	 0.709872159565929 
965	 0.709921674777 
966	 0.710093224052759 
967	 0.710257552670137 
968	 0.710461340511754 
969	 0.710608461298471 
970	 0.710668845041553 
971	 0.710864734467494 
972	 0.711064328170385 
973	 0.711260515626296 
974	 0.71143128450598 
975	 0.711395664880596 
976	 0.711580042951239 
977	 0.711757665239284 
978	 0.711700739478974 
979	 0.711863396001271 
980	 0.712006872507263 
981	 0.712039278593858 
982	 0.711992436810762 
983	 0.712114730834825 
984	 0.712278448964017 
985	 0.712402850593962 
986	 0.71246674424165 
987	 0.712575254414722 
988	 0.712788954332334 
989	 0.712970736633663 
990	 0.71300806691183 
991	 0.713126755301956 
992	 0.713223432951863 
993	 0.713295484243588 
994	 0.713407432617251 
995	 0.713727624808797 
996	 0.71394446906936 
997	 0.714109444998114 
998	 0.714326894986026 
999	 0.714364299641847 
1000	 0.71468900624983 
1001	 0.688399440012782 
1002	 0.688637238366669 
1003	 0.688874364519238 
1004	 0.689088997410232 
1005	 0.689290754137304 
1006	 0.68947749921365 
1007	 0.689641502253994 
1008	 0.689837649996193 
1009	 0.69002926868419 
1010	 0.690220917465411 
1011	 0.69045699422506 
1012	 0.690636201779471 
1013	 0.69077435394164 
1014	 0.690928114127656 
1015	 0.691041741489984 
1016	 0.691200331731483 
1017	 0.691426222868473 
1018	 0.691586226680998 
1019	 0.691770942638425 
1020	 0.69198965861315 
1021	 0.692204588606612 
1022	 0.692413847414076 
1023	 0.692647161641076 
1024	 0.692898683469183 
1025	 0.693149611643253 
1026	 0.693422575619844 
1027	 0.693663610388706 
1028	 0.693889372529093 
1029	 0.694136817542516 
1030	 0.69438775776437 
1031	 0.694614852410943 
1032	 0.694826460796233 
1033	 0.695059822571923 
1034	 0.695264720010185 
1035	 0.69543682025396 
1036	 0.695647380523431 
1037	 0.69590928388726 
1038	 0.696110835771083 
1039	 0.696295920487645 
1040	 0.696479870029965 
1041	 0.696593377835103 
1042	 0.696778734431358 
1043	 0.697021701144368 
1044	 0.697250286328386 
1045	 0.697377248790641 
1046	 0.697550350179675 
1047	 0.697693836556389 
1048	 0.697754115550609 
1049	 0.697846372917596 
1050	 0.697980314470045 
1051	 0.698087559503337 
1052	 0.698185026431112 
1053	 0.698327391810931 
1054	 0.698567448086888 
1055	 0.698706013791917 
1056	 0.698824389792016 
1057	 0.698941379804762 
1058	 0.699031053980402 
1059	 0.699063458524674 
1060	 0.699192647578391 
1061	 0.699271550372508 
1062	 0.699315433318769 
1063	 0.699436020436346 
1064	 0.699498408703575 
1065	 0.699522139868 
1066	 0.699579495449256 
1067	 0.699607750901024 
1068	 0.699613382577091 
1069	 0.699635423683263 
1070	 0.699664131955845 
1071	 0.699695124533163 
1072	 0.699727951172939 
1073	 0.699794260481222 
1074	 0.699877022047111 
1075	 0.699941736187152 
1076	 0.700011590520544 
1077	 0.700077564818367 
1078	 0.700113097263563 
1079	 0.700150319749056 
1080	 0.700202180056332 
1081	 0.700240315514842 
1082	 0.700285478821638 
1083	 0.700348391003043 
1084	 0.700414741418344 
1085	 0.700523474541671 
1086	 0.70061130749102 
1087	 0.700704192526272 
1088	 0.700770128628057 
1089	 0.700831482499522 
1090	 0.700846705856414 
1091	 0.700860633803675 
1092	 0.700881040496291 
1093	 0.700901095040058 
1094	 0.700951109541516 
1095	 0.700998977404419 
1096	 0.701056822625249 
1097	 0.701106072041516 
1098	 0.701124592155961 
1099	 0.70117256277587 
1100	 0.701241958054314 
1101	 0.701314973689716 
1102	 0.701408301980929 
1103	 0.701474783356873 
1104	 0.701525248719325 
1105	 0.701554948161389 
1106	 0.701584339781699 
1107	 0.701585977632959 
1108	 0.701602127386022 
1109	 0.701621441011867 
1110	 0.70162945722163 
1111	 0.701695476040081 
1112	 0.701762333907466 
1113	 0.7018208711152 
1114	 0.701922888304742 
1115	 0.701983836658 
1116	 0.702026680390061 
1117	 0.702089020316916 
1118	 0.702129922372163 
1119	 0.702140917018847 
1120	 0.702177221284815 
1121	 0.70222741644243 
1122	 0.702249629169882 
1123	 0.702271438302415 
1124	 0.70229629566216 
1125	 0.702307829067913 
1126	 0.702324505108543 
1127	 0.702351106590781 
1128	 0.702377275414569 
1129	 0.702367325309076 
1130	 0.702332742524354 
1131	 0.702294808682398 
1132	 0.702236521516829 
1133	 0.702178339346885 
1134	 0.702129936327431 
1135	 0.702056498453532 
1136	 0.701963959663827 
1137	 0.701860542485886 
1138	 0.701748473543884 
1139	 0.701615095723249 
1140	 0.701467340932477 
1141	 0.701308433435363 
1142	 0.70111961701258 
1143	 0.700914924682761 
1144	 0.700674582805543 
1145	 0.700408215315699 
1146	 0.700132033500812 
1147	 0.699830555291267 
1148	 0.699514291600577 
1149	 0.699198709536282 
1150	 0.698861167477411 
1151	 0.698475061795317 
1152	 0.698058794800605 
1153	 0.697594265457012 
1154	 0.697131622885375 
1155	 0.696644930185451 
1156	 0.696149070271792 
1157	 0.695681752519862 
1158	 0.695138133692925 
1159	 0.694539200368703 
1160	 0.693926212092526 
1161	 0.693285476062196 
1162	 0.692589677471042 
1163	 0.691944726852777 
1164	 0.691258115891668 
1165	 0.690537130767475 
1166	 0.689870252467908 
1167	 0.689175915819871 
1168	 0.68850720452869 
1169	 0.68785584667098 
1170	 0.68721464739137 
1171	 0.686596227308527 
1172	 0.685995072986893 
1173	 0.685408932997281 
1174	 0.684842151560586 
1175	 0.684312466832371 
1176	 0.683811043394055 
1177	 0.683322947235211 
1178	 0.682874933126661 
1179	 0.682399474989944 
1180	 0.681961857666797 
1181	 0.681561945809777 
1182	 0.681212655276285 
1183	 0.680931118770331 
1184	 0.680659570447116 
1185	 0.680407979199843 
1186	 0.680192401060447 
1187	 0.68001019148567 
1188	 0.679831736454254 
1189	 0.679687233604592 
1190	 0.679544254557212 
1191	 0.679412262719196 
1192	 0.679278088569662 
1193	 0.679161620512622 
1194	 0.679037084950595 
1195	 0.678888365123381 
1196	 0.678770787403543 
1197	 0.678671941945322 
1198	 0.678576367376185 
1199	 0.678480777820105 
1200	 0.678404129424373 
1201	 0.678330077139996 
1202	 0.678277378252027 
1203	 0.678240377877386 
1204	 0.678245346784854 
1205	 0.678318819953893 
1206	 0.678401587081918 
1207	 0.678615307678038 
1208	 0.678927798322177 
1209	 0.679295983547162 
1210	 0.679755261812437 
1211	 0.680264139260405 
1212	 0.680863831539984 
1213	 0.68146778430555 
1214	 0.682126380054705 
1215	 0.682809918715332 
1216	 0.683531667500886 
1217	 0.684244272057947 
1218	 0.685006233419501 
1219	 0.685749460171065 
1220	 0.686417174313688 
1221	 0.68711866642773 
1222	 0.687791012772976 
1223	 0.688439084776192 
1224	 0.689077102048518 
1225	 0.689724470445502 
1226	 0.690308335412454 
1227	 0.690844868614222 
1228	 0.69138380277311 
1229	 0.691898632924497 
1230	 0.692394158371372 
1231	 0.692861836965078 
1232	 0.693343748362984 
1233	 0.693817213160966 
1234	 0.694269095807833 
1235	 0.694719000604503 
1236	 0.695164918512153 
1237	 0.695564967826572 
1238	 0.695998441266118 
1239	 0.69645048958279 
1240	 0.696918998068485 
1241	 0.697393473663701 
1242	 0.697835540000434 
1243	 0.698267005666597 
1244	 0.698683842406273 
1245	 0.699094450540713 
1246	 0.699506099975057 
1247	 0.699873286788712 
1248	 0.700220914076444 
1249	 0.700548162186039 
1250	 0.700836781951248 
1251	 0.701113430675274 
1252	 0.701377837677317 
1253	 0.701628085924871 
1254	 0.701850280048086 
1255	 0.702068707224828 
1256	 0.702278810468366 
1257	 0.702480444307807 
1258	 0.70266242217229 
1259	 0.702847721643753 
1260	 0.70302735514211 
1261	 0.703208641739197 
1262	 0.703385319528284 
1263	 0.703572771900976 
1264	 0.703745434468946 
1265	 0.703915010443919 
1266	 0.704081044394351 
1267	 0.704243337920215 
1268	 0.704391227090274 
1269	 0.704532779681542 
1270	 0.704670101980908 
1271	 0.704795836214181 
1272	 0.704914324611615 
1273	 0.70502413722997 
1274	 0.705138837387911 
1275	 0.705240162042652 
1276	 0.705351671868184 
1277	 0.705483654814855 
1278	 0.705593205576799 
1279	 0.70569176251382 
1280	 0.705789305440827 
1281	 0.705875492815461 
1282	 0.705961044897288 
1283	 0.706052423542638 
1284	 0.706129465350166 
1285	 0.706197688134612 
1286	 0.706259635766752 
1287	 0.706306212754839 
1288	 0.706332700573348 
1289	 0.706375577303032 
1290	 0.706413258669097 
1291	 0.706454348102302 
1292	 0.706516557807196 
1293	 0.7065419127546 
1294	 0.706554130849296 
1295	 0.706551412643542 
1296	 0.706517496864983 
1297	 0.706498799150895 
1298	 0.706475810758299 
1299	 0.706452590713045 
1300	 0.706442917143965 
1301	 0.706410792912532 
1302	 0.706353307054795 
1303	 0.706313635958842 
1304	 0.706284162157594 
1305	 0.70623409057445 
1306	 0.706180216574034 
1307	 0.706127639886735 
1308	 0.706066796329322 
1309	 0.705988307905344 
1310	 0.705917912505006 
1311	 0.705867493218903 
1312	 0.705772657616339 
1313	 0.705662689595212 
1314	 0.70552705987462 
1315	 0.705366804695483 
1316	 0.70519314498854 
1317	 0.704980828227102 
1318	 0.704799948118913 
1319	 0.704609352149349 
1320	 0.704440545468555 
1321	 0.704300804965484 
1322	 0.704144721610984 
1323	 0.703998474528727 
1324	 0.703832267179046 
1325	 0.703672802651935 
1326	 0.703475143678748 
1327	 0.70325596499116 
1328	 0.703017654559585 
1329	 0.702750190262788 
1330	 0.702469457095176 
1331	 0.702177557439058 
1332	 0.701863391962745 
1333	 0.701533916262545 
1334	 0.701170936305384 
1335	 0.700815514389138 
1336	 0.700446678002338 
1337	 0.700070844499077 
1338	 0.699699326922796 
1339	 0.699293550318142 
1340	 0.698877389714995 
1341	 0.698421653050282 
1342	 0.697944062448086 
1343	 0.697426264303962 
1344	 0.696882175190267 
1345	 0.696288067995026 
1346	 0.695646042911027 
1347	 0.694991674776131 
1348	 0.694289926073518 
1349	 0.693590116936672 
1350	 0.69287147397998 
1351	 0.692147965269726 
1352	 0.691414521067231 
1353	 0.690667059641667 
1354	 0.689893535228313 
1355	 0.689142992363348 
1356	 0.688361168620566 
1357	 0.68763145257763 
1358	 0.686923604400291 
1359	 0.686251957727464 
1360	 0.685620852155666 
1361	 0.685009920877575 
1362	 0.684423931958073 
1363	 0.683897923789521 
1364	 0.683375505610245 
1365	 0.682890583221921 
1366	 0.682393166697967 
1367	 0.681912072861241 
1368	 0.681422208535698 
1369	 0.680936546606161 
1370	 0.680438206842067 
1371	 0.679953001349774 
1372	 0.679425184014978 
1373	 0.678895123132678 
1374	 0.678303836489172 
1375	 0.677660875996967 
1376	 0.67700675588398 
1377	 0.676308350265118 
1378	 0.67559746511572 
1379	 0.674836095704286 
1380	 0.674124697603497 
1381	 0.673376292025953 
1382	 0.672707214491754 
1383	 0.672089719821187 
1384	 0.671510278008741 
1385	 0.671013628746088 
1386	 0.670490367472994 
1387	 0.670014340983603 
1388	 0.669505586504313 
1389	 0.6689838063409 
1390	 0.668437798255755 
1391	 0.66789695638377 
1392	 0.667291148417893 
1393	 0.66669408448852 
1394	 0.666041170967384 
1395	 0.665317110853411 
1396	 0.664565713132113 
1397	 0.66370199014737 
1398	 0.662779573344352 
1399	 0.661712094577857 
1400	 0.66054923422565 
1401	 0.659264431840644 
1402	 0.65784116144909 
1403	 0.65634154589307 
1404	 0.654732575005039 
1405	 0.653074058706955 
1406	 0.651322068941456 
1407	 0.649518695180862 
1408	 0.647628247769961 
1409	 0.645723766112239 
1410	 0.643765338831216 
1411	 0.641769030915661 
1412	 0.639736600493906 
1413	 0.63769302092687 
1414	 0.635603754415539 
1415	 0.633499070676853 
1416	 0.631354039254061 
1417	 0.629226847082069 
1418	 0.627053137873974 
1419	 0.624928329435229 
1420	 0.622800611041516 
1421	 0.620764251156622 
1422	 0.618763905977092 
1423	 0.61682988396024 
1424	 0.615025047859793 
1425	 0.613166323088578 
1426	 0.611449225511975 
1427	 0.609700968109885 
1428	 0.607912319878525 
1429	 0.606204458289255 
1430	 0.604328302911002 
1431	 0.602420441080602 
1432	 0.600297621474728 
1433	 0.598061241109402 
1434	 0.59565073558888 
1435	 0.593052152113159 
1436	 0.590344164734258 
1437	 0.587432378170746 
1438	 0.584608055392872 
1439	 0.581572819520877 
1440	 0.578836925369743 
1441	 0.576031688557738 
1442	 0.573734050848095 
1443	 0.57152507785392 
1444	 0.569982332326165 
1445	 0.568851760320864 
1446	 0.568298930885282 
1447	 0.568304240156746 
1448	 0.568747057692408 
1449	 0.569861010331161 
1450	 0.571123837308355 
1451	 0.57294542796833 
1452	 0.574719281459288 
1453	 0.576837650968386 
1454	 0.578753923661744 
1455	 0.58076022083015 
1456	 0.582580255334734 
1457	 0.584309912350375 
1458	 0.585891806380073 
1459	 0.587337505999227 
1460	 0.588670582497668 
1461	 0.589841795533641 
1462	 0.590926807112083 
1463	 0.591874421089401 
1464	 0.592781236148217 
1465	 0.59358251984681 
1466	 0.594360393087399 
1467	 0.595057086215519 
1468	 0.595719519279616 
1469	 0.596360845699438 
1470	 0.596913849447133 
1471	 0.597470570163483 
1472	 0.598016842120394 
1473	 0.598502290498766 
1474	 0.598963386371144 
1475	 0.599329908216431 
1476	 0.599663106089647 
1477	 0.599856490341976 
1478	 0.599963591319352 
1479	 0.599940427293385 
1480	 0.599793435022183 
1481	 0.599561605812125 
1482	 0.599182166624305 
1483	 0.598799809269425 
1484	 0.598298908421712 
1485	 0.597868216517912 
1486	 0.597360611890477 
1487	 0.597021607615238 
1488	 0.596683846550498 
1489	 0.596565736576854 
1490	 0.596564423873293 
1491	 0.596760181016502 
1492	 0.597122897049965 
1493	 0.597670034218687 
1494	 0.598428338531776 
1495	 0.59929491373224 
1496	 0.600369990108749 
1497	 0.60148921907897 
1498	 0.602778750466161 
1499	 0.604038524849642 
1500	 0.60540060195227 
1501	 0.606699095166889 
1502	 0.608032188776873 
1503	 0.609255409916484 
1504	 0.610441326546085 
1505	 0.611540777627261 
1506	 0.612565555102405 
1507	 0.613500530744616 
1508	 0.614357735794765 
1509	 0.615135289504786 
1510	 0.615816103769457 
1511	 0.616419350469702 
1512	 0.616942866696274 
1513	 0.617396726903937 
1514	 0.617758183494338 
1515	 0.618061866533644 
1516	 0.618279071704409 
1517	 0.618465426589 
1518	 0.618592863176258 
1519	 0.618678193589312 
1520	 0.618725414288371 
1521	 0.618730304046799 
1522	 0.618668690937117 
1523	 0.618586342049649 
1524	 0.618480169090531 
1525	 0.61833651754842 
1526	 0.618185259595642 
1527	 0.618012891626598 
1528	 0.617831517168589 
1529	 0.617624087300833 
1530	 0.617435352296316 
1531	 0.61723077546975 
1532	 0.61706805920664 
1533	 0.616902275681783 
1534	 0.616816561606811 
1535	 0.616758269854097 
1536	 0.616786887823826 
1537	 0.616872343353928 
1538	 0.617048993530233 
1539	 0.617299065124965 
1540	 0.617629647573328 
1541	 0.618044302328258 
1542	 0.618537557221454 
1543	 0.619117778804686 
1544	 0.619749390638342 
1545	 0.620465298437466 
1546	 0.621224327022284 
1547	 0.622052160808221 
1548	 0.622898963906234 
1549	 0.623821059001365 
1550	 0.624715685693331 
1551	 0.625650240938621 
1552	 0.626520842030518 
1553	 0.627361459455518 
1554	 0.628210561723663 
1555	 0.629031117466803 
1556	 0.629852831742176 
1557	 0.630689643173846 
1558	 0.631503188543297 
1559	 0.632297274101064 
1560	 0.633074693109348 
1561	 0.633844542856547 
1562	 0.634598536140667 
1563	 0.635331838139204 
1564	 0.636047158233209 
1565	 0.636753198660782 
1566	 0.637438612810365 
1567	 0.638093733939435 
1568	 0.638744778899626 
1569	 0.639380350690959 
1570	 0.640015349806116 
1571	 0.640647247671706 
1572	 0.641258816964008 
1573	 0.64185282928961 
1574	 0.642453584668003 
1575	 0.64304453519151 
1576	 0.64362857133675 
1577	 0.644212054038358 
1578	 0.644797054256415 
1579	 0.645366525980763 
1580	 0.645944523035579 
1581	 0.646532094825227 
1582	 0.647120415923573 
1583	 0.647707743579167 
1584	 0.648297078291147 
1585	 0.64889378694159 
1586	 0.64948894720014 
1587	 0.650084625249193 
1588	 0.650674191283381 
1589	 0.651251846327599 
1590	 0.651849812519021 
1591	 0.652447347439993 
1592	 0.653060420256873 
1593	 0.653691350406466 
1594	 0.654332158757794 
1595	 0.65497998179773 
1596	 0.65563916597436 
1597	 0.656323031702822 
1598	 0.657000268441726 
1599	 0.657688330852654 
1600	 0.658365952025226 
1601	 0.659035618643545 
1602	 0.659708928341629 
1603	 0.660389798720237 
1604	 0.661048249463979 
1605	 0.661709868065313 
1606	 0.662343584649062 
1607	 0.6629474798773 
1608	 0.663545020436221 
1609	 0.66413710226855 
1610	 0.664700326494404 
1611	 0.66524041594562 
1612	 0.665766232509008 
1613	 0.666257925286134 
1614	 0.666750576783943 
1615	 0.667250607950335 
1616	 0.667717018651272 
1617	 0.668150417921984 
1618	 0.668592771000751 
1619	 0.669021157696367 
1620	 0.669437115448683 
1621	 0.669862431244752 
1622	 0.670261737369468 
1623	 0.670627095191564 
1624	 0.670996145319494 
1625	 0.6713671902839 
1626	 0.671713340786264 
1627	 0.672047053094106 
1628	 0.672362944464636 
1629	 0.672635686955279 
1630	 0.672933497513144 
1631	 0.673220969164461 
1632	 0.673532650012099 
1633	 0.673874058565211 
1634	 0.674205429525357 
1635	 0.674561158288018 
1636	 0.67488492399474 
1637	 0.675186077936698 
1638	 0.675487431970849 
1639	 0.675782189827451 
1640	 0.676060647284284 
1641	 0.676341617926262 
1642	 0.676592398392246 
1643	 0.676821030956087 
1644	 0.677019688213418 
1645	 0.677183232634262 
1646	 0.67734416971758 
1647	 0.677475108254856 
1648	 0.677611850251556 
1649	 0.677764212938173 
1650	 0.677877008251081 
1651	 0.677980402770112 
1652	 0.678045419636289 
1653	 0.678085396538338 
1654	 0.678076851591636 
1655	 0.678028975644583 
1656	 0.677944644288439 
1657	 0.677802583018036 
1658	 0.677647978486509 
1659	 0.677479894348548 
1660	 0.677264226085995 
1661	 0.677031545154013 
1662	 0.676728696548751 
1663	 0.676370752638126 
1664	 0.675955877764601 
1665	 0.675502011746907 
1666	 0.674945410013498 
1667	 0.674316459068324 
1668	 0.673615361449423 
1669	 0.672826174148317 
1670	 0.671961814795727 
1671	 0.671018896261304 
1672	 0.670007830942685 
1673	 0.668896302839486 
1674	 0.667751533262672 
1675	 0.666569144119884 
1676	 0.66531997696722 
1677	 0.664019094443645 
1678	 0.66263817254549 
1679	 0.661152673552834 
1680	 0.65964410556679 
1681	 0.658071607067213 
1682	 0.65646573475117 
1683	 0.654834356696761 
1684	 0.653174832409991 
1685	 0.651459649412112 
1686	 0.649728194805312 
1687	 0.647960014666409 
1688	 0.646162235998781 
1689	 0.644340769515633 
1690	 0.642469435650294 
1691	 0.64057842406133 
1692	 0.638665503363567 
1693	 0.636732605140237 
1694	 0.634721770764127 
1695	 0.632661831851892 
1696	 0.630512600976029 
1697	 0.628266554065393 
1698	 0.625984669780661 
1699	 0.623642178467998 
1700	 0.621342792849677 
1701	 0.618985987907948 
1702	 0.616698281491824 
1703	 0.614403330786325 
1704	 0.612184053780039 
1705	 0.610003198191143 
1706	 0.607822185527246 
1707	 0.605862030235422 
1708	 0.603896188601054 
1709	 0.601965932029798 
1710	 0.600128915814109 
1711	 0.598213657433577 
1712	 0.596372137247055 
1713	 0.594502605932194 
1714	 0.592570469755161 
1715	 0.590756903758206 
1716	 0.588880223687107 
1717	 0.5870448162351 
1718	 0.585278860220397 
1719	 0.58342710765852 
1720	 0.581699203529668 
1721	 0.580001604308339 
1722	 0.578328956141932 
1723	 0.576914399369378 
1724	 0.575569810814991 
1725	 0.574338659572664 
1726	 0.573337369141201 
1727	 0.572419715619534 
1728	 0.57166319443518 
1729	 0.571113240404358 
1730	 0.570754335932689 
1731	 0.570541286432583 
1732	 0.570445627277544 
1733	 0.570408530766211 
1734	 0.570384197325568 
1735	 0.570395386096059 
1736	 0.570417505138799 
1737	 0.570354166483177 
1738	 0.570213528516831 
1739	 0.570016308138344 
1740	 0.569720547071382 
1741	 0.569385042980214 
1742	 0.568972969893087 
1743	 0.568573698377404 
1744	 0.568064301129363 
1745	 0.56767743675165 
1746	 0.567317573888705 
1747	 0.567084754342702 
1748	 0.566919119143674 
1749	 0.566895013297826 
1750	 0.566996068071632 
1751	 0.567213921860342 
1752	 0.567539723444196 
1753	 0.568023879367685 
1754	 0.568655538265905 
1755	 0.569363104305506 
1756	 0.570209494804081 
1757	 0.57111458029956 
1758	 0.57218247354086 
1759	 0.573333629140284 
1760	 0.574574278038253 
1761	 0.57590641192683 
1762	 0.577228638697098 
1763	 0.578629829128069 
1764	 0.580057736820124 
1765	 0.581481552054718 
1766	 0.582979849070378 
1767	 0.584397594442306 
1768	 0.585824480971936 
1769	 0.587258888553906 
1770	 0.588561271668806 
1771	 0.589860846423179 
1772	 0.591073172769699 
1773	 0.592190525830816 
1774	 0.593353714955546 
1775	 0.594444289449739 
1776	 0.595502001707685 
1777	 0.596535072559042 
1778	 0.597436301229464 
1779	 0.598313862637316 
1780	 0.599169676917044 
1781	 0.599988360908523 
1782	 0.600841165312525 
1783	 0.601682668716166 
1784	 0.602548941285793 
1785	 0.603409182592322 
1786	 0.604259075696067 
1787	 0.605120737280846 
1788	 0.605966506692108 
1789	 0.606815518615235 
1790	 0.607646164328957 
1791	 0.60846248795194 
1792	 0.609271869207716 
1793	 0.610065915471329 
1794	 0.610834428027441 
1795	 0.611555080711765 
1796	 0.61221816343366 
1797	 0.612907422442311 
1798	 0.613567441281084 
1799	 0.614219389609343 
1800	 0.614841822594964 
1801	 0.629792233656725 
1802	 0.631094650691395 
1803	 0.632227170858083 
1804	 0.633194399858237 
1805	 0.634164752850251 
1806	 0.634998774873146 
1807	 0.635703152017034 
1808	 0.63639471039894 
1809	 0.636993302974045 
1810	 0.637572858907065 
1811	 0.638108656452958 
1812	 0.638616863174853 
1813	 0.639063591275758 
1814	 0.639527000619834 
1815	 0.639953394440596 
1816	 0.640370361581546 
1817	 0.640801018724946 
1818	 0.641238163159103 
1819	 0.641652262669538 
1820	 0.642056464463983 
1821	 0.642467860192862 
1822	 0.642869336075716 
1823	 0.643277037802739 
1824	 0.643679946748407 
1825	 0.644059657358364 
1826	 0.644418108015359 
1827	 0.644763702681065 
1828	 0.645057072519772 
1829	 0.645319605848471 
1830	 0.645578418959156 
1831	 0.645812641733506 
1832	 0.646002051350109 
1833	 0.646188155773976 
1834	 0.64637188521176 
1835	 0.646523296662988 
1836	 0.646678887857112 
1837	 0.646861976531028 
1838	 0.647060174162157 
1839	 0.647261028423535 
1840	 0.64749091903674 
1841	 0.647698242787098 
1842	 0.647920361183513 
1843	 0.648121424899733 
1844	 0.648280917766418 
1845	 0.648402201347064 
1846	 0.648439780832978 
1847	 0.64843412144414 
1848	 0.648354724347688 
1849	 0.648218747889277 
1850	 0.647996188418618 
1851	 0.647715947479369 
1852	 0.647335820375149 
1853	 0.646871371762155 
1854	 0.64634959866286 
1855	 0.645725200458424 
1856	 0.645040988406645 
1857	 0.64424926153279 
1858	 0.643296947158869 
1859	 0.642277483148268 
1860	 0.641182897248945 
1861	 0.639923578346279 
1862	 0.638527402432689 
1863	 0.637110029947412 
1864	 0.635466834284695 
1865	 0.633729818565085 
1866	 0.631882757100201 
1867	 0.629817499284663 
1868	 0.627719175380987 
1869	 0.625491129336687 
1870	 0.623234270673639 
1871	 0.620913941941045 
1872	 0.618618165318153 
1873	 0.616289188813416 
1874	 0.61396780706809 
1875	 0.611661991699454 
1876	 0.609128069499507 
1877	 0.606590663843221 
1878	 0.603874703868378 
1879	 0.600913628623288 
1880	 0.59804312616544 
1881	 0.594968750915253 
1882	 0.591694635978261 
1883	 0.58837054623274 
1884	 0.584941259681377 
1885	 0.581147844809586 
1886	 0.577399131837993 
1887	 0.573432455100636 
1888	 0.56930554412592 
1889	 0.565405259894085 
1890	 0.561261724208943 
1891	 0.557107145372319 
1892	 0.552975069107225 
1893	 0.548619750068889 
1894	 0.544010519732532 
1895	 0.539541988830752 
1896	 0.534958306509514 
1897	 0.53023665801541 
1898	 0.525868870821653 
1899	 0.521361871263763 
1900	 0.516886652458103 
1901	 0.51258021167488 
1902	 0.508040903604918 
1903	 0.503727389519411 
1904	 0.499473156218082 
1905	 0.495239954319593 
1906	 0.491075996832379 
1907	 0.487311032476229 
1908	 0.483445173171881 
1909	 0.479679917223249 
1910	 0.476070997940289 
1911	 0.472248095386278 
1912	 0.468581793326076 
1913	 0.464893104821062 
1914	 0.461095892347678 
1915	 0.457476617298476 
1916	 0.454019616725848 
1917	 0.450432754866409 
1918	 0.446908144962217 
1919	 0.443448298632125 
1920	 0.439696211674321 
1921	 0.436038936762368 
1922	 0.432281878503036 
1923	 0.428388622504312 
1924	 0.424787820673784 
1925	 0.421061884077393 
1926	 0.417374582859188 
1927	 0.413793702158555 
1928	 0.41015238695604 
1929	 0.406370333594204 
1930	 0.402793410972197 
1931	 0.399331376734149 
1932	 0.395975653975654 
1933	 0.393069995387528 
1934	 0.390329563271743 
1935	 0.387806133294965 
1936	 0.385665135739048 
1937	 0.383761291618182 
1938	 0.382088352507428 
1939	 0.380774050982861 
1940	 0.379755900713938 
1941	 0.379046454278397 
1942	 0.378699796106118 
1943	 0.378561292767695 
1944	 0.378665081461903 
1945	 0.379057372258746 
1946	 0.379746761060629 
1947	 0.380643864938076 
1948	 0.381916857248385 
1949	 0.383563949181854 
1950	 0.385420469713488 
1951	 0.387580587337141 
1952	 0.39000897341184 
1953	 0.392696895731896 
1954	 0.395644112339895 
1955	 0.398961808056977 
1956	 0.402288380889755 
1957	 0.405674973287013 
1958	 0.409036570397556 
1959	 0.412007726862153 
1960	 0.414768289205758 
1961	 0.417246751022641 
1962	 0.41941435437941 
1963	 0.421339809374874 
1964	 0.423004863588054 
1965	 0.424423180967907 
1966	 0.425550400045679 
1967	 0.426509043472484 
1968	 0.427237053736292 
1969	 0.427934936138801 
1970	 0.428570141245961 
1971	 0.429176500239238 
1972	 0.429866876001589 
1973	 0.430592498156009 
1974	 0.43140953293935 
1975	 0.432342244265762 
1976	 0.433287297566885 
1977	 0.434279251965261 
1978	 0.435326627367575 
1979	 0.436413145856879 
1980	 0.437533568838296 
1981	 0.438780236137461 
1982	 0.440024931014401 
1983	 0.441394468787879 
1984	 0.442806764463735 
1985	 0.444196426257136 
1986	 0.445766789440999 
1987	 0.447471573292298 
1988	 0.449171826279698 
1989	 0.451229181078125 
1990	 0.45352776195697 
1991	 0.455993529749197 
1992	 0.458710292856018 
1993	 0.461671551446494 
1994	 0.464552123537192 
1995	 0.467670156475664 
1996	 0.470792069992558 
1997	 0.473919062688764 
1998	 0.477145861819146 
1999	 0.480566531377618 
2000	 0.483729128197312 
2001	 0.487023268631844 
2002	 0.48992381582277 
2003	 0.492581426575773 
2004	 0.495122000870939 
2005	 0.497379515972625 
2006	 0.499584784033361 
2007	 0.501748468261641 
2008	 0.503658351978527 
2009	 0.505406591388652 
2010	 0.507078171489313 
2011	 0.508471529851315 
2012	 0.509779266813403 
2013	 0.510993958811468 
2014	 0.512064980726111 
2015	 0.513084855431322 
2016	 0.514040207713233 
2017	 0.514866005626213 
2018	 0.5156092131461 
2019	 0.516238106394642 
2020	 0.516712510789986 
2021	 0.517132858660011 
2022	 0.517502753103799 
2023	 0.517766521883318 
2024	 0.517999073151811 
2025	 0.518153513214503 
2026	 0.518241566891548 
2027	 0.51824550611952 
2028	 0.518213425371617 
2029	 0.518095806981361 
2030	 0.517978946455228 
2031	 0.517804856312672 
2032	 0.517635760265081 
2033	 0.517421708682154 
2034	 0.51724629012876 
2035	 0.517068702829806 
2036	 0.516900623896824 
2037	 0.516788178961062 
2038	 0.516706782342604 
2039	 0.516654755088661 
2040	 0.516641716397305 
2041	 0.516656526372479 
2042	 0.5166807685871 
2043	 0.516777754794388 
2044	 0.516928797193884 
2045	 0.517103483413401 
2046	 0.517353566573663 
2047	 0.517594978475192 
2048	 0.517857143975072 
2049	 0.518126185083283 
2050	 0.518417655977214 
2051	 0.518706901847755 
2052	 0.519000245524811 
2053	 0.519278307900078 
2054	 0.519549810565191 
2055	 0.519810187538857 
2056	 0.520069035191329 
2057	 0.520327055193521 
2058	 0.52057087347091 
2059	 0.520801525404617 
2060	 0.521033513337082 
2061	 0.521251853817071 
2062	 0.521474305605804 
2063	 0.521704029884402 
2064	 0.521924467855301 
2065	 0.522134643372674 
2066	 0.52234894468784 
2067	 0.522570978654752 
2068	 0.522786677272569 
2069	 0.522982400725706 
2070	 0.523181831825944 
2071	 0.523347220199901 
2072	 0.523499794072097 
2073	 0.52360620001671 
2074	 0.523705144669267 
2075	 0.523730308231705 
2076	 0.523687396322236 
2077	 0.523623363690424 
2078	 0.523528592730501 
2079	 0.523369990856905 
2080	 0.52316722479425 
2081	 0.522925621373998 
2082	 0.522648611644258 
2083	 0.522290390370569 
2084	 0.52185895632541 
2085	 0.521402870584232 
2086	 0.520861031430274 
2087	 0.520191722305515 
2088	 0.51956325509574 
2089	 0.518910694594686 
2090	 0.518222179390438 
2091	 0.517534595915047 
2092	 0.516776949465758 
2093	 0.515972407050311 
2094	 0.515121879046656 
2095	 0.514176220978833 
2096	 0.513259053127098 
2097	 0.512350697123141 
2098	 0.511366520836874 
2099	 0.510394625324717 
2100	 0.509434095581967 
2101	 0.508381216572987 
2102	 0.50726670383475 
2103	 0.506135502580116 
2104	 0.504923914745663 
2105	 0.50375654233405 
2106	 0.502591269730347 
2107	 0.501397035326147 
2108	 0.500230651409951 
2109	 0.498993837123936 
2110	 0.497701656882287 
2111	 0.496400616599945 
2112	 0.495006301656677 
2113	 0.493681486370854 
2114	 0.49237811671333 
2115	 0.491072841362743 
2116	 0.489799349406522 
2117	 0.488562089262719 
2118	 0.487248826025056 
2119	 0.485882879202693 
2120	 0.484579911426097 
2121	 0.483230719374269 
2122	 0.48198727879489 
2123	 0.480829982256864 
2124	 0.479648735977066 
2125	 0.478526102348178 
2126	 0.477366063649347 
2127	 0.476162642452856 
2128	 0.475030938514651 
2129	 0.473899474009264 
2130	 0.472817968789735 
2131	 0.47180257160615 
2132	 0.470799630302485 
2133	 0.469822678321794 
2134	 0.468894328407776 
2135	 0.467907401285811 
2136	 0.466980242684039 
2137	 0.466041561255002 
2138	 0.465063359003198 
2139	 0.464171096445265 
2140	 0.463333920547654 
2141	 0.462500850590567 
2142	 0.461716318852667 
2143	 0.460920729763421 
2144	 0.460132138440421 
2145	 0.459363022802065 
2146	 0.458573624331093 
2147	 0.457856932834779 
2148	 0.457197162462655 
2149	 0.456534991803593 
2150	 0.455935374408307 
2151	 0.455317280346265 
2152	 0.454679194964771 
2153	 0.454064350142931 
2154	 0.453479916555512 
2155	 0.452898004196525 
2156	 0.452358664839898 
2157	 0.451852709307699 
2158	 0.451360938863304 
2159	 0.450895341942415 
2160	 0.450448454536821 
2161	 0.450013482801045 
2162	 0.449622320307228 
2163	 0.449251681078477 
2164	 0.448928914147684 
2165	 0.44864821480872 
2166	 0.448402736850471 
2167	 0.448173615205522 
2168	 0.448027695482697 
2169	 0.447948460868136 
2170	 0.447897231863362 
2171	 0.447911069253823 
2172	 0.447964559502702 
2173	 0.448029137879657 
2174	 0.448170132259779 
2175	 0.44840442302187 
2176	 0.448646815724606 
2177	 0.448957329825444 
2178	 0.449345613460562 
2179	 0.449726574333874 
2180	 0.450161035580046 
2181	 0.45057170538518 
2182	 0.450981968776265 
2183	 0.451414852696525 
2184	 0.451852269981927 
2185	 0.452310040965303 
2186	 0.452823961613186 
2187	 0.453276195931919 
2188	 0.453745822128263 
2189	 0.454145606864495 
2190	 0.454489899975048 
2191	 0.45480771695819 
2192	 0.45506250646453 
2193	 0.455323199749613 
2194	 0.455549023125835 
2195	 0.455783598284927 
2196	 0.456045444075851 
2197	 0.456264123098618 
2198	 0.45640979982192 
2199	 0.456553774986136 
2200	 0.456654884272606 
2201	 0.456699584137881 
2202	 0.456707719327075 
2203	 0.456701664780003 
2204	 0.456642879948473 
2205	 0.456503393147561 
2206	 0.456375681621089 
2207	 0.45621862515921 
2208	 0.456064904634798 
2209	 0.455879538132615 
2210	 0.455724871065403 
2211	 0.455561902322794 
2212	 0.455445265303876 
2213	 0.455320093532491 
2214	 0.455276813031095 
2215	 0.455255581576551 
2216	 0.455342889391057 
2217	 0.455513856493889 
2218	 0.455758156419093 
2219	 0.456099907411501 
2220	 0.456499928411821 
2221	 0.456953372680848 
2222	 0.457520342507664 
2223	 0.458132642859741 
2224	 0.458775407370314 
2225	 0.459421164550241 
2226	 0.460022852141006 
2227	 0.460600467791102 
2228	 0.461194390951193 
2229	 0.461629472439732 
2230	 0.462041563393385 
2231	 0.462256979732206 
2232	 0.462306807165599 
2233	 0.46227291873779 
2234	 0.462135164279581 
2235	 0.461840788537616 
2236	 0.461407178312969 
2237	 0.460864247138595 
2238	 0.460160044383211 
2239	 0.459368931572304 
2240	 0.458481075547641 
2241	 0.45746674502338 
2242	 0.456353198709704 
2243	 0.455080266179055 
2244	 0.453656280783352 
2245	 0.452127896935415 
2246	 0.450363259377876 
2247	 0.448626034063149 
2248	 0.446854762119597 
2249	 0.444971879024352 
2250	 0.443024296577933 
2251	 0.441063837643204 
2252	 0.438821213985935 
2253	 0.436566033478175 
2254	 0.434261627750816 
2255	 0.431854570235746 
2256	 0.42961608336844 
2257	 0.427372301773345 
2258	 0.425162863916014 
2259	 0.423044626412317 
2260	 0.420828790323252 
2261	 0.418570842392631 
2262	 0.416368957918676 
2263	 0.414064714839407 
2264	 0.411977376719429 
2265	 0.410004273784766 
2266	 0.408070556614952 
2267	 0.406310308026884 
2268	 0.404480457770303 
2269	 0.402602200882589 
2270	 0.400879480698964 
2271	 0.399178568846468 
2272	 0.397609635253002 
2273	 0.396248282000156 
2274	 0.394811747915237 
2275	 0.393462579233312 
2276	 0.392047665024539 
2277	 0.390639199857783 
2278	 0.38915813097866 
2279	 0.387598755420607 
2280	 0.386036246736021 
2281	 0.384466097408002 
2282	 0.382803670253328 
2283	 0.381129613557853 
2284	 0.379370841229378 
2285	 0.377399316481927 
2286	 0.375462682926095 
2287	 0.373412116083332 
2288	 0.371296801302683 
2289	 0.369333253393348 
2290	 0.367182569259254 
2291	 0.365018080945321 
2292	 0.362892319629315 
2293	 0.360599025983008 
2294	 0.358427827024958 
2295	 0.356403274084527 
2296	 0.3544638635589 
2297	 0.352833267777262 
2298	 0.351392648897901 
2299	 0.350284354615821 
2300	 0.349434920537181 
2301	 0.348956620895388 
2302	 0.348829664777906 
2303	 0.348981808274359 
2304	 0.349518869905563 
2305	 0.350244049260462 
2306	 0.351265146239452 
2307	 0.35251438517409 
2308	 0.354013532863514 
2309	 0.355779688275578 
2310	 0.357895027984379 
2311	 0.360087748362951 
2312	 0.362624682425599 
2313	 0.365108916569209 
2314	 0.367747574185304 
2315	 0.370324210176079 
2316	 0.372990973513982 
2317	 0.375475533297569 
2318	 0.378024689014868 
2319	 0.380197412327174 
2320	 0.382273048415522 
2321	 0.383924030362953 
2322	 0.385158735393176 
2323	 0.386177953396824 
2324	 0.38682427483016 
2325	 0.38726824611759 
2326	 0.387457591666228 
2327	 0.387419649450553 
2328	 0.387051661050058 
2329	 0.386568412461743 
2330	 0.38587083493545 
2331	 0.384982391265942 
2332	 0.384009670807336 
2333	 0.382856822290728 
2334	 0.381408444672274 
2335	 0.379837904135351 
2336	 0.378110141601843 
2337	 0.376258598090692 
2338	 0.374487718475463 
2339	 0.372653173973341 
2340	 0.370813424929432 
2341	 0.369035510878731 
2342	 0.367312100238548 
2343	 0.365799728704443 
2344	 0.364534591024942 
2345	 0.363603714128126 
2346	 0.363022595906134 
2347	 0.362860268507667 
2348	 0.362993897112082 
2349	 0.363449810489374 
2350	 0.364243312041557 
2351	 0.365310975058893 
2352	 0.366641310091042 
2353	 0.368145302616658 
2354	 0.369650287730528 
2355	 0.371042582727727 
2356	 0.372230210803273 
2357	 0.373226902810264 
2358	 0.374048331788551 
2359	 0.374599674319114 
2360	 0.374999246474212 
2361	 0.375196672418386 
2362	 0.375156198925465 
2363	 0.374905575055221 
2364	 0.37455093643668 
2365	 0.374100418041021 
2366	 0.373612657378885 
2367	 0.373206912550451 
2368	 0.372767473256453 
2369	 0.372253606706741 
2370	 0.371678037835886 
2371	 0.371146093814497 
2372	 0.370718357591986 
2373	 0.370209191154727 
2374	 0.369601752127523 
2375	 0.369018350504946 
2376	 0.36837095289506 
2377	 0.367768381872724 
2378	 0.367286883751852 
2379	 0.366678153007819 
2380	 0.365982270679376 
2381	 0.365310403788819 
2382	 0.364600036839627 
2383	 0.363850895601045 
2384	 0.363116575289313 
2385	 0.362342993389113 
2386	 0.361617454358365 
2387	 0.360935427104514 
2388	 0.360238913054632 
2389	 0.359581622515841 
2390	 0.358825775510945 
2391	 0.357998768261699 
2392	 0.357207113569504 
2393	 0.356396382953411 
2394	 0.355569901699603 
2395	 0.354714507290913 
2396	 0.353906347670186 
2397	 0.353118350263645 
2398	 0.352307457335553 
2399	 0.351571516856889 
2400	 0.350760668473986 
2401	 0.349851558358019 
2402	 0.348988927314163 
2403	 0.348019405117391 
2404	 0.347085789939086 
2405	 0.346271434456984 
2406	 0.345370127061433 
2407	 0.344522600053786 
2408	 0.343708674610797 
2409	 0.342765236106387 
2410	 0.342064119855276 
2411	 0.341485554984871 
2412	 0.340762830272293 
2413	 0.340186540236276 
2414	 0.339531916215911 
2415	 0.338838852235936 
2416	 0.338372504423768 
2417	 0.337890554347124 
2418	 0.337404540940751 
2419	 0.337026091135566 
2420	 0.336644173280194 
2421	 0.336220226468038 
2422	 0.335945841489102 
2423	 0.335764722922502 
2424	 0.335428935712363 
2425	 0.335160760377923 
2426	 0.33489076564736 
2427	 0.33449347843972 
2428	 0.334200136311208 
2429	 0.333828633731876 
2430	 0.333435976626698 
2431	 0.333215406376244 
2432	 0.332935129488186 
2433	 0.332660882989167 
2434	 0.332537211739385 
2435	 0.332239222334446 
2436	 0.331827973510888 
2437	 0.331646179714161 
2438	 0.33151980718727 
2439	 0.331316235297089 
2440	 0.331114697135385 
2441	 0.330785714189613 
2442	 0.330192282072153 
2443	 0.329730238774437 
2444	 0.329539587647429 
2445	 0.329181977806236 
2446	 0.328850475036634 
2447	 0.328611447702396 
2448	 0.328026747746549 
2449	 0.327553653803247 
2450	 0.327297030248363 
2451	 0.326763710883598 
2452	 0.326382148578292 
2453	 0.32619083184042 
2454	 0.325879632698112 
2455	 0.325465496516849 
2456	 0.324898363445349 
2457	 0.324338450279652 
2458	 0.32376128682661 
2459	 0.323188653435017 
2460	 0.32269696092989 
2461	 0.321979960904301 
2462	 0.321225607307921 
2463	 0.320677925241859 
2464	 0.320123288806295 
2465	 0.319687399335173 
2466	 0.319204185378333 
2467	 0.318656332185898 
2468	 0.318189809255488 
2469	 0.317658294127817 
2470	 0.317210983136753 
2471	 0.316753423108703 
2472	 0.316321569778543 
2473	 0.315825845339358 
2474	 0.315465656484623 
2475	 0.315311273808047 
2476	 0.314897570600839 
2477	 0.314701296910274 
2478	 0.314575231860777 
2479	 0.314233885383689 
2480	 0.314165558979687 
2481	 0.314095698704315 
2482	 0.314103496931587 
2483	 0.314001805740113 
2484	 0.313932512221412 
2485	 0.314029858724267 
2486	 0.314182645794963 
2487	 0.314268476144201 
2488	 0.314393763969835 
2489	 0.314744945476892 
2490	 0.315059198231037 
2491	 0.315406052094617 
2492	 0.315919015584935 
2493	 0.31617955541842 
2494	 0.316533005774532 
2495	 0.317074384298688 
2496	 0.317633503229545 
2497	 0.318175815294737 
2498	 0.318512074595597 
2499	 0.318871387213439 
2500	 0.319366902612396 
