Wavelength	spectrum00007.asd
350	 9.46279777144952E-02 
351	 9.26022802263259E-02 
352	 8.94413477021925E-02 
353	 8.63634758879869E-02 
354	 8.69541397713713E-02 
355	 8.40663431363614E-02 
356	 8.03117266802758E-02 
357	 7.87574606756474E-02 
358	 7.70130736383543E-02 
359	 7.49799033726677E-02 
360	 7.34099364551146E-02 
361	 7.31039009992602E-02 
362	 7.16151313320461E-02 
363	 7.01451856668508E-02 
364	 6.95241648798278E-02 
365	 6.96204839408988E-02 
366	 7.03718395152845E-02 
367	 6.99987349433671E-02 
368	 6.78569970696141E-02 
369	 6.80550678161018E-02 
370	 6.82309640730488E-02 
371	 6.77624404953177E-02 
372	 6.70781654627947E-02 
373	 6.60819700221427E-02 
374	 6.53091120921082E-02 
375	 6.52974203516983E-02 
376	 6.65378420272116E-02 
377	 6.70105146960955E-02 
378	 6.60283314329837E-02 
379	 0.064007098549902 
380	 0.063259381062145 
381	 6.42760134751072E-02 
382	 6.52888655213853E-02 
383	 6.37818802424472E-02 
384	 6.37162949644229E-02 
385	 6.38886230840117E-02 
386	 0.063369246020491 
387	 0.062546661605071 
388	 6.22632818820944E-02 
389	 6.23349331989345E-02 
390	 6.22594816066902E-02 
391	 6.15560308275376E-02 
392	 6.13154743878789E-02 
393	 6.14791751556636E-02 
394	 6.12431873329825E-02 
395	 6.07456446442318E-02 
396	 6.02854179574352E-02 
397	 6.00420630850931E-02 
398	 0.059979126122365 
399	 0.05978060633001 
400	 5.94240072447169E-02 
401	 5.89948432233589E-02 
402	 5.84899369788054E-02 
403	 5.86189353507532E-02 
404	 5.90067799212074E-02 
405	 0.058570463979263 
406	 5.82359149596575E-02 
407	 5.77316510402712E-02 
408	 5.71657525567235E-02 
409	 5.78753021294171E-02 
410	 5.75430859235983E-02 
411	 5.68005730726904E-02 
412	 5.69277754100613E-02 
413	 5.72083917252718E-02 
414	 5.70565986193761E-02 
415	 5.66768296763115E-02 
416	 5.69013528984657E-02 
417	 0.056653392772425 
418	 5.64552071275829E-02 
419	 5.66994109071924E-02 
420	 5.68549523823742E-02 
421	 5.68374770637895E-02 
422	 5.68675017403924E-02 
423	 5.71701465354684E-02 
424	 0.057044520631883 
425	 5.69957703154044E-02 
426	 5.71708442392554E-02 
427	 5.72070119667027E-02 
428	 5.73672202472256E-02 
429	 5.76286171877901E-02 
430	 5.78725412506202E-02 
431	 5.78561213728765E-02 
432	 5.80678351378701E-02 
433	 5.84169220356688E-02 
434	 5.85382424405775E-02 
435	 5.88450009682624E-02 
436	 5.91503514020003E-02 
437	 5.93805555532046E-02 
438	 5.97392495638074E-02 
439	 6.01424189359301E-02 
440	 6.05687601947425E-02 
441	 6.09974467405832E-02 
442	 0.061317429116068 
443	 6.18647089623874E-02 
444	 6.25565027175353E-02 
445	 6.29962216856276E-02 
446	 6.34786588434247E-02 
447	 6.39825602079023E-02 
448	 6.45068785304414E-02 
449	 6.52087721529313E-02 
450	 6.59773921744363E-02 
451	 6.67117423099256E-02 
452	 6.73590870058889E-02 
453	 6.81208873377744E-02 
454	 6.90050227162527E-02 
455	 7.00055671991881E-02 
456	 0.071118524776706 
457	 7.22149764081688E-02 
458	 7.32603097818361E-02 
459	 7.43070198993851E-02 
460	 7.55857940351075E-02 
461	 7.68420405565938E-02 
462	 0.078123034155783 
463	 7.96072082017749E-02 
464	 8.09755294248341E-02 
465	 8.25444530552802E-02 
466	 8.43575694356947E-02 
467	 8.59291796691339E-02 
468	 8.76841415686667E-02 
469	 8.95682174445447E-02 
470	 0.091467966672212 
471	 0.09361093832469 
472	 9.58325541252475E-02 
473	 9.80758105441899E-02 
474	 0.100381822052947 
475	 0.102771977143621 
476	 0.105325406541426 
477	 0.108058834208039 
478	 0.110845172284495 
479	 0.113736447138514 
480	 0.116722488237246 
481	 0.119778648807789 
482	 0.122926078090712 
483	 0.126218699619621 
484	 0.129669345367408 
485	 0.13323548736625 
486	 0.136924159083236 
487	 0.140689418319837 
488	 0.144498535907195 
489	 0.148397375592174 
490	 0.152454470337738 
491	 0.156608352504482 
492	 0.160733887071123 
493	 0.16488530073561 
494	 0.169080018920897 
495	 0.173339689760163 
496	 0.17769837923475 
497	 0.182094386331183 
498	 0.186478054713704 
499	 0.19084597941806 
500	 0.195433711326494 
501	 0.199901893483031 
502	 0.204218556710203 
503	 0.208636836409402 
504	 0.213090656882781 
505	 0.217523539329001 
506	 0.221915052635913 
507	 0.226340712763279 
508	 0.230642913356112 
509	 0.234889132587622 
510	 0.239221244700722 
511	 0.243558803917931 
512	 0.247774087177102 
513	 0.251886313008138 
514	 0.256121758064588 
515	 0.260228511725589 
516	 0.264299558078938 
517	 0.268421673788804 
518	 0.272319699944164 
519	 0.27623767209955 
520	 0.280209986141201 
521	 0.284116838706638 
522	 0.287973248295093 
523	 0.291753037383428 
524	 0.295472025696735 
525	 0.299255012632925 
526	 0.302970742351511 
527	 0.306644732711376 
528	 0.310336151960685 
529	 0.313958661467481 
530	 0.317440335385362 
531	 0.320852930062781 
532	 0.32440353003634 
533	 0.32782665734602 
534	 0.331196080306577 
535	 0.3345706310875 
536	 0.337743879022766 
537	 0.34095819104197 
538	 0.344207762484671 
539	 0.34735437208394 
540	 0.35044143957778 
541	 0.353485605355764 
542	 0.356491703601413 
543	 0.359448338275574 
544	 0.362261147216601 
545	 0.364974468106989 
546	 0.367699757082363 
547	 0.370619235888926 
548	 0.373592842512966 
549	 0.376597024283407 
550	 0.379716313157932 
551	 0.382850382844212 
552	 0.385990635139911 
553	 0.389133170959083 
554	 0.392231804839252 
555	 0.395313122441844 
556	 0.398409803487137 
557	 0.401523378872566 
558	 0.404420117765807 
559	 0.407246503771533 
560	 0.410082112915499 
561	 0.412863609576988 
562	 0.415438690247156 
563	 0.417632704971467 
564	 0.419388254730787 
565	 0.421016036037174 
566	 0.422710771825571 
567	 0.42445881407171 
568	 0.426124507187414 
569	 0.428186606583532 
570	 0.430588945400781 
571	 0.433149478023159 
572	 0.435641491044711 
573	 0.437986773342331 
574	 0.440075077926621 
575	 0.441801564622907 
576	 0.443089433006277 
577	 0.443906437773673 
578	 0.444432124153378 
579	 0.445067859401962 
580	 0.446019574605127 
581	 0.447320868106421 
582	 0.4489064273995 
583	 0.450626022377434 
584	 0.452418293012994 
585	 0.454285677507848 
586	 0.456222026512715 
587	 0.457736772552236 
588	 0.459070400118406 
589	 0.460470809886024 
590	 0.46203274753811 
591	 0.463671126368278 
592	 0.465412734524222 
593	 0.467286785627577 
594	 0.469223024314798 
595	 0.471010243660062 
596	 0.472580682552582 
597	 0.474000674724452 
598	 0.475362556846563 
599	 0.476615729125073 
600	 0.477753681788503 
601	 0.478926406865844 
602	 0.480170903453516 
603	 0.481449572901769 
604	 0.482702483912293 
605	 0.484027021912368 
606	 0.48536721469574 
607	 0.486647922078156 
608	 0.487786034954515 
609	 0.488854025765235 
610	 0.489888320670347 
611	 0.490913191825662 
612	 0.491931743283769 
613	 0.49295979951491 
614	 0.494014057691869 
615	 0.495101343281372 
616	 0.496116305959274 
617	 0.497114510202917 
618	 0.498130198405289 
619	 0.499123349001581 
620	 0.500101890870866 
621	 0.50104241352147 
622	 0.501938011532332 
623	 0.502903675354854 
624	 0.503862604868854 
625	 0.50475430422582 
626	 0.505553570564218 
627	 0.506420161317198 
628	 0.507332766074593 
629	 0.50823788476482 
630	 0.509099147238713 
631	 0.509906349979123 
632	 0.51070647427715 
633	 0.511551392685568 
634	 0.512327841284299 
635	 0.513120343093055 
636	 0.513938009086322 
637	 0.514674933238941 
638	 0.51541581317579 
639	 0.516206886937608 
640	 0.517030360531748 
641	 0.517689192486457 
642	 0.518380623655589 
643	 0.51917169649196 
644	 0.520017857323241 
645	 0.520679364639404 
646	 0.521325420390935 
647	 0.522062002214709 
648	 0.522811318963669 
649	 0.523422475454273 
650	 0.523974425940221 
651	 0.524597997979258 
652	 0.525283409090871 
653	 0.526011510497762 
654	 0.526722336403618 
655	 0.527336873635872 
656	 0.527975937059811 
657	 0.528622714406878 
658	 0.529242245091508 
659	 0.529802570195401 
660	 0.530438605386574 
661	 0.531056404907101 
662	 0.531540060969355 
663	 0.532156069436465 
664	 0.532855095902116 
665	 0.533511183437666 
666	 0.533959085405461 
667	 0.534490043095404 
668	 0.535064229961593 
669	 0.535606531510758 
670	 0.536125461807914 
671	 0.536746541166199 
672	 0.537373088312936 
673	 0.537846766337704 
674	 0.538350106639724 
675	 0.538910971561657 
676	 0.539467655115287 
677	 0.53987275768918 
678	 0.540358234683825 
679	 0.540836473156666 
680	 0.541249206761331 
681	 0.541881795181108 
682	 0.54244006151938 
683	 0.542864542965053 
684	 0.543251466546017 
685	 0.543766780536733 
686	 0.544327923602094 
687	 0.544838880269092 
688	 0.545228291250403 
689	 0.545594049801147 
690	 0.546017563701351 
691	 0.546531131844654 
692	 0.547037805369274 
693	 0.547459460906023 
694	 0.54783195561065 
695	 0.548257243811821 
696	 0.54870205828214 
697	 0.549167427505463 
698	 0.549638704653884 
699	 0.550077512137843 
700	 0.550402798104132 
701	 0.550718576063472 
702	 0.551155208917509 
703	 0.551742450578584 
704	 0.552195462245569 
705	 0.552484450906272 
706	 0.552772727306901 
707	 0.553152192025042 
708	 0.553593469869049 
709	 0.554028868857448 
710	 0.554358921535573 
711	 0.554760938947923 
712	 0.555141014726233 
713	 0.555414615721285 
714	 0.555879033697719 
715	 0.556325855126295 
716	 0.556638299611885 
717	 0.556815735826148 
718	 0.557217535783804 
719	 0.557709719753928 
720	 0.558141860848133 
721	 0.558462281726008 
722	 0.558716142470496 
723	 0.558998423065849 
724	 0.559384111986181 
725	 0.559821671755542 
726	 0.560222769593694 
727	 0.56052371823519 
728	 0.560708018401014 
729	 0.560983231811345 
730	 0.561350554871378 
731	 0.561756705351539 
732	 0.56211251890362 
733	 0.562538582424153 
734	 0.562920648981024 
735	 0.563174879417487 
736	 0.563600105940005 
737	 0.563926438897374 
738	 0.564174297989078 
739	 0.564533160483507 
740	 0.564788783376078 
741	 0.565016532644017 
742	 0.565287553934785 
743	 0.565613545638498 
744	 0.565948140341842 
745	 0.566204298550704 
746	 0.566355136322991 
747	 0.566577928402429 
748	 0.566944545472999 
749	 0.567343495317459 
750	 0.567588625707897 
751	 0.567846410253066 
752	 0.568037699765606 
753	 0.568194301887964 
754	 0.568513979866738 
755	 0.568898478381036 
756	 0.569216025544354 
757	 0.569399551559881 
758	 0.569570302157277 
759	 0.56981379193136 
760	 0.570103776976035 
761	 0.570362375920332 
762	 0.570598900786525 
763	 0.570834654869797 
764	 0.571086306715018 
765	 0.571362057266588 
766	 0.571639426395049 
767	 0.571921466595011 
768	 0.57219394699032 
769	 0.572383497891851 
770	 0.572598252269164 
771	 0.572875263241161 
772	 0.573200909161798 
773	 0.573476431398367 
774	 0.573716155898964 
775	 0.573898077040555 
776	 0.573991917332528 
777	 0.574245128788415 
778	 0.574620562282479 
779	 0.5749784861944 
780	 0.575086183957767 
781	 0.575281004486233 
782	 0.575534999983978 
783	 0.575749327037969 
784	 0.575977701385807 
785	 0.576185207097178 
786	 0.576417688867751 
787	 0.576728706505566 
788	 0.576869060378324 
789	 0.577042879944269 
790	 0.577331076618809 
791	 0.577616470752875 
792	 0.57785949475932 
793	 0.578020217227897 
794	 0.578136673980108 
795	 0.578425707964405 
796	 0.578709628254119 
797	 0.578931973446078 
798	 0.579083436807919 
799	 0.579136059824672 
800	 0.579295957797006 
801	 0.579618659277741 
802	 0.580010381985912 
803	 0.580264684324928 
804	 0.580442331240925 
805	 0.580623677448395 
806	 0.580851956625874 
807	 0.581106395125134 
808	 0.581357324143596 
809	 0.581574148406574 
810	 0.581728321950492 
811	 0.581883419313583 
812	 0.582075390514129 
813	 0.582317260524591 
814	 0.58259322563875 
815	 0.582819762278932 
816	 0.582971284211004 
817	 0.583085666941938 
818	 0.583242667997434 
819	 0.583458905609475 
820	 0.583715243079115 
821	 0.583959553112458 
822	 0.584078349070116 
823	 0.584220110878576 
824	 0.584505444480674 
825	 0.584759009243882 
826	 0.584823666172275 
827	 0.584852824391496 
828	 0.58508596640869 
829	 0.585329951614368 
830	 0.585452787466153 
831	 0.585542590985931 
832	 0.585836605117732 
833	 0.586013344511324 
834	 0.586203275792374 
835	 0.586441157053203 
836	 0.586517893438402 
837	 0.5867488461364 
838	 0.58699090133268 
839	 0.587068504851854 
840	 0.587024311874342 
841	 0.587167680266155 
842	 0.58745377889182 
843	 0.587679925413858 
844	 0.587727906549991 
845	 0.587743252143988 
846	 0.587851835790017 
847	 0.588117720593942 
848	 0.588343839321624 
849	 0.588563478167651 
850	 0.588796739473772 
851	 0.589009421838512 
852	 0.589099868167195 
853	 0.589217430793246 
854	 0.589439514706373 
855	 0.589579412000533 
856	 0.589720076374882 
857	 0.589851391533211 
858	 0.589968687138868 
859	 0.590191739009132 
860	 0.590347995965228 
861	 0.590426786462722 
862	 0.590519861568038 
863	 0.59074970885595 
864	 0.590913686332606 
865	 0.590991317819713 
866	 0.591130167534665 
867	 0.591264454483096 
868	 0.591499818621248 
869	 0.591783751212841 
870	 0.591838437263337 
871	 0.591876277533958 
872	 0.591970917856069 
873	 0.592136195413847 
874	 0.592329326225027 
875	 0.592473357766268 
876	 0.592617958747734 
877	 0.592814069890877 
878	 0.592958686164042 
879	 0.593089579336531 
880	 0.593183370957899 
881	 0.593222061858506 
882	 0.593368266611747 
883	 0.593545125778636 
884	 0.593678254665326 
885	 0.593730179652264 
886	 0.593822042878386 
887	 0.594024408140173 
888	 0.594264194464135 
889	 0.59433221724018 
890	 0.59434472647519 
891	 0.594399550638727 
892	 0.594520779634665 
893	 0.594613738098388 
894	 0.594739228007763 
895	 0.594892156465917 
896	 0.595047026920315 
897	 0.595176676084663 
898	 0.595207836124412 
899	 0.595271839204276 
900	 0.59548637530602 
901	 0.595635537609642 
902	 0.595814600595981 
903	 0.595952085924875 
904	 0.595957633283354 
905	 0.596090209938703 
906	 0.596266597917158 
907	 0.596409278760016 
908	 0.59647955675714 
909	 0.596563603877674 
910	 0.59675138213844 
911	 0.596968280009999 
912	 0.597012061926234 
913	 0.597146471191761 
914	 0.597317711314878 
915	 0.597475936271508 
916	 0.597642963502551 
917	 0.597786838172457 
918	 0.597860093019571 
919	 0.597897770200558 
920	 0.598079143645448 
921	 0.598314514572113 
922	 0.598528989779237 
923	 0.598675306486632 
924	 0.598764453966567 
925	 0.59888672880511 
926	 0.599021679993067 
927	 0.599139530248039 
928	 0.599319234048848 
929	 0.599490122680218 
930	 0.599707437737899 
931	 0.599999410766035 
932	 0.600038240140153 
933	 0.600220451179925 
934	 0.6005435149696 
935	 0.600797699916512 
936	 0.601029190450091 
937	 0.601303630852592 
938	 0.601535729452657 
939	 0.6015962995236 
940	 0.601789875284829 
941	 0.602018002706989 
942	 0.602197179350934 
943	 0.602313899079347 
944	 0.602542673458951 
945	 0.602751755510582 
946	 0.60287739612144 
947	 0.602970705743154 
948	 0.603048790565674 
949	 0.60319827082741 
950	 0.603437704894678 
951	 0.603680531250987 
952	 0.603703408226779 
953	 0.603681408349777 
954	 0.603772740116681 
955	 0.603982109605326 
956	 0.604223080380736 
957	 0.604362180746791 
958	 0.604378676406813 
959	 0.604446901973344 
960	 0.60455134588554 
961	 0.604729712026294 
962	 0.60496814011227 
963	 0.605147499691292 
964	 0.60514761207478 
965	 0.605219769891144 
966	 0.605478092894207 
967	 0.605503015745962 
968	 0.605727684683311 
969	 0.60596808011843 
970	 0.606049993133502 
971	 0.606284878615875 
972	 0.606409884273507 
973	 0.606479780880383 
974	 0.606601696304738 
975	 0.606730926445859 
976	 0.607018564746647 
977	 0.607326149769027 
978	 0.607457936229574 
979	 0.607330392857317 
980	 0.607450945429936 
981	 0.607618916741536 
982	 0.60755250277806 
983	 0.607546978861264 
984	 0.607710691916865 
985	 0.607903762663796 
986	 0.608000086526675 
987	 0.608265181721081 
988	 0.608471663427687 
989	 0.608581282202456 
990	 0.608647139027528 
991	 0.608755904114049 
992	 0.608892325072325 
993	 0.609095423764032 
994	 0.609364788946454 
995	 0.609530435639692 
996	 0.609627970115689 
997	 0.609664133263226 
998	 0.609690897280075 
999	 0.609911366729264 
1000	 0.610220731476632 
1001	 0.590375403406761 
1002	 0.590486220252916 
1003	 0.590683010250469 
1004	 0.590857793221354 
1005	 0.591027989916216 
1006	 0.591194893490223 
1007	 0.591381486951974 
1008	 0.59154872017562 
1009	 0.591695951443116 
1010	 0.591855827926184 
1011	 0.592033532340358 
1012	 0.59218026002467 
1013	 0.592288689062622 
1014	 0.592436467880348 
1015	 0.592580392195229 
1016	 0.592749169475356 
1017	 0.59295220574591 
1018	 0.593142233439547 
1019	 0.593310695830546 
1020	 0.593487097352591 
1021	 0.593635439321221 
1022	 0.593738787975566 
1023	 0.593890717208708 
1024	 0.59405898831038 
1025	 0.594204980329188 
1026	 0.59436541471567 
1027	 0.594514929318869 
1028	 0.594629758280503 
1029	 0.59478029994031 
1030	 0.594944050506037 
1031	 0.595138432137784 
1032	 0.595299677931057 
1033	 0.59543757705835 
1034	 0.595594768711631 
1035	 0.595711328729849 
1036	 0.595853876972318 
1037	 0.596041537844756 
1038	 0.596169523182342 
1039	 0.596243687327081 
1040	 0.596386892228383 
1041	 0.596531117393946 
1042	 0.59668016615943 
1043	 0.596881159766939 
1044	 0.597061044112426 
1045	 0.597170095163359 
1046	 0.597286682581433 
1047	 0.597381186530292 
1048	 0.597467559585856 
1049	 0.597566057543377 
1050	 0.597708886968186 
1051	 0.597878307086929 
1052	 0.598016626636544 
1053	 0.59815749527022 
1054	 0.598305147704881 
1055	 0.59844585102831 
1056	 0.598577572079176 
1057	 0.598711370998277 
1058	 0.598854351028692 
1059	 0.598981251376135 
1060	 0.599105978995453 
1061	 0.599201975989769 
1062	 0.599287183716237 
1063	 0.599410549588146 
1064	 0.599504687473626 
1065	 0.59961127648542 
1066	 0.599760880286525 
1067	 0.599884986648119 
1068	 0.600004107031143 
1069	 0.600111967848772 
1070	 0.600227444656436 
1071	 0.600339238807719 
1072	 0.600454821384851 
1073	 0.600585958890149 
1074	 0.600733327831322 
1075	 0.60087536586713 
1076	 0.601001647035944 
1077	 0.601115192245106 
1078	 0.60123032924812 
1079	 0.601325444723878 
1080	 0.601426965274068 
1081	 0.601539497061458 
1082	 0.60164603708232 
1083	 0.601766262986231 
1084	 0.601882079024799 
1085	 0.601984643879473 
1086	 0.602090112604749 
1087	 0.602193424232802 
1088	 0.602304644589147 
1089	 0.602390051357565 
1090	 0.602455290842726 
1091	 0.602540190792949 
1092	 0.602629716315425 
1093	 0.602741295891515 
1094	 0.602866470954715 
1095	 0.60296520273701 
1096	 0.603067358099117 
1097	 0.603172763810654 
1098	 0.603273217366199 
1099	 0.603353904551736 
1100	 0.603407858573763 
1101	 0.603472153489914 
1102	 0.603528073872493 
1103	 0.603577389449052 
1104	 0.603629983116303 
1105	 0.60369548972343 
1106	 0.603733087397019 
1107	 0.603760517255061 
1108	 0.603813809952718 
1109	 0.60385711270398 
1110	 0.603887031569236 
1111	 0.603938752427092 
1112	 0.603983686122 
1113	 0.604038905353244 
1114	 0.604108971285443 
1115	 0.604136534838451 
1116	 0.604162944837275 
1117	 0.604186030851652 
1118	 0.604214385753468 
1119	 0.604242365412793 
1120	 0.60428201461509 
1121	 0.604336286091019 
1122	 0.604372234075651 
1123	 0.604404169122319 
1124	 0.60441999518451 
1125	 0.604427946946335 
1126	 0.604429740803934 
1127	 0.60442391308275 
1128	 0.604417838954711 
1129	 0.604370282607056 
1130	 0.604314572647442 
1131	 0.604256684692307 
1132	 0.604179302720947 
1133	 0.604122386510524 
1134	 0.604067627951411 
1135	 0.604008798757388 
1136	 0.603959629156222 
1137	 0.603879297183139 
1138	 0.60380313843725 
1139	 0.603687233213368 
1140	 0.603532615319637 
1141	 0.603382238541694 
1142	 0.603215881724356 
1143	 0.603008928165805 
1144	 0.602789675935888 
1145	 0.602529489486966 
1146	 0.602215947459985 
1147	 0.601896270676607 
1148	 0.601596122282278 
1149	 0.60128514437473 
1150	 0.600970843682131 
1151	 0.600675235882378 
1152	 0.600348985090997 
1153	 0.599992528591701 
1154	 0.599638237850943 
1155	 0.599293660095372 
1156	 0.598901502628701 
1157	 0.598495345235787 
1158	 0.598059861720587 
1159	 0.597580425557749 
1160	 0.597100191114631 
1161	 0.596600753578318 
1162	 0.596056789331812 
1163	 0.595540019644515 
1164	 0.594988833347919 
1165	 0.594407893895266 
1166	 0.593895147178766 
1167	 0.593379015533832 
1168	 0.592857708099323 
1169	 0.592342641638792 
1170	 0.591843874015027 
1171	 0.591335958434571 
1172	 0.590809020534336 
1173	 0.59031018490722 
1174	 0.589840065031264 
1175	 0.589363902175005 
1176	 0.588882524446806 
1177	 0.58842547232521 
1178	 0.587993086629857 
1179	 0.587528754453859 
1180	 0.587096355614457 
1181	 0.586670287374353 
1182	 0.586226320120377 
1183	 0.585831241735458 
1184	 0.585459657679324 
1185	 0.585094212644451 
1186	 0.58473850752201 
1187	 0.584397070471661 
1188	 0.584062256194632 
1189	 0.583726891759388 
1190	 0.583421670033204 
1191	 0.58313203849995 
1192	 0.582868973656785 
1193	 0.582636244673611 
1194	 0.582404678021853 
1195	 0.582190884308281 
1196	 0.581983912909193 
1197	 0.581782689242674 
1198	 0.581588003433755 
1199	 0.581414731107479 
1200	 0.581277759770692 
1201	 0.581164377197497 
1202	 0.581078619470994 
1203	 0.581019397061379 
1204	 0.580988731337225 
1205	 0.581021176898425 
1206	 0.581073912742608 
1207	 0.581233084438603 
1208	 0.581449746796378 
1209	 0.581767165585538 
1210	 0.582183341019713 
1211	 0.582656508810926 
1212	 0.583223406612261 
1213	 0.583837417320423 
1214	 0.584521420199289 
1215	 0.585247238181209 
1216	 0.58606163644055 
1217	 0.586865237322381 
1218	 0.587714550681185 
1219	 0.588560455064386 
1220	 0.589390990543224 
1221	 0.590248755506972 
1222	 0.59106919757862 
1223	 0.591892193458081 
1224	 0.59269368556962 
1225	 0.593493078143391 
1226	 0.594231124815305 
1227	 0.594945862398491 
1228	 0.59562099337149 
1229	 0.596254002896245 
1230	 0.596850220664866 
1231	 0.597391972809137 
1232	 0.597946069855358 
1233	 0.598472525337651 
1234	 0.598976241869217 
1235	 0.599471454377834 
1236	 0.599959783396681 
1237	 0.600404656844709 
1238	 0.600865147360193 
1239	 0.601341140573868 
1240	 0.601812109360824 
1241	 0.602274265269639 
1242	 0.602694087433061 
1243	 0.60308760568805 
1244	 0.603449112877468 
1245	 0.603808731992998 
1246	 0.604144798375695 
1247	 0.60446366799 
1248	 0.604785039579838 
1249	 0.605062370900459 
1250	 0.605291413327453 
1251	 0.605529937194917 
1252	 0.605748056756001 
1253	 0.605962413957814 
1254	 0.606181162692697 
1255	 0.606375831050974 
1256	 0.6065527051458 
1257	 0.606720097452048 
1258	 0.606865047395567 
1259	 0.607009299715913 
1260	 0.607133666537918 
1261	 0.607273595166358 
1262	 0.607415781938725 
1263	 0.607560343965705 
1264	 0.607716384158103 
1265	 0.607888719005134 
1266	 0.608048645178191 
1267	 0.608212279255537 
1268	 0.60836876308884 
1269	 0.60851330602399 
1270	 0.608673478587853 
1271	 0.608850158465418 
1272	 0.60899748406492 
1273	 0.609132332608714 
1274	 0.609278853511919 
1275	 0.609411540931164 
1276	 0.609547355529659 
1277	 0.609704195377266 
1278	 0.609842070851289 
1279	 0.609953296315854 
1280	 0.610079042939794 
1281	 0.610207555118754 
1282	 0.610337428193641 
1283	 0.610473294321711 
1284	 0.610606728383628 
1285	 0.610739609405063 
1286	 0.610876510660732 
1287	 0.610996733305475 
1288	 0.611107531914239 
1289	 0.611224333142373 
1290	 0.611340341253344 
1291	 0.611439215087712 
1292	 0.611538151186365 
1293	 0.611623544397931 
1294	 0.611684782153712 
1295	 0.611754016163182 
1296	 0.61181380386009 
1297	 0.611891459338144 
1298	 0.611978976925344 
1299	 0.612056895910442 
1300	 0.612159321416418 
1301	 0.612227026563909 
1302	 0.612261189751675 
1303	 0.612306901973852 
1304	 0.612331088661706 
1305	 0.612375355841675 
1306	 0.61246022573398 
1307	 0.612502829286754 
1308	 0.612530486059879 
1309	 0.612551375467638 
1310	 0.612563347703688 
1311	 0.612543652288459 
1312	 0.6125404062495 
1313	 0.612559899584952 
1314	 0.612529596633311 
1315	 0.612475707914907 
1316	 0.612414301937775 
1317	 0.612318039637066 
1318	 0.612243751190537 
1319	 0.612171818414953 
1320	 0.612097055590121 
1321	 0.61202793023104 
1322	 0.61195004388344 
1323	 0.611881009769481 
1324	 0.611780581229579 
1325	 0.611656029750845 
1326	 0.611538425107451 
1327	 0.611412681316706 
1328	 0.611271199958151 
1329	 0.611140103452882 
1330	 0.610980377849303 
1331	 0.610789186599337 
1332	 0.610591334839004 
1333	 0.610388952734097 
1334	 0.61016319448579 
1335	 0.609917071835313 
1336	 0.609655768531852 
1337	 0.609373738479496 
1338	 0.609063529631883 
1339	 0.60875633995842 
1340	 0.608444994256223 
1341	 0.608105793959342 
1342	 0.607758248653537 
1343	 0.607380064012239 
1344	 0.606978820221371 
1345	 0.606550899225592 
1346	 0.606106809217939 
1347	 0.605627420391842 
1348	 0.605120676211739 
1349	 0.604580631922798 
1350	 0.603995245217582 
1351	 0.603407399192814 
1352	 0.60279333663394 
1353	 0.60216828362489 
1354	 0.601514456984739 
1355	 0.600882475609617 
1356	 0.60022420074943 
1357	 0.599603288621298 
1358	 0.599005347450342 
1359	 0.59842572777968 
1360	 0.597868670883577 
1361	 0.597323354506249 
1362	 0.596799228637404 
1363	 0.596322246161071 
1364	 0.595849044747154 
1365	 0.595411096991668 
1366	 0.594952827617917 
1367	 0.594510353042924 
1368	 0.594037188655108 
1369	 0.593560174384867 
1370	 0.593051155781984 
1371	 0.592523776968435 
1372	 0.591977604754283 
1373	 0.591419066882248 
1374	 0.590818495658881 
1375	 0.590190859500812 
1376	 0.589531184990756 
1377	 0.588819820707648 
1378	 0.58810653560106 
1379	 0.587340767474493 
1380	 0.586626441273805 
1381	 0.585887617542703 
1382	 0.585218677045451 
1383	 0.584583240523465 
1384	 0.584004767289156 
1385	 0.583504462996241 
1386	 0.583003942211145 
1387	 0.582553432295452 
1388	 0.582108013206064 
1389	 0.581683307327837 
1390	 0.581248702824827 
1391	 0.580835467727005 
1392	 0.580396007239674 
1393	 0.579982998515226 
1394	 0.579531426357065 
1395	 0.579049689744823 
1396	 0.578581516221917 
1397	 0.578010467726353 
1398	 0.577408737283933 
1399	 0.576669079666733 
1400	 0.575848749535622 
1401	 0.57492690065176 
1402	 0.573893544432178 
1403	 0.572774838248785 
1404	 0.571549362808789 
1405	 0.570298492885912 
1406	 0.568951581188427 
1407	 0.567586196598636 
1408	 0.566162956948912 
1409	 0.56474525481118 
1410	 0.563286241760156 
1411	 0.561821003956028 
1412	 0.560347129834358 
1413	 0.558885910616711 
1414	 0.557389518782735 
1415	 0.555927930322902 
1416	 0.554488533834481 
1417	 0.553055205519677 
1418	 0.55161924408175 
1419	 0.550215191037694 
1420	 0.548809050067821 
1421	 0.54746988272246 
1422	 0.546182175477472 
1423	 0.544912432467273 
1424	 0.543707001920543 
1425	 0.542478142764365 
1426	 0.54133923356015 
1427	 0.540183252676765 
1428	 0.539014158506302 
1429	 0.537901369760731 
1430	 0.53667939034369 
1431	 0.535434013627763 
1432	 0.53404997420047 
1433	 0.532594061506844 
1434	 0.531034173036244 
1435	 0.52934794605254 
1436	 0.527606459315403 
1437	 0.525748492674205 
1438	 0.52394875334213 
1439	 0.522017249940208 
1440	 0.520284765186512 
1441	 0.518517180295167 
1442	 0.517076380643831 
1443	 0.515689899302307 
1444	 0.514749903998566 
1445	 0.514081574615629 
1446	 0.5137968658583 
1447	 0.51388402293646 
1448	 0.514263520557802 
1449	 0.51508087326378 
1450	 0.516014049447212 
1451	 0.517331975952172 
1452	 0.518616059183944 
1453	 0.520133222610457 
1454	 0.521521680746451 
1455	 0.522983912800696 
1456	 0.524303625599247 
1457	 0.525562340385676 
1458	 0.526718316782415 
1459	 0.527754487535348 
1460	 0.528738329634521 
1461	 0.529636662610064 
1462	 0.530463287776719 
1463	 0.531214693183691 
1464	 0.531914365491702 
1465	 0.532511011563825 
1466	 0.53309982347755 
1467	 0.533656879525555 
1468	 0.534181894506676 
1469	 0.534710112931802 
1470	 0.535177361816336 
1471	 0.535630030681683 
1472	 0.536050521440377 
1473	 0.536453320899641 
1474	 0.536846807368249 
1475	 0.537167408887069 
1476	 0.537469353972581 
1477	 0.537669520478445 
1478	 0.537796955739017 
1479	 0.53785344174359 
1480	 0.537841178443344 
1481	 0.537749092839511 
1482	 0.5375569796923 
1483	 0.537353103955625 
1484	 0.537047323342353 
1485	 0.536801154610867 
1486	 0.536508843048891 
1487	 0.536321592001285 
1488	 0.536131506388701 
1489	 0.536088955929035 
1490	 0.536126479757758 
1491	 0.536283996568596 
1492	 0.536532854541032 
1493	 0.536934969917141 
1494	 0.537490360778384 
1495	 0.538108133026621 
1496	 0.538895255978018 
1497	 0.539678155876934 
1498	 0.540539667180158 
1499	 0.541396015583648 
1500	 0.542321079214408 
1501	 0.543194960558946 
1502	 0.544082047159403 
1503	 0.544906581424636 
1504	 0.545700103109874 
1505	 0.546445746605663 
1506	 0.547172631720925 
1507	 0.547808311595389 
1508	 0.548378475306832 
1509	 0.548891897388353 
1510	 0.549307142933207 
1511	 0.549694970719023 
1512	 0.550052992994162 
1513	 0.550345951137967 
1514	 0.550581943676552 
1515	 0.550771209754976 
1516	 0.550880958286631 
1517	 0.550975950602032 
1518	 0.551035900912557 
1519	 0.551063290075114 
1520	 0.551060305383273 
1521	 0.551032040127555 
1522	 0.550964359306151 
1523	 0.550860148932891 
1524	 0.550750448126162 
1525	 0.550610908438408 
1526	 0.550481591630378 
1527	 0.550344696107012 
1528	 0.550199488924536 
1529	 0.55004950124568 
1530	 0.549894034061397 
1531	 0.549716143335717 
1532	 0.549574361328605 
1533	 0.549431800290328 
1534	 0.549331935710848 
1535	 0.549249397014711 
1536	 0.549219631848415 
1537	 0.549217619389421 
1538	 0.549275524523755 
1539	 0.549382981035596 
1540	 0.549538002818272 
1541	 0.549740846794792 
1542	 0.549996306770188 
1543	 0.55030730791031 
1544	 0.550653204754877 
1545	 0.551052475391099 
1546	 0.551480110756231 
1547	 0.55195886722705 
1548	 0.552437439778353 
1549	 0.552950046329048 
1550	 0.553464521810074 
1551	 0.553993338128955 
1552	 0.55451816898729 
1553	 0.555065283574546 
1554	 0.5555875736612 
1555	 0.556105802642068 
1556	 0.556601620825045 
1557	 0.55707636627397 
1558	 0.557553725657513 
1559	 0.5580189653122 
1560	 0.55847640883482 
1561	 0.558940722579163 
1562	 0.559376835242326 
1563	 0.559789171233855 
1564	 0.560195817917963 
1565	 0.560583523779117 
1566	 0.560971736577613 
1567	 0.56134526146307 
1568	 0.561729627210313 
1569	 0.562107176892133 
1570	 0.562502076459881 
1571	 0.562921756798765 
1572	 0.563317568502629 
1573	 0.563705977476002 
1574	 0.564103143396085 
1575	 0.564494630072188 
1576	 0.564882513927263 
1577	 0.565277514939171 
1578	 0.565671342767008 
1579	 0.56605200782532 
1580	 0.56644001610262 
1581	 0.566840413253782 
1582	 0.567234325019793 
1583	 0.567617609169111 
1584	 0.568013418749073 
1585	 0.568409477696424 
1586	 0.568820164619035 
1587	 0.569249520633465 
1588	 0.569669476081782 
1589	 0.570095534888062 
1590	 0.570519230732677 
1591	 0.570928070392786 
1592	 0.571357110650805 
1593	 0.571793531901662 
1594	 0.572242962497531 
1595	 0.572709249920984 
1596	 0.57317624087777 
1597	 0.573661106526327 
1598	 0.574132573215848 
1599	 0.574607319913078 
1600	 0.575070933442125 
1601	 0.575515618683883 
1602	 0.575971857148209 
1603	 0.57642988625947 
1604	 0.57688246286298 
1605	 0.577345726944628 
1606	 0.577792505540172 
1607	 0.578233670578242 
1608	 0.578657828747338 
1609	 0.579068387656961 
1610	 0.579468987362519 
1611	 0.579859628732557 
1612	 0.580228427466899 
1613	 0.580583845994518 
1614	 0.580921142647442 
1615	 0.581243749479098 
1616	 0.581537983614497 
1617	 0.581801979832711 
1618	 0.582062371147042 
1619	 0.582293567787675 
1620	 0.582524652489404 
1621	 0.582762145429423 
1622	 0.582977145551795 
1623	 0.583172130948085 
1624	 0.583363209305227 
1625	 0.58353629086586 
1626	 0.583711179015351 
1627	 0.583878640253038 
1628	 0.584047492894581 
1629	 0.584210850979889 
1630	 0.584382134069 
1631	 0.584555887038046 
1632	 0.584736234544317 
1633	 0.58493856019692 
1634	 0.585114350209645 
1635	 0.585284521414213 
1636	 0.585441380502306 
1637	 0.58556697629257 
1638	 0.585706384767366 
1639	 0.585848656782882 
1640	 0.585987093561082 
1641	 0.586144357112731 
1642	 0.586267155872272 
1643	 0.586373080460428 
1644	 0.586463249411347 
1645	 0.58652725622366 
1646	 0.58658080017832 
1647	 0.58662250246016 
1648	 0.586649636469832 
1649	 0.586670929198541 
1650	 0.586658629046101 
1651	 0.586618536616835 
1652	 0.586570317301684 
1653	 0.586510410708309 
1654	 0.586407801653039 
1655	 0.58628219102775 
1656	 0.586131921826609 
1657	 0.585945206488544 
1658	 0.585729444760504 
1659	 0.585512124112279 
1660	 0.585230530458762 
1661	 0.58488849536898 
1662	 0.584519071452105 
1663	 0.584109647115198 
1664	 0.583653760104041 
1665	 0.583184051975698 
1666	 0.582621062249037 
1667	 0.581990537793605 
1668	 0.581304085469775 
1669	 0.58055405579014 
1670	 0.579726053262873 
1671	 0.578827611918894 
1672	 0.57786306097597 
1673	 0.576806141093053 
1674	 0.575709274143197 
1675	 0.574576655318564 
1676	 0.573373475579467 
1677	 0.57211197120216 
1678	 0.5707752021408 
1679	 0.569368001563807 
1680	 0.56786615077501 
1681	 0.566299586001336 
1682	 0.564610722328761 
1683	 0.562820298030309 
1684	 0.560961444555716 
1685	 0.558997070602798 
1686	 0.55695674475922 
1687	 0.554800358048488 
1688	 0.552617248468687 
1689	 0.550351328911604 
1690	 0.54804624067176 
1691	 0.545731960273627 
1692	 0.5433587130421 
1693	 0.540934204085888 
1694	 0.538433081771467 
1695	 0.535857897243908 
1696	 0.533198288132684 
1697	 0.530443796679498 
1698	 0.527631728177236 
1699	 0.524729910447743 
1700	 0.521910680486523 
1701	 0.519030545404679 
1702	 0.516256102364898 
1703	 0.513480155357483 
1704	 0.510885879945204 
1705	 0.508353359445924 
1706	 0.505948122321443 
1707	 0.503853026706315 
1708	 0.501831514597373 
1709	 0.499916130416272 
1710	 0.498126622633303 
1711	 0.496309704469935 
1712	 0.49459138716196 
1713	 0.492890332810992 
1714	 0.491171114407455 
1715	 0.489576856858381 
1716	 0.487940602033922 
1717	 0.48633149698898 
1718	 0.484799718361013 
1719	 0.483243652758538 
1720	 0.48180610395138 
1721	 0.480450218345255 
1722	 0.479208326189994 
1723	 0.478241244911112 
1724	 0.477416139935585 
1725	 0.476766069188341 
1726	 0.476399355705592 
1727	 0.476225786678951 
1728	 0.476256833205139 
1729	 0.476517504402142 
1730	 0.476972940797267 
1731	 0.477512489203808 
1732	 0.478185589626634 
1733	 0.478917744102219 
1734	 0.479642842382927 
1735	 0.480386441439743 
1736	 0.48104423209701 
1737	 0.481580978339337 
1738	 0.481967930368206 
1739	 0.482186140387923 
1740	 0.482219684138394 
1741	 0.482160472224555 
1742	 0.481917341292416 
1743	 0.481654824182739 
1744	 0.481266366795167 
1745	 0.480900315532892 
1746	 0.480459020047335 
1747	 0.480114975644272 
1748	 0.479757886698532 
1749	 0.479522026194836 
1750	 0.479351948003956 
1751	 0.479313173160292 
1752	 0.479357428340407 
1753	 0.479564686987998 
1754	 0.479906921809547 
1755	 0.480370135640234 
1756	 0.480963725706341 
1757	 0.481682548239077 
1758	 0.482594511348943 
1759	 0.483599666802044 
1760	 0.484756631177645 
1761	 0.486055499461917 
1762	 0.487374490196367 
1763	 0.488839709051024 
1764	 0.490366149549023 
1765	 0.491939419148433 
1766	 0.49366297991586 
1767	 0.49532676586371 
1768	 0.49701486435584 
1769	 0.498720349708588 
1770	 0.500236239506242 
1771	 0.501741773412761 
1772	 0.503198779429464 
1773	 0.504533728060493 
1774	 0.505873516127244 
1775	 0.507080066958292 
1776	 0.508216612710184 
1777	 0.509274937088668 
1778	 0.510203240811371 
1779	 0.511164194256724 
1780	 0.512035360173793 
1781	 0.512841164343846 
1782	 0.513686094568713 
1783	 0.514442708457174 
1784	 0.5152057938975 
1785	 0.515951152268928 
1786	 0.516649644786046 
1787	 0.517316266085823 
1788	 0.517962042042271 
1789	 0.518593008658146 
1790	 0.519199215046426 
1791	 0.519789632093384 
1792	 0.52034650306502 
1793	 0.520846145267062 
1794	 0.521320697031011 
1795	 0.521762549556565 
1796	 0.522200258799214 
1797	 0.522705371464431 
1798	 0.523197994728658 
1799	 0.523691908802001 
1800	 0.524175655828754 
1801	 0.539708057202074 
1802	 0.540799517804133 
1803	 0.541727354672906 
1804	 0.542525934436305 
1805	 0.543295927801209 
1806	 0.543979625851897 
1807	 0.544546430874995 
1808	 0.545109682275148 
1809	 0.545627678164267 
1810	 0.546104598051552 
1811	 0.546517692013941 
1812	 0.546920255349976 
1813	 0.547260087613486 
1814	 0.547638385162933 
1815	 0.547988563868138 
1816	 0.548354348541447 
1817	 0.548723495826051 
1818	 0.549097592940856 
1819	 0.549465195220773 
1820	 0.549830563985958 
1821	 0.550204484305512 
1822	 0.550576146983069 
1823	 0.550974213736808 
1824	 0.551349220461057 
1825	 0.551719875189604 
1826	 0.552080380397859 
1827	 0.552443204567859 
1828	 0.552755238760741 
1829	 0.553033399111066 
1830	 0.553328434952155 
1831	 0.553607861233937 
1832	 0.553865379873867 
1833	 0.5541229357203 
1834	 0.55438914613192 
1835	 0.55461428704352 
1836	 0.554837454760852 
1837	 0.555089098659026 
1838	 0.555350546469792 
1839	 0.555632232008329 
1840	 0.555941057133187 
1841	 0.556241316405771 
1842	 0.556570892897049 
1843	 0.556878579476229 
1844	 0.55715306962417 
1845	 0.557419155987191 
1846	 0.557645283145595 
1847	 0.557822308430433 
1848	 0.557956902900852 
1849	 0.558077040384502 
1850	 0.558100333784471 
1851	 0.5580565236646 
1852	 0.55797610713551 
1853	 0.557806845870983 
1854	 0.557560432178523 
1855	 0.557259814858667 
1856	 0.556897255569042 
1857	 0.556437859282414 
1858	 0.555904862820185 
1859	 0.555313077559292 
1860	 0.55465582249445 
1861	 0.553895255385713 
1862	 0.553062077401484 
1863	 0.552176297406425 
1864	 0.551139244419637 
1865	 0.550042679649259 
1866	 0.548820638126838 
1867	 0.547444403053279 
1868	 0.546015049151643 
1869	 0.544492729939398 
1870	 0.542972108715295 
1871	 0.541415517800505 
1872	 0.539881774480223 
1873	 0.538339784308201 
1874	 0.53680460494185 
1875	 0.535295988265533 
1876	 0.533603235978246 
1877	 0.531905976273202 
1878	 0.530089752652963 
1879	 0.528058556965588 
1880	 0.526064673042737 
1881	 0.52389824474305 
1882	 0.521569589595688 
1883	 0.519166080937136 
1884	 0.516658581004068 
1885	 0.513873643267348 
1886	 0.51110083862841 
1887	 0.508135661506067 
1888	 0.505007394682218 
1889	 0.502048674778832 
1890	 0.498895260726465 
1891	 0.495723858754781 
1892	 0.492607991481765 
1893	 0.489334626361679 
1894	 0.48587822157511 
1895	 0.482549021246698 
1896	 0.479154625364159 
1897	 0.475658140377787 
1898	 0.472443474218298 
1899	 0.469146202422108 
1900	 0.465888617974134 
1901	 0.462774281794104 
1902	 0.459509135859248 
1903	 0.456424930555427 
1904	 0.45337829638035 
1905	 0.45035066976432 
1906	 0.447381401369175 
1907	 0.444715141763681 
1908	 0.441975704724606 
1909	 0.439329835000546 
1910	 0.43681200614705 
1911	 0.434118489102678 
1912	 0.431532678092979 
1913	 0.428959134212464 
1914	 0.426312204202693 
1915	 0.423782132232147 
1916	 0.421371473347896 
1917	 0.418877058639221 
1918	 0.416410982722737 
1919	 0.413986736693819 
1920	 0.411397510632615 
1921	 0.408885531824973 
1922	 0.406306556695759 
1923	 0.403661917846218 
1924	 0.401201351953613 
1925	 0.398625455089817 
1926	 0.396092318589666 
1927	 0.393618898793265 
1928	 0.391130104825422 
1929	 0.388560019544208 
1930	 0.386144517733789 
1931	 0.383801749081449 
1932	 0.381513569728754 
1933	 0.379523596073054 
1934	 0.377683251980247 
1935	 0.37601719718036 
1936	 0.374616391982623 
1937	 0.37337490430995 
1938	 0.372289999331082 
1939	 0.371458720828802 
1940	 0.37083240097295 
1941	 0.37042782414029 
1942	 0.370261625727343 
1943	 0.370253490220193 
1944	 0.370407018073103 
1945	 0.370755505443684 
1946	 0.371304931600267 
1947	 0.371987837991562 
1948	 0.372922138952427 
1949	 0.374101541571606 
1950	 0.375435744915931 
1951	 0.376995850193717 
1952	 0.378726173608089 
1953	 0.38063532975139 
1954	 0.382714079731055 
1955	 0.385028720964274 
1956	 0.387323505729217 
1957	 0.389642545488752 
1958	 0.391931714677041 
1959	 0.393953828910751 
1960	 0.395832288524721 
1961	 0.397503494704804 
1962	 0.39895546895058 
1963	 0.400231573654552 
1964	 0.401309819599241 
1965	 0.40223066557612 
1966	 0.402953111998091 
1967	 0.403554499613768 
1968	 0.40400811269831 
1969	 0.404424394872868 
1970	 0.404792032877144 
1971	 0.405147958693475 
1972	 0.405551987507982 
1973	 0.405975423313769 
1974	 0.406442051641489 
1975	 0.406959140073285 
1976	 0.407506716707386 
1977	 0.408078317569893 
1978	 0.408696914905662 
1979	 0.409362878483828 
1980	 0.410041138444353 
1981	 0.41079539470104 
1982	 0.411537823265691 
1983	 0.412338646436725 
1984	 0.413189707246103 
1985	 0.414017091841678 
1986	 0.414952341646664 
1987	 0.415989597171088 
1988	 0.417050405221189 
1989	 0.418304453730998 
1990	 0.419715161239335 
1991	 0.421208105393834 
1992	 0.422824224211673 
1993	 0.424605949543255 
1994	 0.426363486204956 
1995	 0.428249804154015 
1996	 0.430133406735747 
1997	 0.431994055521019 
1998	 0.433890519642749 
1999	 0.435857259652592 
2000	 0.437695611978438 
2001	 0.439620966021268 
2002	 0.44127307822797 
2003	 0.44276310725303 
2004	 0.444175709706772 
2005	 0.445400543067633 
2006	 0.446580341701477 
2007	 0.4477241733885 
2008	 0.448709099590524 
2009	 0.449595350643564 
2010	 0.450387745726794 
2011	 0.451018961758284 
2012	 0.451620070496911 
2013	 0.452154836399663 
2014	 0.452594232145767 
2015	 0.453005055323208 
2016	 0.453378393618862 
2017	 0.453672110097885 
2018	 0.453909382418583 
2019	 0.454078663368519 
2020	 0.454164393295261 
2021	 0.45421316496757 
2022	 0.454206991117686 
2023	 0.45412754710581 
2024	 0.454009973896339 
2025	 0.45388201372237 
2026	 0.453720447644501 
2027	 0.453525741495373 
2028	 0.453295471171175 
2029	 0.453013754898256 
2030	 0.452740884523801 
2031	 0.452437235571432 
2032	 0.452138466346071 
2033	 0.45181767676468 
2034	 0.451533484602583 
2035	 0.451251333638088 
2036	 0.450965598890567 
2037	 0.450744542359591 
2038	 0.450566026187276 
2039	 0.45040190685616 
2040	 0.450252592063906 
2041	 0.450165899683367 
2042	 0.450114271539839 
2043	 0.450103273254881 
2044	 0.450152028712904 
2045	 0.45021598287389 
2046	 0.450324138853984 
2047	 0.450438685519755 
2048	 0.450594074053832 
2049	 0.450736860780817 
2050	 0.450882881961834 
2051	 0.451037349862169 
2052	 0.45118595091762 
2053	 0.451347273277283 
2054	 0.451502970531394 
2055	 0.451657606425113 
2056	 0.451818400485749 
2057	 0.451987226721081 
2058	 0.452138921257992 
2059	 0.452284766495589 
2060	 0.452440865539276 
2061	 0.452587094086426 
2062	 0.452741648715887 
2063	 0.452923874089263 
2064	 0.453081623623483 
2065	 0.453220220218845 
2066	 0.453363393402278 
2067	 0.453525505060469 
2068	 0.4536535718021 
2069	 0.453752625157436 
2070	 0.4538472892408 
2071	 0.453896678857445 
2072	 0.453901352962464 
2073	 0.453887815186292 
2074	 0.453869821079674 
2075	 0.453784386844421 
2076	 0.453652349082285 
2077	 0.453484468990281 
2078	 0.453263188414307 
2079	 0.453010022096525 
2080	 0.452720022658561 
2081	 0.452394314332279 
2082	 0.452026523707348 
2083	 0.451634988936 
2084	 0.451182662149844 
2085	 0.450717582052345 
2086	 0.450198059007012 
2087	 0.449609814650827 
2088	 0.449033330016562 
2089	 0.448435375355996 
2090	 0.447807304600229 
2091	 0.447195381983114 
2092	 0.446496586400438 
2093	 0.445727546861026 
2094	 0.444946006592541 
2095	 0.444076985762347 
2096	 0.443239165825406 
2097	 0.442422516297971 
2098	 0.441564619603184 
2099	 0.440686356026337 
2100	 0.439791038392721 
2101	 0.438813150477549 
2102	 0.437759722250405 
2103	 0.436705357883135 
2104	 0.435586293098496 
2105	 0.434490068215609 
2106	 0.433392861635 
2107	 0.432264372687964 
2108	 0.431145419507113 
2109	 0.429960562846499 
2110	 0.428715330927541 
2111	 0.427478356251607 
2112	 0.426171666146897 
2113	 0.42490744839237 
2114	 0.423673315187401 
2115	 0.422415117608327 
2116	 0.421147741419928 
2117	 0.419919713925396 
2118	 0.418632850303511 
2119	 0.417297903351232 
2120	 0.416030127275051 
2121	 0.414734215227813 
2122	 0.413522101889428 
2123	 0.412372768570648 
2124	 0.411234111854286 
2125	 0.410160090577891 
2126	 0.409053982074308 
2127	 0.407921134350802 
2128	 0.406872656171722 
2129	 0.405817799415242 
2130	 0.404844837624019 
2131	 0.404003265612174 
2132	 0.403125154312213 
2133	 0.402273263969363 
2134	 0.401427259617221 
2135	 0.400568217912348 
2136	 0.39976260725862 
2137	 0.398973293935117 
2138	 0.398194779347918 
2139	 0.397485931040493 
2140	 0.396828568251234 
2141	 0.396175889931365 
2142	 0.395574162530533 
2143	 0.394986538853615 
2144	 0.394399680369176 
2145	 0.393859197400765 
2146	 0.393348240171042 
2147	 0.392883558193981 
2148	 0.392479252767896 
2149	 0.392063715410409 
2150	 0.39168224600338 
2151	 0.391318201473098 
2152	 0.390944576987315 
2153	 0.390601241505161 
2154	 0.390316961602752 
2155	 0.390054867082163 
2156	 0.389824651330223 
2157	 0.389636281722381 
2158	 0.389445712865407 
2159	 0.38927609365353 
2160	 0.389123879896888 
2161	 0.388963073220492 
2162	 0.388871906037783 
2163	 0.388837823984284 
2164	 0.388800028144719 
2165	 0.388793965472544 
2166	 0.388810098009782 
2167	 0.388806011692044 
2168	 0.388885631311063 
2169	 0.389040206989712 
2170	 0.389199767524469 
2171	 0.389411106841382 
2172	 0.389634067136985 
2173	 0.389851174920577 
2174	 0.390118295337684 
2175	 0.390445744937525 
2176	 0.390804250487629 
2177	 0.391208474759848 
2178	 0.391681582338596 
2179	 0.392143036058417 
2180	 0.392647009186713 
2181	 0.393117827768522 
2182	 0.393582732255822 
2183	 0.394065986796017 
2184	 0.394559144695698 
2185	 0.395030353125729 
2186	 0.395518747198211 
2187	 0.395976278196869 
2188	 0.396390656927245 
2189	 0.396823895103987 
2190	 0.397293321206287 
2191	 0.397695714627671 
2192	 0.398060387915274 
2193	 0.398419912333287 
2194	 0.398752200660007 
2195	 0.399045535860751 
2196	 0.39930965700324 
2197	 0.399584159334391 
2198	 0.399776939711974 
2199	 0.399975590881958 
2200	 0.400156612804971 
2201	 0.400344269738771 
2202	 0.400452374704655 
2203	 0.400512271331457 
2204	 0.400568074364758 
2205	 0.40058100152785 
2206	 0.400577304044026 
2207	 0.400560459217639 
2208	 0.400520443410587 
2209	 0.400417853178179 
2210	 0.400361353552681 
2211	 0.400288076497151 
2212	 0.400270481852034 
2213	 0.400287416625979 
2214	 0.400317334282576 
2215	 0.400377576827015 
2216	 0.40046921126258 
2217	 0.400555767543609 
2218	 0.400703984664037 
2219	 0.400913996012396 
2220	 0.401148930048422 
2221	 0.40141208833614 
2222	 0.401746772425926 
2223	 0.402100394440437 
2224	 0.402431152594674 
2225	 0.402748340560162 
2226	 0.40303785752594 
2227	 0.403263126072079 
2228	 0.40345801301992 
2229	 0.403550382962075 
2230	 0.40359249516787 
2231	 0.403517235573504 
2232	 0.403350486620567 
2233	 0.403075082613197 
2234	 0.402717684085865 
2235	 0.402218307882479 
2236	 0.401574789017185 
2237	 0.400864663019122 
2238	 0.400018941908818 
2239	 0.39911649278776 
2240	 0.39817650678632 
2241	 0.397076973707033 
2242	 0.395888868651697 
2243	 0.394541585294348 
2244	 0.393004961221384 
2245	 0.391411456617587 
2246	 0.389645231503365 
2247	 0.38786478090942 
2248	 0.386038321915793 
2249	 0.384120794891296 
2250	 0.382110478221549 
2251	 0.380111232330362 
2252	 0.377918745090426 
2253	 0.375706836053511 
2254	 0.373401416339937 
2255	 0.370991656165657 
2256	 0.368702308009453 
2257	 0.366366598806795 
2258	 0.364040559885057 
2259	 0.361800471766341 
2260	 0.359389424396499 
2261	 0.356860035466795 
2262	 0.354408343510043 
2263	 0.351842102335035 
2264	 0.349438713913737 
2265	 0.347132306806372 
2266	 0.344818934313405 
2267	 0.342590862815266 
2268	 0.340332840313804 
2269	 0.338067541052117 
2270	 0.33585505270616 
2271	 0.333599760892002 
2272	 0.33148187314363 
2273	 0.329466929218063 
2274	 0.32745969989604 
2275	 0.325631419670377 
2276	 0.323658128873393 
2277	 0.321649285755478 
2278	 0.319607087042802 
2279	 0.317448896199409 
2280	 0.315319155662098 
2281	 0.313228458063129 
2282	 0.311047549919118 
2283	 0.308848577797488 
2284	 0.306605254152335 
2285	 0.304137139645052 
2286	 0.301676547686384 
2287	 0.299077862593335 
2288	 0.296393310821092 
2289	 0.293857412661493 
2290	 0.291190063264517 
2291	 0.288554818467707 
2292	 0.285902566538337 
2293	 0.283004607835834 
2294	 0.280222853850385 
2295	 0.277554997336916 
2296	 0.274967509950996 
2297	 0.272775112684183 
2298	 0.270864340119389 
2299	 0.269261830013551 
2300	 0.267941598161224 
2301	 0.266998199237686 
2302	 0.266377516659835 
2303	 0.266182954013508 
2304	 0.266397101389157 
2305	 0.26695212322618 
2306	 0.267954209068163 
2307	 0.269232261880974 
2308	 0.270865400650446 
2309	 0.272819593862762 
2310	 0.275219725037069 
2311	 0.277742584304554 
2312	 0.280728847889026 
2313	 0.283583855213139 
2314	 0.286650788509481 
2315	 0.289567028737315 
2316	 0.292517610495027 
2317	 0.295251609433082 
2318	 0.298040113082755 
2319	 0.3003394513989 
2320	 0.302420425365691 
2321	 0.304079292179365 
2322	 0.305236110863716 
2323	 0.306197777632677 
2324	 0.306761240403466 
2325	 0.307170480333242 
2326	 0.307353838614086 
2327	 0.307287577346609 
2328	 0.306944683690565 
2329	 0.306412354639781 
2330	 0.305651806764644 
2331	 0.304580321767848 
2332	 0.303381178964225 
2333	 0.301995829513357 
2334	 0.300260264623276 
2335	 0.298420692809633 
2336	 0.296408001883427 
2337	 0.294202716886277 
2338	 0.292109462745594 
2339	 0.289961040184009 
2340	 0.287833995215422 
2341	 0.285877305217661 
2342	 0.283919620276213 
2343	 0.28220591143626 
2344	 0.280888004866381 
2345	 0.279929091029643 
2346	 0.279487139483702 
2347	 0.279560567880168 
2348	 0.279891548389225 
2349	 0.280710755473968 
2350	 0.281962401497984 
2351	 0.283458534629185 
2352	 0.285283464394431 
2353	 0.287262915260077 
2354	 0.28909126769893 
2355	 0.290854827247972 
2356	 0.292424620011295 
2357	 0.293693772719837 
2358	 0.294867629427352 
2359	 0.295742600649029 
2360	 0.296375979879499 
2361	 0.296744884935637 
2362	 0.296797899358035 
2363	 0.296752124359202 
2364	 0.296623071065743 
2365	 0.296409719922389 
2366	 0.296259433042992 
2367	 0.29604381219482 
2368	 0.295724147883394 
2369	 0.295463872924027 
2370	 0.295198537847599 
2371	 0.294931321473173 
2372	 0.294730019789034 
2373	 0.294539990188303 
2374	 0.294318005940995 
2375	 0.294073066444992 
2376	 0.293792361329853 
2377	 0.293572242319529 
2378	 0.293376709732553 
2379	 0.293118233006601 
2380	 0.292871858663736 
2381	 0.292595663974256 
2382	 0.292349999145065 
2383	 0.292083742890881 
2384	 0.291872407330654 
2385	 0.291762340865488 
2386	 0.291536871678858 
2387	 0.291228955468889 
2388	 0.290986946294982 
2389	 0.290746828644352 
2390	 0.290471876861772 
2391	 0.29024693565715 
2392	 0.289961457090363 
2393	 0.289576054094064 
2394	 0.289249822750301 
2395	 0.288924148774441 
2396	 0.288611819687924 
2397	 0.288345174279112 
2398	 0.287999127061201 
2399	 0.287649831470438 
2400	 0.28726042507576 
2401	 0.286766962364912 
2402	 0.286432238575581 
2403	 0.286043536550452 
2404	 0.285727040095372 
2405	 0.285461787294606 
2406	 0.285042736230557 
2407	 0.284653250029639 
2408	 0.284351615929565 
2409	 0.283966083845101 
2410	 0.283764408658277 
2411	 0.283666666240088 
2412	 0.283474243883195 
2413	 0.283394646375394 
2414	 0.283221646659641 
2415	 0.282987267175436 
2416	 0.282874183624795 
2417	 0.282766503351816 
2418	 0.282746744990234 
2419	 0.282751762184934 
2420	 0.282678843993571 
2421	 0.282580513765264 
2422	 0.282406084522388 
2423	 0.28224398200671 
2424	 0.28223440055758 
2425	 0.28230037965078 
2426	 0.282317481360156 
2427	 0.282291152429765 
2428	 0.2822399058671 
2429	 0.282105091511908 
2430	 0.281952775884097 
2431	 0.281902402402006 
2432	 0.281935167148538 
2433	 0.281862289328474 
2434	 0.281729936761407 
2435	 0.281661026028485 
2436	 0.281479300170296 
2437	 0.281334723337092 
2438	 0.281304656253353 
2439	 0.281326784583651 
2440	 0.281388323495024 
2441	 0.281279028770774 
2442	 0.281209015960363 
2443	 0.281081776671732 
2444	 0.280745376210392 
2445	 0.280567578825439 
2446	 0.280424629116939 
2447	 0.280143437903512 
2448	 0.279755388177096 
2449	 0.279305647580993 
2450	 0.27891022325842 
2451	 0.278567807447478 
2452	 0.278311568050021 
2453	 0.27804687667976 
2454	 0.27764300314986 
2455	 0.277172213939028 
2456	 0.276716106711105 
2457	 0.276318200206619 
2458	 0.275962367606291 
2459	 0.275468774039016 
2460	 0.274989899013322 
2461	 0.274674318001802 
2462	 0.274283943059016 
2463	 0.273989140598586 
2464	 0.273859178534941 
2465	 0.27365090207785 
2466	 0.273336223828754 
2467	 0.27286480443267 
2468	 0.272389081875896 
2469	 0.272181941612937 
2470	 0.272086053360111 
2471	 0.272209150446967 
2472	 0.272320045043407 
2473	 0.271838736379268 
2474	 0.271371137068859 
2475	 0.271222870906945 
2476	 0.271128235916754 
2477	 0.271183908431317 
2478	 0.271249660425688 
2479	 0.271150054591239 
2480	 0.270748762260219 
2481	 0.270816683928289 
2482	 0.271132237355793 
2483	 0.271233196743325 
2484	 0.271864831026448 
2485	 0.27216118714132 
2486	 0.272101548380149 
2487	 0.272299842878835 
2488	 0.272385641492793 
2489	 0.272611528378736 
2490	 0.27323592808678 
2491	 0.273727397483733 
2492	 0.274282856682394 
2493	 0.274769880441503 
2494	 0.274818622047097 
2495	 0.275278208042398 
2496	 0.275815482365662 
2497	 0.276048514105311 
2498	 0.276806064353661 
2499	 0.277598108144632 
2500	 0.278217025754734 
