Wavelength	spectrum00019.asd
350	 0.106257289392447 
351	 0.10223366612163 
352	 9.87310459243627E-02 
353	 9.64756435770138E-02 
354	 9.61553845958819E-02 
355	 9.39064570495671E-02 
356	 9.09875585331312E-02 
357	 8.89414472682949E-02 
358	 8.62905025901368E-02 
359	 8.41785542541626E-02 
360	 8.34540123717492E-02 
361	 8.41852154209269E-02 
362	 8.22513231635815E-02 
363	 7.97715797295146E-02 
364	 7.84196946905256E-02 
365	 7.84366081691875E-02 
366	 7.92451669418452E-02 
367	 7.87702684381348E-02 
368	 7.62776110183622E-02 
369	 7.61992031818216E-02 
370	 7.61086426944158E-02 
371	 7.57538741071339E-02 
372	 0.075893120484024 
373	 7.41867660216917E-02 
374	 7.33309734685291E-02 
375	 7.39786849413678E-02 
376	 7.31798390579179E-02 
377	 7.20527799518915E-02 
378	 7.12819338408988E-02 
379	 7.10419083247812E-02 
380	 0.069989088379153 
381	 6.98619734171927E-02 
382	 6.98777920244883E-02 
383	 6.81899089199351E-02 
384	 6.86083601563128E-02 
385	 0.068797774613584 
386	 6.77728000396499E-02 
387	 6.76547978256251E-02 
388	 6.70133412004691E-02 
389	 6.63550829512799E-02 
390	 0.06627661427958 
391	 6.58169757318912E-02 
392	 6.51483987029629E-02 
393	 6.46150275347344E-02 
394	 6.45591111387581E-02 
395	 6.42490100831786E-02 
396	 6.38935703524245E-02 
397	 6.36382145767467E-02 
398	 6.33235509804394E-02 
399	 6.27725039087549E-02 
400	 6.23223927928816E-02 
401	 6.22274861904041E-02 
402	 6.17053309533696E-02 
403	 0.061663271812164 
404	 6.17802995244459E-02 
405	 6.09432289358271E-02 
406	 6.08314013596783E-02 
407	 6.06313943662503E-02 
408	 5.99568393986425E-02 
409	 5.99893732130621E-02 
410	 5.97172452117605E-02 
411	 5.93785068928738E-02 
412	 5.94676186319647E-02 
413	 5.97135767556936E-02 
414	 5.93810042662815E-02 
415	 5.87576763517993E-02 
416	 0.058978579606964 
417	 5.90942251498347E-02 
418	 5.90245927849249E-02 
419	 5.88946923608152E-02 
420	 5.89311017331598E-02 
421	 5.88472878633839E-02 
422	 5.89404803750718E-02 
423	 5.95377051584478E-02 
424	 0.059569933619391 
425	 0.059478635683108 
426	 5.95945050668599E-02 
427	 5.99724525815325E-02 
428	 6.01842028102065E-02 
429	 6.03219119678129E-02 
430	 6.05186524357622E-02 
431	 6.06034989489719E-02 
432	 6.09092333240716E-02 
433	 0.061396530608461 
434	 6.18344477718396E-02 
435	 6.24096252092672E-02 
436	 6.27793061487864E-02 
437	 6.29096552405055E-02 
438	 6.33120197680318E-02 
439	 6.39170729713727E-02 
440	 6.45689196107649E-02 
441	 6.51236981725167E-02 
442	 6.56612473827943E-02 
443	 6.61658900914172E-02 
444	 6.67677012461756E-02 
445	 6.76715470739103E-02 
446	 6.83482218793402E-02 
447	 6.89951835391892E-02 
448	 0.069800156304076 
449	 7.06663735686619E-02 
450	 7.14946215379393E-02 
451	 7.22960810976943E-02 
452	 7.31359710257059E-02 
453	 7.40677608544769E-02 
454	 7.50906439453437E-02 
455	 7.61531176536951E-02 
456	 7.71619996887475E-02 
457	 7.82420179835011E-02 
458	 7.93423717728925E-02 
459	 8.04439513964249E-02 
460	 8.17553573972604E-02 
461	 8.29902082439913E-02 
462	 8.41594164953024E-02 
463	 8.54407551683215E-02 
464	 8.68325347996093E-02 
465	 8.82995858208075E-02 
466	 8.97553753604408E-02 
467	 9.10333101374335E-02 
468	 9.25567526189543E-02 
469	 9.42269648251078E-02 
470	 9.58509405112598E-02 
471	 9.75603523314906E-02 
472	 9.91594352912765E-02 
473	 0.10071658699176 
474	 0.102495821057648 
475	 0.104298127505679 
476	 0.106138851920845 
477	 0.108032666580487 
478	 0.109917243155056 
479	 0.11184697869148 
480	 0.113808415474275 
481	 0.115787025101277 
482	 0.117940204890358 
483	 0.120079763263291 
484	 0.122164063101553 
485	 0.124341020184443 
486	 0.126620620741691 
487	 0.128876285096792 
488	 0.131047266408881 
489	 0.133384029144795 
490	 0.135787416946175 
491	 0.138199057449564 
492	 0.140596067368761 
493	 0.143042489044188 
494	 0.145480989807919 
495	 0.147909285701537 
496	 0.150434168411664 
497	 0.153065905728061 
498	 0.155684967368165 
499	 0.158190600584511 
500	 0.16079243126857 
501	 0.163398075445556 
502	 0.166005089494521 
503	 0.168696754405806 
504	 0.171429676254137 
505	 0.174132889077286 
506	 0.176796224297959 
507	 0.179568422332613 
508	 0.182299038562304 
509	 0.185014501870426 
510	 0.187798455020153 
511	 0.190555193549852 
512	 0.193294779270947 
513	 0.196061529188707 
514	 0.19894377127928 
515	 0.201681159753825 
516	 0.204370172782669 
517	 0.207144993002576 
518	 0.209919220664817 
519	 0.212653279123758 
520	 0.215384834118716 
521	 0.218185944446638 
522	 0.22088033639174 
523	 0.223544829601716 
524	 0.226243671875854 
525	 0.228962515238555 
526	 0.231582946956887 
527	 0.234189586626166 
528	 0.236900035302833 
529	 0.23955597977753 
530	 0.242144946612852 
531	 0.244706636903655 
532	 0.247318039508 
533	 0.249837636780482 
534	 0.252349553283115 
535	 0.254906976729265 
536	 0.257329358507315 
537	 0.259795818584794 
538	 0.26230189641323 
539	 0.26474242667455 
540	 0.267115327409506 
541	 0.269478570766025 
542	 0.271840603701872 
543	 0.274111140746713 
544	 0.276379608732824 
545	 0.278624945265065 
546	 0.280829411619435 
547	 0.283141506940671 
548	 0.285531538968812 
549	 0.287982281981997 
550	 0.290490741039049 
551	 0.29302646468579 
552	 0.295558679666497 
553	 0.298091756447253 
554	 0.300720182112139 
555	 0.303300659739268 
556	 0.30584147970854 
557	 0.30840345908726 
558	 0.310844301929688 
559	 0.313301681772504 
560	 0.315803772062867 
561	 0.318193576302245 
562	 0.320451929331175 
563	 0.322463458605717 
564	 0.324183131016507 
565	 0.325871774219403 
566	 0.32758388593183 
567	 0.329299676780303 
568	 0.330974407691111 
569	 0.333010169324837 
570	 0.335318468410034 
571	 0.337731310939045 
572	 0.340118047791793 
573	 0.342341278093793 
574	 0.344346927015445 
575	 0.346112837975777 
576	 0.347508163448123 
577	 0.348627287413075 
578	 0.349617993062689 
579	 0.350662570296825 
580	 0.351923544957684 
581	 0.353456606812393 
582	 0.355234589462967 
583	 0.357110524211285 
584	 0.359060353750415 
585	 0.36108759738472 
586	 0.363181127229531 
587	 0.365009334678946 
588	 0.366678546555477 
589	 0.368356007567653 
590	 0.370199759283208 
591	 0.372130925073681 
592	 0.374121420598828 
593	 0.376157337841793 
594	 0.378257993201459 
595	 0.380233484629713 
596	 0.382039118903441 
597	 0.383761688674622 
598	 0.385416615085031 
599	 0.387043110001898 
600	 0.388668566274314 
601	 0.390272614131673 
602	 0.391942316540238 
603	 0.393662499399528 
604	 0.395380299516215 
605	 0.397158376005718 
606	 0.398945944839572 
607	 0.400659058091331 
608	 0.402183167394718 
609	 0.403793248288201 
610	 0.405412841409655 
611	 0.406952167880793 
612	 0.408585641851467 
613	 0.410211606378754 
614	 0.411782317411757 
615	 0.413300702641552 
616	 0.414858232034441 
617	 0.416414690047674 
618	 0.417950948862634 
619	 0.419523374216795 
620	 0.421110466772535 
621	 0.42266710776069 
622	 0.424159358875187 
623	 0.425650985957717 
624	 0.42712671663937 
625	 0.42858877321283 
626	 0.430060180920928 
627	 0.431554781514695 
628	 0.433061503473045 
629	 0.434556004696549 
630	 0.435995124804827 
631	 0.437352777081571 
632	 0.438714891105054 
633	 0.440180446281366 
634	 0.441567768398985 
635	 0.442925747836533 
636	 0.444279408125481 
637	 0.445594961558509 
638	 0.446879010416817 
639	 0.448201514368555 
640	 0.449573568717152 
641	 0.450759985241656 
642	 0.451970905948786 
643	 0.453272839504848 
644	 0.454616655934579 
645	 0.455800367333804 
646	 0.456952312336202 
647	 0.45816464546433 
648	 0.45940080826457 
649	 0.46057101181571 
650	 0.461720088235385 
651	 0.462920081312246 
652	 0.464147592193729 
653	 0.465400929400093 
654	 0.46665473986537 
655	 0.46787185582474 
656	 0.469148085936686 
657	 0.470450274431303 
658	 0.47172719782344 
659	 0.472923488328163 
660	 0.474252660885716 
661	 0.475610653283062 
662	 0.476834047061131 
663	 0.478154936940931 
664	 0.479555331684666 
665	 0.480943121006184 
666	 0.482181991743247 
667	 0.483560707231936 
668	 0.484976541572918 
669	 0.486318907254688 
670	 0.487662632358021 
671	 0.489120710218491 
672	 0.490609992004736 
673	 0.491976871372319 
674	 0.49326883198485 
675	 0.494670842894966 
676	 0.496169065575159 
677	 0.497503060318293 
678	 0.498858606048145 
679	 0.500231930719259 
680	 0.501588436935346 
681	 0.502936216871171 
682	 0.504314097473191 
683	 0.505692470941809 
684	 0.507022438095195 
685	 0.508409919429037 
686	 0.509859021762617 
687	 0.511317558467171 
688	 0.512676421502026 
689	 0.513877684185777 
690	 0.515104404710116 
691	 0.51650385790463 
692	 0.517860399003277 
693	 0.519225480049528 
694	 0.520581315573205 
695	 0.521882416310246 
696	 0.523267362265513 
697	 0.524632055769018 
698	 0.525925070857355 
699	 0.527229367578532 
700	 0.528414268888181 
701	 0.529573482739987 
702	 0.530837156556044 
703	 0.53222143162448 
704	 0.533551203906206 
705	 0.534747308390607 
706	 0.535835488337885 
707	 0.537095361741797 
708	 0.538357764113727 
709	 0.539519903695374 
710	 0.540693336734587 
711	 0.541843688671306 
712	 0.542990833256235 
713	 0.544154746987687 
714	 0.545300492854667 
715	 0.546451789273492 
716	 0.547569277099636 
717	 0.548588894340248 
718	 0.54969608181431 
719	 0.550843402499115 
720	 0.55195761777981 
721	 0.552979700430172 
722	 0.553967693974994 
723	 0.554958712778531 
724	 0.55599344535075 
725	 0.557172383350304 
726	 0.558272276702331 
727	 0.55925038549269 
728	 0.560200720489884 
729	 0.561107950478812 
730	 0.562089254946455 
731	 0.563162231561917 
732	 0.564163558047499 
733	 0.565143926001358 
734	 0.566089221849347 
735	 0.56701596050748 
736	 0.568119092680454 
737	 0.569108589023659 
738	 0.569983080875632 
739	 0.570920307294703 
740	 0.571786097412912 
741	 0.572589843132342 
742	 0.57337798994815 
743	 0.574224117713137 
744	 0.575127831046915 
745	 0.575997968149459 
746	 0.576773732450636 
747	 0.577568541692526 
748	 0.578436465596151 
749	 0.579334793556063 
750	 0.580177904227789 
751	 0.581080267888908 
752	 0.581779483869196 
753	 0.582307714697071 
754	 0.583108565136742 
755	 0.583946056426716 
756	 0.584749756999697 
757	 0.585507074891202 
758	 0.58626533240459 
759	 0.586994015051879 
760	 0.587688936502964 
761	 0.588361783305016 
762	 0.589039121578855 
763	 0.589704648723071 
764	 0.590372903180163 
765	 0.591091216671657 
766	 0.591791418862174 
767	 0.592519071687173 
768	 0.593272114016456 
769	 0.593881198262511 
770	 0.594504092364357 
771	 0.595204476868939 
772	 0.59596646082611 
773	 0.59658903797644 
774	 0.59715065731618 
775	 0.597733303143685 
776	 0.598396574266747 
777	 0.5990230471607 
778	 0.599735820213459 
779	 0.600508004473641 
780	 0.601001599176822 
781	 0.601571526859033 
782	 0.602196889122983 
783	 0.602776427918147 
784	 0.603326020564228 
785	 0.603885676099871 
786	 0.60446891468585 
787	 0.605060386273009 
788	 0.605572737340478 
789	 0.606087555546702 
790	 0.606680623282685 
791	 0.607390354028591 
792	 0.608031643423097 
793	 0.608534007538682 
794	 0.60894883717524 
795	 0.609544985183269 
796	 0.610158558622531 
797	 0.610728890937235 
798	 0.611228188639794 
799	 0.611603159673293 
800	 0.612023957652997 
801	 0.612596903185932 
802	 0.613330030880617 
803	 0.613925526128928 
804	 0.614418261093049 
805	 0.614887530205282 
806	 0.615398830622056 
807	 0.615918001012856 
808	 0.616457632988401 
809	 0.617003758783755 
810	 0.617426480838264 
811	 0.617897236651681 
812	 0.618422392976364 
813	 0.618942565802441 
814	 0.619515304047669 
815	 0.619983962557268 
816	 0.620365726374604 
817	 0.620826163240291 
818	 0.621233351038346 
819	 0.621668449667537 
820	 0.62217230971655 
821	 0.62267217795305 
822	 0.623086538633513 
823	 0.623470196100717 
824	 0.623918032497274 
825	 0.624546561666164 
826	 0.624921189169493 
827	 0.62520316520681 
828	 0.625740971001842 
829	 0.626195453966076 
830	 0.626543580933718 
831	 0.626847898016091 
832	 0.627219526147349 
833	 0.627588726470451 
834	 0.628042698591058 
835	 0.628560118366143 
836	 0.628930439868412 
837	 0.629287434473203 
838	 0.629620735726503 
839	 0.629920551635134 
840	 0.630254891308194 
841	 0.630789713111263 
842	 0.63136000530428 
843	 0.631718918443961 
844	 0.63197477838987 
845	 0.63219961347347 
846	 0.632483244875729 
847	 0.632901384471848 
848	 0.633341964651171 
849	 0.633784964611593 
850	 0.63422838782712 
851	 0.634673057693296 
852	 0.634932101090874 
853	 0.635236869339195 
854	 0.635719457358639 
855	 0.636116731388225 
856	 0.636524416827396 
857	 0.636903936214935 
858	 0.637228339684511 
859	 0.637658953675115 
860	 0.637985536552891 
861	 0.638233814700781 
862	 0.638552392392302 
863	 0.639007123203496 
864	 0.639336140635801 
865	 0.639558861245179 
866	 0.639935048937108 
867	 0.64034768228141 
868	 0.640770290336517 
869	 0.641154373019647 
870	 0.641417703211547 
871	 0.641696916178231 
872	 0.642032972810351 
873	 0.642427589715924 
874	 0.642858089108091 
875	 0.643213453289381 
876	 0.643527594307732 
877	 0.64387289007737 
878	 0.64427473221581 
879	 0.644585111147375 
880	 0.644801613548812 
881	 0.645022181132944 
882	 0.645425529324143 
883	 0.645803896941573 
884	 0.646050057439 
885	 0.646198029226827 
886	 0.646547886524341 
887	 0.647032913027117 
888	 0.6474784582259 
889	 0.647674414085507 
890	 0.647898591411106 
891	 0.648202171629558 
892	 0.648548528763287 
893	 0.64883233494658 
894	 0.64907413159279 
895	 0.649381926798674 
896	 0.649787467656596 
897	 0.650081865726966 
898	 0.650229518817633 
899	 0.650412621765646 
900	 0.650791783825482 
901	 0.651125553588454 
902	 0.651519150961204 
903	 0.651866875401099 
904	 0.652048500361125 
905	 0.65242450675088 
906	 0.652926060341666 
907	 0.653399875195514 
908	 0.653702993174344 
909	 0.654097126419302 
910	 0.654474381102538 
911	 0.654813675511135 
912	 0.655201044777534 
913	 0.655444326558075 
914	 0.65580953968988 
915	 0.656329572459191 
916	 0.656649348733924 
917	 0.657027687723908 
918	 0.657390616797472 
919	 0.657662656533165 
920	 0.657884607590773 
921	 0.658285575195321 
922	 0.658699882089576 
923	 0.658996066306355 
924	 0.659415528114835 
925	 0.659808345248365 
926	 0.660161118153247 
927	 0.660494323864721 
928	 0.660784426812488 
929	 0.661066883048059 
930	 0.661458786450789 
931	 0.661986915616394 
932	 0.662188416896465 
933	 0.662330954073094 
934	 0.662600193219125 
935	 0.663054294440977 
936	 0.663450343501714 
937	 0.663820140316011 
938	 0.664117918773714 
939	 0.664272957286416 
940	 0.66444373323561 
941	 0.664733040513565 
942	 0.665062585625774 
943	 0.665249403845062 
944	 0.66555961582384 
945	 0.665866903466553 
946	 0.666101282124251 
947	 0.66629729450653 
948	 0.666379921090143 
949	 0.666494538847176 
950	 0.666698670724667 
951	 0.666897506996837 
952	 0.667049884966671 
953	 0.667171213698214 
954	 0.667325423819369 
955	 0.667614547472218 
956	 0.667947901023939 
957	 0.668190529011942 
958	 0.668271937655572 
959	 0.668249552547476 
960	 0.668509025384325 
961	 0.66883511880181 
962	 0.669036011836957 
963	 0.669280126199647 
964	 0.669267755229187 
965	 0.66932072360012 
966	 0.669673066287132 
967	 0.66999190612154 
968	 0.670329387770298 
969	 0.670682132586121 
970	 0.67099224334823 
971	 0.671088188957534 
972	 0.671225249932741 
973	 0.671422646146128 
974	 0.671642928391875 
975	 0.67191408246907 
976	 0.672250119742035 
977	 0.672575398331536 
978	 0.672820656557015 
979	 0.673026923349711 
980	 0.673230953567459 
981	 0.673360349123825 
982	 0.673397190955928 
983	 0.673607055193764 
984	 0.673859088926401 
985	 0.674137472436472 
986	 0.674458413105001 
987	 0.674825978376903 
988	 0.675091227073227 
989	 0.67530391967634 
990	 0.67557041722754 
991	 0.675910453231249 
992	 0.676191392183777 
993	 0.676435592028774 
994	 0.676721287354938 
995	 0.677099182734703 
996	 0.677404780260814 
997	 0.677680794695075 
998	 0.677990830735183 
999	 0.678167290017772 
1000	 0.678569082643808 
1001	 0.654662584818283 
1002	 0.655050794303589 
1003	 0.655430095765301 
1004	 0.655779219821958 
1005	 0.656121934856907 
1006	 0.65643911245173 
1007	 0.656701965116751 
1008	 0.657034575101097 
1009	 0.657406634423207 
1010	 0.657727199685693 
1011	 0.658055455458832 
1012	 0.658377200095132 
1013	 0.658637194699121 
1014	 0.658942255813384 
1015	 0.659264255628111 
1016	 0.659632268917115 
1017	 0.659992039717871 
1018	 0.660316789226738 
1019	 0.660694312242009 
1020	 0.661045022763911 
1021	 0.66136494944059 
1022	 0.661659653240069 
1023	 0.661979337056075 
1024	 0.662274992482261 
1025	 0.662594557269557 
1026	 0.662920313341869 
1027	 0.663272011841926 
1028	 0.663661014383904 
1029	 0.664018972857295 
1030	 0.664339328327243 
1031	 0.664693751594327 
1032	 0.664982780053987 
1033	 0.665220393470631 
1034	 0.665527495020984 
1035	 0.665844693206063 
1036	 0.666144914867675 
1037	 0.666465619681336 
1038	 0.666750025459326 
1039	 0.666997884450005 
1040	 0.66727752760496 
1041	 0.667540877958776 
1042	 0.667821456790093 
1043	 0.668141446342629 
1044	 0.668425156471105 
1045	 0.668677402047531 
1046	 0.668977368524239 
1047	 0.669257731434353 
1048	 0.669505131923615 
1049	 0.669719704008079 
1050	 0.669938836723526 
1051	 0.670185549629316 
1052	 0.67046381414886 
1053	 0.670730195470426 
1054	 0.671050034839077 
1055	 0.671295216370236 
1056	 0.671482466347046 
1057	 0.671689860933942 
1058	 0.671865756757785 
1059	 0.672094776892984 
1060	 0.672334513581632 
1061	 0.672537839884605 
1062	 0.672778585087134 
1063	 0.673019272388684 
1064	 0.673217479503539 
1065	 0.673426954282898 
1066	 0.673620038202167 
1067	 0.673776643862737 
1068	 0.673953649209393 
1069	 0.67415736852872 
1070	 0.674330908122993 
1071	 0.674485336602436 
1072	 0.674642877962225 
1073	 0.674832041422205 
1074	 0.675003417725308 
1075	 0.675162930241922 
1076	 0.675374302879041 
1077	 0.675602998866836 
1078	 0.675783820997944 
1079	 0.675984646832902 
1080	 0.676182003613768 
1081	 0.676329056223265 
1082	 0.676486376791512 
1083	 0.676653012406613 
1084	 0.676810084745785 
1085	 0.676992500792285 
1086	 0.677163381894193 
1087	 0.67733173150758 
1088	 0.677495134637834 
1089	 0.677670009886355 
1090	 0.677817074776444 
1091	 0.677967791279636 
1092	 0.678108620243637 
1093	 0.678231420765998 
1094	 0.678369619332846 
1095	 0.678468440769354 
1096	 0.678560126119038 
1097	 0.678694215286086 
1098	 0.678800962395401 
1099	 0.678892809270716 
1100	 0.679007031858397 
1101	 0.679106607941856 
1102	 0.679190800392554 
1103	 0.679271093822752 
1104	 0.679351389158548 
1105	 0.679428630442536 
1106	 0.67950400111112 
1107	 0.679573888913769 
1108	 0.679640990709224 
1109	 0.679719815261327 
1110	 0.679781436025609 
1111	 0.679826906056324 
1112	 0.679885643871945 
1113	 0.679946463391909 
1114	 0.680015383683891 
1115	 0.68006850429505 
1116	 0.680106622955267 
1117	 0.680138437932457 
1118	 0.680155484920593 
1119	 0.680152727343151 
1120	 0.680151464691366 
1121	 0.680143433170811 
1122	 0.680128459231555 
1123	 0.680125991234138 
1124	 0.680103683670849 
1125	 0.6800821929847 
1126	 0.680056452272247 
1127	 0.679980530927555 
1128	 0.679897494262469 
1129	 0.679817113663224 
1130	 0.679702544170791 
1131	 0.679572272971158 
1132	 0.67945399355159 
1133	 0.679306970146396 
1134	 0.679139884784737 
1135	 0.678968388753438 
1136	 0.678797825566433 
1137	 0.678587185515501 
1138	 0.678362474978073 
1139	 0.678108620132585 
1140	 0.677813393158325 
1141	 0.67753214625384 
1142	 0.677231691757599 
1143	 0.676914587458817 
1144	 0.676586780376351 
1145	 0.676193626880665 
1146	 0.675770196610749 
1147	 0.675328072070634 
1148	 0.674864149130852 
1149	 0.674393234409956 
1150	 0.673889708142495 
1151	 0.673387604929405 
1152	 0.672843055602846 
1153	 0.672264864267876 
1154	 0.671656328329914 
1155	 0.671027323560966 
1156	 0.670347867307434 
1157	 0.669641963789578 
1158	 0.668897617387807 
1159	 0.668097404076257 
1160	 0.667288296985695 
1161	 0.666456169902285 
1162	 0.665564678038786 
1163	 0.66471081934312 
1164	 0.663824540584783 
1165	 0.662926062001686 
1166	 0.662101911900653 
1167	 0.661281271958424 
1168	 0.660501513771992 
1169	 0.659749309581605 
1170	 0.659026529924212 
1171	 0.658332136763627 
1172	 0.657637341372533 
1173	 0.657023252576963 
1174	 0.656459489528238 
1175	 0.655962927096806 
1176	 0.655530692170677 
1177	 0.655150747967928 
1178	 0.654836421866674 
1179	 0.654539392221118 
1180	 0.654309854473447 
1181	 0.654144770809177 
1182	 0.654043628251551 
1183	 0.653963307415378 
1184	 0.653890272357293 
1185	 0.653867694386163 
1186	 0.653888629388256 
1187	 0.653940463759412 
1188	 0.65402486326363 
1189	 0.654177893943696 
1190	 0.654316063173491 
1191	 0.654461690949025 
1192	 0.654624869590306 
1193	 0.654822755143735 
1194	 0.655002985881701 
1195	 0.65519622488263 
1196	 0.655370523511818 
1197	 0.655538880214613 
1198	 0.655688464202739 
1199	 0.655823260152412 
1200	 0.655965275979802 
1201	 0.656087298147993 
1202	 0.656222566987153 
1203	 0.656398063875999 
1204	 0.656599798595986 
1205	 0.656866180113157 
1206	 0.65719212055438 
1207	 0.657545851006594 
1208	 0.657935253966625 
1209	 0.6583826480965 
1210	 0.658877657401569 
1211	 0.659409069025881 
1212	 0.66003688220101 
1213	 0.660620570186348 
1214	 0.661215103603444 
1215	 0.661811647209786 
1216	 0.662421898632858 
1217	 0.662992999898265 
1218	 0.663567727407646 
1219	 0.664116516343151 
1220	 0.664600403251805 
1221	 0.665086741622528 
1222	 0.665535400215827 
1223	 0.665964139761187 
1224	 0.666377501131329 
1225	 0.66675562229157 
1226	 0.66714566800119 
1227	 0.667526933309604 
1228	 0.667907054335893 
1229	 0.668286330279473 
1230	 0.668663609612501 
1231	 0.669016734076056 
1232	 0.669408879136448 
1233	 0.669820648873983 
1234	 0.670228877624685 
1235	 0.67066280857259 
1236	 0.671085358405699 
1237	 0.671489155210401 
1238	 0.671915316366064 
1239	 0.672353588450726 
1240	 0.672794460573473 
1241	 0.673266594468418 
1242	 0.673713552227012 
1243	 0.674145953594011 
1244	 0.674576562115676 
1245	 0.67498295459145 
1246	 0.675369403269912 
1247	 0.675737940351722 
1248	 0.676101354674923 
1249	 0.67642510267242 
1250	 0.676716803328768 
1251	 0.676991830422274 
1252	 0.67724953335469 
1253	 0.677469966866189 
1254	 0.677660334427517 
1255	 0.677832775885651 
1256	 0.677958856105797 
1257	 0.678089948950083 
1258	 0.678206863131419 
1259	 0.678321583679407 
1260	 0.678426579239949 
1261	 0.678530089437935 
1262	 0.67862501051128 
1263	 0.678721224345033 
1264	 0.678830009456147 
1265	 0.678939043424605 
1266	 0.679061013987945 
1267	 0.679207570042025 
1268	 0.679325172323435 
1269	 0.679439294164402 
1270	 0.679545702320118 
1271	 0.679636363024504 
1272	 0.6797286474008 
1273	 0.679812069075374 
1274	 0.679906573802787 
1275	 0.679990512481994 
1276	 0.680095754313377 
1277	 0.68023252579628 
1278	 0.680346176916206 
1279	 0.680465373970358 
1280	 0.680569896875806 
1281	 0.680644139716393 
1282	 0.680734819771124 
1283	 0.680827313323529 
1284	 0.680922444085303 
1285	 0.681021608341218 
1286	 0.681131928443287 
1287	 0.681229307199745 
1288	 0.681321008128478 
1289	 0.681417404206544 
1290	 0.681519920660766 
1291	 0.68160030905703 
1292	 0.681687268903947 
1293	 0.681737053614151 
1294	 0.681761698129049 
1295	 0.681771228154405 
1296	 0.681748642739564 
1297	 0.681735766266063 
1298	 0.681727563753328 
1299	 0.681685175933156 
1300	 0.681632947924665 
1301	 0.681561930648087 
1302	 0.681457078454216 
1303	 0.681347434669426 
1304	 0.681235627530637 
1305	 0.681103658909932 
1306	 0.680946792938362 
1307	 0.680787108541213 
1308	 0.680629160417104 
1309	 0.680439469801947 
1310	 0.680249877076943 
1311	 0.680062291513313 
1312	 0.679833264171591 
1313	 0.679585037535761 
1314	 0.679313201128797 
1315	 0.679008971661012 
1316	 0.678699458612463 
1317	 0.678370415398182 
1318	 0.678038410225255 
1319	 0.677701513070544 
1320	 0.677341541871109 
1321	 0.676976404261713 
1322	 0.676584114763086 
1323	 0.676163957027382 
1324	 0.675735587905254 
1325	 0.675298566546683 
1326	 0.674834729814417 
1327	 0.674367916134231 
1328	 0.673856297337508 
1329	 0.673309110276288 
1330	 0.6727418830884 
1331	 0.67213862624545 
1332	 0.671520755200813 
1333	 0.670907160111337 
1334	 0.670232841751959 
1335	 0.669546382928247 
1336	 0.668840099478683 
1337	 0.668096874337375 
1338	 0.667326424816977 
1339	 0.666521746693386 
1340	 0.665690270245863 
1341	 0.664818292771527 
1342	 0.663909690409213 
1343	 0.662967876194267 
1344	 0.661993585751256 
1345	 0.660981641854728 
1346	 0.6599211761199 
1347	 0.658862904203767 
1348	 0.657779612089907 
1349	 0.656677075935771 
1350	 0.655563787240572 
1351	 0.654424314176544 
1352	 0.653238369841846 
1353	 0.652066843724679 
1354	 0.650864589694228 
1355	 0.649703787027864 
1356	 0.648557491509409 
1357	 0.647423217626206 
1358	 0.646288529539533 
1359	 0.645199528740277 
1360	 0.644140379857386 
1361	 0.64309395977425 
1362	 0.642079163189026 
1363	 0.641142176398123 
1364	 0.640177006436421 
1365	 0.639237308430186 
1366	 0.638267389984272 
1367	 0.637299353694245 
1368	 0.636311741921981 
1369	 0.635324791401028 
1370	 0.63427996772747 
1371	 0.633234159040872 
1372	 0.63211154099083 
1373	 0.630951938914715 
1374	 0.6296953061834 
1375	 0.628382568439911 
1376	 0.62696812369903 
1377	 0.625472392577075 
1378	 0.623862760878721 
1379	 0.62212971279894 
1380	 0.620362509252805 
1381	 0.618479290991284 
1382	 0.616584364196828 
1383	 0.614665142347194 
1384	 0.61268726923475 
1385	 0.610710854490277 
1386	 0.608609434978976 
1387	 0.606460727622505 
1388	 0.604207732292417 
1389	 0.601855465641534 
1390	 0.599394708835146 
1391	 0.596882003707842 
1392	 0.594136861905524 
1393	 0.591446343685318 
1394	 0.588628556249709 
1395	 0.585768532539492 
1396	 0.582868080997037 
1397	 0.579928282486493 
1398	 0.576908630878968 
1399	 0.573854199876014 
1400	 0.57076986201219 
1401	 0.567632535805822 
1402	 0.564428263149371 
1403	 0.561178502482108 
1404	 0.55788446695608 
1405	 0.554597683776723 
1406	 0.551254513087188 
1407	 0.547915026870278 
1408	 0.544552395843167 
1409	 0.541218423403629 
1410	 0.537855423185947 
1411	 0.534533913353173 
1412	 0.531228314408245 
1413	 0.528008906017838 
1414	 0.524811226655852 
1415	 0.521678423175476 
1416	 0.518588582365717 
1417	 0.515592227360354 
1418	 0.512640782063455 
1419	 0.509781481010414 
1420	 0.50700579525193 
1421	 0.504356910594729 
1422	 0.501807605406358 
1423	 0.499333011631587 
1424	 0.497034772097583 
1425	 0.494683551944744 
1426	 0.492495618934311 
1427	 0.490301826127001 
1428	 0.488072685843329 
1429	 0.48598927076379 
1430	 0.483774237936436 
1431	 0.481547600745577 
1432	 0.479179477673144 
1433	 0.476755012781132 
1434	 0.474211667021318 
1435	 0.471529973918848 
1436	 0.468802248479065 
1437	 0.465939404490532 
1438	 0.463200963096838 
1439	 0.460321510016504 
1440	 0.457742437761129 
1441	 0.45516713346862 
1442	 0.453030439121379 
1443	 0.45101132820218 
1444	 0.449560144760887 
1445	 0.44848624094085 
1446	 0.447897280292758 
1447	 0.447791644821223 
1448	 0.448059654006541 
1449	 0.448895146425326 
1450	 0.449871156943132 
1451	 0.45132817688277 
1452	 0.452756981500833 
1453	 0.454478251251036 
1454	 0.456058073221936 
1455	 0.457738565893238 
1456	 0.459268692621247 
1457	 0.460760260650023 
1458	 0.462108685623639 
1459	 0.463329677402181 
1460	 0.464469603266578 
1461	 0.46547659381414 
1462	 0.466412126975451 
1463	 0.467239353387406 
1464	 0.468039480076703 
1465	 0.468758346199091 
1466	 0.469443811838788 
1467	 0.470084561200555 
1468	 0.470711511600351 
1469	 0.471324298222377 
1470	 0.471862723078975 
1471	 0.472397887621318 
1472	 0.472932116904005 
1473	 0.47338486344189 
1474	 0.473806547217959 
1475	 0.474128518417148 
1476	 0.474405151047194 
1477	 0.474540396670474 
1478	 0.474579259947581 
1479	 0.474505480683791 
1480	 0.47431168323677 
1481	 0.474028438935903 
1482	 0.473602793580514 
1483	 0.473182131244327 
1484	 0.472636173427562 
1485	 0.472172133223077 
1486	 0.471648713390463 
1487	 0.471291761818604 
1488	 0.470928152636765 
1489	 0.470805328332361 
1490	 0.470825563261063 
1491	 0.471022981556127 
1492	 0.471385462675284 
1493	 0.471934831291669 
1494	 0.472688684945025 
1495	 0.473552034562019 
1496	 0.474619792151466 
1497	 0.475753131492002 
1498	 0.477046257746951 
1499	 0.478346296192864 
1500	 0.479764442131293 
1501	 0.481160359673961 
1502	 0.482616425861582 
1503	 0.484000261900199 
1504	 0.485397838664075 
1505	 0.486723980453078 
1506	 0.488004004033107 
1507	 0.489215340086687 
1508	 0.490364279800959 
1509	 0.491470275955708 
1510	 0.492510307363046 
1511	 0.493497970812814 
1512	 0.494450010659258 
1513	 0.495337105838533 
1514	 0.496154744286419 
1515	 0.496923822595135 
1516	 0.497617020797407 
1517	 0.498292190196369 
1518	 0.49892309348525 
1519	 0.499519090918882 
1520	 0.500082703960802 
1521	 0.500617709289294 
1522	 0.50111305548599 
1523	 0.501611324737318 
1524	 0.502094501911088 
1525	 0.502566538955005 
1526	 0.503038477174168 
1527	 0.503493966770681 
1528	 0.503962937503933 
1529	 0.504429407662058 
1530	 0.504920486516225 
1531	 0.505409147874901 
1532	 0.505945953594696 
1533	 0.506500931897354 
1534	 0.507116658172748 
1535	 0.507765514739993 
1536	 0.508476548990558 
1537	 0.509236442149401 
1538	 0.510061221391865 
1539	 0.510948264501379 
1540	 0.511878869154445 
1541	 0.51286958014301 
1542	 0.513906344427981 
1543	 0.51500465431557 
1544	 0.516107968879209 
1545	 0.517256803652525 
1546	 0.518422323985906 
1547	 0.519617140719287 
1548	 0.520802182857027 
1549	 0.522028272984916 
1550	 0.523214292583588 
1551	 0.524384508619372 
1552	 0.525532138054087 
1553	 0.526664161289567 
1554	 0.527784362588019 
1555	 0.528888221564035 
1556	 0.529966448160104 
1557	 0.531021051068613 
1558	 0.532079687778351 
1559	 0.533114247173878 
1560	 0.534150435478474 
1561	 0.535194859530993 
1562	 0.536226801974469 
1563	 0.537247351799349 
1564	 0.53825524629732 
1565	 0.539263679266052 
1566	 0.5402504813254 
1567	 0.541208507565489 
1568	 0.542172113577747 
1569	 0.543114296332775 
1570	 0.54408284897278 
1571	 0.54508611604122 
1572	 0.546037526181947 
1573	 0.546983165359904 
1574	 0.547909576081417 
1575	 0.548791126661034 
1576	 0.549676765794551 
1577	 0.550568316879895 
1578	 0.551438241610379 
1579	 0.552281132885037 
1580	 0.553123334783917 
1581	 0.553947522662199 
1582	 0.554785640287608 
1583	 0.555631165434994 
1584	 0.556464562538112 
1585	 0.557291026667837 
1586	 0.558130411902246 
1587	 0.55896130035578 
1588	 0.559801118832043 
1589	 0.560656920075411 
1590	 0.561515176392133 
1591	 0.562364546005022 
1592	 0.563238285864254 
1593	 0.564131170005174 
1594	 0.565031181857698 
1595	 0.565952424222401 
1596	 0.566863901880226 
1597	 0.567778062944503 
1598	 0.568694595520502 
1599	 0.569609646461755 
1600	 0.570529673598281 
1601	 0.571456590151364 
1602	 0.572381934160618 
1603	 0.573315658114004 
1604	 0.574231104237715 
1605	 0.575141493995876 
1606	 0.576042561051852 
1607	 0.576946488994612 
1608	 0.577816014887478 
1609	 0.57866298061381 
1610	 0.579500856053698 
1611	 0.580306410797009 
1612	 0.581102445998159 
1613	 0.58188228078488 
1614	 0.582668472884313 
1615	 0.583463341368293 
1616	 0.584224515922396 
1617	 0.584977837310252 
1618	 0.585715695912062 
1619	 0.586407923649729 
1620	 0.58710567190402 
1621	 0.587820677347132 
1622	 0.588498498340489 
1623	 0.589159832885158 
1624	 0.58979560493662 
1625	 0.590386925872719 
1626	 0.590986475804551 
1627	 0.591579013185659 
1628	 0.592150506511999 
1629	 0.592692797479706 
1630	 0.593262436268988 
1631	 0.593836111354653 
1632	 0.594401951062658 
1633	 0.595009899522686 
1634	 0.595565481155786 
1635	 0.596090769538672 
1636	 0.596580882649685 
1637	 0.59702816284995 
1638	 0.597467568283814 
1639	 0.597890294969836 
1640	 0.598279596789657 
1641	 0.598646684555741 
1642	 0.598992966444747 
1643	 0.599293810664072 
1644	 0.599590313600522 
1645	 0.599883711129784 
1646	 0.600147268336316 
1647	 0.600393746880994 
1648	 0.600610577788605 
1649	 0.600808459047479 
1650	 0.600968551250216 
1651	 0.601102543705578 
1652	 0.601190372513434 
1653	 0.601252063757047 
1654	 0.601246638582183 
1655	 0.601172738355201 
1656	 0.601077368249273 
1657	 0.600940613879959 
1658	 0.600751400000241 
1659	 0.600547486718485 
1660	 0.600259977163189 
1661	 0.599898847678619 
1662	 0.59947931410179 
1663	 0.599019159207393 
1664	 0.598441746061128 
1665	 0.597815428775318 
1666	 0.597024761547201 
1667	 0.596085072580415 
1668	 0.595071699595554 
1669	 0.593947233576954 
1670	 0.592707992596821 
1671	 0.591360623029124 
1672	 0.589910418021032 
1673	 0.588309630357605 
1674	 0.586660750247285 
1675	 0.584904671528752 
1676	 0.583172409883597 
1677	 0.58138678864174 
1678	 0.579584469688674 
1679	 0.577729924172392 
1680	 0.575913309727446 
1681	 0.574045319877054 
1682	 0.572272697194821 
1683	 0.570557667457689 
1684	 0.568933563178077 
1685	 0.567340666346955 
1686	 0.565872415001046 
1687	 0.564490173896675 
1688	 0.563216794714304 
1689	 0.562051197320368 
1690	 0.560983811231208 
1691	 0.560062482894047 
1692	 0.559181181437637 
1693	 0.558418632312083 
1694	 0.55762601897461 
1695	 0.556898449121093 
1696	 0.556094616580487 
1697	 0.555295298459663 
1698	 0.554405601583647 
1699	 0.553470059772974 
1700	 0.552486832212271 
1701	 0.551444615901889 
1702	 0.55034698058072 
1703	 0.54918085905155 
1704	 0.547991110012324 
1705	 0.546746131664248 
1706	 0.54544976570282 
1707	 0.54419155605995 
1708	 0.542800802044155 
1709	 0.541338517253566 
1710	 0.539800461664851 
1711	 0.538056367779469 
1712	 0.536261071251473 
1713	 0.534301492225038 
1714	 0.53213177692748 
1715	 0.529984375980093 
1716	 0.527680987880964 
1717	 0.525318841334943 
1718	 0.522964470936186 
1719	 0.520439037374437 
1720	 0.517972252254233 
1721	 0.515506396117706 
1722	 0.513061310781739 
1723	 0.510899773450459 
1724	 0.508830322163212 
1725	 0.506904250040871 
1726	 0.505181857816586 
1727	 0.503490923943474 
1728	 0.50200785295869 
1729	 0.500693927126968 
1730	 0.499536830553255 
1731	 0.498614530307914 
1732	 0.49777517464465 
1733	 0.497004409433353 
1734	 0.496328504871177 
1735	 0.495669315296842 
1736	 0.495066571866313 
1737	 0.49449664012233 
1738	 0.493980600487774 
1739	 0.493533463370907 
1740	 0.493133831681592 
1741	 0.492797091304708 
1742	 0.492519895974038 
1743	 0.492308860650072 
1744	 0.492137260398678 
1745	 0.492070662947483 
1746	 0.492086657930371 
1747	 0.492214942066921 
1748	 0.492455736394792 
1749	 0.492751934320526 
1750	 0.49314274345507 
1751	 0.493613277764081 
1752	 0.494178288666287 
1753	 0.494787832794413 
1754	 0.495494361769315 
1755	 0.496170086729518 
1756	 0.496854256990495 
1757	 0.497550659533728 
1758	 0.498359989538322 
1759	 0.499223012390101 
1760	 0.500106990795882 
1761	 0.501043672960297 
1762	 0.501934053303719 
1763	 0.502811299541718 
1764	 0.503686937586081 
1765	 0.504506476610292 
1766	 0.505351870527002 
1767	 0.506193362193861 
1768	 0.507008183445416 
1769	 0.507813659141942 
1770	 0.508579665802018 
1771	 0.509315613712817 
1772	 0.510008240967226 
1773	 0.51070085941793 
1774	 0.51140930910906 
1775	 0.51206398965301 
1776	 0.51272710665195 
1777	 0.513390862716066 
1778	 0.514001994049885 
1779	 0.514641295319239 
1780	 0.515297187314634 
1781	 0.515969988577398 
1782	 0.516708373109674 
1783	 0.517443761525968 
1784	 0.518199070450367 
1785	 0.518956323668447 
1786	 0.519733634754635 
1787	 0.520576059806738 
1788	 0.521388620535836 
1789	 0.522203322697848 
1790	 0.523016228189362 
1791	 0.5238078883585 
1792	 0.524615764942511 
1793	 0.525431956144926 
1794	 0.526223658850041 
1795	 0.527020789513722 
1796	 0.527791412503805 
1797	 0.528585759127125 
1798	 0.529339688473348 
1799	 0.530084331909992 
1800	 0.530823473623149 
1801	 0.544203713186892 
1802	 0.545689166264231 
1803	 0.546986952615803 
1804	 0.548131234885814 
1805	 0.549287354750072 
1806	 0.550296155898281 
1807	 0.551156749750006 
1808	 0.552011374113175 
1809	 0.552797968427327 
1810	 0.553529997420068 
1811	 0.554189155460812 
1812	 0.554827453438782 
1813	 0.555392643795415 
1814	 0.555984926926605 
1815	 0.556521944451707 
1816	 0.557026872140562 
1817	 0.557534102472657 
1818	 0.558013068927405 
1819	 0.558488218016014 
1820	 0.558954719250908 
1821	 0.559421789200914 
1822	 0.559879597691318 
1823	 0.560331380234285 
1824	 0.560777653728557 
1825	 0.561242875280541 
1826	 0.561677740058674 
1827	 0.562116280922641 
1828	 0.562490381477 
1829	 0.562826788141438 
1830	 0.563160547689059 
1831	 0.563467408842275 
1832	 0.563747996018297 
1833	 0.56400578519807 
1834	 0.564264830016541 
1835	 0.564477538825726 
1836	 0.564664064106674 
1837	 0.564839245646193 
1838	 0.564994545251632 
1839	 0.565138500165717 
1840	 0.565275476697305 
1841	 0.56538203388426 
1842	 0.565492647489849 
1843	 0.565559192700107 
1844	 0.56557662639713 
1845	 0.565526603955575 
1846	 0.56537543292761 
1847	 0.565173864925714 
1848	 0.564868049274763 
1849	 0.564486414377137 
1850	 0.563980147437379 
1851	 0.563401857123238 
1852	 0.562669822629391 
1853	 0.561794198549828 
1854	 0.560847467034413 
1855	 0.559739741145175 
1856	 0.558569190702483 
1857	 0.557281724278706 
1858	 0.555737250925439 
1859	 0.554084101874758 
1860	 0.552318256633003 
1861	 0.550310727970106 
1862	 0.548084394580534 
1863	 0.545839800513488 
1864	 0.543280012585671 
1865	 0.540575711650454 
1866	 0.537696550817566 
1867	 0.534429283511079 
1868	 0.531089252886858 
1869	 0.5274971679336 
1870	 0.523788747507993 
1871	 0.519946641330474 
1872	 0.516059246181876 
1873	 0.512038274620564 
1874	 0.507989505948294 
1875	 0.503896046977993 
1876	 0.499318293650867 
1877	 0.494739102772232 
1878	 0.489844465427622 
1879	 0.484527674086322 
1880	 0.47939613303362 
1881	 0.473900224180266 
1882	 0.468073844884694 
1883	 0.462119189968792 
1884	 0.456004374596974 
1885	 0.449261673030984 
1886	 0.442570653661142 
1887	 0.43553936793734 
1888	 0.428190350799034 
1889	 0.421255209929495 
1890	 0.413975155282794 
1891	 0.406697958483418 
1892	 0.399557875228061 
1893	 0.392129013127912 
1894	 0.384352093036006 
1895	 0.376872345829898 
1896	 0.369266403632144 
1897	 0.36151798024356 
1898	 0.354423377643858 
1899	 0.347184089894734 
1900	 0.340102599485896 
1901	 0.333380891722757 
1902	 0.326359849469224 
1903	 0.319729189663342 
1904	 0.313278028040006 
1905	 0.306931536859889 
1906	 0.300783565092496 
1907	 0.295325147823317 
1908	 0.289842090603219 
1909	 0.284628160607282 
1910	 0.279764030959843 
1911	 0.274711995733988 
1912	 0.269993363254901 
1913	 0.26540388621988 
1914	 0.26082375182294 
1915	 0.256567257189493 
1916	 0.252651415944505 
1917	 0.248675113760204 
1918	 0.244863571487567 
1919	 0.241262353746929 
1920	 0.237468158365041 
1921	 0.233888436139971 
1922	 0.230374122511588 
1923	 0.226846616071079 
1924	 0.223671428794314 
1925	 0.220493300983824 
1926	 0.217429130565079 
1927	 0.214542659737687 
1928	 0.211679279874599 
1929	 0.208803321553736 
1930	 0.206153525984653 
1931	 0.203625312844586 
1932	 0.201226419664391 
1933	 0.199188042019007 
1934	 0.197301060067974 
1935	 0.195590285295962 
1936	 0.194148647200187 
1937	 0.192881060793124 
1938	 0.191772290693679 
1939	 0.190933877322468 
1940	 0.190320385622714 
1941	 0.189935050048172 
1942	 0.189793981841847 
1943	 0.189825521996161 
1944	 0.190036102750823 
1945	 0.190467745721509 
1946	 0.191127107109968 
1947	 0.191950371581884 
1948	 0.193033889718798 
1949	 0.194355999413849 
1950	 0.195825961921423 
1951	 0.197499156946327 
1952	 0.199365034366348 
1953	 0.201408708693182 
1954	 0.203636030848232 
1955	 0.206135487716084 
1956	 0.208644042307522 
1957	 0.211228886439487 
1958	 0.213834101563501 
1959	 0.216195625556289 
1960	 0.218476104896669 
1961	 0.220593762001159 
1962	 0.222528792040258 
1963	 0.224358886230167 
1964	 0.226067385762185 
1965	 0.227623231175462 
1966	 0.229039145092165 
1967	 0.230351280221521 
1968	 0.231471451001163 
1969	 0.232613839716978 
1970	 0.233716771015711 
1971	 0.234797104203442 
1972	 0.236003659987035 
1973	 0.237218248567935 
1974	 0.238492642567822 
1975	 0.239856862212459 
1976	 0.241226106152864 
1977	 0.242592665738156 
1978	 0.244058983178232 
1979	 0.245569999448352 
1980	 0.24712490141923 
1981	 0.248867829046081 
1982	 0.250598164480344 
1983	 0.252438200696808 
1984	 0.254379870990173 
1985	 0.256246160748904 
1986	 0.25827259980434 
1987	 0.260421477355556 
1988	 0.262570311146426 
1989	 0.265015956485963 
1990	 0.267681189031529 
1991	 0.270462834992829 
1992	 0.273438926013505 
1993	 0.276641829972866 
1994	 0.279744584067929 
1995	 0.283056078473202 
1996	 0.28637606259207 
1997	 0.289706046927021 
1998	 0.293171385293661 
1999	 0.296822987447407 
2000	 0.300279174792464 
2001	 0.303898522098278 
2002	 0.307191032601054 
2003	 0.31028689010846 
2004	 0.313321153097745 
2005	 0.31615349087864 
2006	 0.318939622591037 
2007	 0.321731529666574 
2008	 0.324278996861328 
2009	 0.326702117220673 
2010	 0.329038678146929 
2011	 0.331046552926543 
2012	 0.332972791949585 
2013	 0.334756071191215 
2014	 0.336351254487996 
2015	 0.337871066500087 
2016	 0.339305847790771 
2017	 0.340561787160607 
2018	 0.341720686500975 
2019	 0.342677245782548 
2020	 0.343432757140806 
2021	 0.344075905029841 
2022	 0.344537299149868 
2023	 0.344819289420701 
2024	 0.344984406502729 
2025	 0.345013668740028 
2026	 0.344929323907723 
2027	 0.344691324889201 
2028	 0.344386916127648 
2029	 0.343935634340814 
2030	 0.343461386440196 
2031	 0.34286745497054 
2032	 0.342304531260023 
2033	 0.341637975624201 
2034	 0.341077696555199 
2035	 0.340526912552138 
2036	 0.340030217021884 
2037	 0.339642174135477 
2038	 0.339328324287095 
2039	 0.339128209372538 
2040	 0.339022968455897 
2041	 0.33903116041066 
2042	 0.339148060406214 
2043	 0.339363758509488 
2044	 0.339712558333131 
2045	 0.340107868370039 
2046	 0.340604341261293 
2047	 0.341156427631392 
2048	 0.341779665465606 
2049	 0.342455656809272 
2050	 0.343226986472581 
2051	 0.344012143202078 
2052	 0.344841286067449 
2053	 0.345716161723256 
2054	 0.346585570691115 
2055	 0.34747013536386 
2056	 0.348387036061333 
2057	 0.349314779929444 
2058	 0.350277601775676 
2059	 0.351275636270202 
2060	 0.352291154099884 
2061	 0.353354504027077 
2062	 0.354401927161982 
2063	 0.355462648356626 
2064	 0.356531580319627 
2065	 0.357600791749615 
2066	 0.358661014791046 
2067	 0.359791544829749 
2068	 0.360886173231028 
2069	 0.361967949079793 
2070	 0.363086910702882 
2071	 0.364100409166036 
2072	 0.365055587369474 
2073	 0.365992255178034 
2074	 0.366870137903368 
2075	 0.367728120608239 
2076	 0.368591704546487 
2077	 0.369362890431838 
2078	 0.370102224507838 
2079	 0.370747223780501 
2080	 0.371291414448787 
2081	 0.371801208720555 
2082	 0.372248128846812 
2083	 0.372621564120696 
2084	 0.372972708591851 
2085	 0.373262917432462 
2086	 0.373483270237327 
2087	 0.373630588859629 
2088	 0.373737115875723 
2089	 0.37377255407751 
2090	 0.373779775401638 
2091	 0.373753381632944 
2092	 0.373665201055192 
2093	 0.373501953017075 
2094	 0.37333186257618 
2095	 0.373103815421288 
2096	 0.372873577672155 
2097	 0.3726296364566 
2098	 0.37237260950668 
2099	 0.372106132231069 
2100	 0.371787922374087 
2101	 0.371429994987231 
2102	 0.371040074039427 
2103	 0.370618210639991 
2104	 0.370126363071458 
2105	 0.369663964804038 
2106	 0.369191121530845 
2107	 0.368707854995215 
2108	 0.368252868720891 
2109	 0.367719560393451 
2110	 0.367153041268244 
2111	 0.366550433512955 
2112	 0.365841401638727 
2113	 0.365191677239633 
2114	 0.36457385590181 
2115	 0.363905357606997 
2116	 0.363227074482186 
2117	 0.362559815265206 
2118	 0.361840925090359 
2119	 0.361079871645036 
2120	 0.360288098722839 
2121	 0.359468140960474 
2122	 0.358629690441739 
2123	 0.357746248065099 
2124	 0.356847051999016 
2125	 0.355983524513417 
2126	 0.3549992388185 
2127	 0.353937720680466 
2128	 0.352845568144408 
2129	 0.351660992192989 
2130	 0.35046984450439 
2131	 0.349273733715504 
2132	 0.34800961612844 
2133	 0.346712082410892 
2134	 0.345364780413256 
2135	 0.343869098649257 
2136	 0.342364876972232 
2137	 0.340812460833894 
2138	 0.33914160585866 
2139	 0.337555559848996 
2140	 0.335993721912924 
2141	 0.334392139103792 
2142	 0.332836419665496 
2143	 0.331159373255719 
2144	 0.329389746277895 
2145	 0.327651449768205 
2146	 0.325807747664976 
2147	 0.324056950671508 
2148	 0.322382228814322 
2149	 0.320663257722721 
2150	 0.31899235981937 
2151	 0.317261758133569 
2152	 0.315453343793321 
2153	 0.313688020063578 
2154	 0.311919258909569 
2155	 0.31011821596701 
2156	 0.308435364701703 
2157	 0.306831133313946 
2158	 0.305203069930116 
2159	 0.303633433290353 
2160	 0.302046096810111 
2161	 0.300397203950687 
2162	 0.298897031186626 
2163	 0.297423531801291 
2164	 0.296075598109991 
2165	 0.29484731028525 
2166	 0.29367347187733 
2167	 0.292592202617828 
2168	 0.29157583861508 
2169	 0.290627202591446 
2170	 0.289759783346193 
2171	 0.288948086655537 
2172	 0.288241804289923 
2173	 0.287651223816772 
2174	 0.287105635122659 
2175	 0.286651888208683 
2176	 0.286287928070676 
2177	 0.28597257189952 
2178	 0.285715689933536 
2179	 0.285542324679305 
2180	 0.285448174698005 
2181	 0.285411161359722 
2182	 0.285468633315323 
2183	 0.285529524309162 
2184	 0.28563620998739 
2185	 0.285789757457728 
2186	 0.285991775376185 
2187	 0.286207939410182 
2188	 0.286494285179068 
2189	 0.286758809915887 
2190	 0.287037283915699 
2191	 0.287301710421863 
2192	 0.287568227712669 
2193	 0.287827801931601 
2194	 0.288086969288951 
2195	 0.288325111227079 
2196	 0.288557663510235 
2197	 0.288779853273562 
2198	 0.288953396176194 
2199	 0.289128430548606 
2200	 0.289286506827024 
2201	 0.28942927072231 
2202	 0.289552970269334 
2203	 0.289668292685342 
2204	 0.289746026229793 
2205	 0.289786040892916 
2206	 0.289830330190508 
2207	 0.289839908183949 
2208	 0.289876650269745 
2209	 0.289887022134587 
2210	 0.289975620018811 
2211	 0.290090874956254 
2212	 0.290245877866481 
2213	 0.29045684794934 
2214	 0.290697331445338 
2215	 0.290945839817335 
2216	 0.291271550919354 
2217	 0.291648410575441 
2218	 0.292086789491008 
2219	 0.29259565181267 
2220	 0.293150318588584 
2221	 0.293744677280904 
2222	 0.294446325329015 
2223	 0.295173120235914 
2224	 0.295889420157856 
2225	 0.296576932771631 
2226	 0.297232905328345 
2227	 0.297857819238714 
2228	 0.298470380478681 
2229	 0.298962657713415 
2230	 0.299446833291546 
2231	 0.299736915380408 
2232	 0.29988817134582 
2233	 0.299927813954143 
2234	 0.29985188820053 
2235	 0.299635914221361 
2236	 0.29928340898792 
2237	 0.298811744493822 
2238	 0.298165495525025 
2239	 0.297467013774295 
2240	 0.296684248890495 
2241	 0.295763969470597 
2242	 0.294772994986696 
2243	 0.293609309507737 
2244	 0.29224056255765 
2245	 0.290830845807574 
2246	 0.289249443780835 
2247	 0.287659567152972 
2248	 0.286033669157844 
2249	 0.284319948951908 
2250	 0.282521404021265 
2251	 0.280710315482463 
2252	 0.278746559049922 
2253	 0.276822618942711 
2254	 0.274897770064101 
2255	 0.272923203636519 
2256	 0.271103364018408 
2257	 0.269311844258391 
2258	 0.267617742736386 
2259	 0.266028152071927 
2260	 0.264479286206617 
2261	 0.262951595420626 
2262	 0.261609688193154 
2263	 0.260355700417375 
2264	 0.259239509227155 
2265	 0.258315157743387 
2266	 0.257411359313385 
2267	 0.256601554029241 
2268	 0.2558636764478 
2269	 0.255208679858274 
2270	 0.254626419168131 
2271	 0.25415488293324 
2272	 0.253685001357042 
2273	 0.253288246555258 
2274	 0.252902820041646 
2275	 0.252544486543769 
2276	 0.252205420892903 
2277	 0.251897968510171 
2278	 0.251611363618668 
2279	 0.251338209187582 
2280	 0.251091742799785 
2281	 0.250868374635313 
2282	 0.25068648119336 
2283	 0.250517595463986 
2284	 0.250415267915895 
2285	 0.250377518453378 
2286	 0.250363414109965 
2287	 0.250379911680157 
2288	 0.250464525575669 
2289	 0.250550512149256 
2290	 0.250648159055979 
2291	 0.250789789264658 
2292	 0.25088963442074 
2293	 0.251012726194314 
2294	 0.251180227650043 
2295	 0.251341905660455 
2296	 0.251522862123127 
2297	 0.251698330712441 
2298	 0.251868428247126 
2299	 0.252077683486316 
2300	 0.25231512494899 
2301	 0.252528910975386 
2302	 0.25274491100017 
2303	 0.252990445782655 
2304	 0.253214234016651 
2305	 0.253492145662573 
2306	 0.253820240524984 
2307	 0.254188736694428 
2308	 0.254581509951161 
2309	 0.255012570578677 
2310	 0.255499437599563 
2311	 0.256006706940049 
2312	 0.256560512574445 
2313	 0.25710508241491 
2314	 0.257700997347522 
2315	 0.258261718507414 
2316	 0.258823807039902 
2317	 0.259326351315291 
2318	 0.259854546218183 
2319	 0.26024348719 
2320	 0.260537413336628 
2321	 0.260765803809406 
2322	 0.26089419829121 
2323	 0.260956823629678 
2324	 0.260917311386246 
2325	 0.260867161487363 
2326	 0.260750727160139 
2327	 0.260593575801078 
2328	 0.260410325580316 
2329	 0.260177670720817 
2330	 0.259871026957038 
2331	 0.259556888217746 
2332	 0.259197209180278 
2333	 0.258755146595894 
2334	 0.258304493520342 
2335	 0.257778117290753 
2336	 0.257140066311587 
2337	 0.256482387448205 
2338	 0.255748228257902 
2339	 0.2549344637591 
2340	 0.25419419447912 
2341	 0.253470226193781 
2342	 0.252681993028367 
2343	 0.251937102924563 
2344	 0.251260283658089 
2345	 0.250597640262664 
2346	 0.250064449262246 
2347	 0.249657364894648 
2348	 0.249258814240145 
2349	 0.248963903048424 
2350	 0.248756678746854 
2351	 0.24861340221028 
2352	 0.2484590371074 
2353	 0.248296392312796 
2354	 0.248155188695928 
2355	 0.24799972863438 
2356	 0.24790811715708 
2357	 0.247799975761449 
2358	 0.247611755345828 
2359	 0.247303947725816 
2360	 0.246917457265001 
2361	 0.246552015239192 
2362	 0.246120259665683 
2363	 0.245661330282651 
2364	 0.245243718193314 
2365	 0.244720891922575 
2366	 0.244147855214879 
2367	 0.243621758448417 
2368	 0.2429896584754 
2369	 0.242294444087327 
2370	 0.24168579579449 
2371	 0.24105308163634 
2372	 0.240410714375116 
2373	 0.239792126235965 
2374	 0.239059701352211 
2375	 0.238282390737346 
2376	 0.23742618871857 
2377	 0.23653483832984 
2378	 0.23567615370589 
2379	 0.234714330030294 
2380	 0.23387754123552 
2381	 0.233085762514998 
2382	 0.232212427493988 
2383	 0.231378895619604 
2384	 0.230470388090088 
2385	 0.229432774918817 
2386	 0.228442996926435 
2387	 0.227416211120378 
2388	 0.226418225371409 
2389	 0.225498135553955 
2390	 0.224433619642354 
2391	 0.223315830577324 
2392	 0.222211844398525 
2393	 0.220931437711907 
2394	 0.219853685216921 
2395	 0.218973711738298 
2396	 0.217907697965905 
2397	 0.216848214099265 
2398	 0.215733865487155 
2399	 0.214501936299114 
2400	 0.213280359541016 
2401	 0.212063299742297 
2402	 0.210803316000581 
2403	 0.209435183836838 
2404	 0.208289224696856 
2405	 0.207254411390434 
2406	 0.206012860182707 
2407	 0.204882427147327 
2408	 0.203795503252344 
2409	 0.202497458147208 
2410	 0.20147943734239 
2411	 0.200608888784279 
2412	 0.199552732226322 
2413	 0.198597923109519 
2414	 0.19768177493463 
2415	 0.196808901326623 
2416	 0.195876379354513 
2417	 0.194850365253247 
2418	 0.193957094427541 
2419	 0.193081684091545 
2420	 0.192211378480303 
2421	 0.191431855232717 
2422	 0.190741836165306 
2423	 0.189996450993382 
2424	 0.189292432032857 
2425	 0.188699996790925 
2426	 0.187992191602947 
2427	 0.187222234051385 
2428	 0.186334827730323 
2429	 0.185447707388535 
2430	 0.184663300758356 
2431	 0.183875962755692 
2432	 0.183228526725861 
2433	 0.182620305289511 
2434	 0.181933124450723 
2435	 0.181174834440293 
2436	 0.18037037570835 
2437	 0.179608445571689 
2438	 0.178851012282325 
2439	 0.178120437807254 
2440	 0.177354312240613 
2441	 0.176574509755323 
2442	 0.17585573195242 
2443	 0.175014314156372 
2444	 0.174165696559244 
2445	 0.17342600571273 
2446	 0.172678528278829 
2447	 0.171914297917167 
2448	 0.17119581297624 
2449	 0.170502625699112 
2450	 0.169741988444819 
2451	 0.16901361161901 
2452	 0.168387873589321 
2453	 0.167683728563745 
2454	 0.166958379201725 
2455	 0.166344009168846 
2456	 0.165670558516526 
2457	 0.165098065115076 
2458	 0.164501995200329 
2459	 0.163771644213911 
2460	 0.163187722637226 
2461	 0.162254533660766 
2462	 0.161184555819516 
2463	 0.160482319417986 
2464	 0.159704860463375 
2465	 0.159086742261597 
2466	 0.158843444813311 
2467	 0.158348999123948 
2468	 0.157615285053979 
2469	 0.157021095051537 
2470	 0.156278753569598 
2471	 0.15546957904186 
2472	 0.154924976919 
2473	 0.154341532679844 
2474	 0.153794328423352 
2475	 0.153460604535105 
2476	 0.153007789063295 
2477	 0.152542542522982 
2478	 0.152239978202527 
2479	 0.151851675415997 
2480	 0.151407960913299 
2481	 0.151103581065908 
2482	 0.15069497723996 
2483	 0.150630867057243 
2484	 0.150590484978916 
2485	 0.150585023582491 
2486	 0.150531009059738 
2487	 0.150280005899001 
2488	 0.150097691938104 
2489	 0.149802282049415 
2490	 0.149435055175013 
2491	 0.149197341922922 
2492	 0.148801064788089 
2493	 0.148346680826921 
2494	 0.148390608642547 
2495	 0.148280582064773 
2496	 0.147879622156242 
2497	 0.147952104502353 
2498	 0.147801448510955 
2499	 0.147516816809977 
2500	 0.147948463265194 
