Wavelength	spectrum00010.asd
350	 5.73669868540813E-02 
351	 0.055897021989764 
352	 0.053027179351224 
353	 5.03108265284595E-02 
354	 5.04697012220711E-02 
355	 0.048492398923268 
356	 4.59356866819498E-02 
357	 4.46919759982587E-02 
358	 4.30847140215929E-02 
359	 4.08239531556931E-02 
360	 0.038968676669321 
361	 3.89435471334568E-02 
362	 3.96255843882738E-02 
363	 3.86514236707508E-02 
364	 3.62137713133263E-02 
365	 3.58442180535294E-02 
366	 0.035900087150239 
367	 3.53801533252157E-02 
368	 3.40991342741314E-02 
369	 0.034036282865341 
370	 3.37639449860891E-02 
371	 3.29334769453071E-02 
372	 3.19609680368208E-02 
373	 3.17729870837422E-02 
374	 3.20298388966809E-02 
375	 0.032291572061835 
376	 3.22308161131201E-02 
377	 3.14850974742536E-02 
378	 3.08527380881788E-02 
379	 3.09778640563626E-02 
380	 3.09091926942392E-02 
381	 3.09800481804953E-02 
382	 3.05284297207676E-02 
383	 2.86931724057642E-02 
384	 2.85023071511237E-02 
385	 2.89526972845919E-02 
386	 2.89229151899004E-02 
387	 2.78660267594472E-02 
388	 2.72065135817946E-02 
389	 2.70646964303782E-02 
390	 2.70257631698359E-02 
391	 0.026215633404133 
392	 2.58293084786399E-02 
393	 2.58163708121159E-02 
394	 2.53567407322137E-02 
395	 2.50619612007908E-02 
396	 2.50480185418227E-02 
397	 2.50251220707741E-02 
398	 2.41018439069333E-02 
399	 2.36268719829903E-02 
400	 2.33603962270825E-02 
401	 2.28142470816491E-02 
402	 2.24956348811603E-02 
403	 0.022876485888868 
404	 2.31391435509823E-02 
405	 2.17801542800482E-02 
406	 2.13565823648838E-02 
407	 2.12394720325138E-02 
408	 2.08944722419762E-02 
409	 2.09907527642807E-02 
410	 2.05650132139706E-02 
411	 2.01371993684425E-02 
412	 2.04046884499223E-02 
413	 2.04396501384917E-02 
414	 2.00125685391177E-02 
415	 1.94266651683716E-02 
416	 1.93711965503089E-02 
417	 1.93324340628988E-02 
418	 1.93522243449031E-02 
419	 1.93796437980958E-02 
420	 1.88461967925391E-02 
421	 1.86977279206252E-02 
422	 1.88529174670032E-02 
423	 1.88229970111731E-02 
424	 1.85503372566663E-02 
425	 1.83843324623025E-02 
426	 1.84180985404891E-02 
427	 1.84198384047939E-02 
428	 1.83332910453391E-02 
429	 1.84248220657797E-02 
430	 0.01875898299552 
431	 1.85431959804177E-02 
432	 1.85397292973855E-02 
433	 1.86737420127929E-02 
434	 1.84734457280819E-02 
435	 1.85356012684019E-02 
436	 1.87086207118137E-02 
437	 1.88071235512661E-02 
438	 1.87160455741172E-02 
439	 1.88001672627046E-02 
440	 0.018966715847164 
441	 1.90420414499356E-02 
442	 1.91217918113075E-02 
443	 1.93425895955764E-02 
444	 1.96043945311715E-02 
445	 1.96466165911054E-02 
446	 1.97708747230595E-02 
447	 1.99734750248852E-02 
448	 2.01891572172278E-02 
449	 2.03135939980104E-02 
450	 2.05784730121783E-02 
451	 2.09344710964915E-02 
452	 2.12349610209794E-02 
453	 2.14979424883252E-02 
454	 2.17548829557208E-02 
455	 2.20289195254339E-02 
456	 0.022331581234144 
457	 2.26839062528843E-02 
458	 2.30110616726305E-02 
459	 2.33161198356188E-02 
460	 0.023912080156818 
461	 2.44591835898669E-02 
462	 0.024858834082838 
463	 2.51877611566086E-02 
464	 2.57094707829973E-02 
465	 2.62782866354899E-02 
466	 2.67851568918244E-02 
467	 0.027243767810018 
468	 2.79794022832816E-02 
469	 2.87223162801856E-02 
470	 2.92083177165392E-02 
471	 0.029987014265762 
472	 3.06974538921255E-02 
473	 3.13221782600179E-02 
474	 3.21288576685537E-02 
475	 3.30620340972702E-02 
476	 3.39787361811148E-02 
477	 0.034814418216088 
478	 3.57042250848044E-02 
479	 3.66482179025419E-02 
480	 3.76479097904832E-02 
481	 3.86863147420063E-02 
482	 3.96657269183402E-02 
483	 4.07144196319846E-02 
484	 4.18828848362038E-02 
485	 4.31107667074844E-02 
486	 4.42880250963818E-02 
487	 4.54567290482718E-02 
488	 4.66621567223714E-02 
489	 4.78291652039466E-02 
490	 4.90500435830647E-02 
491	 5.03563454184176E-02 
492	 5.17285023580651E-02 
493	 5.30529088389601E-02 
494	 5.43587251022824E-02 
495	 5.57054572931862E-02 
496	 5.71765620323117E-02 
497	 5.85878357809996E-02 
498	 5.99866719826905E-02 
499	 6.14588035294619E-02 
500	 0.062918524358306 
501	 6.43667597628056E-02 
502	 6.58085484052119E-02 
503	 6.72528005462959E-02 
504	 6.87657130931309E-02 
505	 7.02633141146278E-02 
506	 7.17272020235526E-02 
507	 7.33797418189656E-02 
508	 0.074939120861962 
509	 7.64649470942196E-02 
510	 7.81232398635835E-02 
511	 7.96676842730072E-02 
512	 0.081216785788429 
513	 8.28223490606406E-02 
514	 8.44150473619418E-02 
515	 8.60164247593247E-02 
516	 8.76183111583455E-02 
517	 8.92213024640922E-02 
518	 9.08792831160209E-02 
519	 9.25285063114663E-02 
520	 9.41835507092515E-02 
521	 9.59032275180919E-02 
522	 0.097590512603035 
523	 9.92346161038474E-02 
524	 0.100870806389704 
525	 0.102607430539722 
526	 0.104340763015415 
527	 0.106080506410906 
528	 0.107862641137264 
529	 0.109635460742259 
530	 0.111349843701895 
531	 0.113046072660232 
532	 0.114850329995854 
533	 0.116643780247699 
534	 0.118432699837974 
535	 0.120232759472871 
536	 0.122007574804133 
537	 0.123829175702818 
538	 0.125682506087888 
539	 0.127504569593058 
540	 0.129280065673501 
541	 0.131081417850465 
542	 0.132921826588826 
543	 0.134697378937964 
544	 0.136515726182851 
545	 0.138307981756804 
546	 0.140015796526305 
547	 0.141875850932722 
548	 0.14377979951279 
549	 0.145697701068538 
550	 0.147678195928376 
551	 0.149681878648546 
552	 0.151711557092516 
553	 0.15376844305968 
554	 0.155823634908259 
555	 0.157911531218087 
556	 0.160020003320144 
557	 0.162112903748678 
558	 0.164161905043575 
559	 0.166233987752948 
560	 0.168336946821493 
561	 0.17038554804868 
562	 0.17233612751832 
563	 0.174165961811256 
564	 0.175876777485261 
565	 0.177506636415489 
566	 0.179146723136369 
567	 0.180818121417177 
568	 0.182500893096285 
569	 0.184412551857634 
570	 0.18647011681794 
571	 0.188568126754068 
572	 0.190673716983707 
573	 0.192722989242864 
574	 0.194634452401151 
575	 0.196339845227211 
576	 0.197852689043678 
577	 0.19915700270115 
578	 0.200353350812428 
579	 0.20166586362112 
580	 0.203134038522564 
581	 0.204756587092841 
582	 0.20650398727104 
583	 0.208323755590059 
584	 0.210189664484091 
585	 0.212081091352089 
586	 0.21397407790219 
587	 0.215746757297819 
588	 0.217479134823238 
589	 0.21923969463797 
590	 0.221024377641726 
591	 0.222873260606706 
592	 0.224802696375786 
593	 0.226801915630518 
594	 0.228806824040627 
595	 0.230727579346801 
596	 0.232533699472027 
597	 0.234251088785248 
598	 0.235998086720297 
599	 0.237737409321636 
600	 0.239433116194931 
601	 0.241111679726689 
602	 0.242838311566358 
603	 0.244614836681227 
604	 0.24640694079927 
605	 0.248188917191704 
606	 0.249982724621664 
607	 0.25176447651267 
608	 0.253445966713758 
609	 0.25510161669345 
610	 0.256765308754629 
611	 0.258448532910732 
612	 0.260116494707348 
613	 0.261761493435931 
614	 0.263398621655234 
615	 0.265054294786763 
616	 0.266673083555063 
617	 0.268290456770112 
618	 0.269928235778016 
619	 0.271568257674748 
620	 0.273211542565116 
621	 0.274817333244296 
622	 0.276358645506971 
623	 0.277935959248489 
624	 0.279515691896215 
625	 0.281076775703821 
626	 0.282617742745045 
627	 0.284136742357088 
628	 0.28566888052361 
629	 0.287231227073598 
630	 0.288781272955648 
631	 0.290285579268064 
632	 0.291767647477406 
633	 0.293267587001766 
634	 0.294742660991125 
635	 0.296202172392491 
636	 0.297660542101514 
637	 0.299127632819561 
638	 0.300569695327287 
639	 0.302012153381066 
640	 0.303461438060927 
641	 0.304806224989866 
642	 0.306168822841951 
643	 0.307599345899967 
644	 0.309079404161167 
645	 0.310425717342816 
646	 0.311750905280957 
647	 0.313128794310657 
648	 0.314507436803469 
649	 0.315825636505897 
650	 0.317120136311794 
651	 0.318438105713835 
652	 0.319707688722251 
653	 0.321026790758594 
654	 0.322349453318292 
655	 0.323532629795535 
656	 0.324858972974378 
657	 0.326201375979864 
658	 0.327443389331536 
659	 0.32862689184568 
660	 0.329869013584328 
661	 0.33113981035435 
662	 0.33235875120133 
663	 0.33353037923115 
664	 0.334733467991044 
665	 0.335954426922937 
666	 0.337087977262577 
667	 0.338241244387108 
668	 0.339424557346218 
669	 0.340604590225942 
670	 0.34168507964416 
671	 0.342821815868389 
672	 0.343986842996755 
673	 0.345079576629872 
674	 0.346121855429818 
675	 0.347244395420695 
676	 0.348418699182849 
677	 0.349420333243404 
678	 0.350466043536248 
679	 0.351548448886836 
680	 0.352619437127502 
681	 0.353683900676561 
682	 0.354712215027783 
683	 0.355704249325734 
684	 0.356684278135196 
685	 0.35770061515823 
686	 0.35875615034215 
687	 0.359808922443883 
688	 0.360765495746352 
689	 0.361675218224186 
690	 0.362615838734903 
691	 0.36362781134997 
692	 0.364602881098606 
693	 0.365506353081636 
694	 0.366390747179751 
695	 0.367347540100725 
696	 0.368269262872393 
697	 0.369225089390517 
698	 0.370213827559151 
699	 0.37109728053629 
700	 0.371895971000442 
701	 0.372724634366658 
702	 0.37366985957052 
703	 0.374610114887621 
704	 0.375469249358088 
705	 0.376254337744653 
706	 0.377038756996806 
707	 0.377904699243506 
708	 0.378803092321313 
709	 0.379663968935019 
710	 0.380412551353585 
711	 0.381195335488122 
712	 0.381981756741032 
713	 0.382733184778137 
714	 0.383616013128874 
715	 0.384462387821225 
716	 0.385201337858216 
717	 0.385859074810989 
718	 0.386619940507187 
719	 0.387410119960575 
720	 0.388157708338362 
721	 0.388859345040505 
722	 0.389545448243909 
723	 0.390234868647636 
724	 0.390954020747211 
725	 0.391791701175573 
726	 0.392569816632541 
727	 0.393246190143548 
728	 0.393884637893955 
729	 0.394484942966294 
730	 0.395176570296764 
731	 0.395956372387433 
732	 0.39658446917023 
733	 0.397228181438281 
734	 0.397937815211171 
735	 0.398696484832028 
736	 0.399368716287101 
737	 0.400032115769606 
738	 0.400691580719338 
739	 0.401300091986126 
740	 0.401819308202027 
741	 0.402367915104892 
742	 0.402987924924781 
743	 0.403580705831797 
744	 0.404179632389242 
745	 0.404743387268914 
746	 0.405242726816721 
747	 0.405723873061439 
748	 0.4063642301756 
749	 0.40706725005642 
750	 0.407609752734624 
751	 0.408171360219252 
752	 0.408688505621491 
753	 0.409170887361939 
754	 0.409748248643065 
755	 0.410325733831112 
756	 0.410879946426444 
757	 0.411414110334588 
758	 0.411957886952341 
759	 0.412470221579945 
760	 0.412975129985695 
761	 0.413508899763561 
762	 0.41397358154264 
763	 0.414461274426002 
764	 0.414977968049669 
765	 0.415432523275596 
766	 0.415976646093349 
767	 0.416556667786256 
768	 0.417091667420876 
769	 0.417530843752333 
770	 0.417942280698667 
771	 0.418384524796106 
772	 0.41888769951781 
773	 0.419372841690156 
774	 0.419844415293341 
775	 0.420288370608944 
776	 0.420686217979073 
777	 0.421156946286347 
778	 0.421698974737697 
779	 0.422227148439313 
780	 0.422548279329156 
781	 0.422953036715101 
782	 0.423399158968215 
783	 0.423793741933374 
784	 0.424232808315359 
785	 0.424631929977546 
786	 0.425018276892484 
787	 0.425460643078475 
788	 0.42582147478839 
789	 0.426178070477904 
790	 0.426586232623636 
791	 0.427046635005687 
792	 0.427452259757363 
793	 0.427833697979048 
794	 0.428228364507679 
795	 0.428618114999163 
796	 0.428948402689191 
797	 0.429273192811369 
798	 0.429654723819923 
799	 0.429976339045411 
800	 0.430304512172966 
801	 0.430689308501301 
802	 0.431145578361343 
803	 0.431553629423133 
804	 0.431903280634967 
805	 0.432239675768705 
806	 0.432660902511762 
807	 0.433009404976699 
808	 0.433357908616221 
809	 0.433761775983152 
810	 0.434042402503069 
811	 0.434344758298316 
812	 0.434666656921981 
813	 0.434958733349183 
814	 0.435309998353339 
815	 0.435649096447902 
816	 0.43596288484264 
817	 0.436293871967572 
818	 0.43659739528043 
819	 0.436911280080924 
820	 0.437242002517405 
821	 0.43752627346897 
822	 0.437787556379059 
823	 0.438043223978014 
824	 0.438325218856965 
825	 0.438725538134039 
826	 0.439034947454173 
827	 0.439259516078617 
828	 0.439505445464173 
829	 0.439788133990249 
830	 0.440062656790627 
831	 0.440326726346753 
832	 0.440611785177635 
833	 0.440831901873446 
834	 0.441071236194713 
835	 0.441370016519845 
836	 0.441663747345561 
837	 0.441889952436116 
838	 0.442105205119976 
839	 0.442346125047444 
840	 0.442481125311303 
841	 0.442774969756845 
842	 0.443130492166417 
843	 0.443343817406607 
844	 0.443495713490512 
845	 0.443668997224465 
846	 0.44391201549029 
847	 0.444226449438953 
848	 0.444498399287834 
849	 0.444735769966597 
850	 0.44498120590639 
851	 0.445289623399502 
852	 0.445454124737079 
853	 0.445611678816755 
854	 0.445879742048854 
855	 0.446184233471984 
856	 0.4463978056905 
857	 0.446543984559881 
858	 0.446719746352679 
859	 0.447080997047766 
860	 0.447367012756473 
861	 0.447523390803213 
862	 0.447636924377659 
863	 0.447868203941967 
864	 0.448084100895319 
865	 0.448248370874661 
866	 0.448424116994067 
867	 0.448575921488053 
868	 0.448776901970968 
869	 0.44900927421755 
870	 0.44912289903641 
871	 0.449279664478377 
872	 0.449485285467508 
873	 0.449700047721694 
874	 0.449863880102395 
875	 0.450050090896001 
876	 0.450279580980128 
877	 0.450526133117969 
878	 0.450672637524226 
879	 0.450784377512914 
880	 0.450876424325237 
881	 0.450953431244718 
882	 0.45110303105938 
883	 0.451246983260669 
884	 0.4513532381549 
885	 0.451439929081683 
886	 0.451540416836445 
887	 0.451709875440438 
888	 0.451908236994781 
889	 0.451998173569568 
890	 0.452072126150375 
891	 0.452161707847557 
892	 0.452258224727028 
893	 0.452304785644242 
894	 0.452344458653859 
895	 0.452412136544589 
896	 0.452516059911231 
897	 0.452610916485695 
898	 0.452633450007229 
899	 0.452660388688542 
900	 0.452776738697512 
901	 0.452897771104001 
902	 0.453015683145719 
903	 0.453087754628942 
904	 0.45308981036846 
905	 0.453152710074571 
906	 0.453339157115982 
907	 0.453575227705314 
908	 0.45371931845434 
909	 0.453892492794166 
910	 0.454067435063921 
911	 0.454199694088559 
912	 0.454258202898937 
913	 0.454371750285215 
914	 0.45457951030197 
915	 0.454850009232741 
916	 0.455083311273139 
917	 0.45527467193373 
918	 0.455391444013534 
919	 0.455478868585277 
920	 0.455718686204681 
921	 0.455954542851767 
922	 0.456183390610927 
923	 0.456422595483311 
924	 0.456641019013012 
925	 0.456829978848434 
926	 0.456956464886788 
927	 0.457048021656045 
928	 0.457345467725133 
929	 0.457634196514438 
930	 0.457888584231757 
931	 0.458143225399686 
932	 0.458305012960833 
933	 0.458509305133235 
934	 0.458803981383989 
935	 0.459153067935075 
936	 0.459405587304192 
937	 0.459679741024999 
938	 0.45995882003892 
939	 0.460150030024975 
940	 0.460389799885342 
941	 0.460626744457699 
942	 0.460820226705759 
943	 0.460975980384273 
944	 0.461280868845852 
945	 0.461522028083926 
946	 0.461662558187258 
947	 0.461877602880334 
948	 0.461981275410619 
949	 0.462065221836919 
950	 0.462201741798982 
951	 0.462375899410585 
952	 0.462446945123885 
953	 0.462483648378639 
954	 0.462575574021026 
955	 0.462772187120593 
956	 0.463021803814172 
957	 0.463235916545138 
958	 0.463344281252786 
959	 0.463327433494222 
960	 0.463378143362447 
961	 0.463569992961139 
962	 0.463845896847402 
963	 0.463979957290787 
964	 0.463972123824465 
965	 0.464052020774557 
966	 0.464323572767276 
967	 0.464477224545532 
968	 0.464539717628846 
969	 0.464591883983473 
970	 0.464704919392184 
971	 0.464865586380812 
972	 0.465005627927155 
973	 0.465136450411172 
974	 0.465266440903572 
975	 0.46530996430503 
976	 0.465448907507721 
977	 0.465650991723901 
978	 0.465812234521677 
979	 0.465847141511006 
980	 0.465956721770163 
981	 0.465999026225608 
982	 0.465878387873244 
983	 0.466031453832367 
984	 0.466139595025492 
985	 0.466178492820651 
986	 0.466259838268016 
987	 0.466589060541727 
988	 0.466710973418496 
989	 0.466713320175786 
990	 0.466807928415045 
991	 0.466862126944693 
992	 0.467031151562354 
993	 0.467196536004302 
994	 0.467251756744957 
995	 0.467487075465368 
996	 0.467660035742952 
997	 0.467755756246108 
998	 0.467869773831075 
999	 0.468157799764989 
1000	 0.468369368673752 
1001	 0.451373391574266 
1002	 0.451542811734442 
1003	 0.45168084039186 
1004	 0.451798804650386 
1005	 0.451867290210324 
1006	 0.451987270207746 
1007	 0.452116475339413 
1008	 0.452258018298895 
1009	 0.452428021392505 
1010	 0.452567428102208 
1011	 0.452687175643743 
1012	 0.452824761182664 
1013	 0.452973928863071 
1014	 0.453111264661186 
1015	 0.453238609669762 
1016	 0.453393402227121 
1017	 0.453553562724912 
1018	 0.453666549905707 
1019	 0.45381124991637 
1020	 0.45395369522123 
1021	 0.454062147010201 
1022	 0.454129485816562 
1023	 0.454239423898261 
1024	 0.454329807787713 
1025	 0.454452624567112 
1026	 0.454619805763016 
1027	 0.454771480031817 
1028	 0.454919613485554 
1029	 0.455092070274062 
1030	 0.455258413015182 
1031	 0.455387247406412 
1032	 0.455508910752236 
1033	 0.45566174256447 
1034	 0.455822799167794 
1035	 0.455949386657284 
1036	 0.4561212763847 
1037	 0.456350487804465 
1038	 0.456507203874845 
1039	 0.456638297041163 
1040	 0.456808117145579 
1041	 0.456939759634627 
1042	 0.457105416128273 
1043	 0.45732129243686 
1044	 0.457527521726372 
1045	 0.457711437209709 
1046	 0.45787634466473 
1047	 0.458009522019015 
1048	 0.458148431120902 
1049	 0.458277970162703 
1050	 0.458421158422953 
1051	 0.458609001564498 
1052	 0.458792925976934 
1053	 0.458957304019417 
1054	 0.45913791622463 
1055	 0.459278418928873 
1056	 0.459371313573265 
1057	 0.459484018276361 
1058	 0.459585314522284 
1059	 0.459698130288136 
1060	 0.459839150491088 
1061	 0.459957123638143 
1062	 0.460050312052394 
1063	 0.46013583442054 
1064	 0.460210692004168 
1065	 0.460282856712679 
1066	 0.460368828251935 
1067	 0.460482688955815 
1068	 0.4605746110599 
1069	 0.460639236247038 
1070	 0.460715064653796 
1071	 0.460801534600131 
1072	 0.460875252709811 
1073	 0.460923599689978 
1074	 0.460959267792178 
1075	 0.461029550795959 
1076	 0.461115076927572 
1077	 0.461178757211626 
1078	 0.461279064847357 
1079	 0.461394975578591 
1080	 0.461447197908698 
1081	 0.461501104978748 
1082	 0.461580318235336 
1083	 0.461623855704619 
1084	 0.46165687483607 
1085	 0.46170736321113 
1086	 0.461751660965561 
1087	 0.461791634676491 
1088	 0.461827818666331 
1089	 0.461880129670294 
1090	 0.461929384485185 
1091	 0.461981836982453 
1092	 0.462030247067274 
1093	 0.462083788189718 
1094	 0.462142418559946 
1095	 0.462179809561483 
1096	 0.462232203346973 
1097	 0.462271759545432 
1098	 0.462286677346301 
1099	 0.462299833808554 
1100	 0.462315056006969 
1101	 0.462344131291266 
1102	 0.462369416182343 
1103	 0.462404910201751 
1104	 0.462459657817309 
1105	 0.462506374857177 
1106	 0.462528543761055 
1107	 0.462551466784553 
1108	 0.462534611798938 
1109	 0.462518116602585 
1110	 0.462528976501348 
1111	 0.462528161319464 
1112	 0.462533769538431 
1113	 0.462541917943107 
1114	 0.462556836185856 
1115	 0.462569368830817 
1116	 0.462565687618256 
1117	 0.462576586518014 
1118	 0.462563650122953 
1119	 0.462517039894987 
1120	 0.462468706569616 
1121	 0.462418231564753 
1122	 0.462359732669217 
1123	 0.462284020811069 
1124	 0.462209522311484 
1125	 0.462145692346086 
1126	 0.462049188399505 
1127	 0.461917378431521 
1128	 0.46176343115596 
1129	 0.461565171760703 
1130	 0.461335797294224 
1131	 0.461101013437237 
1132	 0.46086706426459 
1133	 0.460610362704715 
1134	 0.460348722453638 
1135	 0.460065016595082 
1136	 0.459770590634869 
1137	 0.459429801946081 
1138	 0.459053888602453 
1139	 0.458664162040129 
1140	 0.458234436254181 
1141	 0.457812078099271 
1142	 0.457382996190213 
1143	 0.456965371573736 
1144	 0.456508529528106 
1145	 0.4559983718665 
1146	 0.455505510912082 
1147	 0.454989332785572 
1148	 0.454464848538064 
1149	 0.453982463944733 
1150	 0.45345710620426 
1151	 0.452920810872154 
1152	 0.452370760311299 
1153	 0.451810676378177 
1154	 0.451219661163185 
1155	 0.450623252959186 
1156	 0.449978019643913 
1157	 0.449308104449712 
1158	 0.448611306794313 
1159	 0.447873809932114 
1160	 0.44711798898194 
1161	 0.446339874065167 
1162	 0.445490291058158 
1163	 0.44463365602031 
1164	 0.443720961202516 
1165	 0.442768940354434 
1166	 0.441859981807742 
1167	 0.440918808007181 
1168	 0.439990874943102 
1169	 0.439054875734112 
1170	 0.438111195671862 
1171	 0.437169125136925 
1172	 0.436225214517107 
1173	 0.43527193370058 
1174	 0.43431495486026 
1175	 0.433385594597022 
1176	 0.432440621539277 
1177	 0.431534231877731 
1178	 0.43066910064068 
1179	 0.429777653994902 
1180	 0.428938719950678 
1181	 0.428142180241615 
1182	 0.427385027692912 
1183	 0.426735526582009 
1184	 0.426148882050628 
1185	 0.425613624293544 
1186	 0.425165388036245 
1187	 0.424792648673979 
1188	 0.424495005800857 
1189	 0.424289697485778 
1190	 0.424116611555744 
1191	 0.424025465150617 
1192	 0.423951890882598 
1193	 0.423908923880293 
1194	 0.423908952305045 
1195	 0.423960778855548 
1196	 0.424033404492983 
1197	 0.42413704034055 
1198	 0.424279810239924 
1199	 0.424449788294286 
1200	 0.424605870526145 
1201	 0.424783118748769 
1202	 0.42499535920671 
1203	 0.425219744629805 
1204	 0.425490346768613 
1205	 0.425808142093404 
1206	 0.42615309214259 
1207	 0.426579481526415 
1208	 0.427049097262867 
1209	 0.427608907308556 
1210	 0.428241990556703 
1211	 0.428942778920287 
1212	 0.429733676490205 
1213	 0.430570973402467 
1214	 0.43147407396449 
1215	 0.432438247818552 
1216	 0.433490034928017 
1217	 0.434535787669408 
1218	 0.435644348340259 
1219	 0.436745779767999 
1220	 0.437842467595961 
1221	 0.439005915811982 
1222	 0.440101587186395 
1223	 0.441203098663002 
1224	 0.44225965506018 
1225	 0.443274651799003 
1226	 0.444251103136522 
1227	 0.445213539423255 
1228	 0.446120010557962 
1229	 0.446984287086531 
1230	 0.447800679918656 
1231	 0.448560041000543 
1232	 0.449307330757802 
1233	 0.450007550216519 
1234	 0.450678688894374 
1235	 0.451319390160426 
1236	 0.4519529171296 
1237	 0.452557088489222 
1238	 0.453143009553067 
1239	 0.453719778501379 
1240	 0.454280993216556 
1241	 0.454809901573731 
1242	 0.455294157389201 
1243	 0.455779535630083 
1244	 0.456254671891416 
1245	 0.45669951722594 
1246	 0.457131265289119 
1247	 0.45752513057567 
1248	 0.457884291141067 
1249	 0.45823164832248 
1250	 0.458546528260476 
1251	 0.458855509155245 
1252	 0.459153863697791 
1253	 0.459432136482285 
1254	 0.45969357128313 
1255	 0.459940665530872 
1256	 0.460166953371375 
1257	 0.460387389946101 
1258	 0.460591232381037 
1259	 0.460788808564124 
1260	 0.460962465468419 
1261	 0.461154285289004 
1262	 0.461348283200028 
1263	 0.461549346517379 
1264	 0.461743849074525 
1265	 0.461944359965734 
1266	 0.462150397753164 
1267	 0.46234877941358 
1268	 0.462559651245726 
1269	 0.462792108219683 
1270	 0.46300659588258 
1271	 0.463224291258428 
1272	 0.463419483072011 
1273	 0.463600453131942 
1274	 0.463780855457875 
1275	 0.463944636630434 
1276	 0.464107287202664 
1277	 0.464271498995564 
1278	 0.464426729996251 
1279	 0.464567270414335 
1280	 0.464711378443038 
1281	 0.464860210856273 
1282	 0.464996083829943 
1283	 0.465127244776784 
1284	 0.465249030050608 
1285	 0.465361747995875 
1286	 0.465463960897207 
1287	 0.465558024262788 
1288	 0.465646242612311 
1289	 0.465720099915396 
1290	 0.465778196431614 
1291	 0.465837647272221 
1292	 0.465894074796148 
1293	 0.465933313674648 
1294	 0.465965517004756 
1295	 0.465987138739034 
1296	 0.465985663638723 
1297	 0.465993627569059 
1298	 0.46600162476689 
1299	 0.466005129999357 
1300	 0.466008538835235 
1301	 0.466005818601775 
1302	 0.466009171881838 
1303	 0.465989231215104 
1304	 0.465942259659491 
1305	 0.465911060741903 
1306	 0.465880777013842 
1307	 0.465837799414859 
1308	 0.465804379984921 
1309	 0.465756689766098 
1310	 0.465704514866447 
1311	 0.465634918709674 
1312	 0.465564996768327 
1313	 0.465496222501393 
1314	 0.465419234709096 
1315	 0.465332466581654 
1316	 0.465238189143507 
1317	 0.465142988071877 
1318	 0.465036855004966 
1319	 0.464921146754162 
1320	 0.464793158959202 
1321	 0.46466442937698 
1322	 0.464513174690999 
1323	 0.464333710787763 
1324	 0.464162525023999 
1325	 0.46398393607919 
1326	 0.463801299130713 
1327	 0.46363053414836 
1328	 0.463433057983089 
1329	 0.463237301154901 
1330	 0.463000701129536 
1331	 0.462742737064575 
1332	 0.462452179495942 
1333	 0.462140347646962 
1334	 0.461777068809393 
1335	 0.461392439214512 
1336	 0.460979931610835 
1337	 0.460536491766241 
1338	 0.4600586241238 
1339	 0.459562632360328 
1340	 0.459056825268755 
1341	 0.458485334744944 
1342	 0.457879087514126 
1343	 0.457228001493161 
1344	 0.45653123578082 
1345	 0.455784528574593 
1346	 0.454997320736802 
1347	 0.454172991827981 
1348	 0.453290019715045 
1349	 0.452387265096863 
1350	 0.451432056978808 
1351	 0.450490222166051 
1352	 0.449517526049441 
1353	 0.448555027648857 
1354	 0.447578218438378 
1355	 0.446639865777345 
1356	 0.445708408680962 
1357	 0.444794180579633 
1358	 0.443904155039705 
1359	 0.443035062847965 
1360	 0.442189373753914 
1361	 0.441341119494268 
1362	 0.440503582570455 
1363	 0.43972341024841 
1364	 0.43891623759649 
1365	 0.438119364835759 
1366	 0.437296515563606 
1367	 0.436463078035836 
1368	 0.435638627555574 
1369	 0.43480584142369 
1370	 0.433964263732531 
1371	 0.433138915157868 
1372	 0.432286371298082 
1373	 0.431403262466563 
1374	 0.430528389220171 
1375	 0.429635914258614 
1376	 0.428759806072472 
1377	 0.427874193842112 
1378	 0.427006286512883 
1379	 0.42613207501891 
1380	 0.425305161312219 
1381	 0.424475874191062 
1382	 0.423716019326314 
1383	 0.423002917906912 
1384	 0.422338982074671 
1385	 0.421745862814595 
1386	 0.421167366032091 
1387	 0.420634253025359 
1388	 0.420124083918935 
1389	 0.419649597038607 
1390	 0.419178252677994 
1391	 0.418749401033573 
1392	 0.418295312691099 
1393	 0.417865104033404 
1394	 0.41738848097914 
1395	 0.416860259965674 
1396	 0.416330435396764 
1397	 0.415675319196823 
1398	 0.414967230910054 
1399	 0.41412635782643 
1400	 0.413183653003043 
1401	 0.412147637342315 
1402	 0.41099839469968 
1403	 0.409776813239948 
1404	 0.408446665885119 
1405	 0.407099378274701 
1406	 0.405667382716693 
1407	 0.404223016995063 
1408	 0.402724792213245 
1409	 0.40123637505234 
1410	 0.399718769675354 
1411	 0.398195223162416 
1412	 0.396649307186033 
1413	 0.395145096206825 
1414	 0.393640074106939 
1415	 0.392145820136667 
1416	 0.39066962375793 
1417	 0.389212966577839 
1418	 0.387744697521175 
1419	 0.386315344781218 
1420	 0.384910520245957 
1421	 0.383559894872112 
1422	 0.382234747392103 
1423	 0.38095496594331 
1424	 0.379758824172219 
1425	 0.378532488763237 
1426	 0.377398677058285 
1427	 0.376274463665623 
1428	 0.375135247177689 
1429	 0.374085510821124 
1430	 0.372990926211896 
1431	 0.371909225072007 
1432	 0.37076162998523 
1433	 0.369617542614379 
1434	 0.368378992317375 
1435	 0.367063131117877 
1436	 0.365722140810442 
1437	 0.364300346158206 
1438	 0.362941674418243 
1439	 0.361511040042451 
1440	 0.360233224112128 
1441	 0.358945670949161 
1442	 0.357894360260007 
1443	 0.356889912894899 
1444	 0.35622421136907 
1445	 0.355751700544196 
1446	 0.355588015128769 
1447	 0.355721217197569 
1448	 0.356073687309628 
1449	 0.356763998038948 
1450	 0.357541742977986 
1451	 0.358603444738931 
1452	 0.359659392664169 
1453	 0.360909078942533 
1454	 0.36205365400734 
1455	 0.363263431430806 
1456	 0.364365760973328 
1457	 0.365415793784382 
1458	 0.366391294926673 
1459	 0.367285105831638 
1460	 0.368135439664512 
1461	 0.368905998641715 
1462	 0.369641874051284 
1463	 0.37032794467744 
1464	 0.370985791762896 
1465	 0.371575759253274 
1466	 0.372181969635269 
1467	 0.372753323130177 
1468	 0.373302058976537 
1469	 0.373878955864434 
1470	 0.374410749357843 
1471	 0.374948519076042 
1472	 0.375485392624537 
1473	 0.376004719552529 
1474	 0.376519177225751 
1475	 0.376992299674793 
1476	 0.377466353090279 
1477	 0.377855615299062 
1478	 0.378200011064916 
1479	 0.378474408342041 
1480	 0.378687194562696 
1481	 0.37884285558839 
1482	 0.378921266321789 
1483	 0.378984338702675 
1484	 0.378972044683697 
1485	 0.37899055129282 
1486	 0.378952837108119 
1487	 0.379013074883108 
1488	 0.37907133294229 
1489	 0.379245022291041 
1490	 0.379490367534912 
1491	 0.379824660925327 
1492	 0.380236662660881 
1493	 0.380744195993489 
1494	 0.381359238016465 
1495	 0.382021874878619 
1496	 0.382788336292591 
1497	 0.38357186781133 
1498	 0.384442277286587 
1499	 0.385281995426607 
1500	 0.386162596899818 
1501	 0.387007538515898 
1502	 0.38785453296309 
1503	 0.38864663392469 
1504	 0.389424697419872 
1505	 0.390145583949569 
1506	 0.390822153307962 
1507	 0.391442215725773 
1508	 0.392006889361425 
1509	 0.392531889661844 
1510	 0.392999943993355 
1511	 0.393426903663866 
1512	 0.393816628082894 
1513	 0.394159360390337 
1514	 0.394458475542309 
1515	 0.394704274649406 
1516	 0.394886127977199 
1517	 0.395045681629223 
1518	 0.395154462884103 
1519	 0.395237678130366 
1520	 0.395292648259591 
1521	 0.395320844898527 
1522	 0.395339048717232 
1523	 0.395320549736095 
1524	 0.395285292517542 
1525	 0.395236775230145 
1526	 0.395160949132143 
1527	 0.395046633540454 
1528	 0.394940912713376 
1529	 0.394822679603028 
1530	 0.394703624659469 
1531	 0.394567543164745 
1532	 0.394459036978605 
1533	 0.394341971098923 
1534	 0.394277131835385 
1535	 0.394242642933939 
1536	 0.394225332474101 
1537	 0.394221809680668 
1538	 0.394285412821029 
1539	 0.394378945142369 
1540	 0.394523248934547 
1541	 0.394729455573403 
1542	 0.39497124100445 
1543	 0.395249387357852 
1544	 0.395564999526951 
1545	 0.395937145302559 
1546	 0.396328624924814 
1547	 0.396756609991916 
1548	 0.397192274578803 
1549	 0.397667564148505 
1550	 0.39813300271634 
1551	 0.398608499417626 
1552	 0.399076354069306 
1553	 0.399558017954836 
1554	 0.400015360074548 
1555	 0.400469297794596 
1556	 0.400893478369879 
1557	 0.401281559874269 
1558	 0.401692248840181 
1559	 0.402092030974035 
1560	 0.40249447353771 
1561	 0.402921245727128 
1562	 0.403316783244094 
1563	 0.403696731924683 
1564	 0.404060707140787 
1565	 0.404417111401238 
1566	 0.404745268925974 
1567	 0.405042102779548 
1568	 0.405339103047588 
1569	 0.405607020747984 
1570	 0.405892729581171 
1571	 0.406182184099023 
1572	 0.406470040958499 
1573	 0.406771301191815 
1574	 0.40705117904967 
1575	 0.407316229190351 
1576	 0.407585807361922 
1577	 0.407847722969696 
1578	 0.408106321743037 
1579	 0.408369076641081 
1580	 0.408621845113336 
1581	 0.408871038028632 
1582	 0.40910315808505 
1583	 0.409317093610283 
1584	 0.409538865970289 
1585	 0.409752937331807 
1586	 0.409962407266605 
1587	 0.410178653188352 
1588	 0.4103838739839 
1589	 0.410572249740124 
1590	 0.410763793090695 
1591	 0.410948651153942 
1592	 0.411144504329788 
1593	 0.411351131055749 
1594	 0.411543549962864 
1595	 0.411741842151785 
1596	 0.411925822278081 
1597	 0.412088770275019 
1598	 0.412255502948517 
1599	 0.412424918606838 
1600	 0.412582660908914 
1601	 0.412726994311185 
1602	 0.412878002084108 
1603	 0.413029800743515 
1604	 0.413171292439868 
1605	 0.413329172085233 
1606	 0.41345059613334 
1607	 0.41354950057602 
1608	 0.413630313842584 
1609	 0.413690103948784 
1610	 0.41372589071736 
1611	 0.413737428008068 
1612	 0.413735325429553 
1613	 0.413698209955975 
1614	 0.413668215072962 
1615	 0.413650762647931 
1616	 0.413592351022258 
1617	 0.413511941788091 
1618	 0.413418227543396 
1619	 0.413291090245906 
1620	 0.413155580137497 
1621	 0.413013999734519 
1622	 0.412856790533912 
1623	 0.412679704950496 
1624	 0.412487381888925 
1625	 0.412279428049957 
1626	 0.412064724939973 
1627	 0.411819042249486 
1628	 0.411592634954633 
1629	 0.411351193927337 
1630	 0.411148924337084 
1631	 0.410962432626817 
1632	 0.410804132016703 
1633	 0.410691861591066 
1634	 0.410574674198344 
1635	 0.410470087240049 
1636	 0.410378959505577 
1637	 0.410306539752778 
1638	 0.410227800243802 
1639	 0.41017688598882 
1640	 0.410092386609769 
1641	 0.410000648611968 
1642	 0.409873597564749 
1643	 0.409730240134047 
1644	 0.409545002245346 
1645	 0.40933196552503 
1646	 0.409072563974324 
1647	 0.40876626497106 
1648	 0.408424778008528 
1649	 0.408056267948178 
1650	 0.407622843082717 
1651	 0.407146537490825 
1652	 0.406616314480878 
1653	 0.406042469079146 
1654	 0.405379237213008 
1655	 0.404648727857754 
1656	 0.4038445917965 
1657	 0.402963411969624 
1658	 0.40199284581994 
1659	 0.400966918101444 
1660	 0.399834857856882 
1661	 0.398621176578888 
1662	 0.397268370996665 
1663	 0.395808383934066 
1664	 0.394199737380751 
1665	 0.392482546760975 
1666	 0.390554389438469 
1667	 0.388461242582817 
1668	 0.386234556754282 
1669	 0.383828226109601 
1670	 0.381265739873078 
1671	 0.378512187683036 
1672	 0.375672678821457 
1673	 0.372662881901569 
1674	 0.369571734314754 
1675	 0.366383868628511 
1676	 0.363183663154447 
1677	 0.359862320269906 
1678	 0.35654677982106 
1679	 0.353174860864693 
1680	 0.349820039488128 
1681	 0.346422758830199 
1682	 0.343052810754736 
1683	 0.339712005869282 
1684	 0.336438586240988 
1685	 0.333158564715774 
1686	 0.329962132812451 
1687	 0.326790343487786 
1688	 0.323733270951606 
1689	 0.320736583134914 
1690	 0.317856892574622 
1691	 0.315110019388499 
1692	 0.31249823257448 
1693	 0.309989664874756 
1694	 0.307602513081317 
1695	 0.30535457433981 
1696	 0.303171405057833 
1697	 0.30110194840189 
1698	 0.299066109240274 
1699	 0.297136335469722 
1700	 0.295272328692718 
1701	 0.293446050168525 
1702	 0.291723462323753 
1703	 0.290072831238222 
1704	 0.288529361560984 
1705	 0.287068233380952 
1706	 0.285693576459004 
1707	 0.284503656249849 
1708	 0.283335096420382 
1709	 0.282264847803017 
1710	 0.281293417866747 
1711	 0.280306642554148 
1712	 0.279415762773558 
1713	 0.278565629502401 
1714	 0.277694028128125 
1715	 0.276886252601771 
1716	 0.276051825679666 
1717	 0.275233788484459 
1718	 0.274466395045343 
1719	 0.273674451552953 
1720	 0.272945269225315 
1721	 0.272249896433892 
1722	 0.271561077003237 
1723	 0.270995392166643 
1724	 0.270508006202344 
1725	 0.270104019615566 
1726	 0.269845950948495 
1727	 0.269704952584128 
1728	 0.269684045433938 
1729	 0.269823452607544 
1730	 0.270135503762668 
1731	 0.27056866574609 
1732	 0.271151927955949 
1733	 0.271810113200047 
1734	 0.272523402066619 
1735	 0.27332535082911 
1736	 0.274124842999257 
1737	 0.274896510988229 
1738	 0.27561211802141 
1739	 0.276194789036379 
1740	 0.276659182337509 
1741	 0.277074563269575 
1742	 0.277371774785821 
1743	 0.277675432545957 
1744	 0.277913080860218 
1745	 0.278182920834407 
1746	 0.278423827774143 
1747	 0.278714784875775 
1748	 0.278999762868942 
1749	 0.279376230770601 
1750	 0.279792114579974 
1751	 0.280316463559165 
1752	 0.280940926106874 
1753	 0.281622258885818 
1754	 0.282369611725359 
1755	 0.283199726547143 
1756	 0.284083541725672 
1757	 0.285073009363002 
1758	 0.286226119619203 
1759	 0.287399936950236 
1760	 0.288702235395844 
1761	 0.290130192935205 
1762	 0.291532721626929 
1763	 0.293100503275954 
1764	 0.294745352277922 
1765	 0.296430467321849 
1766	 0.298284677722467 
1767	 0.300083346692625 
1768	 0.301934351265356 
1769	 0.303846973070818 
1770	 0.305596165411686 
1771	 0.307383153849776 
1772	 0.309114755942208 
1773	 0.310691488872249 
1774	 0.312302614799342 
1775	 0.313783401824306 
1776	 0.315138859717431 
1777	 0.316413106882884 
1778	 0.317504727622395 
1779	 0.318558012700261 
1780	 0.31955373075491 
1781	 0.320453103267421 
1782	 0.32132876787534 
1783	 0.322110379143553 
1784	 0.32284144663946 
1785	 0.323517290423074 
1786	 0.324167571425784 
1787	 0.324786646951081 
1788	 0.325355127261085 
1789	 0.325878787706549 
1790	 0.326384074408322 
1791	 0.326833822338949 
1792	 0.327294594274382 
1793	 0.327738488293531 
1794	 0.328155174145303 
1795	 0.32856706204914 
1796	 0.328963781761502 
1797	 0.32937514040586 
1798	 0.32975022467643 
1799	 0.330128321837269 
1800	 0.330518053729292 
1801	 0.340670817734633 
1802	 0.341398537508392 
1803	 0.34204508554812 
1804	 0.342617409144277 
1805	 0.343162643592882 
1806	 0.343646263804996 
1807	 0.344072315343352 
1808	 0.344472553250582 
1809	 0.344812320301872 
1810	 0.345141326087102 
1811	 0.345418234510728 
1812	 0.345712916677038 
1813	 0.345984455873871 
1814	 0.346281029940165 
1815	 0.346552280002894 
1816	 0.346831905811681 
1817	 0.347122370312402 
1818	 0.347401889019365 
1819	 0.347696860761105 
1820	 0.348014052804028 
1821	 0.34833037573222 
1822	 0.348650917128989 
1823	 0.348973491913112 
1824	 0.349288381192706 
1825	 0.349626845661591 
1826	 0.349958831576241 
1827	 0.350291310473363 
1828	 0.350614045949661 
1829	 0.350934290777105 
1830	 0.351256185283867 
1831	 0.35157205131049 
1832	 0.351897885764535 
1833	 0.352186175741596 
1834	 0.352497015777373 
1835	 0.352792505179831 
1836	 0.353050015728163 
1837	 0.353363125363471 
1838	 0.353711856392033 
1839	 0.354057449121978 
1840	 0.354412440796507 
1841	 0.354789482367588 
1842	 0.355200883883604 
1843	 0.355586106420514 
1844	 0.355963730061869 
1845	 0.356330349916712 
1846	 0.356657735036059 
1847	 0.356942657376733 
1848	 0.357200594237464 
1849	 0.357454566885429 
1850	 0.357643034370565 
1851	 0.357793183754537 
1852	 0.35788971487734 
1853	 0.357921213429213 
1854	 0.35789252485187 
1855	 0.357817539600134 
1856	 0.357714028331013 
1857	 0.357562430547441 
1858	 0.357350607461606 
1859	 0.357077258062197 
1860	 0.356746697347555 
1861	 0.356333401336994 
1862	 0.355849584470703 
1863	 0.35533206727962 
1864	 0.354697785169231 
1865	 0.354011990245789 
1866	 0.35324233789884 
1867	 0.352356988821206 
1868	 0.351439009341353 
1869	 0.350439783319382 
1870	 0.349403154810138 
1871	 0.348312491546864 
1872	 0.347217006940271 
1873	 0.346083877017473 
1874	 0.344940599578295 
1875	 0.3437963118682 
1876	 0.342484191072653 
1877	 0.341152610558813 
1878	 0.339684854035508 
1879	 0.338028702757841 
1880	 0.336388663246963 
1881	 0.334562538796409 
1882	 0.332572578367771 
1883	 0.330485799680608 
1884	 0.328263574659 
1885	 0.325743492266022 
1886	 0.323165574728391 
1887	 0.320362126051454 
1888	 0.317347523338717 
1889	 0.314444025177541 
1890	 0.311344158683907 
1891	 0.308221136809329 
1892	 0.305120798728511 
1893	 0.301890917941975 
1894	 0.298492994697735 
1895	 0.29520053333188 
1896	 0.291851571997805 
1897	 0.288479734395737 
1898	 0.285393858795294 
1899	 0.282283931115929 
1900	 0.279280187036894 
1901	 0.276461387874133 
1902	 0.273545701883986 
1903	 0.270841775172104 
1904	 0.26823397290669 
1905	 0.265705750479855 
1906	 0.263273045543034 
1907	 0.261134463815682 
1908	 0.258987815739614 
1909	 0.256952975561869 
1910	 0.255062449969756 
1911	 0.253112153081886 
1912	 0.251295292187686 
1913	 0.249527852922479 
1914	 0.247775126036124 
1915	 0.246132800684309 
1916	 0.244618189059992 
1917	 0.24307400608413 
1918	 0.241593219775298 
1919	 0.240154982571602 
1920	 0.238627793282734 
1921	 0.237189092080348 
1922	 0.235753594804204 
1923	 0.234308919976216 
1924	 0.233024350008244 
1925	 0.231722278021179 
1926	 0.23045464344171 
1927	 0.229243529162189 
1928	 0.228052354345845 
1929	 0.226846159641694 
1930	 0.225732784568402 
1931	 0.224696029607113 
1932	 0.223708521714002 
1933	 0.22288165790817 
1934	 0.222151721968645 
1935	 0.221494545181923 
1936	 0.220992172578931 
1937	 0.220606344162455 
1938	 0.220327318351002 
1939	 0.22017583579997 
1940	 0.220157872833643 
1941	 0.220260186248218 
1942	 0.220461982883447 
1943	 0.220761802796956 
1944	 0.221134456690438 
1945	 0.221618286749126 
1946	 0.2222381948165 
1947	 0.222911950399947 
1948	 0.22373773284196 
1949	 0.224686255616627 
1950	 0.225708228692131 
1951	 0.226823426255157 
1952	 0.228054602909121 
1953	 0.229372031258945 
1954	 0.230818563427553 
1955	 0.232425092862623 
1956	 0.23401849906167 
1957	 0.235668118638023 
1958	 0.237321115704529 
1959	 0.238804790282095 
1960	 0.240236308067347 
1961	 0.241549336699757 
1962	 0.242733606248716 
1963	 0.243840493467302 
1964	 0.244848858045591 
1965	 0.245773753658052 
1966	 0.246603625888614 
1967	 0.24737909524404 
1968	 0.248042992904441 
1969	 0.248700539747688 
1970	 0.249329076629458 
1971	 0.249953226307127 
1972	 0.250638809448718 
1973	 0.251333162528977 
1974	 0.252068500099961 
1975	 0.252863590913044 
1976	 0.253655889476073 
1977	 0.254467550533641 
1978	 0.255300347568445 
1979	 0.25614823757243 
1980	 0.256993869095605 
1981	 0.257935980753661 
1982	 0.258848094825048 
1983	 0.259810423009617 
1984	 0.260819610710934 
1985	 0.261769475987338 
1986	 0.262804905730177 
1987	 0.263906823966459 
1988	 0.265010850096699 
1989	 0.266266458958741 
1990	 0.267635648399945 
1991	 0.269066679386797 
1992	 0.270596182765085 
1993	 0.272250547821687 
1994	 0.273852051356973 
1995	 0.275552210239675 
1996	 0.277258817914554 
1997	 0.27895265912795 
1998	 0.280687900851432 
1999	 0.282507514477073 
2000	 0.284196975955102 
2001	 0.285938717094343 
2002	 0.287492006900517 
2003	 0.288917362684218 
2004	 0.290290700065462 
2005	 0.291533309076018 
2006	 0.292744808709659 
2007	 0.29393117216333 
2008	 0.295000347710797 
2009	 0.295996186951337 
2010	 0.296925651367734 
2011	 0.297704375555079 
2012	 0.298428178110316 
2013	 0.299086289362523 
2014	 0.299651051768256 
2015	 0.30018185404593 
2016	 0.30066857234637 
2017	 0.301071797935184 
2018	 0.301421548579173 
2019	 0.301685552414367 
2020	 0.301845083382303 
2021	 0.301970436040828 
2022	 0.302049638248576 
2023	 0.302063835298243 
2024	 0.302036156298378 
2025	 0.30198937862358 
2026	 0.301895513535155 
2027	 0.301746519823316 
2028	 0.301575413975935 
2029	 0.301363404570811 
2030	 0.301131489607418 
2031	 0.300863715780537 
2032	 0.300583143673194 
2033	 0.300268608011442 
2034	 0.299961545059753 
2035	 0.299640975579814 
2036	 0.299303242691981 
2037	 0.29898686529759 
2038	 0.298654217876727 
2039	 0.298338918370468 
2040	 0.298024810745407 
2041	 0.297726585022582 
2042	 0.297436468723563 
2043	 0.297165901981034 
2044	 0.296904853448726 
2045	 0.296659505994286 
2046	 0.296446325881175 
2047	 0.296218871248899 
2048	 0.296004639829998 
2049	 0.295780889970735 
2050	 0.295549882851408 
2051	 0.2953113713918 
2052	 0.295086640896293 
2053	 0.294858590722076 
2054	 0.294644781881042 
2055	 0.294441195435225 
2056	 0.294244641461529 
2057	 0.294066808067574 
2058	 0.293869611873749 
2059	 0.29366895518953 
2060	 0.293472090181567 
2061	 0.293251957701399 
2062	 0.293063612053312 
2063	 0.29290675857623 
2064	 0.292735028724475 
2065	 0.292572181480717 
2066	 0.292407296128584 
2067	 0.29222680902828 
2068	 0.292049382265029 
2069	 0.291866325564586 
2070	 0.291678518059512 
2071	 0.291492141714467 
2072	 0.291307390615669 
2073	 0.291110179545761 
2074	 0.290916810778427 
2075	 0.290707847531519 
2076	 0.290484544694851 
2077	 0.290253325057143 
2078	 0.290016760286717 
2079	 0.289762930830416 
2080	 0.289489334134065 
2081	 0.289213659564501 
2082	 0.288924197689719 
2083	 0.288639730033371 
2084	 0.288340102605888 
2085	 0.288033567453888 
2086	 0.287687332231508 
2087	 0.287296356986854 
2088	 0.286925157446395 
2089	 0.286537422947274 
2090	 0.286148235470903 
2091	 0.285780818337311 
2092	 0.285373427727969 
2093	 0.284937801534934 
2094	 0.284494410689831 
2095	 0.284017550310206 
2096	 0.283553057811966 
2097	 0.283107897290193 
2098	 0.282617968544301 
2099	 0.282122426572497 
2100	 0.281618035018946 
2101	 0.281071869896722 
2102	 0.280493121346958 
2103	 0.279891629376519 
2104	 0.279246606994579 
2105	 0.278612280820983 
2106	 0.277957325405851 
2107	 0.277295869480865 
2108	 0.27665787113863 
2109	 0.275961751929046 
2110	 0.275222027364036 
2111	 0.274477936372262 
2112	 0.273674484354128 
2113	 0.272903748404757 
2114	 0.272156804522848 
2115	 0.271382863300281 
2116	 0.270599050245939 
2117	 0.269830948141109 
2118	 0.269029016035161 
2119	 0.268198299826182 
2120	 0.267374014979085 
2121	 0.266521097116522 
2122	 0.265713034050839 
2123	 0.264904891338485 
2124	 0.264128006886917 
2125	 0.263418619840502 
2126	 0.262650018443895 
2127	 0.261859268115847 
2128	 0.261091522900881 
2129	 0.260275988886308 
2130	 0.259524745878222 
2131	 0.258842704538269 
2132	 0.258132097331011 
2133	 0.257416170469425 
2134	 0.256744816827727 
2135	 0.256033950125843 
2136	 0.255374895239879 
2137	 0.25473658117889 
2138	 0.254122973472615 
2139	 0.253538554432654 
2140	 0.252978416149908 
2141	 0.252452925515276 
2142	 0.251975073155541 
2143	 0.251498178956365 
2144	 0.251045399231658 
2145	 0.25060883893979 
2146	 0.250169510469993 
2147	 0.249776460732619 
2148	 0.249428186024217 
2149	 0.249083503598011 
2150	 0.248777932403263 
2151	 0.248468584031009 
2152	 0.248156779763275 
2153	 0.247866881439856 
2154	 0.247597368913059 
2155	 0.247326029943621 
2156	 0.247059920207705 
2157	 0.246809316674839 
2158	 0.246549065129677 
2159	 0.246285472018148 
2160	 0.246022649120288 
2161	 0.245756467273342 
2162	 0.245504904165811 
2163	 0.245240984108097 
2164	 0.245015402277908 
2165	 0.24481768178718 
2166	 0.244625044913813 
2167	 0.244463092188445 
2168	 0.244291685533248 
2169	 0.244123273028771 
2170	 0.243956293975157 
2171	 0.243775343237068 
2172	 0.243623501435881 
2173	 0.243478926640263 
2174	 0.243357274539591 
2175	 0.243264730713633 
2176	 0.243189172400529 
2177	 0.243113271767051 
2178	 0.243049292227843 
2179	 0.242994596409357 
2180	 0.24294931502358 
2181	 0.242901802593592 
2182	 0.242867026506493 
2183	 0.242828702268356 
2184	 0.242792328031526 
2185	 0.24274638132749 
2186	 0.242706627932658 
2187	 0.242650376252958 
2188	 0.242581881915941 
2189	 0.242503577218516 
2190	 0.242416933210738 
2191	 0.24232027356561 
2192	 0.242220012263583 
2193	 0.242095028852707 
2194	 0.241963723727823 
2195	 0.241803334170762 
2196	 0.241612887599706 
2197	 0.241397974926114 
2198	 0.241188542581136 
2199	 0.240955389770933 
2200	 0.240698217108723 
2201	 0.240422353172106 
2202	 0.240141507220636 
2203	 0.239847369235207 
2204	 0.239515908900323 
2205	 0.239171307617601 
2206	 0.238797531350406 
2207	 0.238375319768658 
2208	 0.237947020389078 
2209	 0.237526485674621 
2210	 0.237052160155553 
2211	 0.236517214179459 
2212	 0.236004247809932 
2213	 0.23545650926927 
2214	 0.234925278999046 
2215	 0.234436511595616 
2216	 0.233890752125154 
2217	 0.233318110161461 
2218	 0.23273532163117 
2219	 0.232125542134774 
2220	 0.231494360511551 
2221	 0.230850574433483 
2222	 0.230189467250448 
2223	 0.229522089179213 
2224	 0.228776904502265 
2225	 0.228002836590407 
2226	 0.227152262245541 
2227	 0.22613523987033 
2228	 0.224989284536373 
2229	 0.223774368005415 
2230	 0.222415256900579 
2231	 0.221000214109719 
2232	 0.219545092479989 
2233	 0.217914470131594 
2234	 0.21618993560306 
2235	 0.214279109332037 
2236	 0.212192739734129 
2237	 0.21001571822221 
2238	 0.207611904370645 
2239	 0.205230095994039 
2240	 0.202815484274114 
2241	 0.200253707336331 
2242	 0.197683328179376 
2243	 0.194895484100418 
2244	 0.191841190554391 
2245	 0.188826835398736 
2246	 0.185596956596103 
2247	 0.18247987428709 
2248	 0.179435314903916 
2249	 0.176338494206048 
2250	 0.173237506480424 
2251	 0.170188864020406 
2252	 0.166926264575963 
2253	 0.163776991064472 
2254	 0.160636296179717 
2255	 0.157469456863866 
2256	 0.154595553499436 
2257	 0.151728271446633 
2258	 0.148992375607221 
2259	 0.14641221660607 
2260	 0.143851215019118 
2261	 0.141325651543698 
2262	 0.138983226319661 
2263	 0.136694110640188 
2264	 0.134614738380389 
2265	 0.132753059316114 
2266	 0.130940720975582 
2267	 0.129303338035911 
2268	 0.127690991846678 
2269	 0.126175712810475 
2270	 0.12469967285202 
2271	 0.123271873035161 
2272	 0.121915767377838 
2273	 0.12066680797947 
2274	 0.119387759595607 
2275	 0.118227044754343 
2276	 0.116948054171513 
2277	 0.11562807201716 
2278	 0.114266960739428 
2279	 0.112786634598251 
2280	 0.111346325383401 
2281	 0.109901924066388 
2282	 0.108442123744077 
2283	 0.106983655716025 
2284	 0.105549104041541 
2285	 0.103989458555013 
2286	 0.102463112607999 
2287	 0.100861312711964 
2288	 9.92372021761986E-02 
2289	 9.77836631516136E-02 
2290	 9.62815263747285E-02 
2291	 9.48538659376777E-02 
2292	 9.35868873536312E-02 
2293	 9.22631614486151E-02 
2294	 9.10059035817649E-02 
2295	 0.089882336661789 
2296	 8.88776611354202E-02 
2297	 8.80750027092687E-02 
2298	 8.74640373679754E-02 
2299	 8.69840881503535E-02 
2300	 8.66607411582808E-02 
2301	 8.65281350271024E-02 
2302	 8.65714749663529E-02 
2303	 8.67853799491821E-02 
2304	 0.087220165596416 
2305	 8.77639949730728E-02 
2306	 8.84734197170913E-02 
2307	 0.089304344577214 
2308	 9.02599893054521E-02 
2309	 9.14174598015594E-02 
2310	 9.27736834226624E-02 
2311	 9.42098202536318E-02 
2312	 9.58990955624389E-02 
2313	 0.097544334176564 
2314	 9.92721371425997E-02 
2315	 0.101019451044617 
2316	 0.102839043560995 
2317	 0.104601356443815 
2318	 0.106493738721041 
2319	 0.108090842710993 
2320	 0.109629883117382 
2321	 0.110912626305767 
2322	 0.111924631111853 
2323	 0.112801652326155 
2324	 0.113464315330379 
2325	 0.11399017405123 
2326	 0.114326743312506 
2327	 0.11453218611852 
2328	 0.114567475339136 
2329	 0.114501789001349 
2330	 0.114282625121836 
2331	 0.113941730982717 
2332	 0.113547784872391 
2333	 0.112975265161254 
2334	 0.112326479290842 
2335	 0.111681407134719 
2336	 0.110897833424305 
2337	 0.110091620550712 
2338	 0.109331409809834 
2339	 0.108480555339094 
2340	 0.107679907205094 
2341	 0.10699397181661 
2342	 0.106304682126275 
2343	 0.105719114962504 
2344	 0.105278216610709 
2345	 0.104971431280418 
2346	 0.104844190040828 
2347	 0.104909749620254 
2348	 0.105131681766604 
2349	 0.105548355641663 
2350	 0.10618163248161 
2351	 0.10697731024513 
2352	 0.10790647376476 
2353	 0.108991874096643 
2354	 0.110078501641235 
2355	 0.111146703441723 
2356	 0.112158416248073 
2357	 0.113025911348574 
2358	 0.113772280042521 
2359	 0.114382422762077 
2360	 0.11490217513821 
2361	 0.115273051389309 
2362	 0.115519700009535 
2363	 0.11566145439756 
2364	 0.115752170736369 
2365	 0.115804229311647 
2366	 0.115785524890678 
2367	 0.115787194105756 
2368	 0.115768975619593 
2369	 0.115685636809924 
2370	 0.115640120005741 
2371	 0.115586215778123 
2372	 0.115478028664315 
2373	 0.115412560681562 
2374	 0.115333805360606 
2375	 0.115252005598723 
2376	 0.115161123596373 
2377	 0.114966038703488 
2378	 0.114778732887849 
2379	 0.114560021518228 
2380	 0.114258213279099 
2381	 0.114036844795016 
2382	 0.113839536314988 
2383	 0.113658455020495 
2384	 0.113453361871624 
2385	 0.113293805489406 
2386	 0.113107858132837 
2387	 0.11285619015024 
2388	 0.112684144296872 
2389	 0.112587609202752 
2390	 0.112415332852701 
2391	 0.112220941000146 
2392	 0.112049134928252 
2393	 0.111864256187556 
2394	 0.111689382107806 
2395	 0.111496088750162 
2396	 0.111396626544058 
2397	 0.11135203089782 
2398	 0.111266207910214 
2399	 0.111251316045269 
2400	 0.111201374327424 
2401	 0.111082563057196 
2402	 0.111019535454803 
2403	 0.110999239825089 
2404	 0.110890339183602 
2405	 0.110747262362475 
2406	 0.110697632432459 
2407	 0.110682519711289 
2408	 0.110737216932054 
2409	 0.110772868783312 
2410	 0.110790570651007 
2411	 0.110798848729468 
2412	 0.110730812136079 
2413	 0.110677737164343 
2414	 0.110641224446358 
2415	 0.110651137346153 
2416	 0.110727303751012 
2417	 0.110805040071143 
2418	 0.110841415467477 
2419	 0.11079452933549 
2420	 0.110748536196466 
2421	 0.110767762088991 
2422	 0.110811282780427 
2423	 0.110869975717221 
2424	 0.110891907276889 
2425	 0.11084422774325 
2426	 0.110829228225145 
2427	 0.110807044860595 
2428	 0.11078259406476 
2429	 0.110894460575744 
2430	 0.110846966612859 
2431	 0.110679837589385 
2432	 0.110620004351947 
2433	 0.110511195758386 
2434	 0.110449502054474 
2435	 0.110401312382454 
2436	 0.110298429970837 
2437	 0.110086576776687 
2438	 0.10976977530509 
2439	 0.109644131564214 
2440	 0.109571116827558 
2441	 0.109432295625791 
2442	 0.109455961050786 
2443	 0.109341353566544 
2444	 0.108972915793166 
2445	 0.108656288965209 
2446	 0.108386605325138 
2447	 0.10818413066535 
2448	 0.108038830945295 
2449	 0.107832401116842 
2450	 0.10764571633368 
2451	 0.107446536800361 
2452	 0.107174916616375 
2453	 0.107097620669811 
2454	 0.106913260036875 
2455	 0.106623796827973 
2456	 0.106560519887814 
2457	 0.106315311543153 
2458	 0.105962182265749 
2459	 0.105663115696015 
2460	 0.105328134143794 
2461	 0.105100746649378 
2462	 0.104926042688301 
2463	 0.104757606306073 
2464	 0.104747522075562 
2465	 0.104796373137194 
2466	 0.104850689080242 
2467	 0.104900557908517 
2468	 0.104774695903488 
2469	 0.104483504497878 
2470	 0.104185036063133 
2471	 0.10412065992868 
2472	 0.104133887941981 
2473	 0.104205950795748 
2474	 0.104566553993693 
2475	 0.104743398964808 
2476	 0.104754396928635 
2477	 0.104875144013155 
2478	 0.104830535156821 
2479	 0.104938968729829 
2480	 0.105410022857992 
2481	 0.105685033960845 
2482	 0.106020513677175 
2483	 0.106097032724887 
2484	 0.106147183460247 
2485	 0.106128741593068 
2486	 0.106272133750037 
2487	 0.106484962655691 
2488	 0.10663451846828 
2489	 0.107015046622171 
2490	 0.107406462787647 
2491	 0.107851992985871 
2492	 0.10842402807988 
2493	 0.108759334104337 
2494	 0.108977328049878 
2495	 0.109212756647107 
2496	 0.109442801882863 
2497	 0.10961438882783 
2498	 0.10984373637567 
2499	 0.110205333258341 
2500	 0.110541204468389 
