Wavelength	spectrum00024.asd
350	 0.109861144043679 
351	 0.106878258051236 
352	 0.103027112736804 
353	 9.97790100361922E-02 
354	 9.84321008312302E-02 
355	 9.90158974697508E-02 
356	 0.098048400316939 
357	 9.38238047736374E-02 
358	 0.091750291667325 
359	 9.00399774872582E-02 
360	 8.86546431059885E-02 
361	 8.82659812944889E-02 
362	 8.79405114698229E-02 
363	 8.63853368893735E-02 
364	 8.37521906329764E-02 
365	 8.19919721766443E-02 
366	 8.21704986014393E-02 
367	 8.24151529131889E-02 
368	 8.13075145093208E-02 
369	 0.081437674378486 
370	 8.11655488872379E-02 
371	 8.03044994956351E-02 
372	 7.95237258696534E-02 
373	 7.89330334363622E-02 
374	 7.80203451518052E-02 
375	 7.70857738519174E-02 
376	 7.76630087814524E-02 
377	 7.83328669141315E-02 
378	 0.077420246351551 
379	 7.47246615056137E-02 
380	 0.074998416490847 
381	 7.54460982656679E-02 
382	 7.49439255312954E-02 
383	 7.37473496185785E-02 
384	 7.39273021330514E-02 
385	 7.42562927093158E-02 
386	 7.37322561471163E-02 
387	 7.22525229648985E-02 
388	 7.16367406387187E-02 
389	 0.071871685415073 
390	 7.21004130967102E-02 
391	 7.05498980641233E-02 
392	 6.93843545690597E-02 
393	 6.93297489806591E-02 
394	 6.99114052910695E-02 
395	 6.96700337762018E-02 
396	 0.069107697249229 
397	 6.86716958225489E-02 
398	 6.82506181343773E-02 
399	 0.06762146330709 
400	 6.70234276536188E-02 
401	 6.67091108435252E-02 
402	 0.066353224743683 
403	 0.066447477696379 
404	 6.65500292651908E-02 
405	 6.56679078299782E-02 
406	 6.52998099686684E-02 
407	 6.52333051091021E-02 
408	 0.065115771906559 
409	 6.48780102668524E-02 
410	 6.42245655526538E-02 
411	 6.38414203644055E-02 
412	 6.43637289986845E-02 
413	 6.46285508661212E-02 
414	 6.42145814876437E-02 
415	 6.35518106860792E-02 
416	 6.37046640843069E-02 
417	 6.37890915115267E-02 
418	 0.063972422188868 
419	 6.43461289617251E-02 
420	 6.44146103341102E-02 
421	 6.42305166161726E-02 
422	 6.41768529830836E-02 
423	 6.45973709604941E-02 
424	 6.46558941219586E-02 
425	 6.45468310303462E-02 
426	 6.45507815696273E-02 
427	 6.49362911452973E-02 
428	 6.49661604515021E-02 
429	 0.06504726777475 
430	 6.55232055920067E-02 
431	 6.57336493592756E-02 
432	 6.60485047276345E-02 
433	 6.63967055423065E-02 
434	 6.65169976297049E-02 
435	 6.68351706910341E-02 
436	 6.72111680179502E-02 
437	 6.75562090587242E-02 
438	 6.79616175064179E-02 
439	 6.84343629869738E-02 
440	 6.89417510711374E-02 
441	 6.94559619533835E-02 
442	 7.00455057114154E-02 
443	 7.05674877145446E-02 
444	 7.10626285521901E-02 
445	 7.16990360212086E-02 
446	 7.21282698164021E-02 
447	 7.25591201710383E-02 
448	 7.31643198820535E-02 
449	 7.38450486009766E-02 
450	 7.45339130663829E-02 
451	 7.52188862494836E-02 
452	 7.59159928488751E-02 
453	 0.076627126935549 
454	 0.077404134958567 
455	 7.82488743666396E-02 
456	 7.91078341376255E-02 
457	 7.99554770438405E-02 
458	 8.07727432389893E-02 
459	 8.16045703765452E-02 
460	 8.26809019656935E-02 
461	 8.37282413652278E-02 
462	 8.46782167456659E-02 
463	 8.56021071783483E-02 
464	 8.66444561764756E-02 
465	 8.77203490592323E-02 
466	 8.87687289092005E-02 
467	 8.98016483459892E-02 
468	 9.10509664678603E-02 
469	 9.22930286205614E-02 
470	 9.33336883253914E-02 
471	 9.46894142060593E-02 
472	 9.60127290397999E-02 
473	 9.72842489694698E-02 
474	 9.87425351520652E-02 
475	 0.100086128383851 
476	 0.101442921509422 
477	 0.102934621828116 
478	 0.104524772503834 
479	 0.106138831046626 
480	 0.107770188128975 
481	 0.109435428834741 
482	 0.11108469198255 
483	 0.11283219791521 
484	 0.114663154212591 
485	 0.116404987618209 
486	 0.11833513839937 
487	 0.1203225496073 
488	 0.122235346366507 
489	 0.124242616643176 
490	 0.126354397041746 
491	 0.128549797812753 
492	 0.130785594990067 
493	 0.13301434728 
494	 0.13526554750558 
495	 0.137596121247372 
496	 0.140099903331541 
497	 0.142524205548403 
498	 0.144970641736658 
499	 0.147582398325515 
500	 0.150174571647145 
501	 0.152724234284286 
502	 0.155298759383162 
503	 0.158030610870932 
504	 0.160843669415144 
505	 0.16366167185957 
506	 0.166465082284001 
507	 0.169368703568784 
508	 0.17227911735291 
509	 0.175185247901514 
510	 0.178110499107848 
511	 0.181050470608606 
512	 0.184062773858819 
513	 0.187127796655523 
514	 0.190134347984909 
515	 0.193129286416416 
516	 0.196150991309949 
517	 0.199213690818993 
518	 0.202249632957216 
519	 0.20526755466536 
520	 0.208316958341187 
521	 0.21145312459391 
522	 0.214485755208524 
523	 0.217481936673937 
524	 0.22051074399171 
525	 0.223588524305234 
526	 0.226594396531897 
527	 0.229575392508926 
528	 0.232617382410674 
529	 0.235635312434105 
530	 0.238616180736827 
531	 0.241563997534056 
532	 0.244492580350944 
533	 0.247438606302609 
534	 0.250387387126768 
535	 0.253294693880356 
536	 0.256066766945642 
537	 0.258905274889627 
538	 0.26178662940207 
539	 0.264573978894551 
540	 0.267362794259803 
541	 0.270151045463589 
542	 0.272916734131865 
543	 0.275616522859075 
544	 0.278303627341748 
545	 0.28093958196014 
546	 0.283513354898075 
547	 0.286253559869566 
548	 0.289102902053632 
549	 0.29202230482106 
550	 0.294994906021046 
551	 0.297943612541492 
552	 0.300935666034166 
553	 0.304007148174317 
554	 0.307034094254632 
555	 0.310094230172361 
556	 0.3132093244321 
557	 0.31635179843023 
558	 0.319352220987726 
559	 0.322337468829224 
560	 0.325365230536032 
561	 0.328358207581388 
562	 0.331200201245303 
563	 0.333782784424387 
564	 0.336092630332974 
565	 0.338400759902358 
566	 0.340745837722789 
567	 0.343115448079131 
568	 0.345487704188215 
569	 0.348262578228519 
570	 0.35128559783498 
571	 0.354354827890658 
572	 0.357389847301935 
573	 0.360266160676432 
574	 0.362895918791988 
575	 0.365228068647538 
576	 0.367249628584786 
577	 0.36899156151819 
578	 0.370595424167241 
579	 0.372313150384587 
580	 0.374280912958896 
581	 0.376518620554405 
582	 0.378981499262328 
583	 0.381569535005224 
584	 0.384213294329834 
585	 0.386900844198753 
586	 0.389626470079787 
587	 0.392053547603407 
588	 0.394353792067314 
589	 0.396727044382345 
590	 0.399300099629104 
591	 0.401940776827224 
592	 0.40461596198318 
593	 0.407330087393339 
594	 0.410146318260611 
595	 0.412762693639107 
596	 0.415137561797422 
597	 0.417463737659205 
598	 0.419774734067272 
599	 0.422043862627146 
600	 0.424250745572739 
601	 0.426403036663856 
602	 0.428630316621507 
603	 0.430916296142389 
604	 0.433182600625302 
605	 0.43546937285404 
606	 0.437739828851679 
607	 0.43994880552653 
608	 0.44204408645354 
609	 0.444119869114009 
610	 0.446159988274259 
611	 0.448144830923922 
612	 0.450113110494869 
613	 0.45217171451462 
614	 0.454231369993122 
615	 0.456111770697662 
616	 0.458077482235034 
617	 0.460071468501686 
618	 0.462033070557281 
619	 0.463979249818985 
620	 0.465921226913658 
621	 0.467792937273296 
622	 0.46955790000232 
623	 0.471440686102809 
624	 0.47333899904208 
625	 0.475190391469791 
626	 0.476989444139372 
627	 0.478780734834364 
628	 0.480560757120688 
629	 0.482320506016391 
630	 0.484055605986199 
631	 0.485775057404638 
632	 0.487506806951233 
633	 0.48927209062763 
634	 0.49101387019787 
635	 0.492695976600683 
636	 0.494328888250274 
637	 0.495970734130199 
638	 0.49754492341502 
639	 0.499173464475876 
640	 0.50091360205912 
641	 0.502448413778499 
642	 0.504029746020773 
643	 0.505719326701404 
644	 0.507429785185734 
645	 0.508896546451106 
646	 0.510318015094233 
647	 0.511846858336115 
648	 0.513469208146325 
649	 0.514915668676594 
650	 0.516340638185486 
651	 0.51793713561157 
652	 0.51944369001751 
653	 0.520927887221821 
654	 0.522407949550914 
655	 0.523860724551681 
656	 0.525409019215865 
657	 0.526865362609653 
658	 0.528164023257509 
659	 0.529592754982632 
660	 0.531137549865241 
661	 0.53265191153502 
662	 0.533989794337533 
663	 0.535347414671566 
664	 0.536828814946664 
665	 0.538335778207202 
666	 0.539592787188602 
667	 0.540919453685914 
668	 0.542325733368499 
669	 0.54374273670933 
670	 0.545063529454143 
671	 0.546490269257437 
672	 0.547939701301241 
673	 0.549234712662343 
674	 0.550525816962931 
675	 0.551836827562984 
676	 0.55315601060674 
677	 0.554441438045368 
678	 0.555717933258209 
679	 0.556985386274962 
680	 0.558251239688154 
681	 0.559576937762911 
682	 0.560839137462174 
683	 0.562038407976857 
684	 0.563249134428558 
685	 0.564496140595575 
686	 0.565797407069284 
687	 0.567112408951049 
688	 0.568327631002561 
689	 0.56938192104585 
690	 0.57048487580203 
691	 0.571789418142063 
692	 0.572994803373707 
693	 0.574158818900002 
694	 0.575315887980486 
695	 0.576486687098612 
696	 0.577715707839403 
697	 0.578928083321652 
698	 0.580094140699015 
699	 0.581284476000297 
700	 0.582326955800017 
701	 0.583321153323911 
702	 0.584432838327183 
703	 0.585781986676175 
704	 0.586934608278238 
705	 0.587882530229907 
706	 0.588914317469878 
707	 0.589963155034351 
708	 0.59109757063567 
709	 0.592285170596647 
710	 0.593305242199056 
711	 0.594323578310071 
712	 0.595372847900415 
713	 0.596433089216894 
714	 0.597433842235048 
715	 0.598498060677781 
716	 0.599552627406231 
717	 0.600416449105579 
718	 0.601368648836286 
719	 0.602430416421086 
720	 0.603513439055345 
721	 0.604409844700837 
722	 0.605302119859637 
723	 0.606218309571357 
724	 0.607149952991781 
725	 0.608137360534858 
726	 0.609180087654238 
727	 0.610184380100004 
728	 0.611016614963336 
729	 0.611814240186518 
730	 0.612675371827507 
731	 0.613625615286467 
732	 0.614590538515171 
733	 0.615488039408478 
734	 0.616359753400716 
735	 0.617276843222396 
736	 0.618271739028939 
737	 0.619111866670608 
738	 0.619864726440373 
739	 0.62076129689886 
740	 0.621536900623602 
741	 0.622196527641124 
742	 0.622867680358078 
743	 0.623806617263269 
744	 0.624659058268426 
745	 0.625385326025684 
746	 0.626059118819373 
747	 0.626799400768852 
748	 0.627632130254848 
749	 0.628464885985919 
750	 0.629166396511075 
751	 0.629909040959739 
752	 0.630562296929937 
753	 0.631128947137342 
754	 0.631816405544568 
755	 0.632594875790313 
756	 0.633376344794131 
757	 0.634089106933691 
758	 0.634751476177695 
759	 0.635413988699365 
760	 0.636107910774949 
761	 0.636818318191277 
762	 0.63731343526263 
763	 0.637931819244294 
764	 0.638721520066883 
765	 0.639386622869607 
766	 0.640009603809797 
767	 0.640680100590967 
768	 0.641396170261329 
769	 0.641924600868814 
770	 0.642500450874807 
771	 0.643139097712489 
772	 0.643778403322243 
773	 0.644412952604307 
774	 0.645002840245343 
775	 0.645575552314979 
776	 0.646201622230696 
777	 0.646744199076373 
778	 0.647407755234732 
779	 0.648171876434075 
780	 0.648554734561673 
781	 0.649099684537735 
782	 0.649729444541811 
783	 0.650255285612305 
784	 0.650755401355742 
785	 0.651289921362677 
786	 0.651880448553052 
787	 0.652502105584364 
788	 0.653000311300813 
789	 0.653529049558899 
790	 0.654137001798092 
791	 0.654714133340283 
792	 0.655252416476023 
793	 0.655748262597646 
794	 0.656219090310297 
795	 0.65671977850388 
796	 0.65723672643387 
797	 0.657747251165107 
798	 0.658238905742893 
799	 0.658777159918602 
800	 0.659282068127449 
801	 0.659793416699086 
802	 0.660424055260606 
803	 0.661015931026951 
804	 0.661490589142286 
805	 0.661890554858557 
806	 0.662411878555477 
807	 0.662954562505968 
808	 0.663478077472086 
809	 0.663961473634811 
810	 0.66439791064091 
811	 0.664829820530151 
812	 0.665296699275838 
813	 0.665820838516077 
814	 0.666353980419299 
815	 0.666885070313482 
816	 0.667372839656213 
817	 0.667759693435932 
818	 0.668112157192894 
819	 0.668585182142292 
820	 0.669160321485553 
821	 0.669526421573727 
822	 0.669893504136226 
823	 0.670313169570197 
824	 0.670785971411718 
825	 0.671309860154542 
826	 0.671665925839859 
827	 0.671979793751506 
828	 0.672475078944933 
829	 0.672922356611054 
830	 0.673278636119664 
831	 0.673610846995311 
832	 0.674051965137411 
833	 0.674440774935503 
834	 0.674896075090922 
835	 0.675409150214286 
836	 0.675724184094292 
837	 0.676023626455937 
838	 0.676351615859044 
839	 0.676695759556802 
840	 0.67697029617775 
841	 0.677385125334173 
842	 0.677869305928199 
843	 0.678260378412736 
844	 0.678593034668963 
845	 0.678855130654352 
846	 0.679154212213965 
847	 0.679644529133156 
848	 0.680117369345125 
849	 0.680528690449845 
850	 0.680898248076295 
851	 0.681294733070692 
852	 0.681651519865384 
853	 0.682054679527218 
854	 0.682543528980998 
855	 0.683003486669665 
856	 0.683361528601394 
857	 0.683642564743664 
858	 0.683940949606923 
859	 0.684458597268364 
860	 0.684899089832126 
861	 0.685214885925957 
862	 0.685508152501706 
863	 0.68586709452839 
864	 0.686208487342682 
865	 0.686494827645793 
866	 0.68676017126481 
867	 0.687201807101179 
868	 0.687739319749335 
869	 0.688217859640197 
870	 0.688459794819084 
871	 0.688707149737825 
872	 0.689083677399043 
873	 0.689571670392899 
874	 0.689913014644253 
875	 0.690346888474799 
876	 0.690770001930138 
877	 0.691067735678564 
878	 0.691487719189842 
879	 0.691766905587596 
880	 0.691955908568485 
881	 0.692248188972329 
882	 0.692677358856823 
883	 0.693112691556053 
884	 0.693457879051604 
885	 0.693682946660347 
886	 0.693932068920711 
887	 0.694262639162761 
888	 0.694641336515135 
889	 0.694951769594426 
890	 0.695221873281376 
891	 0.695517837614215 
892	 0.695850895602838 
893	 0.696128657958779 
894	 0.696351246356357 
895	 0.696642543747473 
896	 0.697053673503405 
897	 0.69737990281875 
898	 0.697583292215709 
899	 0.697799455251945 
900	 0.698165891808999 
901	 0.698558811589302 
902	 0.699010915811397 
903	 0.699404860171947 
904	 0.699624106997363 
905	 0.699933827349623 
906	 0.700367508965247 
907	 0.700806888821747 
908	 0.701091330165943 
909	 0.701533932722982 
910	 0.701997512213513 
911	 0.702407232797553 
912	 0.702798702855804 
913	 0.703143151284175 
914	 0.703542702285419 
915	 0.704011798749077 
916	 0.704428207953971 
917	 0.704921293691288 
918	 0.705332460415737 
919	 0.705608158931301 
920	 0.705985542120256 
921	 0.706362671860702 
922	 0.706796856793771 
923	 0.707291107090329 
924	 0.707626069910269 
925	 0.707917988766833 
926	 0.708273532170735 
927	 0.708713593949887 
928	 0.708975859718383 
929	 0.709352773466567 
930	 0.709877291834641 
931	 0.710409976033229 
932	 0.710630743311913 
933	 0.710902902932097 
934	 0.71131281393261 
935	 0.711753106337701 
936	 0.712075398781159 
937	 0.712426398618268 
938	 0.71277899483677 
939	 0.713013349523494 
940	 0.713328086814112 
941	 0.713642627167263 
942	 0.713883295515126 
943	 0.714037173267596 
944	 0.714335456618392 
945	 0.714658818603942 
946	 0.714896492126822 
947	 0.715017994776959 
948	 0.715197906408517 
949	 0.715414506123431 
950	 0.7156330368491 
951	 0.715841071123771 
952	 0.715983632603847 
953	 0.716098028508534 
954	 0.716223728288088 
955	 0.716375066355959 
956	 0.716633175993636 
957	 0.716800514208486 
958	 0.71677508343124 
959	 0.716718204988042 
960	 0.716843573547681 
961	 0.717116301946132 
962	 0.717403165831493 
963	 0.71753549146475 
964	 0.717659281798755 
965	 0.717781304537952 
966	 0.717918659146224 
967	 0.718189247976485 
968	 0.718440107833538 
969	 0.718719621965274 
970	 0.719037582356675 
971	 0.719162012852778 
972	 0.719293455151893 
973	 0.719448251658355 
974	 0.719600416692183 
975	 0.719761475191648 
976	 0.720073590928463 
977	 0.720386226618083 
978	 0.72056385988693 
979	 0.720829186423771 
980	 0.721041151598483 
981	 0.721137596326875 
982	 0.721152200324526 
983	 0.721306125174059 
984	 0.721570577670252 
985	 0.721832090612499 
986	 0.722034485406946 
987	 0.722423878465122 
988	 0.722818085882802 
989	 0.723070972865266 
990	 0.72315359122704 
991	 0.72333116094744 
992	 0.723643492869225 
993	 0.723960681840368 
994	 0.724198077586706 
995	 0.72466358371707 
996	 0.725112112518402 
997	 0.725468053999212 
998	 0.725777922236563 
999	 0.726240325666606 
1000	 0.726769197650046 
1001	 0.700353134111854 
1002	 0.700760486073568 
1003	 0.701207057069111 
1004	 0.701598724242361 
1005	 0.702005377937906 
1006	 0.702390771785717 
1007	 0.702704883283605 
1008	 0.7030901442741 
1009	 0.70353554664748 
1010	 0.703932900512486 
1011	 0.704347319494556 
1012	 0.704717305274744 
1013	 0.705031798248836 
1014	 0.705364939734832 
1015	 0.705653128790742 
1016	 0.706004614142526 
1017	 0.706403293792015 
1018	 0.706784332964126 
1019	 0.707206428529456 
1020	 0.707603227093753 
1021	 0.708005623883669 
1022	 0.708407553834901 
1023	 0.708816858153718 
1024	 0.709233234949781 
1025	 0.709642913703136 
1026	 0.710041447683677 
1027	 0.710445660581088 
1028	 0.710861284110449 
1029	 0.711266849691218 
1030	 0.711657750987191 
1031	 0.712028565569981 
1032	 0.712361117127114 
1033	 0.712715282311569 
1034	 0.713072118468546 
1035	 0.713389054281952 
1036	 0.713738702398019 
1037	 0.714101200231825 
1038	 0.714457159812936 
1039	 0.71484196654128 
1040	 0.715201535134662 
1041	 0.715533335318225 
1042	 0.715878888944984 
1043	 0.716253770730342 
1044	 0.716555608597867 
1045	 0.716823981020371 
1046	 0.717108752938475 
1047	 0.717330303873799 
1048	 0.717539651543626 
1049	 0.717758233097865 
1050	 0.718022091505423 
1051	 0.718328878575078 
1052	 0.718620895232007 
1053	 0.718931253396674 
1054	 0.719316786280937 
1055	 0.719615043094657 
1056	 0.719864252950652 
1057	 0.720128245947356 
1058	 0.720376603596785 
1059	 0.720608340483273 
1060	 0.720846826011096 
1061	 0.721072529396201 
1062	 0.721297778720466 
1063	 0.721490074951115 
1064	 0.721651568787055 
1065	 0.721857562650661 
1066	 0.722039185484794 
1067	 0.722194217270724 
1068	 0.722415373376073 
1069	 0.722588598623204 
1070	 0.722761851275847 
1071	 0.722922994555725 
1072	 0.723155627991531 
1073	 0.723332937155228 
1074	 0.723525492707141 
1075	 0.723752494858408 
1076	 0.7239367137014 
1077	 0.724141400604162 
1078	 0.724335334774007 
1079	 0.724544700964983 
1080	 0.724744258436882 
1081	 0.7248911302698 
1082	 0.725045975616317 
1083	 0.725195777127079 
1084	 0.725351445771771 
1085	 0.725525263041837 
1086	 0.725685821472654 
1087	 0.725855166448222 
1088	 0.726001984005268 
1089	 0.726121507258427 
1090	 0.72622173048929 
1091	 0.726313832718516 
1092	 0.726418056745111 
1093	 0.726547789841388 
1094	 0.726694952707382 
1095	 0.726835097055446 
1096	 0.726962246046264 
1097	 0.727062567282863 
1098	 0.72713777650316 
1099	 0.72719606563699 
1100	 0.72727023247004 
1101	 0.727369384058624 
1102	 0.727443658137556 
1103	 0.727516119523812 
1104	 0.727590100636301 
1105	 0.72767307079797 
1106	 0.727735173201406 
1107	 0.727811559408429 
1108	 0.72791059778536 
1109	 0.727960038841455 
1110	 0.727984851306663 
1111	 0.728021794789037 
1112	 0.728037399355737 
1113	 0.728063718389708 
1114	 0.728120052135859 
1115	 0.728142161337481 
1116	 0.728145451272517 
1117	 0.728180214754888 
1118	 0.728180255258648 
1119	 0.728155144677237 
1120	 0.728123755821597 
1121	 0.72809274586052 
1122	 0.728009526514438 
1123	 0.727937493293559 
1124	 0.727867372135848 
1125	 0.727785602994402 
1126	 0.727711541468555 
1127	 0.727615554224178 
1128	 0.727492268568887 
1129	 0.727320982255515 
1130	 0.72712500360237 
1131	 0.726896633217445 
1132	 0.726645569192273 
1133	 0.726397339956814 
1134	 0.726111703088823 
1135	 0.725819653621702 
1136	 0.725515043055985 
1137	 0.725189892209889 
1138	 0.724871499005571 
1139	 0.724490719730753 
1140	 0.724072210279402 
1141	 0.723629642814201 
1142	 0.723132167987949 
1143	 0.722627453745454 
1144	 0.722088016886091 
1145	 0.721467172795711 
1146	 0.720842086418545 
1147	 0.72016783896618 
1148	 0.719456192604904 
1149	 0.718753518679954 
1150	 0.717973935443693 
1151	 0.71717236404095 
1152	 0.71632605284984 
1153	 0.71543530207241 
1154	 0.714500308755245 
1155	 0.713536782738137 
1156	 0.712506381011324 
1157	 0.711421447679182 
1158	 0.71032098994453 
1159	 0.709169622164655 
1160	 0.707999030503051 
1161	 0.706793173202782 
1162	 0.705506276311065 
1163	 0.704247746322754 
1164	 0.702957446817361 
1165	 0.701660767426574 
1166	 0.700466407479259 
1167	 0.699265331316128 
1168	 0.6980987206928 
1169	 0.69697839494174 
1170	 0.695873207543304 
1171	 0.694864105769851 
1172	 0.693901650987114 
1173	 0.693011475382337 
1174	 0.692220856119716 
1175	 0.691488404048877 
1176	 0.690792189451217 
1177	 0.690186668769459 
1178	 0.689679679223137 
1179	 0.689180881758952 
1180	 0.68878412406028 
1181	 0.688482236223318 
1182	 0.688253809447006 
1183	 0.688111168050083 
1184	 0.688018222270651 
1185	 0.687957606339595 
1186	 0.687941256156667 
1187	 0.687972215880356 
1188	 0.688032255306937 
1189	 0.688151354816149 
1190	 0.688261160801928 
1191	 0.68840247134582 
1192	 0.688533946732025 
1193	 0.688674416955272 
1194	 0.688807562003596 
1195	 0.688930331840248 
1196	 0.689074122762043 
1197	 0.68922737857549 
1198	 0.68937942237394 
1199	 0.689547630962503 
1200	 0.689705267180339 
1201	 0.68983946731921 
1202	 0.689974862014353 
1203	 0.690144081014261 
1204	 0.690351139671801 
1205	 0.690618492200932 
1206	 0.690911671702544 
1207	 0.691321274933965 
1208	 0.691794565279897 
1209	 0.69235760344382 
1210	 0.693058550503124 
1211	 0.693744041897353 
1212	 0.694499169955507 
1213	 0.695252886560861 
1214	 0.696038806578565 
1215	 0.696821390639105 
1216	 0.697660075155707 
1217	 0.69842456778035 
1218	 0.699171153480975 
1219	 0.699885216704009 
1220	 0.700509288380915 
1221	 0.701148489642167 
1222	 0.701736435212878 
1223	 0.702275622170135 
1224	 0.702799548778162 
1225	 0.703291418377101 
1226	 0.703753710358332 
1227	 0.70416956673705 
1228	 0.7046080248968 
1229	 0.705019530325843 
1230	 0.705455052530646 
1231	 0.705887546282515 
1232	 0.706360160255854 
1233	 0.706855541203258 
1234	 0.70735014901918 
1235	 0.707876432658813 
1236	 0.708403057352344 
1237	 0.708926597747136 
1238	 0.709458890202942 
1239	 0.710008631636492 
1240	 0.710557973124696 
1241	 0.711130993240245 
1242	 0.711655010630864 
1243	 0.712197776402446 
1244	 0.712756818250871 
1245	 0.713281425651523 
1246	 0.713814039901057 
1247	 0.714277027571166 
1248	 0.714703139777271 
1249	 0.715099765532032 
1250	 0.715445971354883 
1251	 0.715769374682541 
1252	 0.716085815533992 
1253	 0.716341814429672 
1254	 0.71653434812507 
1255	 0.716722087539273 
1256	 0.716870089103573 
1257	 0.717006363224464 
1258	 0.717114689252653 
1259	 0.717224822663874 
1260	 0.717308383358636 
1261	 0.71740207075496 
1262	 0.717499447100427 
1263	 0.717601340378736 
1264	 0.717700383758827 
1265	 0.71780110702601 
1266	 0.717898694239293 
1267	 0.717991543323181 
1268	 0.718093240389547 
1269	 0.718198603368934 
1270	 0.718299825709437 
1271	 0.718413404051371 
1272	 0.718505964782676 
1273	 0.718578277595401 
1274	 0.718663828088745 
1275	 0.718742095938489 
1276	 0.718828148614309 
1277	 0.718924152510691 
1278	 0.719018633224845 
1279	 0.7191193628498 
1280	 0.719210523489104 
1281	 0.7193022725671 
1282	 0.719386964011153 
1283	 0.719469890498541 
1284	 0.719536397573629 
1285	 0.719592458106617 
1286	 0.719633547601108 
1287	 0.719692117835624 
1288	 0.719746200152647 
1289	 0.71979620989386 
1290	 0.719870602964722 
1291	 0.71989732832136 
1292	 0.719896600257646 
1293	 0.719889339503464 
1294	 0.719879880450957 
1295	 0.719822198345825 
1296	 0.719718353218833 
1297	 0.71963749709907 
1298	 0.719531332142097 
1299	 0.719429360424782 
1300	 0.719372770673804 
1301	 0.719251940393207 
1302	 0.719097271103256 
1303	 0.718917997743415 
1304	 0.718709144013929 
1305	 0.718472673435758 
1306	 0.718208248296377 
1307	 0.71792178633892 
1308	 0.717617265704822 
1309	 0.717267919895748 
1310	 0.716919570098922 
1311	 0.716557076971586 
1312	 0.716169385868104 
1313	 0.71576578629337 
1314	 0.715340166362989 
1315	 0.714893738597481 
1316	 0.714423489599034 
1317	 0.713932688277801 
1318	 0.713424088041632 
1319	 0.712888384484167 
1320	 0.712345572354941 
1321	 0.711799993276548 
1322	 0.711220534085448 
1323	 0.710633604134699 
1324	 0.710000453300076 
1325	 0.709335582276684 
1326	 0.708636919382059 
1327	 0.707913521988324 
1328	 0.707141238943725 
1329	 0.706317488968988 
1330	 0.705482811724008 
1331	 0.704625409263874 
1332	 0.70372620479266 
1333	 0.702841944047233 
1334	 0.701853904060576 
1335	 0.700849780126743 
1336	 0.69979558137871 
1337	 0.698711260745946 
1338	 0.697595627210501 
1339	 0.696439945523529 
1340	 0.69525198833836 
1341	 0.6940098423822 
1342	 0.692715089695882 
1343	 0.69140191403888 
1344	 0.690047371029552 
1345	 0.688663451664041 
1346	 0.687247656205551 
1347	 0.68582276683856 
1348	 0.684372044823862 
1349	 0.682892936840571 
1350	 0.681385472193448 
1351	 0.679872900653057 
1352	 0.67831148333733 
1353	 0.676773201078308 
1354	 0.675217565644177 
1355	 0.673712070646139 
1356	 0.672218166853454 
1357	 0.670753562209501 
1358	 0.669305519579314 
1359	 0.667913054855275 
1360	 0.666576380063879 
1361	 0.66523710750014 
1362	 0.663920816368409 
1363	 0.662702980943178 
1364	 0.661447811772855 
1365	 0.660202360185391 
1366	 0.65895651160348 
1367	 0.657735953816273 
1368	 0.656472012514662 
1369	 0.655219840709009 
1370	 0.653882775201847 
1371	 0.652532377326516 
1372	 0.651084975835272 
1373	 0.649589050055361 
1374	 0.647973806736251 
1375	 0.646275567951435 
1376	 0.644466594499295 
1377	 0.642551888790874 
1378	 0.640523835619751 
1379	 0.638357625634166 
1380	 0.636161542604605 
1381	 0.633873361248304 
1382	 0.631521384089273 
1383	 0.62911524668048 
1384	 0.626646986590906 
1385	 0.624160522853825 
1386	 0.621525174316676 
1387	 0.618833678092444 
1388	 0.61602659462204 
1389	 0.613118896988379 
1390	 0.610044995302308 
1391	 0.606906181332956 
1392	 0.603487363458624 
1393	 0.600071601400135 
1394	 0.596442768708682 
1395	 0.592750936342134 
1396	 0.588981391561735 
1397	 0.585132744045501 
1398	 0.581175813243412 
1399	 0.577100603732202 
1400	 0.572931944639432 
1401	 0.568679605124959 
1402	 0.564279197322132 
1403	 0.559838975254688 
1404	 0.555328993143528 
1405	 0.550831712066478 
1406	 0.546258315081824 
1407	 0.54167878174047 
1408	 0.53705524467867 
1409	 0.532485056270913 
1410	 0.527874209511346 
1411	 0.523320956590317 
1412	 0.518801023306498 
1413	 0.514392789445856 
1414	 0.509991264388636 
1415	 0.505710468118978 
1416	 0.50149897553437 
1417	 0.497433592228515 
1418	 0.49345298000412 
1419	 0.489607356236467 
1420	 0.485887342055474 
1421	 0.482352762151459 
1422	 0.478963114646413 
1423	 0.475694942797305 
1424	 0.472683418460473 
1425	 0.469612871647587 
1426	 0.466774312743809 
1427	 0.463970968368847 
1428	 0.461148536038195 
1429	 0.458518058668947 
1430	 0.455748539778143 
1431	 0.452989561218772 
1432	 0.45006494263373 
1433	 0.447097828871587 
1434	 0.443970860188967 
1435	 0.440677297569035 
1436	 0.437334632553644 
1437	 0.43383369467875 
1438	 0.430469413539391 
1439	 0.426943585058207 
1440	 0.423758823505075 
1441	 0.420555071491905 
1442	 0.41788758200246 
1443	 0.415362469395822 
1444	 0.413509058084959 
1445	 0.412094189949316 
1446	 0.411279992348022 
1447	 0.411039254050519 
1448	 0.411267521236077 
1449	 0.412207305546997 
1450	 0.413297240495729 
1451	 0.414972234172641 
1452	 0.416597885729195 
1453	 0.418569660976591 
1454	 0.420354989214336 
1455	 0.422240966302975 
1456	 0.423950158946401 
1457	 0.425588132713746 
1458	 0.427074555683149 
1459	 0.428436973880425 
1460	 0.429677007706239 
1461	 0.43074001439349 
1462	 0.431735719753326 
1463	 0.432595466349391 
1464	 0.433423111423475 
1465	 0.434155474458565 
1466	 0.434879747116288 
1467	 0.435533544486436 
1468	 0.436153408927528 
1469	 0.436762426801697 
1470	 0.437290960646928 
1471	 0.437819447419004 
1472	 0.438335839852793 
1473	 0.438792288292025 
1474	 0.43923459159803 
1475	 0.439557707218156 
1476	 0.439839506256295 
1477	 0.439969413973788 
1478	 0.439992580742212 
1479	 0.439893423794571 
1480	 0.439678747099735 
1481	 0.439344442940602 
1482	 0.438849768813146 
1483	 0.438338872759762 
1484	 0.437672070574407 
1485	 0.437096801218865 
1486	 0.436441673696644 
1487	 0.435966937302367 
1488	 0.435486890612952 
1489	 0.435258758571108 
1490	 0.435156433769146 
1491	 0.435285374574013 
1492	 0.435590852364168 
1493	 0.436142989988452 
1494	 0.436947886549039 
1495	 0.437896274671196 
1496	 0.439111674355628 
1497	 0.440388376103477 
1498	 0.441855502794258 
1499	 0.443337132248207 
1500	 0.444952432464637 
1501	 0.446549016213364 
1502	 0.448233028309671 
1503	 0.449822732801924 
1504	 0.451420416606083 
1505	 0.452940368127695 
1506	 0.454413875803651 
1507	 0.455799075761622 
1508	 0.457123489677063 
1509	 0.458370549779379 
1510	 0.459519834512414 
1511	 0.460603338365856 
1512	 0.461610119285132 
1513	 0.462566821203645 
1514	 0.463448687364813 
1515	 0.464281519879708 
1516	 0.465054582858869 
1517	 0.465789209500523 
1518	 0.466469902180912 
1519	 0.467102986156979 
1520	 0.467685181324333 
1521	 0.468230956826271 
1522	 0.468739882752047 
1523	 0.469246910232526 
1524	 0.469726753615892 
1525	 0.47019437470249 
1526	 0.470645990974874 
1527	 0.471063361006544 
1528	 0.471493700628699 
1529	 0.471914131253379 
1530	 0.47235919537853 
1531	 0.472793627908138 
1532	 0.473281954388908 
1533	 0.473786959280836 
1534	 0.47436043376913 
1535	 0.474966607313833 
1536	 0.475647592076522 
1537	 0.476376477344927 
1538	 0.477204339770341 
1539	 0.478110416283552 
1540	 0.479078913698014 
1541	 0.480133809893669 
1542	 0.48124850096209 
1543	 0.482429484208893 
1544	 0.483657220434501 
1545	 0.484972696443047 
1546	 0.486294907542332 
1547	 0.487667596692459 
1548	 0.489034783970774 
1549	 0.490443123082347 
1550	 0.491823777474442 
1551	 0.493220185319138 
1552	 0.494562581498178 
1553	 0.49589129490172 
1554	 0.497177896877552 
1555	 0.498425562890877 
1556	 0.499638186545372 
1557	 0.500805173031361 
1558	 0.501971966905554 
1559	 0.50310135490783 
1560	 0.50423177252027 
1561	 0.505357717940579 
1562	 0.506477242377109 
1563	 0.507590105546811 
1564	 0.508679826728833 
1565	 0.509765051564047 
1566	 0.510827738226977 
1567	 0.51185725082669 
1568	 0.512886760353624 
1569	 0.513906571098967 
1570	 0.514919740135419 
1571	 0.515932223713045 
1572	 0.516915197400658 
1573	 0.517879146070103 
1574	 0.518836411119172 
1575	 0.519769585992733 
1576	 0.520699527115622 
1577	 0.521626247174321 
1578	 0.522543106339694 
1579	 0.523448255886611 
1580	 0.524340785842009 
1581	 0.525231649713411 
1582	 0.526099960638093 
1583	 0.526940584228388 
1584	 0.527785581446993 
1585	 0.528605998312346 
1586	 0.529449955955885 
1587	 0.530293979730797 
1588	 0.531156578112369 
1589	 0.532042543137306 
1590	 0.532926428459687 
1591	 0.533821732702928 
1592	 0.534719256868393 
1593	 0.535616364988032 
1594	 0.536522961182562 
1595	 0.537432234067493 
1596	 0.538353352503474 
1597	 0.539289030966212 
1598	 0.540223119642703 
1599	 0.541173006196685 
1600	 0.542114291984583 
1601	 0.543037589980089 
1602	 0.54398647636261 
1603	 0.544967861770055 
1604	 0.545908019134973 
1605	 0.546847095036165 
1606	 0.547771650650823 
1607	 0.548674896289685 
1608	 0.549553539334215 
1609	 0.550414934163009 
1610	 0.551272634056899 
1611	 0.552117767376535 
1612	 0.552920764277475 
1613	 0.553706943265209 
1614	 0.554476139645273 
1615	 0.555197078716972 
1616	 0.555918768910108 
1617	 0.556644577046096 
1618	 0.557348117536878 
1619	 0.558026521250102 
1620	 0.558689794024891 
1621	 0.559336977142926 
1622	 0.559974567176664 
1623	 0.560598722610736 
1624	 0.561207374795747 
1625	 0.561804500583737 
1626	 0.562388118421241 
1627	 0.562960388145445 
1628	 0.563503246270827 
1629	 0.564013823775374 
1630	 0.564530983733942 
1631	 0.565033539709653 
1632	 0.565527535526583 
1633	 0.566034607608119 
1634	 0.566510822745284 
1635	 0.566957811783902 
1636	 0.567390912152609 
1637	 0.567806397193977 
1638	 0.568206643332868 
1639	 0.568598648024425 
1640	 0.568961165647594 
1641	 0.569306278765635 
1642	 0.569623017291874 
1643	 0.569913528129205 
1644	 0.570170757969376 
1645	 0.570399917170991 
1646	 0.57059674528897 
1647	 0.570763103574893 
1648	 0.570891457153233 
1649	 0.570998888941455 
1650	 0.571050921736754 
1651	 0.57105124966585 
1652	 0.571017151670659 
1653	 0.570940602663986 
1654	 0.57081946302024 
1655	 0.570669994201998 
1656	 0.570448318147825 
1657	 0.570178129647384 
1658	 0.569831420255605 
1659	 0.569424933494456 
1660	 0.568942605610152 
1661	 0.568402862032445 
1662	 0.567751440478211 
1663	 0.567006880851149 
1664	 0.566163060071525 
1665	 0.565220121580904 
1666	 0.56416927226839 
1667	 0.563033695624066 
1668	 0.561782323809584 
1669	 0.56043882791994 
1670	 0.558938944291962 
1671	 0.557259357867692 
1672	 0.555531752246103 
1673	 0.553664385384645 
1674	 0.551750663493922 
1675	 0.549776855846916 
1676	 0.547783919657327 
1677	 0.545691159457286 
1678	 0.543627614184428 
1679	 0.541512847401966 
1680	 0.539456505223931 
1681	 0.537394427271234 
1682	 0.535389368546717 
1683	 0.533422748599168 
1684	 0.531567866695632 
1685	 0.529740786670305 
1686	 0.528059786003621 
1687	 0.526484871329558 
1688	 0.525013292834197 
1689	 0.523654165456688 
1690	 0.522391772368481 
1691	 0.521304523621241 
1692	 0.520197059188927 
1693	 0.519186624228587 
1694	 0.518129044913126 
1695	 0.517079081408692 
1696	 0.515979802830899 
1697	 0.514885435545802 
1698	 0.51370727301768 
1699	 0.512492659101171 
1700	 0.511219104976064 
1701	 0.50988132832745 
1702	 0.508499739791236 
1703	 0.507043172722308 
1704	 0.505573560963899 
1705	 0.504077505574353 
1706	 0.502480963210803 
1707	 0.500919054623582 
1708	 0.499235975763085 
1709	 0.497494926612844 
1710	 0.495664017138607 
1711	 0.493627223855437 
1712	 0.491587690238831 
1713	 0.489384831299512 
1714	 0.487022910296681 
1715	 0.484745060470235 
1716	 0.482302348910308 
1717	 0.47981941949568 
1718	 0.477375409125382 
1719	 0.474781800577964 
1720	 0.472273982201314 
1721	 0.469776292796189 
1722	 0.467305452141308 
1723	 0.465113046691508 
1724	 0.463001364153943 
1725	 0.461038999986407 
1726	 0.459309102642733 
1727	 0.457631885020604 
1728	 0.45615752817222 
1729	 0.454866063149737 
1730	 0.453710555999543 
1731	 0.452759818892411 
1732	 0.451908643697985 
1733	 0.451126375099132 
1734	 0.450458808480697 
1735	 0.449843167976401 
1736	 0.449281944789568 
1737	 0.44875743583991 
1738	 0.448265709104147 
1739	 0.447813759675552 
1740	 0.447378745310748 
1741	 0.447002866433013 
1742	 0.446655728607675 
1743	 0.446398296644659 
1744	 0.446192297229196 
1745	 0.446083667692864 
1746	 0.446068398295033 
1747	 0.446147107094945 
1748	 0.446324585829555 
1749	 0.446560250584899 
1750	 0.446888226716801 
1751	 0.447291239597564 
1752	 0.447760024596123 
1753	 0.44830785425645 
1754	 0.448960413607709 
1755	 0.449614302162721 
1756	 0.450321150687096 
1757	 0.451065955906089 
1758	 0.451882154831005 
1759	 0.452717286188666 
1760	 0.453596507937764 
1761	 0.454505359255032 
1762	 0.455352348791164 
1763	 0.456206436485732 
1764	 0.457038728604657 
1765	 0.457841544296231 
1766	 0.45867996525008 
1767	 0.459503486133171 
1768	 0.460338879546453 
1769	 0.46114035010878 
1770	 0.461883574520552 
1771	 0.462613463723842 
1772	 0.463277116802631 
1773	 0.463922052789584 
1774	 0.46458538480205 
1775	 0.465186559879032 
1776	 0.465773501252036 
1777	 0.466375462247428 
1778	 0.466923033686119 
1779	 0.467491332287033 
1780	 0.468102175447986 
1781	 0.468708379946049 
1782	 0.469366396791001 
1783	 0.470058877325278 
1784	 0.470814864919283 
1785	 0.471609060007677 
1786	 0.472386494847637 
1787	 0.473194246337117 
1788	 0.473985227096567 
1789	 0.474791655588828 
1790	 0.475590950816202 
1791	 0.476389236488068 
1792	 0.477198365001785 
1793	 0.477970308271372 
1794	 0.478762866539931 
1795	 0.479571353703216 
1796	 0.480359271900817 
1797	 0.4811708375598 
1798	 0.481949097063968 
1799	 0.482709894309602 
1800	 0.483449671444369 
1801	 0.49268387690206 
1802	 0.49411198963524 
1803	 0.495369999039783 
1804	 0.496481545478392 
1805	 0.49759440828912 
1806	 0.498585001866927 
1807	 0.499470233127357 
1808	 0.500305304920821 
1809	 0.501046593351378 
1810	 0.501760798836725 
1811	 0.502378825800367 
1812	 0.503018611892913 
1813	 0.503633645280929 
1814	 0.504261070857988 
1815	 0.504825515011507 
1816	 0.505380751710362 
1817	 0.505923033551182 
1818	 0.506428215467877 
1819	 0.506921508953988 
1820	 0.507403119842725 
1821	 0.507885683149612 
1822	 0.508339304916224 
1823	 0.508810931811443 
1824	 0.509272184161643 
1825	 0.509728910238777 
1826	 0.510179696814461 
1827	 0.510632008606585 
1828	 0.511027051338207 
1829	 0.511419322670117 
1830	 0.51177148816446 
1831	 0.5120807395733 
1832	 0.51235583011738 
1833	 0.51260064370867 
1834	 0.512823237879874 
1835	 0.512997246210857 
1836	 0.513157848607482 
1837	 0.513316287876582 
1838	 0.513476858146444 
1839	 0.513606167425837 
1840	 0.513729535440963 
1841	 0.513807464429118 
1842	 0.513884396439766 
1843	 0.51388726687284 
1844	 0.513817193000514 
1845	 0.51372247063545 
1846	 0.513542054037649 
1847	 0.513305997254904 
1848	 0.512965274828746 
1849	 0.512576296757133 
1850	 0.512033938638985 
1851	 0.511399701367906 
1852	 0.510615075184511 
1853	 0.509666745284927 
1854	 0.508656867874503 
1855	 0.5074808811155 
1856	 0.506204055878391 
1857	 0.504805547421876 
1858	 0.503170849077096 
1859	 0.501429342440463 
1860	 0.49955837632443 
1861	 0.497467908636825 
1862	 0.495180935522371 
1863	 0.492875570818723 
1864	 0.490245733684461 
1865	 0.487505711288714 
1866	 0.484581124008403 
1867	 0.481245570146081 
1868	 0.477865364610149 
1869	 0.47422820759803 
1870	 0.470469224719808 
1871	 0.466590967840066 
1872	 0.462658155293367 
1873	 0.458577866322711 
1874	 0.454466832578891 
1875	 0.450312844175949 
1876	 0.445694757722155 
1877	 0.441109598716804 
1878	 0.436216136547967 
1879	 0.430924343258918 
1880	 0.425828649414141 
1881	 0.420396842389187 
1882	 0.41464536928392 
1883	 0.408799445058764 
1884	 0.402822214869073 
1885	 0.396234526885113 
1886	 0.389708194243635 
1887	 0.382843971894932 
1888	 0.37566946064497 
1889	 0.368910508922062 
1890	 0.361815783448582 
1891	 0.354716858315973 
1892	 0.347741993906741 
1893	 0.340479459943365 
1894	 0.332880125886101 
1895	 0.325540623529048 
1896	 0.318068601370627 
1897	 0.310474895481962 
1898	 0.303516256545448 
1899	 0.296394443267511 
1900	 0.289417372320117 
1901	 0.282778104669105 
1902	 0.275809263065144 
1903	 0.269224134447432 
1904	 0.262836999068974 
1905	 0.25656847559485 
1906	 0.250475429476276 
1907	 0.24506263238102 
1908	 0.239655981896608 
1909	 0.234521586028176 
1910	 0.229742727650739 
1911	 0.224808932696873 
1912	 0.220241125079511 
1913	 0.2158134542778 
1914	 0.211425038291411 
1915	 0.207369133053961 
1916	 0.203677761523886 
1917	 0.199933162617223 
1918	 0.196372170293095 
1919	 0.19303267528907 
1920	 0.189542411158705 
1921	 0.186291854424503 
1922	 0.18310975839916 
1923	 0.179920247162481 
1924	 0.177075042028325 
1925	 0.174248333656967 
1926	 0.171520959589078 
1927	 0.168966665078898 
1928	 0.166436853864825 
1929	 0.163904396607695 
1930	 0.161561466240234 
1931	 0.15934362930829 
1932	 0.157232436609324 
1933	 0.155440850607203 
1934	 0.153773774365606 
1935	 0.152267301565341 
1936	 0.151006105176889 
1937	 0.149876554364665 
1938	 0.14888981380279 
1939	 0.148115905986921 
1940	 0.147522164803995 
1941	 0.147108090208168 
1942	 0.146887998895644 
1943	 0.146814304360879 
1944	 0.146884520595971 
1945	 0.14709769985494 
1946	 0.147482920228903 
1947	 0.147989031086653 
1948	 0.148699775919467 
1949	 0.14961387666678 
1950	 0.15065312220536 
1951	 0.151881537889533 
1952	 0.153239962206532 
1953	 0.154729074018888 
1954	 0.156372851353248 
1955	 0.158221849237588 
1956	 0.160095651119961 
1957	 0.162061840357542 
1958	 0.164054078470316 
1959	 0.165862068045602 
1960	 0.167608929488349 
1961	 0.169212054355324 
1962	 0.170648451280645 
1963	 0.172019583363771 
1964	 0.17329372898686 
1965	 0.174457871258924 
1966	 0.175522560055726 
1967	 0.176506181992057 
1968	 0.177343587168382 
1969	 0.178195267125344 
1970	 0.179024558138554 
1971	 0.179847804067691 
1972	 0.18075351045944 
1973	 0.181686470491631 
1974	 0.182680829064932 
1975	 0.183761400313139 
1976	 0.184837331626584 
1977	 0.185936339672814 
1978	 0.187085966351072 
1979	 0.188244614201058 
1980	 0.189451112955607 
1981	 0.19081793816499 
1982	 0.19217229226591 
1983	 0.193622104601334 
1984	 0.195135246524206 
1985	 0.196574809800458 
1986	 0.198169575497434 
1987	 0.199873081151463 
1988	 0.201574206625061 
1989	 0.203556466013977 
1990	 0.205737166229497 
1991	 0.208028626108665 
1992	 0.210498929220916 
1993	 0.21319687676914 
1994	 0.215792056219074 
1995	 0.21859949277098 
1996	 0.221453124853463 
1997	 0.224305061841257 
1998	 0.227305657951076 
1999	 0.230494469102745 
2000	 0.233537789898121 
2001	 0.236746766903521 
2002	 0.239683421799235 
2003	 0.242476686017637 
2004	 0.245222679787737 
2005	 0.247794837841709 
2006	 0.250355987575929 
2007	 0.25294993392919 
2008	 0.255345057409935 
2009	 0.257642820219328 
2010	 0.259868997825509 
2011	 0.261791868886124 
2012	 0.263637320243235 
2013	 0.265369913934059 
2014	 0.266917012777077 
2015	 0.268445292296765 
2016	 0.26994648313053 
2017	 0.271261268977894 
2018	 0.272503136248222 
2019	 0.27357016671372 
2020	 0.274439564187127 
2021	 0.275228522869972 
2022	 0.275872970818072 
2023	 0.276364978871602 
2024	 0.276810543861229 
2025	 0.277113868442829 
2026	 0.277321023099334 
2027	 0.277433545302982 
2028	 0.277445288672605 
2029	 0.277286238788307 
2030	 0.27713488625862 
2031	 0.276877727402983 
2032	 0.276650258761119 
2033	 0.276356098190727 
2034	 0.276123815434712 
2035	 0.275890626663055 
2036	 0.275693737162481 
2037	 0.275570769872761 
2038	 0.275499996511343 
2039	 0.275513915128536 
2040	 0.27560556606822 
2041	 0.275764497926625 
2042	 0.275994575636009 
2043	 0.27629399049908 
2044	 0.276682298898636 
2045	 0.277103364489744 
2046	 0.277599839872537 
2047	 0.278127017916701 
2048	 0.278687316417859 
2049	 0.279304968701284 
2050	 0.279998968261276 
2051	 0.280691921685073 
2052	 0.28144413970385 
2053	 0.282227678396045 
2054	 0.282993092106573 
2055	 0.28376407209382 
2056	 0.284558207545307 
2057	 0.285338728149033 
2058	 0.286171573104292 
2059	 0.287047659673597 
2060	 0.287923014790298 
2061	 0.288837601537011 
2062	 0.289745530373281 
2063	 0.290663847343602 
2064	 0.291580785309294 
2065	 0.292500091295252 
2066	 0.293409659531477 
2067	 0.294379481209212 
2068	 0.295312483173693 
2069	 0.296237259468395 
2070	 0.297210296344753 
2071	 0.29807160802322 
2072	 0.298869260254581 
2073	 0.299650589850535 
2074	 0.30036249227853 
2075	 0.301083948302247 
2076	 0.301813777224666 
2077	 0.302472512386562 
2078	 0.303121186264555 
2079	 0.30369249495825 
2080	 0.304170341756667 
2081	 0.304640891319458 
2082	 0.305068899957505 
2083	 0.305455479127647 
2084	 0.305842233829774 
2085	 0.306186703135048 
2086	 0.306500087898991 
2087	 0.306791177640542 
2088	 0.307028722360717 
2089	 0.30722119015817 
2090	 0.307384016385181 
2091	 0.307502655819968 
2092	 0.307585044260068 
2093	 0.307625655155864 
2094	 0.307644597524525 
2095	 0.307627021452446 
2096	 0.30758084406135 
2097	 0.307509609859028 
2098	 0.307416027327937 
2099	 0.307266456556872 
2100	 0.307077928345627 
2101	 0.306852007597294 
2102	 0.306586799338268 
2103	 0.306279241865564 
2104	 0.305920462189069 
2105	 0.305547158659745 
2106	 0.305127988946481 
2107	 0.304700762614889 
2108	 0.304262918751335 
2109	 0.303789888705142 
2110	 0.303300177836886 
2111	 0.302767971064881 
2112	 0.302180639074494 
2113	 0.301590471206355 
2114	 0.300957673315639 
2115	 0.300327866084777 
2116	 0.299696983892841 
2117	 0.299078201526514 
2118	 0.298376463357449 
2119	 0.297642811068781 
2120	 0.296884852831992 
2121	 0.296050267226702 
2122	 0.295243480787817 
2123	 0.294465024683793 
2124	 0.293603693994464 
2125	 0.292730599589547 
2126	 0.291773977615407 
2127	 0.290736802160437 
2128	 0.289678988161032 
2129	 0.288533946532486 
2130	 0.287407090863407 
2131	 0.286292627521198 
2132	 0.285110002146062 
2133	 0.28389408569145 
2134	 0.28267496244214 
2135	 0.281300192654546 
2136	 0.279928117230689 
2137	 0.278534797019652 
2138	 0.277061598327589 
2139	 0.275659843733304 
2140	 0.274299852654786 
2141	 0.272879769948836 
2142	 0.271482175419741 
2143	 0.27001230826658 
2144	 0.268460872553938 
2145	 0.266948629067457 
2146	 0.265371799880804 
2147	 0.26387723477893 
2148	 0.262446100265172 
2149	 0.26098757373839 
2150	 0.259604597768288 
2151	 0.258146488334331 
2152	 0.256596233339538 
2153	 0.255104321902886 
2154	 0.253621772003466 
2155	 0.252126765104461 
2156	 0.250745316288369 
2157	 0.249454626342491 
2158	 0.248154282426002 
2159	 0.246923314870702 
2160	 0.245656054721208 
2161	 0.244357707049758 
2162	 0.243159680337286 
2163	 0.241946183661003 
2164	 0.240869570815657 
2165	 0.239905631999521 
2166	 0.238984696095234 
2167	 0.238160618762337 
2168	 0.237363439523523 
2169	 0.236594562894759 
2170	 0.235918522546515 
2171	 0.235293353447186 
2172	 0.234753802817888 
2173	 0.234313442651119 
2174	 0.233932210557025 
2175	 0.23361949777986 
2176	 0.233378910938251 
2177	 0.233187825169182 
2178	 0.23306049461892 
2179	 0.232992274375331 
2180	 0.232995743657925 
2181	 0.233022864965537 
2182	 0.233116132534565 
2183	 0.233221409407772 
2184	 0.23333933153311 
2185	 0.233526045590551 
2186	 0.233773137507239 
2187	 0.234035871258263 
2188	 0.234380202807958 
2189	 0.234683941423387 
2190	 0.234994951630249 
2191	 0.235296072258176 
2192	 0.235572487097969 
2193	 0.23587228239972 
2194	 0.236188653751627 
2195	 0.236493015735743 
2196	 0.236805947473029 
2197	 0.237130446979744 
2198	 0.237376867298633 
2199	 0.237627919552788 
2200	 0.237887626744305 
2201	 0.238131287423545 
2202	 0.238365260323129 
2203	 0.238625209132158 
2204	 0.238830086189115 
2205	 0.238994382300422 
2206	 0.239155331468714 
2207	 0.239271635329623 
2208	 0.239435713711298 
2209	 0.239584118337282 
2210	 0.239781304143581 
2211	 0.240017832507959 
2212	 0.240270866866968 
2213	 0.240523630525074 
2214	 0.240850045788471 
2215	 0.241206921223001 
2216	 0.241629565580691 
2217	 0.242116801531215 
2218	 0.242656903100651 
2219	 0.243264581196787 
2220	 0.243907612255524 
2221	 0.244612889535125 
2222	 0.245365257033861 
2223	 0.246099592811533 
2224	 0.246843764032868 
2225	 0.247584341326426 
2226	 0.24830659601527 
2227	 0.248982466017711 
2228	 0.249659288162997 
2229	 0.250238096004231 
2230	 0.25080456579 
2231	 0.251173364213289 
2232	 0.251443667169063 
2233	 0.251585138582372 
2234	 0.251530075866017 
2235	 0.251454624327293 
2236	 0.251334508900529 
2237	 0.251054093699651 
2238	 0.250657085807105 
2239	 0.25016097930961 
2240	 0.249515924098957 
2241	 0.248794310642071 
2242	 0.248030642848261 
2243	 0.24708355143991 
2244	 0.245960546587763 
2245	 0.244779999843542 
2246	 0.243381953714913 
2247	 0.24202948848753 
2248	 0.24067577268083 
2249	 0.239236449297183 
2250	 0.237735009865244 
2251	 0.236238244080049 
2252	 0.234601377156915 
2253	 0.232971756135505 
2254	 0.231353751608711 
2255	 0.229731471676657 
2256	 0.228239708535123 
2257	 0.226770271078653 
2258	 0.225371048595464 
2259	 0.224053774343696 
2260	 0.222780827646227 
2261	 0.221541376575845 
2262	 0.220400175152161 
2263	 0.219300812288647 
2264	 0.218352528555848 
2265	 0.217519216000975 
2266	 0.216761973530796 
2267	 0.216166596861622 
2268	 0.215565781289418 
2269	 0.215021917253712 
2270	 0.214531068265317 
2271	 0.214096073687848 
2272	 0.213696532725399 
2273	 0.213355979746922 
2274	 0.213035291084321 
2275	 0.212777930555281 
2276	 0.212503019139864 
2277	 0.212252310108757 
2278	 0.212006716101323 
2279	 0.211710586491703 
2280	 0.211501244759936 
2281	 0.211370728071186 
2282	 0.211228285070892 
2283	 0.211129177271981 
2284	 0.211040811979496 
2285	 0.21092705529539 
2286	 0.210824352792285 
2287	 0.210740500717248 
2288	 0.21072934518321 
2289	 0.210775250368371 
2290	 0.210787217044568 
2291	 0.210817895760163 
2292	 0.210868130030846 
2293	 0.21090818394443 
2294	 0.210967758580331 
2295	 0.211041829829679 
2296	 0.211119450586484 
2297	 0.21118590460873 
2298	 0.211233757712768 
2299	 0.211313274702125 
2300	 0.211389594896356 
2301	 0.211501878743621 
2302	 0.211638928727703 
2303	 0.211794405733399 
2304	 0.211986209388972 
2305	 0.212185041154544 
2306	 0.212397372773596 
2307	 0.212626436406089 
2308	 0.212853804306524 
2309	 0.213123849047012 
2310	 0.213408404423221 
2311	 0.213754687361129 
2312	 0.214187745687014 
2313	 0.2145911310389 
2314	 0.215050028558732 
2315	 0.215456940315807 
2316	 0.215860773197417 
2317	 0.216183355449161 
2318	 0.216478634515107 
2319	 0.21669895253769 
2320	 0.216843647172518 
2321	 0.216931102695387 
2322	 0.216963891941909 
2323	 0.216913460136646 
2324	 0.216752566026214 
2325	 0.216583099059043 
2326	 0.21635786648612 
2327	 0.21609837342878 
2328	 0.2157834555679 
2329	 0.215478199889121 
2330	 0.215189241362808 
2331	 0.214769144068871 
2332	 0.2143669992026 
2333	 0.213901895684588 
2334	 0.213267998343473 
2335	 0.212655001793812 
2336	 0.211945018290688 
2337	 0.211181648543633 
2338	 0.210448367310989 
2339	 0.20965583923755 
2340	 0.208971997409665 
2341	 0.208265361510393 
2342	 0.207478305275653 
2343	 0.206773758169073 
2344	 0.206057612988203 
2345	 0.205405719756343 
2346	 0.204888425466198 
2347	 0.204400607651875 
2348	 0.203947895358469 
2349	 0.203591287760693 
2350	 0.203336346136457 
2351	 0.203181989012565 
2352	 0.20306103468562 
2353	 0.20299778316183 
2354	 0.202919806901518 
2355	 0.202803206543387 
2356	 0.202717003914552 
2357	 0.202535731940546 
2358	 0.202335569155228 
2359	 0.202103513600971 
2360	 0.201677795134224 
2361	 0.201188223541713 
2362	 0.200678790975704 
2363	 0.20009772869095 
2364	 0.199584720635093 
2365	 0.199147690247946 
2366	 0.19862923824118 
2367	 0.198049196710195 
2368	 0.197510388446467 
2369	 0.196925606947276 
2370	 0.196311411739178 
2371	 0.195732914734947 
2372	 0.195071523213599 
2373	 0.194358206940971 
2374	 0.193678205693775 
2375	 0.19300429183438 
2376	 0.192288253503005 
2377	 0.191514055757035 
2378	 0.190717468426197 
2379	 0.189845614390716 
2380	 0.189017919998557 
2381	 0.188303119473912 
2382	 0.187553860772446 
2383	 0.18686031191859 
2384	 0.18610218578287 
2385	 0.185295662798174 
2386	 0.184479467185292 
2387	 0.1836435321292 
2388	 0.182773805951559 
2389	 0.181893358488506 
2390	 0.180958810448475 
2391	 0.179967120871833 
2392	 0.179007425480912 
2393	 0.1779990419513 
2394	 0.177074074101499 
2395	 0.176197160362248 
2396	 0.175266506878185 
2397	 0.174378887756983 
2398	 0.173402269727748 
2399	 0.172400505857172 
2400	 0.171366147494616 
2401	 0.170236504692387 
2402	 0.169114305252515 
2403	 0.167968633492925 
2404	 0.166914551028211 
2405	 0.165974646419159 
2406	 0.165014903869412 
2407	 0.164044244762966 
2408	 0.163050014499846 
2409	 0.162035402514011 
2410	 0.161100568108827 
2411	 0.160215701058013 
2412	 0.159363239117866 
2413	 0.158605764802538 
2414	 0.15787356873027 
2415	 0.157114122890547 
2416	 0.156309660956041 
2417	 0.15551659058676 
2418	 0.154814122313071 
2419	 0.154067842453218 
2420	 0.153302079039246 
2421	 0.152654707287537 
2422	 0.151926133811071 
2423	 0.151192303098037 
2424	 0.150542928794433 
2425	 0.149848599067116 
2426	 0.149278432138854 
2427	 0.148770748420794 
2428	 0.148316722808486 
2429	 0.147833270073522 
2430	 0.147180210617133 
2431	 0.146563414343149 
2432	 0.145864849296463 
2433	 0.145065920675762 
2434	 0.144326762299027 
2435	 0.143684419050533 
2436	 0.143030342684561 
2437	 0.142357511929513 
2438	 0.141856022796593 
2439	 0.141199871984356 
2440	 0.140499419049914 
2441	 0.139953141998256 
2442	 0.139339630195744 
2443	 0.138758413365616 
2444	 0.138152654539627 
2445	 0.137561585434453 
2446	 0.136872186356265 
2447	 0.136054217577429 
2448	 0.135391762400588 
2449	 0.134823236370814 
2450	 0.134300213621606 
2451	 0.133887155781609 
2452	 0.13338257757666 
2453	 0.132729108117702 
2454	 0.132027895024707 
2455	 0.131267263131713 
2456	 0.130618056283543 
2457	 0.130034884572019 
2458	 0.129471353188816 
2459	 0.128972257284912 
2460	 0.128440053220024 
2461	 0.12791605335065 
2462	 0.127453815076676 
2463	 0.126983765693963 
2464	 0.126420166702149 
2465	 0.125640976660322 
2466	 0.12483076725866 
2467	 0.124146608086756 
2468	 0.123508485167051 
2469	 0.123087688467077 
2470	 0.122695808258578 
2471	 0.122121407100871 
2472	 0.121458671668474 
2473	 0.121006852822307 
2474	 0.12061735661096 
2475	 0.12019993725287 
2476	 0.120060117285745 
2477	 0.119687982689545 
2478	 0.119209399546601 
2479	 0.118959579488825 
2480	 0.118671319933518 
2481	 0.118459603003138 
2482	 0.11834045812796 
2483	 0.118098422068206 
2484	 0.11784140380116 
2485	 0.117476849320789 
2486	 0.117262918192033 
2487	 0.11699350215004 
2488	 0.116806644783716 
2489	 0.116533997262502 
2490	 0.116185541226693 
2491	 0.11631276303525 
2492	 0.116362525281514 
2493	 0.116120802862775 
2494	 0.11620326095693 
2495	 0.115889422193781 
2496	 0.115275601540708 
2497	 0.115261919904503 
2498	 0.115197923337344 
2499	 0.115257358294676 
2500	 0.115481443443968 
