Wavelength	spectrum00015.asd
350	 7.06676916066955E-02 
351	 6.65995072696038E-02 
352	 6.25269492310735E-02 
353	 6.01766751598123E-02 
354	 5.96529671932804E-02 
355	 5.93034888060041E-02 
356	 5.80633794450702E-02 
357	 5.57435938416728E-02 
358	 5.40003623486605E-02 
359	 5.17267290250404E-02 
360	 4.98339896950589E-02 
361	 4.98170813501794E-02 
362	 4.94120616970092E-02 
363	 4.78177637966727E-02 
364	 4.57445432847326E-02 
365	 4.55865755383479E-02 
366	 4.53451497731289E-02 
367	 4.48961157190219E-02 
368	 4.46016027510265E-02 
369	 4.49632326302955E-02 
370	 4.48287275019979E-02 
371	 4.38929108394482E-02 
372	 4.25392218646761E-02 
373	 4.20804878552387E-02 
374	 4.21766926175597E-02 
375	 4.23473608454885E-02 
376	 4.22258753667792E-02 
377	 4.21732515993674E-02 
378	 4.20259959085221E-02 
379	 4.15871926543004E-02 
380	 4.08644628614108E-02 
381	 4.12442472559693E-02 
382	 4.17992327638517E-02 
383	 4.05901025151558E-02 
384	 4.03449183727303E-02 
385	 4.06647204347225E-02 
386	 0.040841847070212 
387	 0.040285805449734 
388	 4.00657803527757E-02 
389	 4.01380836961136E-02 
390	 4.00653510129602E-02 
391	 3.90979743691167E-02 
392	 3.89941738728034E-02 
393	 3.96873606615294E-02 
394	 3.99354132864314E-02 
395	 4.01118132253141E-02 
396	 4.05124517284227E-02 
397	 4.09936861964859E-02 
398	 4.06870838396711E-02 
399	 4.03247790913664E-02 
400	 4.02553341782418E-02 
401	 4.05147615832284E-02 
402	 4.03460972939537E-02 
403	 4.06862236572418E-02 
404	 4.14454457326981E-02 
405	 4.17731181034934E-02 
406	 4.19156082874267E-02 
407	 4.19843007041805E-02 
408	 4.20929472090997E-02 
409	 4.23859123825556E-02 
410	 4.27558825952194E-02 
411	 4.32752713075458E-02 
412	 4.39708409334134E-02 
413	 0.044372638246478 
414	 4.47608390160673E-02 
415	 4.53673093584574E-02 
416	 4.63049532524213E-02 
417	 4.69052783200554E-02 
418	 0.047423926488386 
419	 4.81365953729834E-02 
420	 4.89791543319377E-02 
421	 4.97216197743301E-02 
422	 5.06044630649643E-02 
423	 5.18975469092369E-02 
424	 0.052704859907162 
425	 0.053519185848811 
426	 5.45871914312345E-02 
427	 5.57466274169211E-02 
428	 5.68052064597151E-02 
429	 5.79264428055907E-02 
430	 5.91995178656258E-02 
431	 6.01748912752045E-02 
432	 6.15889669655008E-02 
433	 6.32049322183091E-02 
434	 0.064354778840496 
435	 6.58930267827093E-02 
436	 0.067509213983596 
437	 6.89849989328095E-02 
438	 7.04400421031965E-02 
439	 7.19916801714591E-02 
440	 7.36519851871652E-02 
441	 7.53920279961723E-02 
442	 7.72020834436343E-02 
443	 7.90026655209987E-02 
444	 0.080793571380972 
445	 8.26485744337266E-02 
446	 8.46356575924313E-02 
447	 8.66132868956245E-02 
448	 8.85419890339331E-02 
449	 0.0906752518651 
450	 9.28290389008887E-02 
451	 9.50043754988382E-02 
452	 9.72582292685084E-02 
453	 9.95607517755569E-02 
454	 0.101857080463568 
455	 0.104120827203435 
456	 0.106371099068627 
457	 0.108800016186291 
458	 0.111333001013948 
459	 0.113890383538705 
460	 0.116594996694217 
461	 0.119174822216354 
462	 0.121664796678147 
463	 0.124282201656525 
464	 0.127114062206932 
465	 0.129977016462505 
466	 0.132746309380348 
467	 0.135432827753465 
468	 0.138241870012483 
469	 0.141138312322871 
470	 0.144047164844292 
471	 0.14705321840899 
472	 0.149958160052604 
473	 0.152849139492049 
474	 0.156011600642374 
475	 0.159074209439653 
476	 0.162117291176935 
477	 0.165204104551131 
478	 0.16818173386728 
479	 0.171242097205713 
480	 0.174382171213791 
481	 0.177535590985697 
482	 0.180780917876049 
483	 0.184039903623183 
484	 0.187197727202641 
485	 0.190113658880054 
486	 0.193330535558037 
487	 0.196607777552932 
488	 0.199671592935724 
489	 0.202749863780217 
490	 0.205917285066876 
491	 0.209127477352466 
492	 0.212266721171305 
493	 0.21535329046786 
494	 0.218383818867325 
495	 0.221400686628085 
496	 0.224526401108289 
497	 0.227589382947667 
498	 0.230588478084428 
499	 0.233568616878142 
500	 0.236544793769449 
501	 0.239484990854614 
502	 0.24239118264248 
503	 0.245297759960414 
504	 0.248223436953324 
505	 0.251100903324547 
506	 0.253893058940786 
507	 0.256665632348579 
508	 0.259405632465366 
509	 0.262143347256737 
510	 0.264899614819623 
511	 0.267519389835583 
512	 0.270099786183656 
513	 0.272701577668632 
514	 0.27531907310405 
515	 0.277893440346806 
516	 0.280366616582231 
517	 0.28274772515097 
518	 0.285263189374766 
519	 0.287738317899177 
520	 0.290113664385786 
521	 0.292422947997148 
522	 0.294749016704416 
523	 0.297077845310816 
524	 0.299393457601822 
525	 0.301724990058753 
526	 0.303978390858234 
527	 0.306191343239089 
528	 0.308427719050522 
529	 0.310595093381447 
530	 0.312708759132477 
531	 0.314805609735493 
532	 0.316932329497875 
533	 0.319012489707611 
534	 0.321051688107709 
535	 0.323053985216481 
536	 0.324960077698844 
537	 0.326902647545984 
538	 0.328884422360477 
539	 0.33083305288586 
540	 0.332736451230026 
541	 0.334595511498543 
542	 0.336426142706795 
543	 0.338261908858856 
544	 0.34004382799366 
545	 0.341751255428579 
546	 0.343431762101985 
547	 0.345351337969847 
548	 0.347429703191356 
549	 0.349575630539686 
550	 0.351704712006929 
551	 0.353851569979053 
552	 0.355960336753141 
553	 0.358030827731182 
554	 0.360255137645713 
555	 0.362346994057408 
556	 0.36438753941351 
557	 0.366579444331317 
558	 0.368603550852124 
559	 0.370578706792729 
560	 0.372565217314721 
561	 0.37448765496218 
562	 0.376190933456305 
563	 0.377526386827586 
564	 0.378511243426821 
565	 0.379690602029685 
566	 0.380917673182058 
567	 0.382121589039239 
568	 0.38333697122023 
569	 0.385082338751594 
570	 0.387220106506186 
571	 0.389485453607405 
572	 0.391633348059545 
573	 0.393383611573717 
574	 0.394738041577432 
575	 0.395799247877354 
576	 0.396377579913103 
577	 0.39665282390532 
578	 0.396849288853502 
579	 0.397204162431924 
580	 0.39786932220666 
581	 0.398810656778565 
582	 0.39996048081672 
583	 0.401360608181097 
584	 0.402750650764379 
585	 0.4040831374452 
586	 0.405429467842428 
587	 0.406608352758204 
588	 0.407749905167513 
589	 0.408925647413948 
590	 0.410032259160091 
591	 0.411351308395154 
592	 0.412814268825674 
593	 0.414254693517446 
594	 0.415641165624632 
595	 0.416897706080233 
596	 0.417988092746384 
597	 0.418918665853584 
598	 0.419832182570733 
599	 0.420669855219026 
600	 0.421408500187825 
601	 0.42219591476914 
602	 0.423006813049969 
603	 0.423857883773586 
604	 0.424765666498579 
605	 0.425668646162565 
606	 0.426562317985733 
607	 0.427425729700887 
608	 0.428210411165099 
609	 0.4289065247177 
610	 0.429553412255638 
611	 0.43020819179995 
612	 0.430928623619176 
613	 0.431703369611514 
614	 0.432448592638762 
615	 0.433059072583665 
616	 0.43369628325097 
617	 0.434383496884555 
618	 0.435100526111603 
619	 0.43579324058291 
620	 0.436421081424034 
621	 0.437010709336331 
622	 0.437613144045052 
623	 0.438263328462356 
624	 0.438863850708765 
625	 0.439434240759284 
626	 0.44009685102989 
627	 0.440661033171126 
628	 0.441194677255354 
629	 0.44177297128423 
630	 0.442368296166486 
631	 0.442920592255689 
632	 0.443446800559541 
633	 0.443995577830172 
634	 0.444559281183922 
635	 0.445107941173322 
636	 0.445621210018747 
637	 0.446092365362893 
638	 0.4465525021106 
639	 0.447096215612589 
640	 0.447731320981506 
641	 0.448136001381781 
642	 0.448593283283229 
643	 0.449150274107601 
644	 0.449693277270109 
645	 0.450100968046896 
646	 0.45055576509336 
647	 0.451107618495282 
648	 0.451527407958094 
649	 0.451911159943599 
650	 0.452337888098002 
651	 0.45284480774112 
652	 0.453306092267974 
653	 0.453753060527982 
654	 0.454193287205788 
655	 0.454615173318956 
656	 0.455075280138971 
657	 0.45554314018954 
658	 0.455973193920066 
659	 0.456300359736477 
660	 0.45678271817181 
661	 0.457300194797294 
662	 0.457654143296672 
663	 0.458080235698343 
664	 0.458524068230366 
665	 0.458933999030047 
666	 0.459283400281305 
667	 0.459675410474579 
668	 0.46009651057682 
669	 0.460517746473579 
670	 0.460938093873603 
671	 0.461387413109831 
672	 0.461815495772406 
673	 0.462153135302634 
674	 0.462451250087585 
675	 0.462864825383843 
676	 0.463346256806333 
677	 0.46360513315236 
678	 0.464039335483575 
679	 0.464473127171004 
680	 0.464739460277159 
681	 0.465115458705613 
682	 0.465533854876349 
683	 0.465911527132097 
684	 0.46619103257146 
685	 0.46660479684018 
686	 0.467048414186441 
687	 0.467448205595935 
688	 0.467828294754482 
689	 0.468077362732489 
690	 0.468304102019678 
691	 0.468645631471198 
692	 0.469140819372852 
693	 0.46951204577138 
694	 0.469772048447481 
695	 0.470115354989436 
696	 0.470513367254788 
697	 0.47094567160927 
698	 0.471358906564598 
699	 0.471653461129897 
700	 0.471896605624289 
701	 0.472152306471139 
702	 0.47247807934427 
703	 0.472923630786739 
704	 0.473293653672981 
705	 0.473569849263008 
706	 0.473862471865767 
707	 0.474180402694582 
708	 0.47453373327114 
709	 0.474889560975816 
710	 0.475143775584382 
711	 0.475473245442251 
712	 0.47580294069063 
713	 0.476043236560362 
714	 0.476365541537673 
715	 0.47670062759609 
716	 0.477005550998521 
717	 0.477268609370271 
718	 0.477545575330733 
719	 0.477882406225256 
720	 0.478253954946554 
721	 0.478521653613326 
722	 0.478775857580184 
723	 0.479001540656787 
724	 0.479204465291415 
725	 0.479602726915762 
726	 0.479938261360401 
727	 0.480179199639804 
728	 0.480456646526801 
729	 0.480711892279838 
730	 0.480958687582028 
731	 0.481227167898223 
732	 0.48156466221913 
733	 0.481816603784763 
734	 0.482050385794029 
735	 0.482369662513877 
736	 0.482762827209408 
737	 0.483033075074636 
738	 0.483208973824158 
739	 0.483457118485381 
740	 0.483696510237457 
741	 0.483839925898651 
742	 0.483939225226055 
743	 0.484251553197177 
744	 0.484500278957309 
745	 0.484631938327546 
746	 0.48471300879076 
747	 0.484982327464484 
748	 0.485286005889237 
749	 0.485538927069784 
750	 0.485717434178469 
751	 0.485926041344931 
752	 0.486088425868341 
753	 0.486231054844375 
754	 0.486530053594196 
755	 0.486826714064666 
756	 0.487036909601226 
757	 0.487155282970813 
758	 0.487327671421446 
759	 0.48757540853113 
760	 0.487842810044649 
761	 0.488047548345253 
762	 0.488220137271788 
763	 0.488425641742489 
764	 0.488672351895826 
765	 0.488907058125913 
766	 0.48915597913906 
767	 0.489395293875595 
768	 0.489596025842025 
769	 0.48972457586412 
770	 0.489932397898791 
771	 0.490196293749955 
772	 0.490435801233801 
773	 0.490665448267065 
774	 0.49084027957507 
775	 0.490950467424267 
776	 0.491034242030071 
777	 0.491297233758398 
778	 0.491646373450932 
779	 0.491936053612459 
780	 0.49201379952705 
781	 0.492155256114141 
782	 0.492346699914345 
783	 0.492516229514955 
784	 0.492709408050148 
785	 0.492906365874585 
786	 0.493129451350956 
787	 0.493390188272898 
788	 0.493438044593932 
789	 0.49350526336329 
790	 0.493711866923179 
791	 0.493983766243059 
792	 0.494234025657237 
793	 0.49438568976133 
794	 0.494456181990284 
795	 0.494671734712548 
796	 0.494859509264652 
797	 0.495031605157287 
798	 0.495234674719493 
799	 0.495341531353181 
800	 0.495455047406273 
801	 0.495675449818769 
802	 0.496050890388894 
803	 0.496249491411337 
804	 0.496390011506932 
805	 0.496573783712018 
806	 0.496776613951699 
807	 0.496947121251239 
808	 0.49714864782653 
809	 0.497408239971362 
810	 0.497566689259904 
811	 0.497624769145052 
812	 0.497729400210939 
813	 0.498026022319131 
814	 0.498259924406068 
815	 0.498385306995647 
816	 0.49848096550217 
817	 0.498702967391453 
818	 0.49889390452396 
819	 0.49904426519691 
820	 0.499162605282539 
821	 0.499248025672335 
822	 0.499371143848728 
823	 0.499510120099395 
824	 0.499647683063408 
825	 0.499878658860977 
826	 0.500032910328124 
827	 0.500140762278159 
828	 0.500300225787271 
829	 0.500407166544886 
830	 0.500433914224612 
831	 0.500483860446964 
832	 0.50072713707851 
833	 0.50079830779566 
834	 0.500952257525868 
835	 0.50124253503567 
836	 0.501283996125402 
837	 0.501297336822301 
838	 0.501346281340798 
839	 0.501429250500652 
840	 0.501449032009695 
841	 0.501671470205625 
842	 0.501962878616765 
843	 0.502071769501749 
844	 0.502067906342035 
845	 0.502044368659987 
846	 0.502098733891454 
847	 0.502299767864649 
848	 0.502520184527558 
849	 0.502688815021074 
850	 0.50281979641296 
851	 0.503012611555578 
852	 0.503026459714248 
853	 0.503113049061225 
854	 0.503412061688708 
855	 0.503621641909949 
856	 0.503703619857265 
857	 0.503724667323289 
858	 0.503789478879845 
859	 0.503969220396503 
860	 0.504103836834668 
861	 0.504213608149679 
862	 0.50438390310183 
863	 0.50446713403787 
864	 0.504534125273787 
865	 0.504597581567621 
866	 0.504622475471957 
867	 0.504746058197158 
868	 0.504939799015799 
869	 0.505108962088033 
870	 0.505117059723911 
871	 0.505147180230633 
872	 0.505251303176133 
873	 0.50539882061674 
874	 0.505450511074558 
875	 0.505510791080521 
876	 0.505641023104037 
877	 0.505836559277388 
878	 0.505936678447702 
879	 0.505901777022099 
880	 0.505820659661439 
881	 0.505835047515371 
882	 0.505985984522218 
883	 0.506111988743641 
884	 0.506137964806783 
885	 0.506090594120066 
886	 0.506114494839138 
887	 0.506210244950803 
888	 0.50631195867746 
889	 0.506308086656785 
890	 0.506184412145584 
891	 0.506121650284333 
892	 0.50616835389286 
893	 0.506093906560074 
894	 0.506077327341525 
895	 0.506092425346605 
896	 0.506079923326954 
897	 0.506030385684136 
898	 0.505977993520559 
899	 0.506005137345441 
900	 0.506131369940351 
901	 0.506089680676014 
902	 0.506134738985552 
903	 0.506212954593429 
904	 0.50617144382941 
905	 0.50622986321455 
906	 0.506358776303089 
907	 0.506492558182799 
908	 0.50656745284066 
909	 0.506664541858892 
910	 0.506774334940631 
911	 0.506865901113707 
912	 0.506909383907774 
913	 0.507018676185284 
914	 0.507195848799179 
915	 0.507389480288246 
916	 0.507512715213735 
917	 0.507704058543969 
918	 0.507935525660778 
919	 0.508141479796327 
920	 0.508257245216926 
921	 0.508456480033277 
922	 0.508665034542789 
923	 0.508793650382938 
924	 0.508883886063849 
925	 0.509047989627496 
926	 0.509272945979002 
927	 0.509501097491176 
928	 0.509693164631633 
929	 0.50990578331912 
930	 0.510194576683718 
931	 0.510550976345875 
932	 0.510725638439582 
933	 0.510887697627559 
934	 0.511123165411097 
935	 0.511432678643333 
936	 0.511689439252522 
937	 0.511953812115693 
938	 0.512202987808881 
939	 0.512371308473147 
940	 0.512550819523157 
941	 0.512758557023586 
942	 0.512975691400016 
943	 0.513159561635838 
944	 0.513292221529431 
945	 0.513405736763907 
946	 0.513519493224876 
947	 0.513633800240123 
948	 0.513790160949667 
949	 0.513913396142048 
950	 0.514000811613583 
951	 0.514143370746267 
952	 0.514079204798844 
953	 0.514036658407249 
954	 0.514154372933629 
955	 0.514302863865822 
956	 0.51443114871174 
957	 0.514566082698415 
958	 0.514655417544436 
959	 0.514494924963734 
960	 0.51443338700383 
961	 0.514509488879097 
962	 0.514633307049904 
963	 0.514637666365775 
964	 0.514505166604729 
965	 0.514434180283527 
966	 0.514545504389358 
967	 0.514655980057801 
968	 0.514722870837136 
969	 0.514771574430744 
970	 0.514814409562701 
971	 0.514759117054392 
972	 0.514768687044401 
973	 0.514805581163585 
974	 0.514839796533715 
975	 0.515058118490221 
976	 0.515155586322799 
977	 0.51509824865336 
978	 0.514968305672014 
979	 0.51487303554405 
980	 0.514850155670624 
981	 0.514836518615655 
982	 0.514770948638105 
983	 0.514723683597623 
984	 0.514731525299647 
985	 0.514748476903351 
986	 0.514732558256375 
987	 0.514759948681125 
988	 0.514849680727422 
989	 0.514930492989052 
990	 0.514941271966311 
991	 0.514968122257344 
992	 0.515037895891465 
993	 0.515129911286305 
994	 0.515230894334877 
995	 0.515431077950605 
996	 0.515585208373423 
997	 0.515678349535414 
998	 0.515748461361118 
999	 0.515800404067112 
1000	 0.516046877968394 
1001	 0.489614488063473 
1002	 0.489797463434869 
1003	 0.490004052980078 
1004	 0.49022554363858 
1005	 0.490517892713289 
1006	 0.490750101333584 
1007	 0.490969903981934 
1008	 0.491171360323621 
1009	 0.491352280152038 
1010	 0.49154012008937 
1011	 0.491713251291712 
1012	 0.491878272900666 
1013	 0.492029373605171 
1014	 0.492211365694376 
1015	 0.492389643141421 
1016	 0.492583193803587 
1017	 0.492797778214883 
1018	 0.493018280948595 
1019	 0.493220481874874 
1020	 0.49337705113602 
1021	 0.493577262747245 
1022	 0.493774769331864 
1023	 0.494014840045916 
1024	 0.494304471203769 
1025	 0.494571456946445 
1026	 0.49484925853857 
1027	 0.495122772636266 
1028	 0.495394748350934 
1029	 0.495658068395474 
1030	 0.495917151787072 
1031	 0.496175494397403 
1032	 0.496398428673783 
1033	 0.496626643821061 
1034	 0.49686055019703 
1035	 0.497069143535236 
1036	 0.497296281389931 
1037	 0.497538079570206 
1038	 0.497751101080283 
1039	 0.497952662034034 
1040	 0.49817134881325 
1041	 0.49838577091371 
1042	 0.498588448723563 
1043	 0.498802027361517 
1044	 0.499011089785806 
1045	 0.499173301457592 
1046	 0.49933081512582 
1047	 0.499494793800763 
1048	 0.499648973574633 
1049	 0.499780463983565 
1050	 0.499919261306902 
1051	 0.500093759859773 
1052	 0.500229973105511 
1053	 0.500354562243907 
1054	 0.500493351917937 
1055	 0.500607131012615 
1056	 0.500679792694361 
1057	 0.500762627119628 
1058	 0.50084547423349 
1059	 0.500920652205214 
1060	 0.500998913679921 
1061	 0.501097237558954 
1062	 0.501203301366579 
1063	 0.501293647953792 
1064	 0.501389424451045 
1065	 0.501458633966365 
1066	 0.501534021963046 
1067	 0.50163766777068 
1068	 0.501727168795049 
1069	 0.501789550942518 
1070	 0.501846515362032 
1071	 0.501881617807074 
1072	 0.501953823624322 
1073	 0.502049085984619 
1074	 0.502138885520828 
1075	 0.502250362990671 
1076	 0.502342168888951 
1077	 0.502392099160422 
1078	 0.502434630264657 
1079	 0.502525318649466 
1080	 0.502631393920999 
1081	 0.502692743826557 
1082	 0.502772092426144 
1083	 0.502869710681626 
1084	 0.502917851653388 
1085	 0.502979988487886 
1086	 0.503059645465769 
1087	 0.503162627651326 
1088	 0.503236342589629 
1089	 0.503299254081135 
1090	 0.503347141219351 
1091	 0.503372765105179 
1092	 0.503390100342713 
1093	 0.503434444416802 
1094	 0.503495080002753 
1095	 0.503540508010016 
1096	 0.503580200591177 
1097	 0.503602017927348 
1098	 0.503619397138394 
1099	 0.503623069516576 
1100	 0.50361442410276 
1101	 0.503616633798444 
1102	 0.503606498573834 
1103	 0.503589747619958 
1104	 0.50357354911851 
1105	 0.503553170533803 
1106	 0.503523919486988 
1107	 0.503491633183376 
1108	 0.50344712833774 
1109	 0.50341223394801 
1110	 0.503366636319462 
1111	 0.503308970832688 
1112	 0.5032805343537 
1113	 0.50324416366665 
1114	 0.503179440091853 
1115	 0.503092950648806 
1116	 0.502992805362833 
1117	 0.502891323759747 
1118	 0.502783744132925 
1119	 0.502691867544087 
1120	 0.502567399239904 
1121	 0.502428709841488 
1122	 0.502262569841937 
1123	 0.502090511088228 
1124	 0.501895029841556 
1125	 0.501656166025389 
1126	 0.501420649444592 
1127	 0.501166910020745 
1128	 0.500859008222474 
1129	 0.500550825982558 
1130	 0.500205853650329 
1131	 0.499825002226883 
1132	 0.499454860196191 
1133	 0.499049307353742 
1134	 0.498624099591882 
1135	 0.498161385855851 
1136	 0.497647787467842 
1137	 0.497114995986694 
1138	 0.496565698828268 
1139	 0.49598271994637 
1140	 0.495349146290869 
1141	 0.494751989516322 
1142	 0.494117718426234 
1143	 0.493443218640041 
1144	 0.492767743523066 
1145	 0.492031903305094 
1146	 0.491283444898492 
1147	 0.490507779854286 
1148	 0.489724707680581 
1149	 0.488962210728963 
1150	 0.488148942513662 
1151	 0.487347438824213 
1152	 0.486500870487125 
1153	 0.485609167769344 
1154	 0.484699743913219 
1155	 0.483786400778604 
1156	 0.482800245637905 
1157	 0.481796969337749 
1158	 0.48074015106904 
1159	 0.479614961837564 
1160	 0.478465607358562 
1161	 0.477278726099592 
1162	 0.475969967574791 
1163	 0.474678814800906 
1164	 0.473345984358862 
1165	 0.471984367561319 
1166	 0.470711502646485 
1167	 0.469400988922603 
1168	 0.468109593830461 
1169	 0.466827467009013 
1170	 0.465546008737293 
1171	 0.464278203750671 
1172	 0.463024403704607 
1173	 0.461775012600805 
1174	 0.460527862629751 
1175	 0.459339559423699 
1176	 0.45814574346626 
1177	 0.457023879285876 
1178	 0.455976928822686 
1179	 0.454906329102086 
1180	 0.453934318466777 
1181	 0.453047660047186 
1182	 0.452240071420618 
1183	 0.451566446547044 
1184	 0.450948973116955 
1185	 0.45042437950728 
1186	 0.449971704281167 
1187	 0.449597374264061 
1188	 0.449282885794136 
1189	 0.449047593798628 
1190	 0.448865796455063 
1191	 0.448749021599646 
1192	 0.448690689910161 
1193	 0.448717964661147 
1194	 0.448757442897722 
1195	 0.448856141912095 
1196	 0.448961656177503 
1197	 0.449097710120935 
1198	 0.449241470798009 
1199	 0.449395907448597 
1200	 0.449556315461139 
1201	 0.449720833190265 
1202	 0.449909444089918 
1203	 0.450124718080082 
1204	 0.450380829041685 
1205	 0.450716932724027 
1206	 0.451078433955252 
1207	 0.451579176586784 
1208	 0.45215828823125 
1209	 0.452854767330739 
1210	 0.453656330323954 
1211	 0.454568532607392 
1212	 0.455639746457919 
1213	 0.456725402930378 
1214	 0.457926062961578 
1215	 0.459132246671888 
1216	 0.460388302242673 
1217	 0.461626779293764 
1218	 0.462894572543899 
1219	 0.464172510350774 
1220	 0.465413256137672 
1221	 0.46672123990262 
1222	 0.467976351424465 
1223	 0.469221804046151 
1224	 0.470412017296405 
1225	 0.471567551758101 
1226	 0.472645313665829 
1227	 0.473670145369064 
1228	 0.474659545079382 
1229	 0.475581806965181 
1230	 0.476489520017835 
1231	 0.477360015342972 
1232	 0.478218919936345 
1233	 0.47904112152784 
1234	 0.479839491149386 
1235	 0.480600580797078 
1236	 0.481380709770322 
1237	 0.482149018911241 
1238	 0.48291125280973 
1239	 0.483687220272008 
1240	 0.484456783786069 
1241	 0.485205880857431 
1242	 0.485882629583291 
1243	 0.486549783726619 
1244	 0.487197857935826 
1245	 0.487803519144646 
1246	 0.488373280302351 
1247	 0.488916681591773 
1248	 0.489424753985145 
1249	 0.489913104739664 
1250	 0.490365867884513 
1251	 0.490807530921256 
1252	 0.491231920494679 
1253	 0.491634668052786 
1254	 0.492020445060257 
1255	 0.492384607751202 
1256	 0.492717088490489 
1257	 0.493046995518845 
1258	 0.49335617000067 
1259	 0.493663979092171 
1260	 0.493971066399577 
1261	 0.49426192464486 
1262	 0.494529450115135 
1263	 0.494813197152337 
1264	 0.495079478666047 
1265	 0.495330623148946 
1266	 0.495590236137375 
1267	 0.495853675721136 
1268	 0.496099875131645 
1269	 0.496342310870091 
1270	 0.49657210321752 
1271	 0.496794255281313 
1272	 0.496995680156091 
1273	 0.497184998946166 
1274	 0.497358553647941 
1275	 0.497512402346588 
1276	 0.497652785030446 
1277	 0.497774204365019 
1278	 0.497893216438672 
1279	 0.497993295593534 
1280	 0.498093396554315 
1281	 0.498186413013174 
1282	 0.498282893997675 
1283	 0.498383430358832 
1284	 0.498471534148172 
1285	 0.498554196498032 
1286	 0.49863774666419 
1287	 0.49870874488428 
1288	 0.498765466026931 
1289	 0.49882227395529 
1290	 0.498882249882355 
1291	 0.498919251887044 
1292	 0.498941969651164 
1293	 0.498960179311526 
1294	 0.498959258814726 
1295	 0.49896664795008 
1296	 0.498974105172145 
1297	 0.498977333171202 
1298	 0.498976556246908 
1299	 0.498977784942882 
1300	 0.498990288485946 
1301	 0.4989775300819 
1302	 0.498963829297355 
1303	 0.49892805226712 
1304	 0.498865698737623 
1305	 0.498797183576309 
1306	 0.498714542067354 
1307	 0.498626196728549 
1308	 0.498519035964166 
1309	 0.49842507843231 
1310	 0.498305509340758 
1311	 0.498179294015398 
1312	 0.498034979555526 
1313	 0.497880360288947 
1314	 0.497697437635816 
1315	 0.497493005409072 
1316	 0.497282852725331 
1317	 0.497056859532663 
1318	 0.496810184548644 
1319	 0.496557770636663 
1320	 0.496279706378457 
1321	 0.495972555756818 
1322	 0.495656231727572 
1323	 0.495339142958505 
1324	 0.494982827489781 
1325	 0.494594617598077 
1326	 0.49419688867727 
1327	 0.493790233567539 
1328	 0.493341553143619 
1329	 0.492878557189072 
1330	 0.492377852893281 
1331	 0.491839936428505 
1332	 0.491265773752145 
1333	 0.490686941305153 
1334	 0.490034804743296 
1335	 0.489334137478863 
1336	 0.488587851092596 
1337	 0.487785283671988 
1338	 0.486920639426027 
1339	 0.486032099634642 
1340	 0.485118475833908 
1341	 0.484121903841355 
1342	 0.483083548115531 
1343	 0.481966738427832 
1344	 0.480775232589656 
1345	 0.479524283318769 
1346	 0.478185105177425 
1347	 0.476857219376279 
1348	 0.475483352841071 
1349	 0.474086232218375 
1350	 0.472659633775304 
1351	 0.471232596302632 
1352	 0.469746090636394 
1353	 0.468300565755784 
1354	 0.466848216673857 
1355	 0.465455855558468 
1356	 0.464079078975896 
1357	 0.462749407915337 
1358	 0.461464913993595 
1359	 0.460222074312568 
1360	 0.459032873553186 
1361	 0.457857057653793 
1362	 0.456692109333053 
1363	 0.455612217051886 
1364	 0.454514827850818 
1365	 0.453445793542246 
1366	 0.45234465372681 
1367	 0.45124705672073 
1368	 0.450153074561153 
1369	 0.449041483187959 
1370	 0.447938995035164 
1371	 0.446850196569438 
1372	 0.44577273218843 
1373	 0.444689565327304 
1374	 0.443612893167862 
1375	 0.442549087381785 
1376	 0.441485144450833 
1377	 0.440394521456082 
1378	 0.439343582533446 
1379	 0.438289481730871 
1380	 0.437302676662418 
1381	 0.436332805726469 
1382	 0.43543338171098 
1383	 0.434589860130774 
1384	 0.43380574422219 
1385	 0.433101755475774 
1386	 0.432417216281073 
1387	 0.431807100724176 
1388	 0.431196269302119 
1389	 0.430619652479007 
1390	 0.430028187187392 
1391	 0.429476802598127 
1392	 0.428865511732327 
1393	 0.428253946473631 
1394	 0.427579002480875 
1395	 0.426800670689824 
1396	 0.425980844383355 
1397	 0.425006309942394 
1398	 0.423953423913694 
1399	 0.422703641666626 
1400	 0.421312630433404 
1401	 0.419774296157229 
1402	 0.418061841010506 
1403	 0.416241027789891 
1404	 0.414271600522569 
1405	 0.412246130868572 
1406	 0.410103229421647 
1407	 0.407882915091139 
1408	 0.405552187511024 
1409	 0.403194267815053 
1410	 0.400743353555553 
1411	 0.398265263162972 
1412	 0.395739853527346 
1413	 0.393220431553107 
1414	 0.390643248258612 
1415	 0.388078824174496 
1416	 0.385475787440823 
1417	 0.382932729974268 
1418	 0.380375373568517 
1419	 0.377883574786704 
1420	 0.375431395918373 
1421	 0.373072765420631 
1422	 0.370748880876471 
1423	 0.3685222781807 
1424	 0.366448185402267 
1425	 0.364329984167689 
1426	 0.36238922767169 
1427	 0.360436387885804 
1428	 0.358452875444254 
1429	 0.356588262461633 
1430	 0.354584761499512 
1431	 0.352571070425401 
1432	 0.350388407842877 
1433	 0.348130475410485 
1434	 0.345730907634983 
1435	 0.343181433502376 
1436	 0.340551766313481 
1437	 0.337756351245129 
1438	 0.335065639797082 
1439	 0.332203470755812 
1440	 0.329637749154179 
1441	 0.327030411672991 
1442	 0.324911691501289 
1443	 0.32291322327807 
1444	 0.321511072751395 
1445	 0.320493691392879 
1446	 0.320024462010758 
1447	 0.320051600010399 
1448	 0.320526959153931 
1449	 0.321667273719419 
1450	 0.32293692132297 
1451	 0.324736404323859 
1452	 0.326502548210718 
1453	 0.32857901611785 
1454	 0.330500788222428 
1455	 0.332539962187765 
1456	 0.334404789856592 
1457	 0.336210455110892 
1458	 0.337872355568152 
1459	 0.339402971379609 
1460	 0.340838986928945 
1461	 0.342132869378005 
1462	 0.343345426572748 
1463	 0.34444280007161 
1464	 0.345491673238151 
1465	 0.346422774282841 
1466	 0.347354219697826 
1467	 0.348217379374098 
1468	 0.34904348610651 
1469	 0.349864237118698 
1470	 0.350606458708808 
1471	 0.351351510552427 
1472	 0.352078805993115 
1473	 0.352769442483354 
1474	 0.353447015151808 
1475	 0.35404520853982 
1476	 0.354629397309363 
1477	 0.355071603776056 
1478	 0.355433203106544 
1479	 0.35567908214735 
1480	 0.355814695300185 
1481	 0.355855989165646 
1482	 0.355771586922696 
1483	 0.355653776063471 
1484	 0.355401329596071 
1485	 0.355208506896644 
1486	 0.35491721181119 
1487	 0.354803401506039 
1488	 0.35468177622217 
1489	 0.35478393339979 
1490	 0.355011201974877 
1491	 0.355428313059727 
1492	 0.356000724966986 
1493	 0.356768572721942 
1494	 0.357752110378682 
1495	 0.358841292426252 
1496	 0.36013403243196 
1497	 0.361490109052017 
1498	 0.363035149156245 
1499	 0.364533007995334 
1500	 0.366137421509002 
1501	 0.367675987194235 
1502	 0.369232935467659 
1503	 0.370683845107313 
1504	 0.372116326382793 
1505	 0.373442126938616 
1506	 0.374685782766714 
1507	 0.375822608856406 
1508	 0.376865734061493 
1509	 0.377821350836123 
1510	 0.378657030788739 
1511	 0.379420249073387 
1512	 0.380103123364936 
1513	 0.380709614423256 
1514	 0.381224124063282 
1515	 0.381671768693206 
1516	 0.382033595705676 
1517	 0.382343235905259 
1518	 0.38257461002064 
1519	 0.382760423041557 
1520	 0.382890144465368 
1521	 0.382976138553168 
1522	 0.382998122854969 
1523	 0.382973743031055 
1524	 0.382912261259764 
1525	 0.38279330204337 
1526	 0.382667727730045 
1527	 0.38250740919973 
1528	 0.382339426783039 
1529	 0.382138889416627 
1530	 0.381966197280586 
1531	 0.38177564318092 
1532	 0.381628846949211 
1533	 0.381491034751911 
1534	 0.381414176052432 
1535	 0.38135384949035 
1536	 0.381383597023938 
1537	 0.381450668754924 
1538	 0.381650640000143 
1539	 0.381936549641983 
1540	 0.382318786028804 
1541	 0.382805440565766 
1542	 0.383394114890203 
1543	 0.384082498485356 
1544	 0.38484464454764 
1545	 0.385734678232378 
1546	 0.386645705292452 
1547	 0.387625688692173 
1548	 0.388633523873138 
1549	 0.38970946741415 
1550	 0.390785377626284 
1551	 0.39191104908795 
1552	 0.393000297803244 
1553	 0.39410509609337 
1554	 0.395178244186192 
1555	 0.396238212351001 
1556	 0.397264448619326 
1557	 0.398270045543306 
1558	 0.399253040871963 
1559	 0.400199893853213 
1560	 0.401136813501334 
1561	 0.402052436297512 
1562	 0.402965777886248 
1563	 0.403880006209023 
1564	 0.404748093533271 
1565	 0.40560429188897 
1566	 0.406421288850319 
1567	 0.407182004079352 
1568	 0.407941773702208 
1569	 0.408681689147677 
1570	 0.409409934679216 
1571	 0.410117947003989 
1572	 0.41081767065362 
1573	 0.41150445546188 
1574	 0.412182949400707 
1575	 0.412858223963156 
1576	 0.413507673570762 
1577	 0.414127721269079 
1578	 0.414760582277493 
1579	 0.41538576071217 
1580	 0.415998987386506 
1581	 0.416616683602226 
1582	 0.417222072688173 
1583	 0.417804183984145 
1584	 0.418389305960142 
1585	 0.418981545936494 
1586	 0.419557294218605 
1587	 0.4201157107898 
1588	 0.420675433577136 
1589	 0.421215609091155 
1590	 0.421776589720635 
1591	 0.422341521199528 
1592	 0.422919521235645 
1593	 0.423517324501868 
1594	 0.424113916302626 
1595	 0.424725109378024 
1596	 0.425321438103794 
1597	 0.425919310977017 
1598	 0.426505110579956 
1599	 0.427087727774785 
1600	 0.427649354233579 
1601	 0.428181633898357 
1602	 0.428729609769709 
1603	 0.42927797712138 
1604	 0.429809459545965 
1605	 0.430346593884525 
1606	 0.43087085424902 
1607	 0.431391030558101 
1608	 0.431873057105918 
1609	 0.43234799150724 
1610	 0.432785434228701 
1611	 0.433177881493987 
1612	 0.43354460762233 
1613	 0.433873551341757 
1614	 0.434196889136423 
1615	 0.434495915969737 
1616	 0.434778161903244 
1617	 0.435048235388921 
1618	 0.435305957673979 
1619	 0.435543530285938 
1620	 0.435762373493244 
1621	 0.435974693584744 
1622	 0.43616175907562 
1623	 0.436321290167105 
1624	 0.436465407351265 
1625	 0.436587460030578 
1626	 0.436698143376748 
1627	 0.436784466558216 
1628	 0.436867730842197 
1629	 0.436918764960464 
1630	 0.437005396977782 
1631	 0.437099789238396 
1632	 0.437206543111625 
1633	 0.43733014647039 
1634	 0.437477273864352 
1635	 0.437643968009378 
1636	 0.437813759886114 
1637	 0.438033174020858 
1638	 0.438209706509614 
1639	 0.438365233816262 
1640	 0.438515165961357 
1641	 0.438663361745208 
1642	 0.438769207634496 
1643	 0.438869789678194 
1644	 0.43891777017228 
1645	 0.438929615369912 
1646	 0.438884522637301 
1647	 0.438805698694827 
1648	 0.438651281387059 
1649	 0.438445177079039 
1650	 0.43814960677851 
1651	 0.437762893626757 
1652	 0.437333992587352 
1653	 0.436853679352771 
1654	 0.436274587778904 
1655	 0.435648045386598 
1656	 0.434893050893426 
1657	 0.434022962947437 
1658	 0.433047591076559 
1659	 0.431996004203593 
1660	 0.43079895547787 
1661	 0.429504458964005 
1662	 0.428018655214756 
1663	 0.42635597048706 
1664	 0.424540236595234 
1665	 0.42258966409252 
1666	 0.42040632769282 
1667	 0.418041173864291 
1668	 0.415515875643562 
1669	 0.412789373193029 
1670	 0.409870664423023 
1671	 0.406720250391772 
1672	 0.40347444211502 
1673	 0.400011221258732 
1674	 0.396485651502112 
1675	 0.39284864455712 
1676	 0.389239409992574 
1677	 0.385524161392083 
1678	 0.381834004102094 
1679	 0.378095103443875 
1680	 0.374421585289529 
1681	 0.370738662416839 
1682	 0.367102741750062 
1683	 0.363536370980049 
1684	 0.360070603734193 
1685	 0.356630225737524 
1686	 0.353273760545637 
1687	 0.349988800812404 
1688	 0.346787407212517 
1689	 0.343614026907907 
1690	 0.340597739233691 
1691	 0.337734546950542 
1692	 0.335014007451852 
1693	 0.332420992574429 
1694	 0.329936828150729 
1695	 0.327598967749956 
1696	 0.325310952124157 
1697	 0.323128283928484 
1698	 0.320981065729422 
1699	 0.318938249268523 
1700	 0.31693601331511 
1701	 0.314971549107571 
1702	 0.313091163465117 
1703	 0.311255699264928 
1704	 0.309519327789678 
1705	 0.307866812331415 
1706	 0.306243321862644 
1707	 0.304794241047111 
1708	 0.303365391212726 
1709	 0.301987459902853 
1710	 0.300713271998714 
1711	 0.299441789121453 
1712	 0.298266615994127 
1713	 0.297130082649115 
1714	 0.295970020853168 
1715	 0.29489453114846 
1716	 0.293797229954524 
1717	 0.292715268453947 
1718	 0.291706485277567 
1719	 0.290679137559408 
1720	 0.289711279349286 
1721	 0.288816406648916 
1722	 0.287978586316311 
1723	 0.287291475955317 
1724	 0.286705665893999 
1725	 0.286218514419381 
1726	 0.285886552780031 
1727	 0.285653031896582 
1728	 0.285540644913031 
1729	 0.28559383970752 
1730	 0.285770837038857 
1731	 0.286019579516875 
1732	 0.286386488018264 
1733	 0.286782080626139 
1734	 0.287171965830888 
1735	 0.287611013186282 
1736	 0.288003572390378 
1737	 0.288320394966666 
1738	 0.288602539287068 
1739	 0.288793727893496 
1740	 0.288874681270339 
1741	 0.288952197910263 
1742	 0.288950990983137 
1743	 0.28897515918154 
1744	 0.288957299124201 
1745	 0.289011815893046 
1746	 0.289055105531176 
1747	 0.289210993194208 
1748	 0.289427737094467 
1749	 0.289749513765345 
1750	 0.290160446889015 
1751	 0.290688662878119 
1752	 0.291308730542116 
1753	 0.292070339520712 
1754	 0.292958192584266 
1755	 0.293931344980556 
1756	 0.295034470716979 
1757	 0.296179908871065 
1758	 0.297488044946245 
1759	 0.298825633240869 
1760	 0.300307516073431 
1761	 0.301920711335172 
1762	 0.303495612174349 
1763	 0.305231054965862 
1764	 0.307004488078318 
1765	 0.308771433901178 
1766	 0.31068882160694 
1767	 0.312529725614339 
1768	 0.314389343061448 
1769	 0.316294463938854 
1770	 0.318038249694138 
1771	 0.319777846237305 
1772	 0.321420943853568 
1773	 0.322949156625388 
1774	 0.324534084410416 
1775	 0.325999584750722 
1776	 0.327435649421151 
1777	 0.328827902486773 
1778	 0.330036783657626 
1779	 0.331259470408714 
1780	 0.332446131304672 
1781	 0.333553627640776 
1782	 0.334696856023796 
1783	 0.3357901124379 
1784	 0.336853798347482 
1785	 0.337875669236816 
1786	 0.338850351531054 
1787	 0.339776068799079 
1788	 0.34068473664594 
1789	 0.341575838445593 
1790	 0.342449975661627 
1791	 0.34329042367456 
1792	 0.344125671913055 
1793	 0.344926928190742 
1794	 0.345693595020701 
1795	 0.346453451781488 
1796	 0.347161287644728 
1797	 0.34790999632443 
1798	 0.348620117235006 
1799	 0.349311381038901 
1800	 0.349994500328598 
1801	 0.365268569927444 
1802	 0.366343335305066 
1803	 0.367294888153542 
1804	 0.368139224834681 
1805	 0.368965612527065 
1806	 0.36971012480055 
1807	 0.370357216366362 
1808	 0.371002907917695 
1809	 0.3716132909907 
1810	 0.372172871576259 
1811	 0.372667150445365 
1812	 0.373169061692574 
1813	 0.37361592104707 
1814	 0.374087526428978 
1815	 0.374567840294338 
1816	 0.375042119182351 
1817	 0.375512528533365 
1818	 0.375973984890791 
1819	 0.376435062025825 
1820	 0.376887367905939 
1821	 0.37735273246462 
1822	 0.377824155510115 
1823	 0.378305925542537 
1824	 0.378753143553476 
1825	 0.379208761775668 
1826	 0.379652818676467 
1827	 0.38008734703793 
1828	 0.38048653383605 
1829	 0.380868660956517 
1830	 0.381250248585406 
1831	 0.381603498980264 
1832	 0.381964267718493 
1833	 0.382294246115257 
1834	 0.382643749950015 
1835	 0.382978382855617 
1836	 0.383274471480106 
1837	 0.383597567417232 
1838	 0.383941754927494 
1839	 0.384268984604656 
1840	 0.384600793171305 
1841	 0.384918645986033 
1842	 0.38523613137912 
1843	 0.385542872020831 
1844	 0.385841923001058 
1845	 0.386072120638196 
1846	 0.386261982626955 
1847	 0.386429014562644 
1848	 0.386538822224883 
1849	 0.386624569168597 
1850	 0.386610218638949 
1851	 0.386549195168391 
1852	 0.386395051648622 
1853	 0.386131741755469 
1854	 0.385803252840401 
1855	 0.385391605759555 
1856	 0.384915592345965 
1857	 0.384337984669576 
1858	 0.383634688803006 
1859	 0.382856610903131 
1860	 0.382003523338551 
1861	 0.381000006592204 
1862	 0.379873462867249 
1863	 0.378704529521521 
1864	 0.377356326722639 
1865	 0.375941759476945 
1866	 0.374425165389242 
1867	 0.37269710839586 
1868	 0.370909280714471 
1869	 0.368990370846384 
1870	 0.367028511848724 
1871	 0.365004408744349 
1872	 0.36296124336181 
1873	 0.360860269220697 
1874	 0.358756522590382 
1875	 0.35661669256177 
1876	 0.354224575719903 
1877	 0.351853051061093 
1878	 0.349297044215612 
1879	 0.346522222259817 
1880	 0.343850652677307 
1881	 0.340960464258559 
1882	 0.337881005765801 
1883	 0.33472474721251 
1884	 0.331460626609901 
1885	 0.327836282160649 
1886	 0.32421663323527 
1887	 0.320382271842016 
1888	 0.316349665606025 
1889	 0.312536278948203 
1890	 0.308533881811406 
1891	 0.304534260738058 
1892	 0.300622453465169 
1893	 0.296559968677529 
1894	 0.292316675363864 
1895	 0.288228685451972 
1896	 0.284084611776751 
1897	 0.279893775230351 
1898	 0.276054543244285 
1899	 0.27214685895412 
1900	 0.268336111433351 
1901	 0.264687762202621 
1902	 0.260832201466806 
1903	 0.25718343068098 
1904	 0.253621996154657 
1905	 0.250102039619863 
1906	 0.246664682721165 
1907	 0.243591781211725 
1908	 0.240472548105499 
1909	 0.237441289647128 
1910	 0.234534168786102 
1911	 0.231469543471822 
1912	 0.228557579415204 
1913	 0.225637473160189 
1914	 0.222639868472878 
1915	 0.219772517119628 
1916	 0.217043344843113 
1917	 0.214182180945905 
1918	 0.21136977330147 
1919	 0.208613451328161 
1920	 0.205628921000114 
1921	 0.202715264745353 
1922	 0.19971762250378 
1923	 0.196618007986471 
1924	 0.193750523252362 
1925	 0.19078285159834 
1926	 0.187851854351627 
1927	 0.185008660704844 
1928	 0.182120924159377 
1929	 0.179126330647946 
1930	 0.176296362266736 
1931	 0.173548538264545 
1932	 0.170884419990189 
1933	 0.168596520336039 
1934	 0.166452620287636 
1935	 0.164490522633156 
1936	 0.162838673897938 
1937	 0.161367579934072 
1938	 0.160051422424157 
1939	 0.159058659022141 
1940	 0.158320127956059 
1941	 0.157835194134138 
1942	 0.157628428248592 
1943	 0.157609892003258 
1944	 0.157778289516694 
1945	 0.158166224558783 
1946	 0.158804580275593 
1947	 0.15961033037287 
1948	 0.16073591124998 
1949	 0.162147389523674 
1950	 0.163732337158882 
1951	 0.16556543276317 
1952	 0.167629579464287 
1953	 0.169893166962113 
1954	 0.172391674236877 
1955	 0.175227810346143 
1956	 0.178072136494932 
1957	 0.180993279431474 
1958	 0.183944850865326 
1959	 0.186583599874206 
1960	 0.189097036342033 
1961	 0.191355404980467 
1962	 0.193358849811369 
1963	 0.195164877480228 
1964	 0.19675468547252 
1965	 0.198136586759687 
1966	 0.199285640450712 
1967	 0.200295617852121 
1968	 0.201098688132259 
1969	 0.2018931786105 
1970	 0.202631136727348 
1971	 0.2033740149065 
1972	 0.204217008882658 
1973	 0.205090439218428 
1974	 0.206048713803854 
1975	 0.207120102372259 
1976	 0.208207490830667 
1977	 0.209333483987343 
1978	 0.21052757153783 
1979	 0.211775962116973 
1980	 0.213057337218608 
1981	 0.214459148951244 
1982	 0.215845978388325 
1983	 0.217335287805574 
1984	 0.218897557113556 
1985	 0.220443020683715 
1986	 0.2221528732698 
1987	 0.224003473399012 
1988	 0.225868333619209 
1989	 0.228062826584762 
1990	 0.230480017099427 
1991	 0.233067535330053 
1992	 0.235896824780961 
1993	 0.238966225130558 
1994	 0.241958068826007 
1995	 0.24519613152088 
1996	 0.248462882443437 
1997	 0.251715644496115 
1998	 0.255080783581686 
1999	 0.258653724993614 
2000	 0.261967692339622 
2001	 0.26540694916064 
2002	 0.26847874160541 
2003	 0.271317387129912 
2004	 0.274046078914553 
2005	 0.276521610447522 
2006	 0.278924580062483 
2007	 0.281270886025863 
2008	 0.28339402927917 
2009	 0.285362355040638 
2010	 0.287212583180475 
2011	 0.288760046200509 
2012	 0.290208741841995 
2013	 0.29153303678948 
2014	 0.292670237293386 
2015	 0.29374408859911 
2016	 0.294729767188202 
2017	 0.295578705106891 
2018	 0.296305003949564 
2019	 0.296934239334233 
2020	 0.297435140019432 
2021	 0.297845565801835 
2022	 0.298154202909066 
2023	 0.298347266081197 
2024	 0.298451972778164 
2025	 0.298476358858605 
2026	 0.298435969018155 
2027	 0.298298349513619 
2028	 0.298141004037857 
2029	 0.297923827627648 
2030	 0.297655148745618 
2031	 0.297337692103428 
2032	 0.296983755318784 
2033	 0.296532825888584 
2034	 0.296106338033124 
2035	 0.295659009025881 
2036	 0.295197260635517 
2037	 0.294750845114079 
2038	 0.294336761412534 
2039	 0.293944433878388 
2040	 0.293586355543116 
2041	 0.293215039133439 
2042	 0.292850205209575 
2043	 0.292512066166733 
2044	 0.292167408401115 
2045	 0.291864322223272 
2046	 0.291612255269905 
2047	 0.2913478022128 
2048	 0.291114282032192 
2049	 0.290861226884031 
2050	 0.290596608010765 
2051	 0.290349963594865 
2052	 0.290087817927313 
2053	 0.289792199279745 
2054	 0.289523872536471 
2055	 0.289249849688751 
2056	 0.288998171547938 
2057	 0.288773611040799 
2058	 0.288531570165724 
2059	 0.288287348429109 
2060	 0.288061248961716 
2061	 0.287807340792539 
2062	 0.287607923768448 
2063	 0.287463306966598 
2064	 0.287299941223534 
2065	 0.287133171421721 
2066	 0.287019468353353 
2067	 0.286886927231898 
2068	 0.286776378610201 
2069	 0.286683232376343 
2070	 0.286628539897515 
2071	 0.286548864531457 
2072	 0.286469188925102 
2073	 0.286395122001229 
2074	 0.286337839053125 
2075	 0.286245463798954 
2076	 0.286147203804644 
2077	 0.286037736678859 
2078	 0.285897650620834 
2079	 0.285755616302117 
2080	 0.285618168378262 
2081	 0.285460950850575 
2082	 0.285281793978435 
2083	 0.285111360500111 
2084	 0.284899417992741 
2085	 0.284675522238957 
2086	 0.284412459844944 
2087	 0.284099460445066 
2088	 0.283792573911426 
2089	 0.283462336434519 
2090	 0.283128037263077 
2091	 0.282800016199746 
2092	 0.282436074660105 
2093	 0.282048889386393 
2094	 0.281649012009924 
2095	 0.281211687091453 
2096	 0.280777790205353 
2097	 0.28034998154912 
2098	 0.279886112589271 
2099	 0.279433078727513 
2100	 0.278978618784828 
2101	 0.278469370175747 
2102	 0.277938201929732 
2103	 0.277381257877458 
2104	 0.276772307966808 
2105	 0.276162426651181 
2106	 0.275538825585053 
2107	 0.274898582100326 
2108	 0.274246725925349 
2109	 0.27356228014036 
2110	 0.272851750611022 
2111	 0.272133488723893 
2112	 0.271351991804201 
2113	 0.270614268283188 
2114	 0.269902629888556 
2115	 0.269175911039861 
2116	 0.268444422069861 
2117	 0.267756056011936 
2118	 0.267018294967134 
2119	 0.266241966721769 
2120	 0.265510683193447 
2121	 0.264759870398159 
2122	 0.264071657640056 
2123	 0.263432280131329 
2124	 0.262790366789305 
2125	 0.262191537665004 
2126	 0.261572004009911 
2127	 0.260933495111754 
2128	 0.260337840267778 
2129	 0.259735550708243 
2130	 0.259182566881882 
2131	 0.258702408286011 
2132	 0.258196829542772 
2133	 0.257699080621059 
2134	 0.257230637722836 
2135	 0.256716596056946 
2136	 0.256227023636795 
2137	 0.255747834368781 
2138	 0.255263746940721 
2139	 0.254825034825977 
2140	 0.254417246251646 
2141	 0.25401362661267 
2142	 0.253649674907844 
2143	 0.253270353871709 
2144	 0.25287869619491 
2145	 0.252518238646078 
2146	 0.2521648430303 
2147	 0.251835662430837 
2148	 0.251542779207428 
2149	 0.251242738843676 
2150	 0.250969831199708 
2151	 0.250677264800776 
2152	 0.250371988642953 
2153	 0.250078304241803 
2154	 0.249768746126605 
2155	 0.249434916744867 
2156	 0.249129403756448 
2157	 0.248830377371968 
2158	 0.248523404392296 
2159	 0.248241514654475 
2160	 0.247914273009571 
2161	 0.247551316239124 
2162	 0.247213100369283 
2163	 0.246846429521868 
2164	 0.246520484663886 
2165	 0.246232112108603 
2166	 0.245926672896852 
2167	 0.245627348643445 
2168	 0.245333902064765 
2169	 0.245009478761956 
2170	 0.244740448632697 
2171	 0.244487579683365 
2172	 0.244280897073904 
2173	 0.244131881029662 
2174	 0.243996655915781 
2175	 0.243863934080841 
2176	 0.243755159537031 
2177	 0.243691033172997 
2178	 0.243643336330403 
2179	 0.243635554696692 
2180	 0.24369758734477 
2181	 0.243729113172288 
2182	 0.243771551799742 
2183	 0.243811578654963 
2184	 0.243865665771126 
2185	 0.243898311027128 
2186	 0.243936943431763 
2187	 0.243939978080757 
2188	 0.24391973684918 
2189	 0.243886800981778 
2190	 0.243843422067188 
2191	 0.243761576740614 
2192	 0.243670239243678 
2193	 0.243531916187656 
2194	 0.243340561403713 
2195	 0.243131038286885 
2196	 0.242899927948164 
2197	 0.242610700605255 
2198	 0.242335934912839 
2199	 0.242036951916878 
2200	 0.241689603305134 
2201	 0.241325953395052 
2202	 0.240904375504326 
2203	 0.240412103764866 
2204	 0.239928187096632 
2205	 0.239405281831601 
2206	 0.238888743580307 
2207	 0.23837237692223 
2208	 0.237816343259503 
2209	 0.23723811141075 
2210	 0.236652262383514 
2211	 0.236027077942158 
2212	 0.235421253634029 
2213	 0.234778325061317 
2214	 0.234205436789155 
2215	 0.233666907367953 
2216	 0.233138997405384 
2217	 0.232666147638732 
2218	 0.232195142478439 
2219	 0.231703992141756 
2220	 0.231264062207945 
2221	 0.230853695627044 
2222	 0.230494138354402 
2223	 0.230178934475778 
2224	 0.229816234858672 
2225	 0.229419114126317 
2226	 0.228951472606562 
2227	 0.228341289986893 
2228	 0.22764271808918 
2229	 0.226795859825146 
2230	 0.225816801692604 
2231	 0.224708267707119 
2232	 0.223481385260091 
2233	 0.222081575457767 
2234	 0.220563959997226 
2235	 0.218826754879168 
2236	 0.216877180115623 
2237	 0.21482091142973 
2238	 0.212519266131644 
2239	 0.210206918290788 
2240	 0.207804149191267 
2241	 0.205287415830995 
2242	 0.202742011670346 
2243	 0.199994226474632 
2244	 0.197033202301935 
2245	 0.194061489221871 
2246	 0.190815222902391 
2247	 0.187723808194943 
2248	 0.184701715658614 
2249	 0.181630690794147 
2250	 0.178552972527997 
2251	 0.175600945927569 
2252	 0.172390459172499 
2253	 0.169303340506885 
2254	 0.16625704007267 
2255	 0.163190815855907 
2256	 0.160449948999259 
2257	 0.157742339079677 
2258	 0.155159192535945 
2259	 0.152756333407572 
2260	 0.150340693618707 
2261	 0.14793240945203 
2262	 0.145750310272477 
2263	 0.143623107177435 
2264	 0.141740443626746 
2265	 0.140134759980477 
2266	 0.138526419364387 
2267	 0.137062163405546 
2268	 0.135665856286719 
2269	 0.134337675740712 
2270	 0.133122168820588 
2271	 0.132072434674504 
2272	 0.131005737309709 
2273	 0.13004450385014 
2274	 0.129032071585931 
2275	 0.128058487029444 
2276	 0.127016032389341 
2277	 0.125954346541989 
2278	 0.124848609488096 
2279	 0.12367117911698 
2280	 0.122482253570492 
2281	 0.121274458605521 
2282	 0.120025178079251 
2283	 0.11874986035597 
2284	 0.117442314509727 
2285	 0.11603762046492 
2286	 0.114665392848333 
2287	 0.113217970610465 
2288	 0.111721374513719 
2289	 0.110357609172713 
2290	 0.108967475890137 
2291	 0.107636015952878 
2292	 0.106394370927108 
2293	 0.105073405427128 
2294	 0.103851815605408 
2295	 0.102744071738034 
2296	 0.101753509262622 
2297	 0.100962612222457 
2298	 0.100337246925648 
2299	 9.98905659205635E-02 
2300	 9.96344918429226E-02 
2301	 9.95427643992553E-02 
2302	 9.96232647577186E-02 
2303	 9.99241718121694E-02 
2304	 0.100433520066009 
2305	 0.101110405614139 
2306	 0.102049495217825 
2307	 0.103067420955453 
2308	 0.10421296950094 
2309	 0.105537527337402 
2310	 0.107084435132792 
2311	 0.108652590286858 
2312	 0.110466622622907 
2313	 0.112149812946528 
2314	 0.113850736519632 
2315	 0.115498892921669 
2316	 0.117149891977361 
2317	 0.118669469631871 
2318	 0.12018419085494 
2319	 0.121487636641791 
2320	 0.122656408843729 
2321	 0.123658898411757 
2322	 0.124486975129548 
2323	 0.125160455236271 
2324	 0.125625546739241 
2325	 0.126004890377 
2326	 0.126225965738883 
2327	 0.126342325911142 
2328	 0.12633942740573 
2329	 0.126227861067492 
2330	 0.126002371603113 
2331	 0.125606249817006 
2332	 0.125146776928497 
2333	 0.124606129700819 
2334	 0.123908265294948 
2335	 0.123206297064376 
2336	 0.122461151267205 
2337	 0.121593566222107 
2338	 0.120755408461116 
2339	 0.119949414025668 
2340	 0.119146177848576 
2341	 0.118376708908852 
2342	 0.117658672803686 
2343	 0.117040379354592 
2344	 0.116549785789708 
2345	 0.116266017072988 
2346	 0.116221354468306 
2347	 0.116387460447438 
2348	 0.116732919689329 
2349	 0.117299756048051 
2350	 0.118028597968763 
2351	 0.118926712197876 
2352	 0.119923389298883 
2353	 0.120954276229774 
2354	 0.121917707192425 
2355	 0.122820757028425 
2356	 0.123688809376867 
2357	 0.124367708087382 
2358	 0.124969530934415 
2359	 0.125439058827629 
2360	 0.125710631425403 
2361	 0.125896313198946 
2362	 0.125958556838906 
2363	 0.125896544090519 
2364	 0.125851758377473 
2365	 0.125777471098094 
2366	 0.12568439206888 
2367	 0.125624857060094 
2368	 0.125501476076248 
2369	 0.125318175655622 
2370	 0.125078938134535 
2371	 0.12483426731332 
2372	 0.124616325508643 
2373	 0.124365000446436 
2374	 0.124080361098493 
2375	 0.123786738328098 
2376	 0.12347140039708 
2377	 0.123121814524331 
2378	 0.122784546140772 
2379	 0.122430401277001 
2380	 0.122023586880741 
2381	 0.12164419961247 
2382	 0.121242896346262 
2383	 0.120839171890153 
2384	 0.120441453310163 
2385	 0.120011675997629 
2386	 0.119609053080873 
2387	 0.119273937205113 
2388	 0.118844802324805 
2389	 0.118389329135467 
2390	 0.117875269105518 
2391	 0.117275877531676 
2392	 0.116706743492505 
2393	 0.11610392696379 
2394	 0.115544799303535 
2395	 0.114992721035793 
2396	 0.114424405562579 
2397	 0.113866070510964 
2398	 0.113356558754644 
2399	 0.112853853322694 
2400	 0.112370561945293 
2401	 0.11193618425105 
2402	 0.111397114006095 
2403	 0.110947571765064 
2404	 0.110582681573886 
2405	 0.110208006818963 
2406	 0.109842589500436 
2407	 0.109500945813358 
2408	 0.109126042647277 
2409	 0.108781490285173 
2410	 0.108384009015966 
2411	 0.107949679712892 
2412	 0.107598882239159 
2413	 0.107212105636868 
2414	 0.107018546485405 
2415	 0.106958611959096 
2416	 0.106733690035745 
2417	 0.106569660269227 
2418	 0.106387828164491 
2419	 0.106143047593306 
2420	 0.106040053957522 
2421	 0.105917456166349 
2422	 0.105737113931816 
2423	 0.105602679095434 
2424	 0.105384741293595 
2425	 0.105136239260828 
2426	 0.104985650445786 
2427	 0.104840051510802 
2428	 0.104689765707328 
2429	 0.104561467248606 
2430	 0.104395746655597 
2431	 0.10417458993989 
2432	 0.103985666406073 
2433	 0.103843218947825 
2434	 0.103638069639853 
2435	 0.103452203075696 
2436	 0.10326271110015 
2437	 0.103045987829996 
2438	 0.102987504040193 
2439	 0.102874902157536 
2440	 0.102686493967945 
2441	 0.102607423507074 
2442	 0.102489558038864 
2443	 0.102261847724576 
2444	 0.102035129035493 
2445	 0.101805311736733 
2446	 0.101410971356026 
2447	 0.101057721628987 
2448	 0.100844818536739 
2449	 0.100640425627048 
2450	 0.10046265770515 
2451	 0.100226434229879 
2452	 9.99434907638393E-02 
2453	 9.95877707912889E-02 
2454	 9.92632306640708E-02 
2455	 9.90549999075687E-02 
2456	 9.87274797661246E-02 
2457	 9.84315661049665E-02 
2458	 9.81789237043282E-02 
2459	 9.78780481850574E-02 
2460	 0.097788063735644 
2461	 9.76205873319438E-02 
2462	 9.72057981930085E-02 
2463	 0.096770564872917 
2464	 9.64109012803154E-02 
2465	 0.096176135227348 
2466	 9.60054552319397E-02 
2467	 9.59699169387446E-02 
2468	 9.58996991162608E-02 
2469	 0.09565841391174 
2470	 9.54543868876366E-02 
2471	 9.52691347504254E-02 
2472	 9.50312421966007E-02 
2473	 9.48305915368534E-02 
2474	 9.47751558695989E-02 
2475	 9.48629022201021E-02 
2476	 9.50171213351483E-02 
2477	 9.51383018698687E-02 
2478	 9.52569484762172E-02 
2479	 9.53134360716677E-02 
2480	 9.54012933808654E-02 
2481	 9.55457292763905E-02 
2482	 9.57453869212244E-02 
2483	 9.59734658101327E-02 
2484	 9.60534342174739E-02 
2485	 9.62747682458818E-02 
2486	 9.65875796196003E-02 
2487	 9.68713475790167E-02 
2488	 9.72170310348857E-02 
2489	 0.097407905007635 
2490	 9.74299285295372E-02 
2491	 0.097610375092728 
2492	 9.79581452939121E-02 
2493	 9.83817732332626E-02 
2494	 9.88509838954719E-02 
2495	 9.92845378958977E-02 
2496	 9.94986778036109E-02 
2497	 9.94802924800666E-02 
2498	 9.97912006310928E-02 
2499	 0.100076278409937 
2500	 0.100280882757768 
