Wavelength	spectrum00021.asd
350	 7.36825854799147E-02 
351	 7.18594812791585E-02 
352	 6.99745616974941E-02 
353	 6.82161874030372E-02 
354	 6.71265671192681E-02 
355	 6.48810475131588E-02 
356	 6.24577568174242E-02 
357	 6.08779581911375E-02 
358	 5.94977916193004E-02 
359	 5.67101330553743E-02 
360	 5.41815637381419E-02 
361	 5.45031618188109E-02 
362	 5.34091684931144E-02 
363	 5.21417278386408E-02 
364	 5.13743681447609E-02 
365	 5.03061797595514E-02 
366	 5.02830244926443E-02 
367	 5.02590907823457E-02 
368	 4.93842776513994E-02 
369	 4.93401634138344E-02 
370	 4.94170813406377E-02 
371	 0.048925902710103 
372	 4.75083902661686E-02 
373	 4.73021760502239E-02 
374	 4.72809906928484E-02 
375	 4.68097052773489E-02 
376	 4.63261530338993E-02 
377	 4.57477169237071E-02 
378	 0.044876983970449 
379	 4.38346063111807E-02 
380	 4.38843704153852E-02 
381	 0.04451898632251 
382	 4.47280866391727E-02 
383	 0.043557131301598 
384	 4.31123585058724E-02 
385	 4.33810133614119E-02 
386	 4.34259962723025E-02 
387	 4.12825440062993E-02 
388	 4.08859095816243E-02 
389	 4.11142896430695E-02 
390	 0.040240002515997 
391	 3.98071425053825E-02 
392	 3.97401656756283E-02 
393	 3.96304558141837E-02 
394	 3.90122517976426E-02 
395	 3.91540518857793E-02 
396	 3.88477835263725E-02 
397	 3.78125464476181E-02 
398	 3.78185826235529E-02 
399	 3.74261551209972E-02 
400	 3.68002095664475E-02 
401	 3.64038975311757E-02 
402	 3.58441339422843E-02 
403	 3.58174437451613E-02 
404	 3.60316790823461E-02 
405	 3.55361565413441E-02 
406	 3.52064783204114E-02 
407	 3.46312593244004E-02 
408	 3.38168375552199E-02 
409	 3.40087890410317E-02 
410	 0.033719223023082 
411	 3.32067559813755E-02 
412	 3.30894272766259E-02 
413	 3.26954098878492E-02 
414	 3.22926624953191E-02 
415	 3.21045986283475E-02 
416	 3.22368153014492E-02 
417	 0.032099334621321 
418	 3.17766191926713E-02 
419	 3.14634958813918E-02 
420	 3.13087208456213E-02 
421	 3.10237419896341E-02 
422	 3.07990845187493E-02 
423	 3.08961638830524E-02 
424	 3.06918115934367E-02 
425	 3.04083421351504E-02 
426	 3.02366761384046E-02 
427	 3.02476371311299E-02 
428	 3.01185292423248E-02 
429	 3.00197084450462E-02 
430	 3.00281990482309E-02 
431	 0.029516423808505 
432	 2.94600394296107E-02 
433	 2.96739245207721E-02 
434	 2.94178470573018E-02 
435	 2.94546118295912E-02 
436	 2.94919920251384E-02 
437	 0.029364382704461 
438	 2.92781993723391E-02 
439	 2.92820629308048E-02 
440	 2.92691716810604E-02 
441	 2.91535851503075E-02 
442	 2.91619066375288E-02 
443	 2.91472135710138E-02 
444	 2.91104033109386E-02 
445	 2.91666888896731E-02 
446	 2.91660081629842E-02 
447	 2.90933100956482E-02 
448	 2.90062899431011E-02 
449	 2.90802273749094E-02 
450	 2.91295784585903E-02 
451	 2.90992264664358E-02 
452	 2.90069391308677E-02 
453	 2.89598951802036E-02 
454	 2.89780941017987E-02 
455	 2.90441223056794E-02 
456	 2.91087021774971E-02 
457	 2.92022083516664E-02 
458	 2.92221532837108E-02 
459	 0.029154864538984 
460	 2.93470644416958E-02 
461	 2.94325052021794E-02 
462	 2.93550011374592E-02 
463	 2.92670807380253E-02 
464	 0.02944657220515 
465	 2.96651835661797E-02 
466	 2.97479366537132E-02 
467	 2.96860164470563E-02 
468	 2.97876531293368E-02 
469	 3.00128172481275E-02 
470	 3.02326506269166E-02 
471	 0.030462371048639 
472	 0.030614253783134 
473	 3.07884528576141E-02 
474	 3.12017439917981E-02 
475	 3.14395366781689E-02 
476	 3.17135240348056E-02 
477	 3.21744545383075E-02 
478	 0.032607921945297 
479	 3.31167812085487E-02 
480	 3.36845829480575E-02 
481	 3.42727496842323E-02 
482	 3.49895118643776E-02 
483	 3.57511943611379E-02 
484	 3.65575872336947E-02 
485	 0.03751509985555 
486	 3.85288393511607E-02 
487	 3.95316297841652E-02 
488	 4.05470180394802E-02 
489	 4.18534373901572E-02 
490	 4.32572548383304E-02 
491	 0.044703585925946 
492	 4.62190856009086E-02 
493	 4.77341417088915E-02 
494	 4.93848616004335E-02 
495	 5.12204078396326E-02 
496	 5.31075693434828E-02 
497	 5.51037919193011E-02 
498	 5.71986698798224E-02 
499	 5.93644694571225E-02 
500	 6.16054378500615E-02 
501	 6.39240696252284E-02 
502	 6.63016674577043E-02 
503	 6.87103008341209E-02 
504	 7.13159687066811E-02 
505	 7.39763882039506E-02 
506	 7.66134575261696E-02 
507	 7.94500051132928E-02 
508	 8.22776383260905E-02 
509	 8.51068357195814E-02 
510	 8.80246315840103E-02 
511	 9.09254238426937E-02 
512	 9.38847295082004E-02 
513	 9.69249530711081E-02 
514	 9.99932746220759E-02 
515	 0.103038096616246 
516	 0.106108486423047 
517	 0.109230886263273 
518	 0.112233791319 
519	 0.11530814446144 
520	 0.118478576148553 
521	 0.121641871593359 
522	 0.124731374036403 
523	 0.127795590285328 
524	 0.130873256951436 
525	 0.133956624446951 
526	 0.137045387752807 
527	 0.140131594825128 
528	 0.143207043418947 
529	 0.146269793588859 
530	 0.149289351653786 
531	 0.152285445749555 
532	 0.155324731969177 
533	 0.158269487042242 
534	 0.161190419474729 
535	 0.164135111979652 
536	 0.166949056973334 
537	 0.169813126494484 
538	 0.172707859796087 
539	 0.175506429325252 
540	 0.178213369919819 
541	 0.180928838360274 
542	 0.183686290338344 
543	 0.18639633056686 
544	 0.188988720416823 
545	 0.191492429674378 
546	 0.193988581164008 
547	 0.196611711115926 
548	 0.199279576496184 
549	 0.201954125549407 
550	 0.204644783475675 
551	 0.207370075856686 
552	 0.21012054760598 
553	 0.212894102777636 
554	 0.215727850146907 
555	 0.218507425836703 
556	 0.221265659297388 
557	 0.224079010774597 
558	 0.22676942423476 
559	 0.229449751835556 
560	 0.232164751993297 
561	 0.234829614338188 
562	 0.237281120112084 
563	 0.239508197925553 
564	 0.241564657226441 
565	 0.243520594587607 
566	 0.245515485900166 
567	 0.247518163337106 
568	 0.249395592841181 
569	 0.251502573289079 
570	 0.253797007178537 
571	 0.256161690521811 
572	 0.258475727722463 
573	 0.2607243375644 
574	 0.26285142653855 
575	 0.26478951469663 
576	 0.266469367461496 
577	 0.267851610024047 
578	 0.269037014735783 
579	 0.270272411068698 
580	 0.271694648105601 
581	 0.273366175515546 
582	 0.275263845636356 
583	 0.27721200671915 
584	 0.27922833798801 
585	 0.281325696315126 
586	 0.283480603510491 
587	 0.285343731702127 
588	 0.287069113302506 
589	 0.288820733614042 
590	 0.290656898893097 
591	 0.292596067620296 
592	 0.294576530747007 
593	 0.296549436810978 
594	 0.298671174082581 
595	 0.30069012762666 
596	 0.302545558675726 
597	 0.304351778878318 
598	 0.306087934976372 
599	 0.307786601772613 
600	 0.309472872249067 
601	 0.311124367344861 
602	 0.312776176165598 
603	 0.314472547146132 
604	 0.316239227974622 
605	 0.31798708366618 
606	 0.319694872416054 
607	 0.321352969601948 
608	 0.322954357262862 
609	 0.324488922986759 
610	 0.326013084897747 
611	 0.327570123261392 
612	 0.329094831151516 
613	 0.330606088470816 
614	 0.33211019210625 
615	 0.333608277439305 
616	 0.335109793103095 
617	 0.336598704317908 
618	 0.33807022397423 
619	 0.339550368141775 
620	 0.341020645491237 
621	 0.342459379978434 
622	 0.343860114433798 
623	 0.345293996671608 
624	 0.346715422463916 
625	 0.348103984910226 
626	 0.349469118994584 
627	 0.350790112153735 
628	 0.352133309695503 
629	 0.35352878454533 
630	 0.354878225275207 
631	 0.356188058355479 
632	 0.35749328241769 
633	 0.358828738052448 
634	 0.360125590850667 
635	 0.361391913634737 
636	 0.362644358695767 
637	 0.36389677515592 
638	 0.365120175133037 
639	 0.366387640005758 
640	 0.367711643292235 
641	 0.368818191388039 
642	 0.369977758693959 
643	 0.371238305507794 
644	 0.372492629910154 
645	 0.373606708070067 
646	 0.374705076574369 
647	 0.37587786885029 
648	 0.377108165961935 
649	 0.378218848326988 
650	 0.379275524890767 
651	 0.38039817068327 
652	 0.38157315032591 
653	 0.382710191751081 
654	 0.383775254309998 
655	 0.384794118820369 
656	 0.385929558988347 
657	 0.387077356452921 
658	 0.388147338820154 
659	 0.389163938295027 
660	 0.390305451120504 
661	 0.391429384875738 
662	 0.392354849361149 
663	 0.393417521563035 
664	 0.394555799949642 
665	 0.395652584881597 
666	 0.396574180172746 
667	 0.397567345918846 
668	 0.398625903103538 
669	 0.399678253468341 
670	 0.400622948493902 
671	 0.401623477205662 
672	 0.402680904923592 
673	 0.403716676852878 
674	 0.404668473214992 
675	 0.405674444943783 
676	 0.406718462627906 
677	 0.407584317724964 
678	 0.408572034650601 
679	 0.409571035018161 
680	 0.410462023047004 
681	 0.411407304634133 
682	 0.412354123686223 
683	 0.413268849336606 
684	 0.414146938180024 
685	 0.415118378610782 
686	 0.416115373274357 
687	 0.417076010879636 
688	 0.417980539757453 
689	 0.418758359130545 
690	 0.419587911336729 
691	 0.420595684385036 
692	 0.421502489714413 
693	 0.422350328088089 
694	 0.423185368384274 
695	 0.424055883120302 
696	 0.425012907439204 
697	 0.42589599888702 
698	 0.426672242205458 
699	 0.427549668279449 
700	 0.4283193229052 
701	 0.42909305534766 
702	 0.430002531936093 
703	 0.430907859922229 
704	 0.431726863223076 
705	 0.4324809050589 
706	 0.433263092049589 
707	 0.434077937214099 
708	 0.434935676697442 
709	 0.435789922698433 
710	 0.436496817369609 
711	 0.437310990323593 
712	 0.438115189650964 
713	 0.438779303932114 
714	 0.439594527749414 
715	 0.440415097427229 
716	 0.441159262550242 
717	 0.441818899561114 
718	 0.442555278190818 
719	 0.443365189889185 
720	 0.444178085955382 
721	 0.444854583623982 
722	 0.445490233686681 
723	 0.446178291050722 
724	 0.446970807137487 
725	 0.447779028437727 
726	 0.44852044697505 
727	 0.449192115517036 
728	 0.449849027988529 
729	 0.450484271719823 
730	 0.451159371148861 
731	 0.451883727344742 
732	 0.452572331348786 
733	 0.453263212405224 
734	 0.453947426264535 
735	 0.454631479903721 
736	 0.455438903077655 
737	 0.456116848983614 
738	 0.456703804265055 
739	 0.457406553386921 
740	 0.458019166520574 
741	 0.45858199449904 
742	 0.459167377385933 
743	 0.459849525143587 
744	 0.460520288265005 
745	 0.461135574659165 
746	 0.461683167833175 
747	 0.462160215568602 
748	 0.462817886982722 
749	 0.463543158838634 
750	 0.464058326895567 
751	 0.464638240077564 
752	 0.465182585863741 
753	 0.4656923779571 
754	 0.466341369520926 
755	 0.46699190689124 
756	 0.467596682340898 
757	 0.468141176481734 
758	 0.468627092413368 
759	 0.469138821951548 
760	 0.469712619589051 
761	 0.470331814291686 
762	 0.470838713289936 
763	 0.471360634187896 
764	 0.471951995455562 
765	 0.472563594977281 
766	 0.473146792945166 
767	 0.473725178849381 
768	 0.474302223009875 
769	 0.474789954215102 
770	 0.475312200513709 
771	 0.475854609694059 
772	 0.476376036972189 
773	 0.476985215083214 
774	 0.477526967556724 
775	 0.477994716287191 
776	 0.478508929091847 
777	 0.479040489318351 
778	 0.479678241900896 
779	 0.480352611493368 
780	 0.480703442948382 
781	 0.481158066899547 
782	 0.481692332589945 
783	 0.482179715696474 
784	 0.482612491732876 
785	 0.483135900801483 
786	 0.483718976638546 
787	 0.484233242116751 
788	 0.484679868619076 
789	 0.485110102335626 
790	 0.485581828302666 
791	 0.486145783966723 
792	 0.486716926487252 
793	 0.487195431274057 
794	 0.487583710813868 
795	 0.488134946317375 
796	 0.488634677379728 
797	 0.489097534534791 
798	 0.489580137901342 
799	 0.489903539509449 
800	 0.490308184738636 
801	 0.490844980724419 
802	 0.491396380048822 
803	 0.491901773070118 
804	 0.492346190581301 
805	 0.492770455702251 
806	 0.493278949258565 
807	 0.493796144002561 
808	 0.494287579723888 
809	 0.49472945757385 
810	 0.495088329922603 
811	 0.495477137665222 
812	 0.495927691696837 
813	 0.496417175239566 
814	 0.496876941900384 
815	 0.497293897430821 
816	 0.497695335197672 
817	 0.498128562111693 
818	 0.498467005874369 
819	 0.498871446189927 
820	 0.499383523852343 
821	 0.499784651171909 
822	 0.500144438995782 
823	 0.500506167922689 
824	 0.500909214379341 
825	 0.501407789078266 
826	 0.501781318164331 
827	 0.502095104696351 
828	 0.502517113418868 
829	 0.502946220432531 
830	 0.503339892304427 
831	 0.503717551105506 
832	 0.504135582519428 
833	 0.504431852222966 
834	 0.504788063601105 
835	 0.50524356109645 
836	 0.505548714079724 
837	 0.505911395920036 
838	 0.506296470797124 
839	 0.506637429455358 
840	 0.506949377634601 
841	 0.507289084426221 
842	 0.507659214293424 
843	 0.508020361621694 
844	 0.508262578087663 
845	 0.508530409042377 
846	 0.508879424453675 
847	 0.509282450266585 
848	 0.509710712361278 
849	 0.510109657716906 
850	 0.510473778661298 
851	 0.510854139248749 
852	 0.511095643777812 
853	 0.511362767148885 
854	 0.511762829038697 
855	 0.512146020388556 
856	 0.51247463562143 
857	 0.512747178848902 
858	 0.513010025827009 
859	 0.513415144471286 
860	 0.513743725864368 
861	 0.514006493677468 
862	 0.514329886894761 
863	 0.514728976274418 
864	 0.515070138128523 
865	 0.515321267447414 
866	 0.515556324675579 
867	 0.515840655616869 
868	 0.516257160784395 
869	 0.516722993234524 
870	 0.516950426239827 
871	 0.517083120670547 
872	 0.517302468696557 
873	 0.517690264665403 
874	 0.518098951585024 
875	 0.518479222907937 
876	 0.518790224955323 
877	 0.519039438255196 
878	 0.519359600528273 
879	 0.5196232711678 
880	 0.519854790014964 
881	 0.520139096773749 
882	 0.520446787997759 
883	 0.520743988813856 
884	 0.520972203439501 
885	 0.521093271068101 
886	 0.521349171059545 
887	 0.521683926067163 
888	 0.521991338717354 
889	 0.522167766883584 
890	 0.522344326833272 
891	 0.522611117697178 
892	 0.522948839276676 
893	 0.523177693339394 
894	 0.523340712123736 
895	 0.523550858283434 
896	 0.523848739224758 
897	 0.524044313721954 
898	 0.524178723226675 
899	 0.524347500238256 
900	 0.524618530294282 
901	 0.524870846567084 
902	 0.525145214068388 
903	 0.525362915002033 
904	 0.525448079108336 
905	 0.525641248018526 
906	 0.525920709886128 
907	 0.526208791027275 
908	 0.52642538316958 
909	 0.526705269834294 
910	 0.527037758213628 
911	 0.527318703090161 
912	 0.527403282551021 
913	 0.527544438399294 
914	 0.527823228875962 
915	 0.528195540057206 
916	 0.528497098509518 
917	 0.528777919981919 
918	 0.528976408877075 
919	 0.529102043350303 
920	 0.529318961284117 
921	 0.529639967169114 
922	 0.529970911766988 
923	 0.530234623899608 
924	 0.530475772649413 
925	 0.53078259170521 
926	 0.531115708286828 
927	 0.531399756610576 
928	 0.531585396273909 
929	 0.531934532551725 
930	 0.532383559343187 
931	 0.532741318163237 
932	 0.532944720344706 
933	 0.533234918988261 
934	 0.533655839535718 
935	 0.534122110884056 
936	 0.534570988627876 
937	 0.535013329883477 
938	 0.535354879269795 
939	 0.535500899716923 
940	 0.535831105162624 
941	 0.536236899261205 
942	 0.536589385618596 
943	 0.536817077156953 
944	 0.537111365836854 
945	 0.537433826110235 
946	 0.537722574012165 
947	 0.537929930928559 
948	 0.538077121431607 
949	 0.538253776822817 
950	 0.538477265069225 
951	 0.538661605546318 
952	 0.538744798837554 
953	 0.538796771534058 
954	 0.538919512407785 
955	 0.539204250332557 
956	 0.539463486170493 
957	 0.539684090089531 
958	 0.539846613195952 
959	 0.539862102522116 
960	 0.539981803933237 
961	 0.540194456865845 
962	 0.540389357187098 
963	 0.540409533244471 
964	 0.540461822292405 
965	 0.540588393690449 
966	 0.540763875768958 
967	 0.540923206751327 
968	 0.54107792164714 
969	 0.541277318956723 
970	 0.541510797372959 
971	 0.541588556991663 
972	 0.541771375217448 
973	 0.541998032469985 
974	 0.542134345400677 
975	 0.542126102698076 
976	 0.542330213225652 
977	 0.542574998800455 
978	 0.54265065384009 
979	 0.542804616315042 
980	 0.542932097813488 
981	 0.54306383064247 
982	 0.543221314405503 
983	 0.543255018771099 
984	 0.543327688294089 
985	 0.543512234679123 
986	 0.543817233878355 
987	 0.544194611929193 
988	 0.544410289608707 
989	 0.544502274563207 
990	 0.544608651885286 
991	 0.544791374685677 
992	 0.545003357885433 
993	 0.545284652645836 
994	 0.545658254496336 
995	 0.545988900701591 
996	 0.546404960516242 
997	 0.546754429967058 
998	 0.546913116501645 
999	 0.547159303205231 
1000	 0.547635214257471 
1001	 0.529198585124729 
1002	 0.529518255903815 
1003	 0.529827414871598 
1004	 0.530150862291358 
1005	 0.530525075246744 
1006	 0.530864379233942 
1007	 0.531178289244128 
1008	 0.531510485990218 
1009	 0.531859092415238 
1010	 0.532193988381854 
1011	 0.532513249642064 
1012	 0.532841278684521 
1013	 0.533188596032894 
1014	 0.533511561436665 
1015	 0.533803949128468 
1016	 0.534131827521138 
1017	 0.534481138108803 
1018	 0.534780355757356 
1019	 0.535114995939569 
1020	 0.535441741826723 
1021	 0.535748599645199 
1022	 0.536040850700996 
1023	 0.536330634195377 
1024	 0.536597115157091 
1025	 0.536875685949599 
1026	 0.537138083856263 
1027	 0.537419221206833 
1028	 0.537695848927663 
1029	 0.538035292372739 
1030	 0.538358827452196 
1031	 0.538664088105776 
1032	 0.538947142817607 
1033	 0.539228098381079 
1034	 0.53952438610874 
1035	 0.539796472020051 
1036	 0.540090342069562 
1037	 0.540432702614515 
1038	 0.540703306741686 
1039	 0.540925207308892 
1040	 0.541198441832691 
1041	 0.541454370724133 
1042	 0.541718495793231 
1043	 0.54201677898096 
1044	 0.542317442710492 
1045	 0.542570317532499 
1046	 0.542832529499191 
1047	 0.543104915989076 
1048	 0.543340164543726 
1049	 0.543559336484021 
1050	 0.543809177980862 
1051	 0.544074353999344 
1052	 0.544331991165468 
1053	 0.544596747563761 
1054	 0.544881271525634 
1055	 0.545158971918781 
1056	 0.545468691398569 
1057	 0.545709275989735 
1058	 0.545910181689878 
1059	 0.546119716165631 
1060	 0.546345865801765 
1061	 0.546547723919879 
1062	 0.546827091448303 
1063	 0.547083525121784 
1064	 0.547253622663969 
1065	 0.547433043087378 
1066	 0.547609474988908 
1067	 0.54777809774941 
1068	 0.547964443576951 
1069	 0.548144113782852 
1070	 0.54833329801509 
1071	 0.548534439343107 
1072	 0.548724319266639 
1073	 0.548885435049069 
1074	 0.549096303224683 
1075	 0.549280133615105 
1076	 0.549443888253602 
1077	 0.549655902380639 
1078	 0.549844947220533 
1079	 0.550021235495682 
1080	 0.550199126191756 
1081	 0.550372086067532 
1082	 0.55051918314463 
1083	 0.550644253213532 
1084	 0.550790181752691 
1085	 0.550944319571058 
1086	 0.551113339541796 
1087	 0.551289129707867 
1088	 0.551497386962885 
1089	 0.551683149718915 
1090	 0.551824043674563 
1091	 0.551943404211685 
1092	 0.552025468842049 
1093	 0.552124446666981 
1094	 0.552275700397582 
1095	 0.552416413123466 
1096	 0.552542411694769 
1097	 0.552657739905054 
1098	 0.552731556303794 
1099	 0.552802276302365 
1100	 0.552888023326772 
1101	 0.552988817395692 
1102	 0.553100309353911 
1103	 0.553189050874201 
1104	 0.553273328444031 
1105	 0.553351068685361 
1106	 0.553417252577617 
1107	 0.553475033871301 
1108	 0.553540875498061 
1109	 0.553610548802665 
1110	 0.553675011392903 
1111	 0.553742952257456 
1112	 0.553816951908447 
1113	 0.553876021089854 
1114	 0.553933767936332 
1115	 0.553977747989143 
1116	 0.554007668050654 
1117	 0.554033220414777 
1118	 0.554051549145295 
1119	 0.554058536334223 
1120	 0.554065192274852 
1121	 0.554063342301352 
1122	 0.554071764488762 
1123	 0.554082080615513 
1124	 0.554040844746079 
1125	 0.554003474760359 
1126	 0.553967966159739 
1127	 0.553896957514429 
1128	 0.553824479434417 
1129	 0.553735002901822 
1130	 0.553606828271642 
1131	 0.553451101093586 
1132	 0.553290309214781 
1133	 0.553109811038258 
1134	 0.552909592048106 
1135	 0.552696332806779 
1136	 0.552480243832566 
1137	 0.552217662419 
1138	 0.551940488657755 
1139	 0.551618239510719 
1140	 0.551251914322074 
1141	 0.550874127114023 
1142	 0.550445091514287 
1143	 0.549984480937709 
1144	 0.549485898592426 
1145	 0.548912091230332 
1146	 0.548327021558758 
1147	 0.547683184511464 
1148	 0.546984844188024 
1149	 0.54630797983124 
1150	 0.545604666740148 
1151	 0.544887655515836 
1152	 0.544135663015082 
1153	 0.54335519293706 
1154	 0.542562938940071 
1155	 0.541760422714281 
1156	 0.540897516359751 
1157	 0.540028099031687 
1158	 0.539112856968414 
1159	 0.538120689325266 
1160	 0.537121863676126 
1161	 0.536146252693754 
1162	 0.535084664062332 
1163	 0.534044990484767 
1164	 0.532989138573391 
1165	 0.531906761554594 
1166	 0.530910399847762 
1167	 0.529897625977791 
1168	 0.528898963371947 
1169	 0.527897524357482 
1170	 0.526876881772247 
1171	 0.525892937412543 
1172	 0.524925405057455 
1173	 0.523964867151484 
1174	 0.523030223213514 
1175	 0.522124765179116 
1176	 0.521218564203293 
1177	 0.520348933654057 
1178	 0.519531536589371 
1179	 0.518685549296599 
1180	 0.517884735953745 
1181	 0.517108526034328 
1182	 0.516369725636475 
1183	 0.515721596631468 
1184	 0.515082617410088 
1185	 0.514484019643502 
1186	 0.51391572787598 
1187	 0.513374794284816 
1188	 0.512856655435507 
1189	 0.51238478848476 
1190	 0.511911669614866 
1191	 0.511445850289053 
1192	 0.511022838858905 
1193	 0.510619307115194 
1194	 0.510241536156006 
1195	 0.509904757549036 
1196	 0.509571347907385 
1197	 0.50925496668315 
1198	 0.508947921770095 
1199	 0.508651155742334 
1200	 0.508401840890923 
1201	 0.508153625939503 
1202	 0.507961308763457 
1203	 0.507829916681718 
1204	 0.507748637864552 
1205	 0.507784610913795 
1206	 0.507878309676485 
1207	 0.508137273141997 
1208	 0.508497277452871 
1209	 0.509013652508044 
1210	 0.509679047420422 
1211	 0.510463756198556 
1212	 0.511418056159298 
1213	 0.512434994510084 
1214	 0.513589016127388 
1215	 0.514791133777277 
1216	 0.516102214386425 
1217	 0.517408812629112 
1218	 0.51878140891951 
1219	 0.520175909415264 
1220	 0.521531686677551 
1221	 0.52297305244678 
1222	 0.524347918029714 
1223	 0.525712058688984 
1224	 0.527024905373859 
1225	 0.528309722698779 
1226	 0.52951339844209 
1227	 0.530669571693552 
1228	 0.531772766568192 
1229	 0.532811361219068 
1230	 0.533812460389795 
1231	 0.534760266501655 
1232	 0.535683470145127 
1233	 0.536541242691029 
1234	 0.537391079514544 
1235	 0.5382192991587 
1236	 0.539027133548258 
1237	 0.539805909660495 
1238	 0.540578214966218 
1239	 0.541331219790942 
1240	 0.542078430969818 
1241	 0.542835015069401 
1242	 0.54350487103622 
1243	 0.544152009541586 
1244	 0.544756596674808 
1245	 0.54535428207355 
1246	 0.545923424125192 
1247	 0.546459284016506 
1248	 0.546983447563436 
1249	 0.547466279737078 
1250	 0.547899213356939 
1251	 0.548312731297802 
1252	 0.548705875453777 
1253	 0.549067686736938 
1254	 0.549395276905568 
1255	 0.549700292126031 
1256	 0.549971501606858 
1257	 0.550235473269038 
1258	 0.550460565376662 
1259	 0.550693967539324 
1260	 0.550919437511678 
1261	 0.551147297117456 
1262	 0.551357620422054 
1263	 0.551605197850134 
1264	 0.551833426268126 
1265	 0.552058534760193 
1266	 0.552293540115241 
1267	 0.552534551634809 
1268	 0.552763943875543 
1269	 0.552989719534557 
1270	 0.55322773339826 
1271	 0.553475061938164 
1272	 0.553696975592815 
1273	 0.553918224507397 
1274	 0.554135186500129 
1275	 0.554320069881914 
1276	 0.554522804856092 
1277	 0.55475253289041 
1278	 0.554954571619471 
1279	 0.555144156961529 
1280	 0.555326896804874 
1281	 0.55549477530219 
1282	 0.555659151358438 
1283	 0.555816628474487 
1284	 0.555968588389082 
1285	 0.55611431974863 
1286	 0.556257394154885 
1287	 0.556378284966993 
1288	 0.556484234501676 
1289	 0.556592379422406 
1290	 0.55668659801911 
1291	 0.556780703809429 
1292	 0.556887180681141 
1293	 0.556958897988264 
1294	 0.557016411424877 
1295	 0.55705194343466 
1296	 0.557052409962922 
1297	 0.55706717495248 
1298	 0.557084715443808 
1299	 0.557074556042179 
1300	 0.557064942963693 
1301	 0.557028626522136 
1302	 0.556955128947509 
1303	 0.556881301382687 
1304	 0.556797287077934 
1305	 0.556705010024581 
1306	 0.556610949035777 
1307	 0.556494679704691 
1308	 0.556366260455333 
1309	 0.556217931099915 
1310	 0.556070407429978 
1311	 0.555913025170545 
1312	 0.55573251226407 
1313	 0.55555853594255 
1314	 0.555328479233383 
1315	 0.555059024440683 
1316	 0.554775813021573 
1317	 0.55445785754788 
1318	 0.554136734971894 
1319	 0.553804123152296 
1320	 0.55344968696702 
1321	 0.553076016089379 
1322	 0.552694966721351 
1323	 0.55229669845862 
1324	 0.551888916410607 
1325	 0.551484000050877 
1326	 0.551046392953581 
1327	 0.550607426808672 
1328	 0.550116270983262 
1329	 0.54958563891048 
1330	 0.549033797143114 
1331	 0.548443322100417 
1332	 0.547831118834569 
1333	 0.547217857910154 
1334	 0.546544411253678 
1335	 0.545857731047694 
1336	 0.545146621500816 
1337	 0.544394867387869 
1338	 0.543608963442214 
1339	 0.542809159766921 
1340	 0.541988118663944 
1341	 0.541118554122638 
1342	 0.540225214392657 
1343	 0.539292360346011 
1344	 0.538323661893819 
1345	 0.537297598904724 
1346	 0.536231519821207 
1347	 0.535137578781734 
1348	 0.533981553887345 
1349	 0.532815029002272 
1350	 0.53161345554595 
1351	 0.53041524872335 
1352	 0.529184296771893 
1353	 0.527961223200761 
1354	 0.526738259165695 
1355	 0.525524886772829 
1356	 0.524287578249108 
1357	 0.523086524619343 
1358	 0.521895106158179 
1359	 0.520734073666431 
1360	 0.519622557171384 
1361	 0.51849902125247 
1362	 0.517353286516177 
1363	 0.516286212628691 
1364	 0.515186375777228 
1365	 0.514099391617761 
1366	 0.512963813442971 
1367	 0.511829413431371 
1368	 0.510650413422027 
1369	 0.509439610709522 
1370	 0.508175777531312 
1371	 0.506906444554463 
1372	 0.505552288540683 
1373	 0.504146945265756 
1374	 0.502649050013519 
1375	 0.501065604451321 
1376	 0.499435145091868 
1377	 0.497709108996525 
1378	 0.495949946388599 
1379	 0.494113147333277 
1380	 0.49230048844281 
1381	 0.490429995728342 
1382	 0.488593593622554 
1383	 0.48676698560187 
1384	 0.484962396032689 
1385	 0.483192690225969 
1386	 0.481403718739131 
1387	 0.479630448590635 
1388	 0.477868500253459 
1389	 0.476123303963596 
1390	 0.474337629949033 
1391	 0.472608721893831 
1392	 0.470740173619692 
1393	 0.468908335013232 
1394	 0.46695777926587 
1395	 0.46490625356823 
1396	 0.46281732019836 
1397	 0.460558819696708 
1398	 0.458196476682988 
1399	 0.455629129411602 
1400	 0.452906020432699 
1401	 0.450051899468435 
1402	 0.447006696642821 
1403	 0.443865497495284 
1404	 0.440587542316971 
1405	 0.43727759199733 
1406	 0.433822437791752 
1407	 0.430371618823304 
1408	 0.426845577704177 
1409	 0.423352936689 
1410	 0.419807132670823 
1411	 0.416304571971053 
1412	 0.412799103990492 
1413	 0.409396672294695 
1414	 0.406014373020435 
1415	 0.402708999049378 
1416	 0.399466268002769 
1417	 0.396307759029504 
1418	 0.393188950020806 
1419	 0.390172738366632 
1420	 0.387235368429642 
1421	 0.384438637961682 
1422	 0.381746569536273 
1423	 0.379150325113877 
1424	 0.376748431245905 
1425	 0.374293214933378 
1426	 0.37204244894732 
1427	 0.369806709372188 
1428	 0.367556967103737 
1429	 0.365469036712469 
1430	 0.363234529022751 
1431	 0.360999869182928 
1432	 0.358599906195043 
1433	 0.356137133479145 
1434	 0.353527389784171 
1435	 0.350767019023685 
1436	 0.347931528625194 
1437	 0.344930331821873 
1438	 0.342048991461306 
1439	 0.338986180196964 
1440	 0.33626772760919 
1441	 0.33353415147125 
1442	 0.331305568127979 
1443	 0.329205202628331 
1444	 0.327767166618291 
1445	 0.3267385717566 
1446	 0.326313148742306 
1447	 0.326468829391828 
1448	 0.327066502556429 
1449	 0.328360203798901 
1450	 0.329789397123617 
1451	 0.331774290564471 
1452	 0.333722605378168 
1453	 0.336001288774826 
1454	 0.338107121745076 
1455	 0.340330094987822 
1456	 0.342366234462585 
1457	 0.344344350338101 
1458	 0.346149227740986 
1459	 0.347794342997298 
1460	 0.349346823218236 
1461	 0.350726764799934 
1462	 0.352037755166649 
1463	 0.353239539835958 
1464	 0.354397223372557 
1465	 0.355438195793372 
1466	 0.356484148742248 
1467	 0.357459364509868 
1468	 0.358422719564856 
1469	 0.359392317151164 
1470	 0.360271010393947 
1471	 0.36114525043508 
1472	 0.362001654187266 
1473	 0.362817388441115 
1474	 0.363614490946872 
1475	 0.364316257790359 
1476	 0.365001455406884 
1477	 0.36553572433334 
1478	 0.365962440183796 
1479	 0.366291107984996 
1480	 0.366513922221725 
1481	 0.366649669487651 
1482	 0.366659603481841 
1483	 0.366645420830668 
1484	 0.366503044027908 
1485	 0.366434810999057 
1486	 0.366282476671756 
1487	 0.366300560887224 
1488	 0.366319911221672 
1489	 0.366562864492773 
1490	 0.366922471655896 
1491	 0.367483552973421 
1492	 0.368216718297578 
1493	 0.369136562160895 
1494	 0.370277681604746 
1495	 0.371509443623394 
1496	 0.372950970196028 
1497	 0.374421771741776 
1498	 0.376046040009332 
1499	 0.377637761133364 
1500	 0.379318775016247 
1501	 0.380941463321622 
1502	 0.382598015556228 
1503	 0.384135305539784 
1504	 0.385642607679801 
1505	 0.387044691747428 
1506	 0.388357874092128 
1507	 0.389571470435223 
1508	 0.390689564581951 
1509	 0.391727950382384 
1510	 0.392657033755046 
1511	 0.393510375449867 
1512	 0.394281668637838 
1513	 0.394984416947288 
1514	 0.395607521269354 
1515	 0.396151990502444 
1516	 0.396608502277452 
1517	 0.397013833470862 
1518	 0.39732334294945 
1519	 0.397601190109215 
1520	 0.397835671454002 
1521	 0.398027252788031 
1522	 0.398153896874515 
1523	 0.398245803539758 
1524	 0.398302979964324 
1525	 0.398305675986285 
1526	 0.398305798006767 
1527	 0.398279488884312 
1528	 0.398240577551609 
1529	 0.398171752797845 
1530	 0.398121448765135 
1531	 0.398050771402626 
1532	 0.398022374049456 
1533	 0.397994629556561 
1534	 0.398033832385187 
1535	 0.398096786623033 
1536	 0.398234171085728 
1537	 0.398412256738357 
1538	 0.398693346291445 
1539	 0.399034394300069 
1540	 0.39948552992729 
1541	 0.400033175794975 
1542	 0.400673270660948 
1543	 0.401416417132932 
1544	 0.402222232759117 
1545	 0.403133323734382 
1546	 0.404076901481415 
1547	 0.405102994396542 
1548	 0.406131725978668 
1549	 0.407222401348821 
1550	 0.408293541825551 
1551	 0.409387277022788 
1552	 0.410457257008149 
1553	 0.411526947099272 
1554	 0.412585287892719 
1555	 0.413644096584545 
1556	 0.414665676402002 
1557	 0.415670731398083 
1558	 0.41665748557318 
1559	 0.417615729289652 
1560	 0.418553689148146 
1561	 0.419482282957687 
1562	 0.420380966289463 
1563	 0.421253173539187 
1564	 0.422092636366394 
1565	 0.422901757003521 
1566	 0.423696065350634 
1567	 0.424453467033646 
1568	 0.425204368039681 
1569	 0.425939962829116 
1570	 0.426669470404849 
1571	 0.427395693607607 
1572	 0.428085681855041 
1573	 0.428755707539741 
1574	 0.429413618415098 
1575	 0.430039046810913 
1576	 0.43065654877182 
1577	 0.431267159309129 
1578	 0.43186516956059 
1579	 0.432433468225747 
1580	 0.433010140548192 
1581	 0.433590573543513 
1582	 0.434158889343565 
1583	 0.434718839408759 
1584	 0.435276470297307 
1585	 0.43582789128984 
1586	 0.43637330328737 
1587	 0.436916679145187 
1588	 0.4374497340491 
1589	 0.437962094698622 
1590	 0.438490360438894 
1591	 0.439017984965611 
1592	 0.439553228150814 
1593	 0.440101475159265 
1594	 0.44064738364831 
1595	 0.441197110048745 
1596	 0.441741066130628 
1597	 0.442295044600531 
1598	 0.442828648213628 
1599	 0.443346029815134 
1600	 0.443865523574493 
1601	 0.444368574045393 
1602	 0.444879866353237 
1603	 0.445406733280006 
1604	 0.445909968630833 
1605	 0.44641206701116 
1606	 0.446893414373035 
1607	 0.447360412753145 
1608	 0.447804699961154 
1609	 0.448227497716614 
1610	 0.448636872724003 
1611	 0.449022629637955 
1612	 0.449394770874814 
1613	 0.449754500303226 
1614	 0.450097936801354 
1615	 0.45043182232007 
1616	 0.450738581052334 
1617	 0.451022808755919 
1618	 0.451290383637538 
1619	 0.451524820021233 
1620	 0.451754635784017 
1621	 0.451981844489921 
1622	 0.452182776096863 
1623	 0.452361734992102 
1624	 0.452530705395134 
1625	 0.452673761209672 
1626	 0.452813348483278 
1627	 0.452941851354565 
1628	 0.453068383872699 
1629	 0.453178410480954 
1630	 0.453300324439205 
1631	 0.453433347074838 
1632	 0.453554624817826 
1633	 0.453690495296262 
1634	 0.453795289225095 
1635	 0.453874482679557 
1636	 0.453948429149565 
1637	 0.454008614946004 
1638	 0.454052949259728 
1639	 0.454088821412458 
1640	 0.454108794098973 
1641	 0.454125701905677 
1642	 0.454096422418627 
1643	 0.454035804489188 
1644	 0.453959515567138 
1645	 0.453833719079141 
1646	 0.453715974201387 
1647	 0.453604409822002 
1648	 0.453459358477116 
1649	 0.453310612145423 
1650	 0.453113062011657 
1651	 0.452872476868756 
1652	 0.45261909895142 
1653	 0.45234640452354 
1654	 0.452025943564083 
1655	 0.451686535997974 
1656	 0.451286196706331 
1657	 0.450834577528194 
1658	 0.450329661664954 
1659	 0.449771423387366 
1660	 0.449173779150816 
1661	 0.448531984786724 
1662	 0.447826511570357 
1663	 0.447079750607626 
1664	 0.446251353445309 
1665	 0.445373727709397 
1666	 0.444374831788114 
1667	 0.443277606602214 
1668	 0.442122533756722 
1669	 0.440880350729711 
1670	 0.439546044866084 
1671	 0.438130811854145 
1672	 0.43663074418015 
1673	 0.435025753156168 
1674	 0.43334431909681 
1675	 0.431587233437663 
1676	 0.429790905860439 
1677	 0.427920220594252 
1678	 0.425980213102177 
1679	 0.423972591410215 
1680	 0.421898734054137 
1681	 0.419751869482461 
1682	 0.41751367468761 
1683	 0.415220116709065 
1684	 0.41287466093775 
1685	 0.410421334557744 
1686	 0.407940861075227 
1687	 0.405398446570783 
1688	 0.402814439422224 
1689	 0.400179088875915 
1690	 0.397483154804732 
1691	 0.394754844690271 
1692	 0.39201568383547 
1693	 0.389247012774552 
1694	 0.386393151327721 
1695	 0.383484093353329 
1696	 0.380497229078815 
1697	 0.377404987024395 
1698	 0.374274883481469 
1699	 0.371100844558858 
1700	 0.367975651655418 
1701	 0.364761854338035 
1702	 0.361686341746793 
1703	 0.358631929242074 
1704	 0.355703584200049 
1705	 0.352842062985359 
1706	 0.350040396507 
1707	 0.347536867705187 
1708	 0.345086161029759 
1709	 0.342751581291254 
1710	 0.340574031838755 
1711	 0.338351066100876 
1712	 0.336258453113737 
1713	 0.334184350482419 
1714	 0.332107301714034 
1715	 0.330198639830342 
1716	 0.328257765102731 
1717	 0.326379953125408 
1718	 0.324581535090421 
1719	 0.32272927816844 
1720	 0.320980873548031 
1721	 0.319327411585418 
1722	 0.31777322822318 
1723	 0.316465615901948 
1724	 0.315301630066653 
1725	 0.314320149956225 
1726	 0.313610255834701 
1727	 0.313050072181134 
1728	 0.312722962615543 
1729	 0.312632381862187 
1730	 0.312731890817596 
1731	 0.31299539037365 
1732	 0.313393807196811 
1733	 0.313848806462322 
1734	 0.314327816155731 
1735	 0.314811081545323 
1736	 0.315212079740862 
1737	 0.315502837379262 
1738	 0.315650330524932 
1739	 0.315688052058829 
1740	 0.315613656428802 
1741	 0.315427598016467 
1742	 0.315086921994112 
1743	 0.314713833172165 
1744	 0.314192944982491 
1745	 0.313724252362972 
1746	 0.313197598432521 
1747	 0.312777226582044 
1748	 0.312357850315264 
1749	 0.312074495749574 
1750	 0.311870382055272 
1751	 0.311791443677591 
1752	 0.311805936324848 
1753	 0.31199223968663 
1754	 0.312311908226871 
1755	 0.312765924041709 
1756	 0.313379300098677 
1757	 0.31408614686749 
1758	 0.314975877296311 
1759	 0.315947946404545 
1760	 0.317092485578623 
1761	 0.318413216826535 
1762	 0.319758317086687 
1763	 0.321254816879921 
1764	 0.3227837032765 
1765	 0.324321651586367 
1766	 0.32602145952214 
1767	 0.327676393280399 
1768	 0.329353248574405 
1769	 0.331045342121393 
1770	 0.332547939363508 
1771	 0.334022130969298 
1772	 0.335431231642021 
1773	 0.336725807428509 
1774	 0.338028478036321 
1775	 0.339245983936904 
1776	 0.340432044256915 
1777	 0.341557548572906 
1778	 0.34256867234922 
1779	 0.343579307184721 
1780	 0.344535093122532 
1781	 0.345445981024993 
1782	 0.346369706194714 
1783	 0.347228785303431 
1784	 0.348074549338395 
1785	 0.348923374190831 
1786	 0.349752580342245 
1787	 0.350594856745708 
1788	 0.35138645477222 
1789	 0.352139998138566 
1790	 0.352882009379466 
1791	 0.353602276180124 
1792	 0.354326548877133 
1793	 0.355013525008684 
1794	 0.355690666148274 
1795	 0.356351222889446 
1796	 0.356970105068999 
1797	 0.357662770383169 
1798	 0.358308971938763 
1799	 0.358946868282361 
1800	 0.359626045300734 
1801	 0.369755972520414 
1802	 0.370864806366844 
1803	 0.371863513142511 
1804	 0.372767356335471 
1805	 0.373682844925573 
1806	 0.374485182283033 
1807	 0.37519237681036 
1808	 0.375881798257107 
1809	 0.37650197945676 
1810	 0.377101359019752 
1811	 0.377640394044607 
1812	 0.37819171573545 
1813	 0.378709676275068 
1814	 0.379247492890867 
1815	 0.37975703962005 
1816	 0.380277119944586 
1817	 0.38079497541925 
1818	 0.381300615112272 
1819	 0.381802384044858 
1820	 0.382304983683459 
1821	 0.382811342045016 
1822	 0.383309925473314 
1823	 0.383825382156709 
1824	 0.384320426325265 
1825	 0.384808517219348 
1826	 0.385276485849062 
1827	 0.385727063542277 
1828	 0.386151775607312 
1829	 0.386563059863873 
1830	 0.386953335714935 
1831	 0.387324751293249 
1832	 0.38767207556487 
1833	 0.387958862077755 
1834	 0.388274226185223 
1835	 0.38857655780604 
1836	 0.388820614380353 
1837	 0.389090932612228 
1838	 0.389376200310025 
1839	 0.389641802234693 
1840	 0.389897804647397 
1841	 0.390150425109261 
1842	 0.390413109816405 
1843	 0.390652536216489 
1844	 0.39085620035335 
1845	 0.391015987306756 
1846	 0.391120981539929 
1847	 0.391167891689925 
1848	 0.391144601058366 
1849	 0.391073456689279 
1850	 0.390913483041587 
1851	 0.390695187499891 
1852	 0.390376281991788 
1853	 0.389949409029293 
1854	 0.389465868864928 
1855	 0.388873384909405 
1856	 0.388213934155631 
1857	 0.387446614441811 
1858	 0.386525196005738 
1859	 0.385519106726951 
1860	 0.384405538483231 
1861	 0.383144111824751 
1862	 0.381748926132464 
1863	 0.380332345405415 
1864	 0.378696334712628 
1865	 0.376976518634389 
1866	 0.375121502439183 
1867	 0.372998833785588 
1868	 0.370833169898636 
1869	 0.368497481009265 
1870	 0.366082392946414 
1871	 0.363588308243158 
1872	 0.361057184265271 
1873	 0.358425780579625 
1874	 0.355771217687009 
1875	 0.353113554198576 
1876	 0.35014496154735 
1877	 0.347175461748856 
1878	 0.344003170154791 
1879	 0.340547941779469 
1880	 0.337195137926223 
1881	 0.333588742591678 
1882	 0.329752148579893 
1883	 0.325826507069489 
1884	 0.321775230539237 
1885	 0.317285618247413 
1886	 0.312813026383807 
1887	 0.308080254001189 
1888	 0.303097721010242 
1889	 0.298379708437369 
1890	 0.293409032022428 
1891	 0.288416828199378 
1892	 0.283497996512785 
1893	 0.278358218699842 
1894	 0.272955300426186 
1895	 0.267735106349917 
1896	 0.262415621997299 
1897	 0.256980629965467 
1898	 0.251974069438253 
1899	 0.246833625036632 
1900	 0.241780134223629 
1901	 0.236947081281986 
1902	 0.231853143805135 
1903	 0.227013189526959 
1904	 0.222271804697923 
1905	 0.217571405625579 
1906	 0.212962394948991 
1907	 0.208844247375553 
1908	 0.204692082858061 
1909	 0.200701743245631 
1910	 0.196935630100928 
1911	 0.192995323972337 
1912	 0.1892875054236 
1913	 0.185641554917544 
1914	 0.1819763830618 
1915	 0.17854497729932 
1916	 0.175360359830567 
1917	 0.172098058182746 
1918	 0.168934959492397 
1919	 0.165905869402213 
1920	 0.1626861162791 
1921	 0.159599054415351 
1922	 0.156515514742818 
1923	 0.153388133226172 
1924	 0.150533003837795 
1925	 0.147630271423931 
1926	 0.144803525020927 
1927	 0.142105244209928 
1928	 0.139397420602746 
1929	 0.136635958960791 
1930	 0.134067865338923 
1931	 0.131589338210939 
1932	 0.129197153076097 
1933	 0.127154699816455 
1934	 0.125236130002552 
1935	 0.123503278534506 
1936	 0.122053547942631 
1937	 0.120758284780378 
1938	 0.119622785761865 
1939	 0.118754684006772 
1940	 0.118102070730562 
1941	 0.117657259648949 
1942	 0.117464284472333 
1943	 0.117437444348624 
1944	 0.117578002897598 
1945	 0.117911561180439 
1946	 0.118479940778394 
1947	 0.119194899909049 
1948	 0.120177233685658 
1949	 0.121432454703782 
1950	 0.122846936932175 
1951	 0.12449025671225 
1952	 0.126332789421431 
1953	 0.128356995902533 
1954	 0.130596907295406 
1955	 0.133122584903938 
1956	 0.135647846713385 
1957	 0.138245325526072 
1958	 0.140852652416007 
1959	 0.143186699307678 
1960	 0.145414338337983 
1961	 0.14743738147057 
1962	 0.149248160264289 
1963	 0.150899803228378 
1964	 0.152382847084356 
1965	 0.153686802162244 
1966	 0.154803391308228 
1967	 0.155788838896479 
1968	 0.156588691853422 
1969	 0.15737402366985 
1970	 0.158117919090935 
1971	 0.158871924667342 
1972	 0.159718260033959 
1973	 0.16059077555393 
1974	 0.161546094683682 
1975	 0.162614326883194 
1976	 0.163679379448582 
1977	 0.164763824341873 
1978	 0.165929396703208 
1979	 0.167141235056712 
1980	 0.168374230801786 
1981	 0.169763297615938 
1982	 0.171156006958086 
1983	 0.172631196046641 
1984	 0.174191602039273 
1985	 0.175726585545989 
1986	 0.177426627946642 
1987	 0.179260798783211 
1988	 0.181108866552308 
1989	 0.183276810348993 
1990	 0.185677493998468 
1991	 0.188209138460647 
1992	 0.190963537320925 
1993	 0.19394411454346 
1994	 0.196825293931961 
1995	 0.199940711738831 
1996	 0.203081524418698 
1997	 0.206200767703859 
1998	 0.209451844510772 
1999	 0.212890284256613 
2000	 0.216114794134803 
2001	 0.219494860353961 
2002	 0.222524661407703 
2003	 0.225335453102328 
2004	 0.228072604484826 
2005	 0.230575447456058 
2006	 0.23304247877934 
2007	 0.235494955340805 
2008	 0.237734375279417 
2009	 0.239844813158972 
2010	 0.241892856765738 
2011	 0.243677237031138 
2012	 0.245379457748312 
2013	 0.24697254372577 
2014	 0.248397343083846 
2015	 0.249804804728861 
2016	 0.251148130426785 
2017	 0.252374473872464 
2018	 0.253554658310297 
2019	 0.2545982951687 
2020	 0.255478908334975 
2021	 0.256322043442453 
2022	 0.257074986332953 
2023	 0.257724553568442 
2024	 0.258361789334959 
2025	 0.258926111723866 
2026	 0.259427861420612 
2027	 0.259880898761395 
2028	 0.260253801301121 
2029	 0.260524130076752 
2030	 0.260784934013982 
2031	 0.260960476757337 
2032	 0.261157784319977 
2033	 0.261338680001463 
2034	 0.261500990405124 
2035	 0.261646774556443 
2036	 0.261786889863929 
2037	 0.261898034327172 
2038	 0.26201621902303 
2039	 0.262155118312985 
2040	 0.262300608886943 
2041	 0.262460505304587 
2042	 0.262634176462115 
2043	 0.26282051595042 
2044	 0.263025894811448 
2045	 0.263230455159373 
2046	 0.26346365456559 
2047	 0.263670143883645 
2048	 0.263867785105817 
2049	 0.264059148241347 
2050	 0.26425589725815 
2051	 0.264407956887894 
2052	 0.264560696832705 
2053	 0.264712997219632 
2054	 0.264851406500509 
2055	 0.264965481181932 
2056	 0.26509906148646 
2057	 0.26524038027243 
2058	 0.265364200935898 
2059	 0.265482091197262 
2060	 0.265606224181703 
2061	 0.265715277260328 
2062	 0.265834763246266 
2063	 0.265967530148499 
2064	 0.266096716843216 
2065	 0.26621878195776 
2066	 0.266352151745488 
2067	 0.266493259145764 
2068	 0.266646432796174 
2069	 0.266793205181144 
2070	 0.26694958812503 
2071	 0.267092721452969 
2072	 0.267236392232332 
2073	 0.26735851589901 
2074	 0.267480883023822 
2075	 0.267574255714728 
2076	 0.267653051097733 
2077	 0.267699847671512 
2078	 0.267717527422249 
2079	 0.267716451842187 
2080	 0.267680740717024 
2081	 0.267636743387729 
2082	 0.267590913555086 
2083	 0.267513892838759 
2084	 0.267381203675181 
2085	 0.267247019708085 
2086	 0.267078281026825 
2087	 0.266859388378378 
2088	 0.26664408792765 
2089	 0.266419469009769 
2090	 0.266174838042891 
2091	 0.265917816033525 
2092	 0.265628605188718 
2093	 0.265313160497752 
2094	 0.26498617392437 
2095	 0.264634801980912 
2096	 0.26426426296529 
2097	 0.263883134562782 
2098	 0.263475269739357 
2099	 0.263057495632788 
2100	 0.262615705719975 
2101	 0.262144907774466 
2102	 0.261659167923245 
2103	 0.261149326447899 
2104	 0.260600485503146 
2105	 0.260040957430021 
2106	 0.259463887969373 
2107	 0.258871756524875 
2108	 0.258275721980086 
2109	 0.257628468433775 
2110	 0.256953825204225 
2111	 0.256259488227909 
2112	 0.255489538891926 
2113	 0.254749538001206 
2114	 0.254023407603371 
2115	 0.253271180948723 
2116	 0.25250170395594 
2117	 0.251754583522796 
2118	 0.250965907139924 
2119	 0.250150461369508 
2120	 0.249337647878394 
2121	 0.248490125941517 
2122	 0.24768493225267 
2123	 0.246887683911808 
2124	 0.246095829198001 
2125	 0.245347203516879 
2126	 0.244556335149285 
2127	 0.243730820305861 
2128	 0.242940846924969 
2129	 0.242126176798302 
2130	 0.24135715402573 
2131	 0.240640441639197 
2132	 0.239912605905679 
2133	 0.23920554217701 
2134	 0.238507990913507 
2135	 0.237757372640332 
2136	 0.23703295959305 
2137	 0.236312061869727 
2138	 0.235564800031096 
2139	 0.234879192394013 
2140	 0.234243785025796 
2141	 0.23357834437366 
2142	 0.232925417664048 
2143	 0.23228098250723 
2144	 0.231627000978433 
2145	 0.230997089371028 
2146	 0.230374779299039 
2147	 0.22978469765986 
2148	 0.229208250361709 
2149	 0.228656394623828 
2150	 0.2281674989493 
2151	 0.227653673728169 
2152	 0.227135138901729 
2153	 0.226628525734492 
2154	 0.226127336978308 
2155	 0.225604754746313 
2156	 0.225132437024998 
2157	 0.224688053626068 
2158	 0.224248966796283 
2159	 0.223841524926578 
2160	 0.223421461164196 
2161	 0.222995551696904 
2162	 0.222597718840659 
2163	 0.222208018961151 
2164	 0.22183120732644 
2165	 0.221471747426183 
2166	 0.221128859466981 
2167	 0.220802074502827 
2168	 0.220482947377473 
2169	 0.220177404788579 
2170	 0.219890291513206 
2171	 0.21958833331222 
2172	 0.219341690239905 
2173	 0.219123567979278 
2174	 0.218948415355189 
2175	 0.218847017027194 
2176	 0.218758840316403 
2177	 0.218677596936737 
2178	 0.218634718644023 
2179	 0.218590388976583 
2180	 0.218539759261309 
2181	 0.218520819301411 
2182	 0.218541419901795 
2183	 0.218543920125124 
2184	 0.218563860067177 
2185	 0.218558519074805 
2186	 0.218547803165098 
2187	 0.218520763612482 
2188	 0.218463683904068 
2189	 0.218425526176587 
2190	 0.218393202311434 
2191	 0.218347477324073 
2192	 0.218320561204846 
2193	 0.218257068114298 
2194	 0.218172977830545 
2195	 0.218068693197314 
2196	 0.217942223611618 
2197	 0.21778364576173 
2198	 0.217640941407381 
2199	 0.217463527753739 
2200	 0.217291971218339 
2201	 0.217131528630496 
2202	 0.216922878056561 
2203	 0.216687344885088 
2204	 0.216437826188939 
2205	 0.216145220878098 
2206	 0.215876145848725 
2207	 0.215596472827502 
2208	 0.215334675191392 
2209	 0.215078712603319 
2210	 0.214831171043737 
2211	 0.214570315625741 
2212	 0.214365296506177 
2213	 0.214153482954639 
2214	 0.214030584075915 
2215	 0.213969156547332 
2216	 0.213962459936379 
2217	 0.214009529168257 
2218	 0.21413147219069 
2219	 0.214316998576863 
2220	 0.214566670845781 
2221	 0.214896368969437 
2222	 0.215292095699163 
2223	 0.215728123956196 
2224	 0.216208893844138 
2225	 0.216672826402256 
2226	 0.217081088809256 
2227	 0.217453076055309 
2228	 0.217807646752743 
2229	 0.218052158662915 
2230	 0.218268296273105 
2231	 0.218332057250543 
2232	 0.218284595863967 
2233	 0.218127116580827 
2234	 0.217870699799784 
2235	 0.217472082431007 
2236	 0.21694199039153 
2237	 0.21630300334744 
2238	 0.215509363940131 
2239	 0.214645321560878 
2240	 0.213701182157922 
2241	 0.212611323961566 
2242	 0.211420468566514 
2243	 0.210078558913581 
2244	 0.208561658121876 
2245	 0.206972135664671 
2246	 0.20520049070614 
2247	 0.203421862668225 
2248	 0.201583099844526 
2249	 0.199664134174546 
2250	 0.197675676482141 
2251	 0.195673803632283 
2252	 0.193461585086928 
2253	 0.19127903493828 
2254	 0.189034104115311 
2255	 0.18670185452052 
2256	 0.184528254772214 
2257	 0.182320855576 
2258	 0.180190480804885 
2259	 0.17815717935796 
2260	 0.176060710499828 
2261	 0.173952514396232 
2262	 0.171915229333311 
2263	 0.169815897113629 
2264	 0.167909231400734 
2265	 0.166150636555441 
2266	 0.164367116605448 
2267	 0.162691850559328 
2268	 0.161004850502431 
2269	 0.159271397808631 
2270	 0.157681858739052 
2271	 0.156166858802549 
2272	 0.154713786658608 
2273	 0.153373626552685 
2274	 0.152044440706879 
2275	 0.150843984125397 
2276	 0.149532842901501 
2277	 0.148232176272241 
2278	 0.146875593193969 
2279	 0.145385597159083 
2280	 0.143953244196027 
2281	 0.142575048320982 
2282	 0.141110024906864 
2283	 0.139636465692331 
2284	 0.138129959320497 
2285	 0.136429179577525 
2286	 0.134721241549152 
2287	 0.132910262524387 
2288	 0.131014249907429 
2289	 0.129224316059748 
2290	 0.127333533562906 
2291	 0.125473122063397 
2292	 0.12362537242333 
2293	 0.121624055509875 
2294	 0.119706814185597 
2295	 0.117844966800104 
2296	 0.116072128469072 
2297	 0.114576392344311 
2298	 0.113293057558344 
2299	 0.112169355256499 
2300	 0.11123778280818 
2301	 0.110549753640984 
2302	 0.110031691486211 
2303	 0.109836449537321 
2304	 0.109949573753663 
2305	 0.110261826109561 
2306	 0.110857053297651 
2307	 0.111650172978668 
2308	 0.112696605529613 
2309	 0.113923562896405 
2310	 0.11543398915998 
2311	 0.117024751133 
2312	 0.118928657305138 
2313	 0.120692918581883 
2314	 0.122593781396707 
2315	 0.124333028624686 
2316	 0.126014818703514 
2317	 0.127551324374973 
2318	 0.129058140712319 
2319	 0.130309081683598 
2320	 0.131406099895882 
2321	 0.132270611641755 
2322	 0.132878789266928 
2323	 0.133328120031272 
2324	 0.133568384951509 
2325	 0.133630951167124 
2326	 0.133450755038397 
2327	 0.133174821293415 
2328	 0.132696725054454 
2329	 0.132112271033487 
2330	 0.13140264066826 
2331	 0.130582227268462 
2332	 0.129608409172283 
2333	 0.128489073639055 
2334	 0.127181184966479 
2335	 0.12581121498257 
2336	 0.124296663518163 
2337	 0.122704083173459 
2338	 0.121236193283146 
2339	 0.119640154828733 
2340	 0.118117395836392 
2341	 0.116736709304631 
2342	 0.115287989554598 
2343	 0.114060006869892 
2344	 0.113037045988188 
2345	 0.112250586742236 
2346	 0.111847962769602 
2347	 0.111734112577612 
2348	 0.11186212003563 
2349	 0.112289421774315 
2350	 0.112906458767783 
2351	 0.113706372501344 
2352	 0.114644537491279 
2353	 0.115622989337553 
2354	 0.116537212540367 
2355	 0.117427813727126 
2356	 0.118220417508407 
2357	 0.118774653834004 
2358	 0.119272085854505 
2359	 0.119558532412224 
2360	 0.119650778046889 
2361	 0.119640998303917 
2362	 0.119453589892538 
2363	 0.119170082401988 
2364	 0.118818886969583 
2365	 0.118443439240059 
2366	 0.118080034354038 
2367	 0.117659053318296 
2368	 0.117204999250805 
2369	 0.116777387676875 
2370	 0.116297724870217 
2371	 0.115820180429125 
2372	 0.115441140675136 
2373	 0.115017749701722 
2374	 0.114553649884906 
2375	 0.11410501247298 
2376	 0.113624879490781 
2377	 0.113156339321744 
2378	 0.112655810245003 
2379	 0.112168763623607 
2380	 0.111754918864028 
2381	 0.111295322016094 
2382	 0.110824125924887 
2383	 0.110424104511775 
2384	 0.10994288121938 
2385	 0.109333640853039 
2386	 0.108832651974492 
2387	 0.108363967845195 
2388	 0.107867462192443 
2389	 0.107443422083626 
2390	 0.106889554193179 
2391	 0.106277095284526 
2392	 0.105681601058075 
2393	 0.104965808962732 
2394	 0.104366549540577 
2395	 0.103839661142317 
2396	 0.103244293031863 
2397	 0.102663046543722 
2398	 0.102087068549499 
2399	 0.101504635886967 
2400	 0.100889752013903 
2401	 0.100287508225024 
2402	 9.96015179148747E-02 
2403	 9.88722897103393E-02 
2404	 9.81289172880272E-02 
2405	 9.74678555008807E-02 
2406	 9.69237842818989E-02 
2407	 9.64130641092931E-02 
2408	 9.59030874112397E-02 
2409	 9.53534759707219E-02 
2410	 9.47601681981685E-02 
2411	 9.41920808983868E-02 
2412	 9.36790034243416E-02 
2413	 9.32573945420751E-02 
2414	 9.28284336109099E-02 
2415	 9.23470933360966E-02 
2416	 9.18624541808086E-02 
2417	 9.13797989428749E-02 
2418	 9.09949933304476E-02 
2419	 0.090569150824358 
2420	 9.01267247269798E-02 
2421	 8.98235354219633E-02 
2422	 8.94061463650034E-02 
2423	 8.90074064489199E-02 
2424	 8.87208538453691E-02 
2425	 8.84008369951582E-02 
2426	 8.81583362894298E-02 
2427	 8.79055782263618E-02 
2428	 8.76663476837132E-02 
2429	 8.74198390276872E-02 
2430	 8.70925216584129E-02 
2431	 8.68039325731612E-02 
2432	 0.086535745816955 
2433	 8.62356166870247E-02 
2434	 8.59091146620866E-02 
2435	 0.085605282122122 
2436	 8.53144922864111E-02 
2437	 8.50040133910659E-02 
2438	 8.47244479323126E-02 
2439	 0.084446402491394 
2440	 0.084163545402904 
2441	 8.38737948400927E-02 
2442	 8.34922847777604E-02 
2443	 8.31296825756105E-02 
2444	 8.28328494608357E-02 
2445	 8.25137542702998E-02 
2446	 8.22739380857493E-02 
2447	 0.082093459767564 
2448	 8.17751871560721E-02 
2449	 8.13519492247886E-02 
2450	 0.080919050900911 
2451	 8.04878868573681E-02 
2452	 8.01384793347671E-02 
2453	 7.98731701054646E-02 
2454	 7.96362745704827E-02 
2455	 7.93940502718049E-02 
2456	 7.89593684608618E-02 
2457	 7.83718958203823E-02 
2458	 7.79309103798099E-02 
2459	 7.74684900466712E-02 
2460	 7.70638002225257E-02 
2461	 7.68758823160187E-02 
2462	 7.64936091153451E-02 
2463	 0.075985998236542 
2464	 7.55498742150364E-02 
2465	 7.51716324680754E-02 
2466	 7.48314537111507E-02 
2467	 7.44238133159801E-02 
2468	 0.074120935512214 
2469	 7.37488147120409E-02 
2470	 0.073235905070369 
2471	 7.29879517853871E-02 
2472	 7.27083124364132E-02 
2473	 7.23358297284581E-02 
2474	 7.21870168267536E-02 
2475	 7.20051344486906E-02 
2476	 7.18202514741921E-02 
2477	 7.16639896664501E-02 
2478	 7.13919951534753E-02 
2479	 7.11500463754237E-02 
2480	 7.09184947583216E-02 
2481	 0.070729591747678 
2482	 0.070631971101178 
2483	 7.05496959094793E-02 
2484	 0.070441436713148 
2485	 7.03705513524577E-02 
2486	 7.04535940935633E-02 
2487	 7.05298626736196E-02 
2488	 7.05784337794769E-02 
2489	 7.06270529188524E-02 
2490	 7.05577731212889E-02 
2491	 7.03480374297736E-02 
2492	 7.02550009987647E-02 
2493	 0.070436874996024 
2494	 7.04762928637517E-02 
2495	 7.06325898714047E-02 
2496	 7.09778810752408E-02 
2497	 0.070855034881063 
2498	 7.08491395741312E-02 
2499	 7.11559429221834E-02 
2500	 7.09720413172173E-02 
