Wavelength	spectrum00011.asd
350	 8.30250793649237E-02 
351	 7.87962904997922E-02 
352	 7.48422636998659E-02 
353	 7.20346259440758E-02 
354	 7.17767016417182E-02 
355	 7.06085460496586E-02 
356	 6.85663441235605E-02 
357	 6.64395457256544E-02 
358	 6.45385953791111E-02 
359	 6.22922025424845E-02 
360	 6.09728703391391E-02 
361	 6.20932077938651E-02 
362	 0.061628949715644 
363	 6.00110700939778E-02 
364	 5.82331626803716E-02 
365	 5.73354413006627E-02 
366	 5.79704878729397E-02 
367	 0.058283992923803 
368	 5.70694938876521E-02 
369	 5.72359260800657E-02 
370	 5.69257939338947E-02 
371	 5.62454317867906E-02 
372	 0.056289741402846 
373	 5.61366075143149E-02 
374	 0.055589543531405 
375	 5.50062520775896E-02 
376	 5.53883262004052E-02 
377	 5.60088413091154E-02 
378	 0.055791053389329 
379	 5.45236983854294E-02 
380	 5.51567160689317E-02 
381	 0.055663099473134 
382	 5.51395225573499E-02 
383	 5.37741175609157E-02 
384	 5.43821121442252E-02 
385	 5.48735688184497E-02 
386	 5.41014583383464E-02 
387	 5.31726700755682E-02 
388	 5.28833058155509E-02 
389	 5.31121857290617E-02 
390	 5.33215848783933E-02 
391	 0.052600333056371 
392	 5.25653508798473E-02 
393	 5.30966622285213E-02 
394	 5.29911635132193E-02 
395	 5.29056749637622E-02 
396	 5.30926179643135E-02 
397	 5.33830584657275E-02 
398	 0.05298168360502 
399	 5.27944008071003E-02 
400	 0.052914519290452 
401	 5.30670246103358E-02 
402	 5.25046153672449E-02 
403	 5.24002235643956E-02 
404	 5.27174670386077E-02 
405	 0.052558601268211 
406	 5.29167813204912E-02 
407	 5.31734595222213E-02 
408	 5.30926325207413E-02 
409	 5.36686519572598E-02 
410	 5.37777072450843E-02 
411	 5.38747728374436E-02 
412	 0.054601777742893 
413	 5.48663766906753E-02 
414	 5.47709877663121E-02 
415	 5.47389517795509E-02 
416	 5.53568127502858E-02 
417	 5.59060202589092E-02 
418	 5.64762423585334E-02 
419	 5.70975323277273E-02 
420	 5.72651142175317E-02 
421	 5.76206848951026E-02 
422	 5.82530371311813E-02 
423	 5.90004047067613E-02 
424	 5.97802808651022E-02 
425	 6.04606909336106E-02 
426	 6.10066163165693E-02 
427	 6.14892382359476E-02 
428	 6.19599693582077E-02 
429	 6.27000702290833E-02 
430	 6.37824155088778E-02 
431	 6.45441058032292E-02 
432	 6.54012730525439E-02 
433	 6.62772188142857E-02 
434	 6.69062593336101E-02 
435	 6.80252249983913E-02 
436	 6.90918143295386E-02 
437	 6.98881147815985E-02 
438	 7.09209385957286E-02 
439	 7.19125719326384E-02 
440	 7.29553535202189E-02 
441	 7.41607751694727E-02 
442	 7.52766049966452E-02 
443	 7.65405019322778E-02 
444	 0.077881846811708 
445	 7.90069774259456E-02 
446	 8.02350382560752E-02 
447	 8.15528777103449E-02 
448	 8.29001719350291E-02 
449	 8.42245927185174E-02 
450	 0.085600101886722 
451	 0.087050969986078 
452	 8.85595840921568E-02 
453	 9.00050375551011E-02 
454	 9.14543446639258E-02 
455	 9.29636792807667E-02 
456	 9.45635434552889E-02 
457	 9.61621716677045E-02 
458	 9.77479471415097E-02 
459	 9.93869268907511E-02 
460	 0.101347257908159 
461	 0.103088120910507 
462	 0.10464153089393 
463	 0.106351595110669 
464	 0.108111947341194 
465	 0.110006049429055 
466	 0.11197992953283 
467	 0.113735021060572 
468	 0.11575923370063 
469	 0.117867302578477 
470	 0.119800115408328 
471	 0.121861510692633 
472	 0.123859089429416 
473	 0.125810963555002 
474	 0.127899888736325 
475	 0.130010346672379 
476	 0.132114515424371 
477	 0.134219024104397 
478	 0.136380302931077 
479	 0.138546943696129 
480	 0.140738606077907 
481	 0.142980691461979 
482	 0.14515676757652 
483	 0.147358988261284 
484	 0.149637220949285 
485	 0.151970141550757 
486	 0.154395695992132 
487	 0.156760397370381 
488	 0.158971609691567 
489	 0.161246371749573 
490	 0.163620937307587 
491	 0.166031084243905 
492	 0.168357400187985 
493	 0.170570932832117 
494	 0.172891299996977 
495	 0.175380171249585 
496	 0.177799999204532 
497	 0.180108438923145 
498	 0.182411470085097 
499	 0.184816532291354 
500	 0.18719365965617 
501	 0.189596152036957 
502	 0.191992379933649 
503	 0.194282803764091 
504	 0.196640350880921 
505	 0.198994603992934 
506	 0.201305524967766 
507	 0.20373038300514 
508	 0.20604253116448 
509	 0.20829206523101 
510	 0.210623928692262 
511	 0.212893911118822 
512	 0.215215164717384 
513	 0.217597471831459 
514	 0.219902547314583 
515	 0.222104164446674 
516	 0.224321105953768 
517	 0.226635014025332 
518	 0.228844527882696 
519	 0.231082602060422 
520	 0.233350823432869 
521	 0.235561494197856 
522	 0.237791544667854 
523	 0.239964725435684 
524	 0.242079463352777 
525	 0.244339239520198 
526	 0.246540495266245 
527	 0.248720558535816 
528	 0.250972611275312 
529	 0.253187611474319 
530	 0.255360176152194 
531	 0.257534061740868 
532	 0.259789693362413 
533	 0.261944078848198 
534	 0.264097981441933 
535	 0.266324623119017 
536	 0.268432821956052 
537	 0.270588162144073 
538	 0.272792530592549 
539	 0.274961123596664 
540	 0.277123996238369 
541	 0.279306673055328 
542	 0.281505396298523 
543	 0.283665742620205 
544	 0.285822668583378 
545	 0.287932985153768 
546	 0.289995429771555 
547	 0.292291666740406 
548	 0.294670991216402 
549	 0.297091932580506 
550	 0.299620717322343 
551	 0.302187613937466 
552	 0.304780013267158 
553	 0.307414862184546 
554	 0.310159614497503 
555	 0.312884117904296 
556	 0.315596145649177 
557	 0.318350307879682 
558	 0.321023663483356 
559	 0.323620384246279 
560	 0.326183054646988 
561	 0.32878926720017 
562	 0.331248805319673 
563	 0.333420113600288 
564	 0.335272031882446 
565	 0.33707389685053 
566	 0.338908011479611 
567	 0.340763090011168 
568	 0.342586423247108 
569	 0.344770477337591 
570	 0.347233298260691 
571	 0.349816933874071 
572	 0.352408936203247 
573	 0.354798274323977 
574	 0.356939747921376 
575	 0.358849695917006 
576	 0.360396487655487 
577	 0.3616110957523 
578	 0.362638403212892 
579	 0.36373032231859 
580	 0.365095852735145 
581	 0.366759007800827 
582	 0.368654491067059 
583	 0.370649227215115 
584	 0.37269426032622 
585	 0.374787567997416 
586	 0.376924495748608 
587	 0.378766397991109 
588	 0.380438178874558 
589	 0.382097684833238 
590	 0.383838739276806 
591	 0.385719102708135 
592	 0.387676370476081 
593	 0.389636338566649 
594	 0.391704617714715 
595	 0.393624373597937 
596	 0.395308890333577 
597	 0.396838183690156 
598	 0.398360215042492 
599	 0.399807626808488 
600	 0.401154523366582 
601	 0.4025708233309 
602	 0.403991433720913 
603	 0.405412942095486 
604	 0.406846340499454 
605	 0.408253556860403 
606	 0.409663214628023 
607	 0.411035197420636 
608	 0.412237172865673 
609	 0.413425279092608 
610	 0.414625301300247 
611	 0.415825091675091 
612	 0.417002038394555 
613	 0.418133460545785 
614	 0.419224940388323 
615	 0.42030584635386 
616	 0.421414405893637 
617	 0.422515258494519 
618	 0.423598433301722 
619	 0.424724941441227 
620	 0.425811010531347 
621	 0.426840066248091 
622	 0.427838146812476 
623	 0.428918173416983 
624	 0.429925045318526 
625	 0.430852184641622 
626	 0.43183604644438 
627	 0.432763718005384 
628	 0.43371583030003 
629	 0.434730632336241 
630	 0.435653413404469 
631	 0.436533737770371 
632	 0.437449281544048 
633	 0.438454070849116 
634	 0.43934260584371 
635	 0.440195398480411 
636	 0.441067214729236 
637	 0.441945421790339 
638	 0.442802333540752 
639	 0.443672863442242 
640	 0.4445679285129 
641	 0.445361423047143 
642	 0.446188087824996 
643	 0.447082234850748 
644	 0.447997061508199 
645	 0.44878324719379 
646	 0.44951512723238 
647	 0.450294705097563 
648	 0.451226886782513 
649	 0.452023461270307 
650	 0.452754051259575 
651	 0.453556846878387 
652	 0.454331696172623 
653	 0.455142146483344 
654	 0.455938449811207 
655	 0.456601429553644 
656	 0.45743345743922 
657	 0.458317538044762 
658	 0.459125093806853 
659	 0.459845964098158 
660	 0.460604480100499 
661	 0.461381456311233 
662	 0.462116660910653 
663	 0.462853590419875 
664	 0.463677027793155 
665	 0.464517596500441 
666	 0.465165097217132 
667	 0.465880983556193 
668	 0.466654435559472 
669	 0.46742014052589 
670	 0.468118139018549 
671	 0.468871399340404 
672	 0.469631094128625 
673	 0.470301846326672 
674	 0.471047214223077 
675	 0.471836679674384 
676	 0.472577604073461 
677	 0.473130620761245 
678	 0.473925584490421 
679	 0.474735045372656 
680	 0.475342737823333 
681	 0.476065575497359 
682	 0.476788470938184 
683	 0.477480200619918 
684	 0.478158369023208 
685	 0.478831758546235 
686	 0.479592209799445 
687	 0.480395368881504 
688	 0.48100159654929 
689	 0.481545158112012 
690	 0.482166706288658 
691	 0.482931970360613 
692	 0.483652379947753 
693	 0.484334607058453 
694	 0.484977704060725 
695	 0.485590945375416 
696	 0.48630932484941 
697	 0.487043831812734 
698	 0.48770749884467 
699	 0.488262142494364 
700	 0.488800253636828 
701	 0.489428837174466 
702	 0.490187569044965 
703	 0.490880915025897 
704	 0.49148996478893 
705	 0.492055793471438 
706	 0.492655701275031 
707	 0.493268374679576 
708	 0.493939680418417 
709	 0.494625541063158 
710	 0.495118558709999 
711	 0.495628999081482 
712	 0.496211993699071 
713	 0.496855969737942 
714	 0.497500163869054 
715	 0.498102703185213 
716	 0.498643511596674 
717	 0.499130670787988 
718	 0.49966564621902 
719	 0.500279173377789 
720	 0.500921074385117 
721	 0.501427763757253 
722	 0.50190415390153 
723	 0.502402683296129 
724	 0.502960674153096 
725	 0.503631363515468 
726	 0.504236242749816 
727	 0.50474332854724 
728	 0.505229701522868 
729	 0.505663329582835 
730	 0.506174378092727 
731	 0.506776636004126 
732	 0.507264757769555 
733	 0.507801324404124 
734	 0.508342823419979 
735	 0.50883811925364 
736	 0.509439825135851 
737	 0.509990605446625 
738	 0.510484251897389 
739	 0.511003080409363 
740	 0.511418640168967 
741	 0.511783925141885 
742	 0.512170527440218 
743	 0.512641504023639 
744	 0.513162000924248 
745	 0.513601636173707 
746	 0.513898810128988 
747	 0.514286054866321 
748	 0.514758341307578 
749	 0.515263125872523 
750	 0.515721504332126 
751	 0.516118737032258 
752	 0.516468254739637 
753	 0.516841661260329 
754	 0.517372113693456 
755	 0.517802738867558 
756	 0.518153958972372 
757	 0.518507187247442 
758	 0.518909492232587 
759	 0.519307099524102 
760	 0.519681700066637 
761	 0.520038829760775 
762	 0.520417968030543 
763	 0.520771293083289 
764	 0.521134721226246 
765	 0.521628126427021 
766	 0.52208687308062 
767	 0.522483627561448 
768	 0.522836317925362 
769	 0.523196270671779 
770	 0.523542813531392 
771	 0.523907952077148 
772	 0.524311846776417 
773	 0.524630081591495 
774	 0.52496062284762 
775	 0.525305569828297 
776	 0.525598318899167 
777	 0.526012817273209 
778	 0.526499916256545 
779	 0.526927371191223 
780	 0.527079919854291 
781	 0.527327671970877 
782	 0.527666564118416 
783	 0.528000598348219 
784	 0.528334376194093 
785	 0.52865605441347 
786	 0.52899310315626 
787	 0.529370563845918 
788	 0.52962530846212 
789	 0.529867087681946 
790	 0.530179951066592 
791	 0.530576914766854 
792	 0.530899503594434 
793	 0.531144473371761 
794	 0.531370078566164 
795	 0.531689592311826 
796	 0.532039438071682 
797	 0.532380687806068 
798	 0.532678375414225 
799	 0.532878601880327 
800	 0.533114776761927 
801	 0.53342692439323 
802	 0.533768273367793 
803	 0.534092559695712 
804	 0.534365749341257 
805	 0.534616065616417 
806	 0.534954407851447 
807	 0.535269573625016 
808	 0.535576218172103 
809	 0.535886785838045 
810	 0.5361049726387 
811	 0.53635020156515 
812	 0.53661216392941 
813	 0.536837977388944 
814	 0.537093749543895 
815	 0.537390762290971 
816	 0.537693605214751 
817	 0.537935105161814 
818	 0.538141867083604 
819	 0.538371678919428 
820	 0.53865299852392 
821	 0.538960960923413 
822	 0.539125429283054 
823	 0.539290445301 
824	 0.539591978891052 
825	 0.539869890485864 
826	 0.540066102389491 
827	 0.540256669391734 
828	 0.540542179529852 
829	 0.540760274478233 
830	 0.540920685280555 
831	 0.541091787106369 
832	 0.541364292925875 
833	 0.541593736342801 
834	 0.541825571089285 
835	 0.542076728442502 
836	 0.542279114365701 
837	 0.542457462697497 
838	 0.542608728261446 
839	 0.542743746398794 
840	 0.542917476461003 
841	 0.543180389159752 
842	 0.543515790490687 
843	 0.543831368614362 
844	 0.543851093392048 
845	 0.543871548034513 
846	 0.544053675356512 
847	 0.544398817975052 
848	 0.544701424576739 
849	 0.544940011198488 
850	 0.54514209863601 
851	 0.545359803263105 
852	 0.545501991719014 
853	 0.545665475732366 
854	 0.545916290453316 
855	 0.546178030254591 
856	 0.546401042382687 
857	 0.546578062961564 
858	 0.546752898415966 
859	 0.547086524716353 
860	 0.547356865456191 
861	 0.547532006363136 
862	 0.5476865080363 
863	 0.547833439065151 
864	 0.548028218416302 
865	 0.548233778054641 
866	 0.548352173652944 
867	 0.548514499085109 
868	 0.548772726460148 
869	 0.549033051001035 
870	 0.549042812726775 
871	 0.549205118031396 
872	 0.549467191617753 
873	 0.549708485783152 
874	 0.549899015862223 
875	 0.550056633708926 
876	 0.550258269840365 
877	 0.550546812074154 
878	 0.550788292486676 
879	 0.551011943340567 
880	 0.551161020516726 
881	 0.551190771615465 
882	 0.551317923849386 
883	 0.551527579743934 
884	 0.551715544361417 
885	 0.551760992359562 
886	 0.55188424498166 
887	 0.552108882724987 
888	 0.552345872949056 
889	 0.552425869881078 
890	 0.5525151283151 
891	 0.552655150457277 
892	 0.552822030126839 
893	 0.552924959189791 
894	 0.553023565087614 
895	 0.553198646460414 
896	 0.553464283407009 
897	 0.553667260292265 
898	 0.553746519943501 
899	 0.553817139704712 
900	 0.554003706012665 
901	 0.554195097370936 
902	 0.554439470849619 
903	 0.554622931760428 
904	 0.554629472562187 
905	 0.55475648151451 
906	 0.554920920990039 
907	 0.555076742809523 
908	 0.555230764433717 
909	 0.555459589023143 
910	 0.555704163357207 
911	 0.555898499241333 
912	 0.556005708580185 
913	 0.556190981770287 
914	 0.556433976630219 
915	 0.556682713565614 
916	 0.556891034556345 
917	 0.557140960989568 
918	 0.557307481222164 
919	 0.557360526866861 
920	 0.557511626972111 
921	 0.557734151523537 
922	 0.557953571430912 
923	 0.55813485224516 
924	 0.558384795469427 
925	 0.558653210278863 
926	 0.558903090203121 
927	 0.55912887776263 
928	 0.559412663614136 
929	 0.559703631596897 
930	 0.560056751227041 
931	 0.560483829055393 
932	 0.560625253496667 
933	 0.560842403411968 
934	 0.561253867295043 
935	 0.561776967871193 
936	 0.562162941605544 
937	 0.562527711025736 
938	 0.562874863444256 
939	 0.563148600661848 
940	 0.563542672419546 
941	 0.563939959451095 
942	 0.564259332406003 
943	 0.564496969916549 
944	 0.564773220506058 
945	 0.565081122621718 
946	 0.565364249737983 
947	 0.56554816456809 
948	 0.565712117144078 
949	 0.565976125284234 
950	 0.566339681813974 
951	 0.566647940584344 
952	 0.566811263917765 
953	 0.566917708903079 
954	 0.56707696364151 
955	 0.56735873452282 
956	 0.567593845539816 
957	 0.567814683659342 
958	 0.568044353550291 
959	 0.568216747202716 
960	 0.568327149936567 
961	 0.568547003214061 
962	 0.568895607136407 
963	 0.569028930329684 
964	 0.569093998042662 
965	 0.569207331972566 
966	 0.569424034706118 
967	 0.569675719610632 
968	 0.569886710495479 
969	 0.570085356378576 
970	 0.570310241857969 
971	 0.570535284326856 
972	 0.570771078134047 
973	 0.570994305933895 
974	 0.571193443939944 
975	 0.571407707025378 
976	 0.571730562302286 
977	 0.572013780153815 
978	 0.572132902642338 
979	 0.572285874977395 
980	 0.572400224997296 
981	 0.572503762874142 
982	 0.572622260039481 
983	 0.572664446259866 
984	 0.572816788218808 
985	 0.573051501077649 
986	 0.573289148749403 
987	 0.573570223786468 
988	 0.573847530772326 
989	 0.574053430133072 
990	 0.574171021579419 
991	 0.574347014907525 
992	 0.574626711277891 
993	 0.574884498481379 
994	 0.575031818936339 
995	 0.57532873896396 
996	 0.575655278287291 
997	 0.575865892980709 
998	 0.575930705197741 
999	 0.576197447446356 
1000	 0.576564833457729 
1001	 0.555531404147477 
1002	 0.555780560428 
1003	 0.556055121898053 
1004	 0.556301128308861 
1005	 0.556561806480267 
1006	 0.556794284997566 
1007	 0.556995960893071 
1008	 0.557215099366354 
1009	 0.557434616215207 
1010	 0.55765265392187 
1011	 0.557883077311246 
1012	 0.558085415772145 
1013	 0.558269087749553 
1014	 0.558462550186969 
1015	 0.558628061798202 
1016	 0.558826551386498 
1017	 0.559065805300055 
1018	 0.55925389613109 
1019	 0.559448430818083 
1020	 0.559690652531087 
1021	 0.559905548741123 
1022	 0.560110025941475 
1023	 0.560321661822026 
1024	 0.560524205682353 
1025	 0.560730882790696 
1026	 0.56094813607811 
1027	 0.561168062823321 
1028	 0.561391808991428 
1029	 0.561623429984462 
1030	 0.561832653459323 
1031	 0.562035105039618 
1032	 0.562220271326519 
1033	 0.562408518131958 
1034	 0.562626884928004 
1035	 0.562811006189291 
1036	 0.563028177412292 
1037	 0.563286653809398 
1038	 0.563504849437951 
1039	 0.563723938240414 
1040	 0.563929303405079 
1041	 0.564080604094085 
1042	 0.564274460030621 
1043	 0.564494085821826 
1044	 0.564698213015411 
1045	 0.564899100824677 
1046	 0.56514896731129 
1047	 0.565345764843628 
1048	 0.565514825866515 
1049	 0.565673531081822 
1050	 0.565810324619617 
1051	 0.565979096299894 
1052	 0.566166751119611 
1053	 0.566351978790536 
1054	 0.566575365761016 
1055	 0.566762596802876 
1056	 0.56693559194415 
1057	 0.56709299280075 
1058	 0.56723249223977 
1059	 0.567377947061747 
1060	 0.567520430891453 
1061	 0.567654661484633 
1062	 0.56782644615081 
1063	 0.567973762234789 
1064	 0.568104243202152 
1065	 0.568259760307335 
1066	 0.568376556201658 
1067	 0.568487965818814 
1068	 0.568623074383402 
1069	 0.568732071498907 
1070	 0.568853777311436 
1071	 0.568979810456138 
1072	 0.569145646510321 
1073	 0.569273887823288 
1074	 0.569398223663064 
1075	 0.569567464884972 
1076	 0.569699669167197 
1077	 0.569836108423863 
1078	 0.569980948756978 
1079	 0.570089130901499 
1080	 0.570213656162108 
1081	 0.570327656244636 
1082	 0.570424587478587 
1083	 0.570527740010426 
1084	 0.570612963332681 
1085	 0.570709795935879 
1086	 0.570821248857787 
1087	 0.570946618114747 
1088	 0.571085511781874 
1089	 0.571226782616726 
1090	 0.571356113362029 
1091	 0.571477301743818 
1092	 0.571536983503654 
1093	 0.57160001060769 
1094	 0.571712099226831 
1095	 0.5718125644795 
1096	 0.571908942158688 
1097	 0.572000829561878 
1098	 0.572066632673926 
1099	 0.572110620407666 
1100	 0.572179382477406 
1101	 0.572291473176806 
1102	 0.572397000033898 
1103	 0.572480201932185 
1104	 0.572552465071392 
1105	 0.572649466448493 
1106	 0.572735658594187 
1107	 0.572776405579263 
1108	 0.572829789199005 
1109	 0.572862476461131 
1110	 0.572833192948564 
1111	 0.572831916608672 
1112	 0.572872115794658 
1113	 0.572908314157174 
1114	 0.572975022910273 
1115	 0.573050265467281 
1116	 0.573100507867507 
1117	 0.573150357191603 
1118	 0.57318043015372 
1119	 0.573194944288801 
1120	 0.573196335942227 
1121	 0.573183287568644 
1122	 0.573161382929801 
1123	 0.573115619501919 
1124	 0.573078739982914 
1125	 0.573044385006564 
1126	 0.572984620792983 
1127	 0.572919161507813 
1128	 0.572856040722231 
1129	 0.572772615377217 
1130	 0.572658637893525 
1131	 0.572543816166404 
1132	 0.572428874132567 
1133	 0.57228535338315 
1134	 0.572128981675459 
1135	 0.571944369682274 
1136	 0.571742573409253 
1137	 0.57150832658478 
1138	 0.571237800658183 
1139	 0.570950459108064 
1140	 0.570643929069998 
1141	 0.570323276741739 
1142	 0.569954913223052 
1143	 0.56959179512563 
1144	 0.569195230499793 
1145	 0.568730473767058 
1146	 0.568248868662801 
1147	 0.567720866323641 
1148	 0.567165140246256 
1149	 0.566616577272899 
1150	 0.566041974759221 
1151	 0.565471395942244 
1152	 0.564882069715959 
1153	 0.564281737133691 
1154	 0.563655140588125 
1155	 0.56302488314285 
1156	 0.562350691423218 
1157	 0.561645686554724 
1158	 0.560922086425916 
1159	 0.560158214289557 
1160	 0.55939522291586 
1161	 0.558617283207537 
1162	 0.557798293499583 
1163	 0.557001934008519 
1164	 0.556167568714022 
1165	 0.555330790888214 
1166	 0.554544980502326 
1167	 0.553744445367771 
1168	 0.552955980221974 
1169	 0.552155741949491 
1170	 0.551346882720245 
1171	 0.5505469394876 
1172	 0.54974984313606 
1173	 0.548935922888863 
1174	 0.54813820531543 
1175	 0.547324615721259 
1176	 0.546478553137852 
1177	 0.545652346147696 
1178	 0.544858647215019 
1179	 0.543983596497599 
1180	 0.543154149635987 
1181	 0.542321202349178 
1182	 0.541460621980158 
1183	 0.540694464805951 
1184	 0.539942166771169 
1185	 0.539220886992395 
1186	 0.538527116916708 
1187	 0.537869463151631 
1188	 0.537230724332471 
1189	 0.536612242063542 
1190	 0.536016421916436 
1191	 0.535451870240933 
1192	 0.534921019016958 
1193	 0.534406843150623 
1194	 0.5339277916574 
1195	 0.533492123158059 
1196	 0.533062401224302 
1197	 0.532651656944123 
1198	 0.532264066500817 
1199	 0.531873757380099 
1200	 0.531530496526433 
1201	 0.531210013266068 
1202	 0.530929521921398 
1203	 0.530706480734367 
1204	 0.530545365036565 
1205	 0.530476740291004 
1206	 0.530444931221581 
1207	 0.530576663952405 
1208	 0.530806388516971 
1209	 0.531172461035146 
1210	 0.531656860578864 
1211	 0.532285189683236 
1212	 0.533065950829325 
1213	 0.533940516066693 
1214	 0.534965284295975 
1215	 0.536068926064928 
1216	 0.537297799097205 
1217	 0.538553858260587 
1218	 0.539915453291271 
1219	 0.541302456604953 
1220	 0.542691925614277 
1221	 0.544171105739703 
1222	 0.545611863302992 
1223	 0.54706350696318 
1224	 0.548458233359344 
1225	 0.549841301189386 
1226	 0.551133106755093 
1227	 0.552375853196837 
1228	 0.553564263497305 
1229	 0.554701695646837 
1230	 0.555767464705664 
1231	 0.55676979415121 
1232	 0.557729936670812 
1233	 0.558602728166651 
1234	 0.559449815377288 
1235	 0.560260494723284 
1236	 0.561037638738636 
1237	 0.561757099689607 
1238	 0.562468314607432 
1239	 0.563143326056938 
1240	 0.563821884179278 
1241	 0.564496000606841 
1242	 0.565097759561168 
1243	 0.565683974470104 
1244	 0.566245889127092 
1245	 0.566774002986376 
1246	 0.567269069137051 
1247	 0.56773268573341 
1248	 0.568161749270842 
1249	 0.568573643476313 
1250	 0.568953355013899 
1251	 0.569309759885044 
1252	 0.569642730506834 
1253	 0.569961720593608 
1254	 0.570256653129952 
1255	 0.570529090103522 
1256	 0.570777059261187 
1257	 0.571025013002103 
1258	 0.571249494440647 
1259	 0.571467023664062 
1260	 0.571681129421918 
1261	 0.571889455656877 
1262	 0.572074377025912 
1263	 0.572271335106802 
1264	 0.572461920680163 
1265	 0.572655100392303 
1266	 0.572842180712753 
1267	 0.573023688375076 
1268	 0.573202703645266 
1269	 0.573376146397101 
1270	 0.573556072983521 
1271	 0.573744787703757 
1272	 0.573910828990269 
1273	 0.57406888811638 
1274	 0.574226477088828 
1275	 0.574372334715849 
1276	 0.574509406332521 
1277	 0.57464608632892 
1278	 0.574775962983212 
1279	 0.574881581692129 
1280	 0.574998726032896 
1281	 0.57511599742451 
1282	 0.575242295384598 
1283	 0.575388443740925 
1284	 0.575512724482819 
1285	 0.575629936835586 
1286	 0.575747576393057 
1287	 0.575856894972815 
1288	 0.575947767721812 
1289	 0.576043960953046 
1290	 0.576153526562317 
1291	 0.576229758493166 
1292	 0.576287315790469 
1293	 0.576339501167714 
1294	 0.576370715907611 
1295	 0.576407710669833 
1296	 0.576433870756628 
1297	 0.576472431713945 
1298	 0.576521946098888 
1299	 0.576556084322926 
1300	 0.576598466161968 
1301	 0.576620666150224 
1302	 0.576628061418771 
1303	 0.576623728508873 
1304	 0.576595152060354 
1305	 0.57657876795975 
1306	 0.576561550152662 
1307	 0.576536901803693 
1308	 0.576510671271473 
1309	 0.576493918336133 
1310	 0.576457965859795 
1311	 0.576404171959549 
1312	 0.576362445561686 
1313	 0.576331973390809 
1314	 0.576266250415579 
1315	 0.576200738497449 
1316	 0.57609711740677 
1317	 0.575946664079179 
1318	 0.575819463033363 
1319	 0.575679465595806 
1320	 0.57554606743721 
1321	 0.575428831076647 
1322	 0.575289156676112 
1323	 0.575136560745869 
1324	 0.574982368200362 
1325	 0.574834527736223 
1326	 0.574654005180416 
1327	 0.574454838103435 
1328	 0.574250784044635 
1329	 0.574037073159766 
1330	 0.573794258752272 
1331	 0.573550113645664 
1332	 0.573272933994688 
1333	 0.572978398866148 
1334	 0.572622492485343 
1335	 0.572267281090299 
1336	 0.571895171025549 
1337	 0.571496989549069 
1338	 0.571073988287278 
1339	 0.570637109437533 
1340	 0.570191293952756 
1341	 0.569697668062001 
1342	 0.569181079937634 
1343	 0.568626083131347 
1344	 0.568043584675417 
1345	 0.567402136226257 
1346	 0.566718697294812 
1347	 0.566005162826613 
1348	 0.565234676231384 
1349	 0.56444841050719 
1350	 0.563633475835072 
1351	 0.562799397131759 
1352	 0.56191669339608 
1353	 0.561048714334689 
1354	 0.560160683996923 
1355	 0.55929446847653 
1356	 0.558430262214981 
1357	 0.557578762704347 
1358	 0.556727498727874 
1359	 0.555902985216738 
1360	 0.555099128865296 
1361	 0.554303601584296 
1362	 0.553522196876169 
1363	 0.552798580866196 
1364	 0.552047898475532 
1365	 0.551322598817734 
1366	 0.55054444129704 
1367	 0.54975342981058 
1368	 0.54893768817004 
1369	 0.54810728266209 
1370	 0.547218647890498 
1371	 0.546309563832393 
1372	 0.54535460383617 
1373	 0.544341288410729 
1374	 0.543305431251678 
1375	 0.542232301611279 
1376	 0.541133986351501 
1377	 0.539988410112428 
1378	 0.538831282355851 
1379	 0.53762176005163 
1380	 0.536458618738892 
1381	 0.535258364253907 
1382	 0.534132888372472 
1383	 0.533034005792922 
1384	 0.532005782554719 
1385	 0.531030650341632 
1386	 0.530116457013759 
1387	 0.529261942277739 
1388	 0.528479055950768 
1389	 0.527772954753664 
1390	 0.527100864813262 
1391	 0.526506209572812 
1392	 0.525922107008353 
1393	 0.52541027275509 
1394	 0.52487553920615 
1395	 0.524306640327122 
1396	 0.523789742761136 
1397	 0.523102784159184 
1398	 0.522384941023832 
1399	 0.521453997874014 
1400	 0.520398019295406 
1401	 0.519190369885679 
1402	 0.517822489629985 
1403	 0.5163181198287 
1404	 0.514648778311242 
1405	 0.512933506629109 
1406	 0.511063968725803 
1407	 0.509177934787168 
1408	 0.50719251264132 
1409	 0.505239912961232 
1410	 0.503211198418841 
1411	 0.501245261703828 
1412	 0.499279122238573 
1413	 0.497404880000008 
1414	 0.495546729924419 
1415	 0.493779562205619 
1416	 0.492105168918465 
1417	 0.490470093863079 
1418	 0.488890994334951 
1419	 0.48736496852277 
1420	 0.485892258240744 
1421	 0.484484084078673 
1422	 0.483146604169586 
1423	 0.481839292880947 
1424	 0.480610306332663 
1425	 0.479364071095717 
1426	 0.478203328886412 
1427	 0.477037096719781 
1428	 0.475879666135519 
1429	 0.474799443055213 
1430	 0.473657702208439 
1431	 0.472519687311916 
1432	 0.471326636931663 
1433	 0.470103474738846 
1434	 0.468851910560621 
1435	 0.467568901954967 
1436	 0.46623713693113 
1437	 0.464843877528252 
1438	 0.463507630715325 
1439	 0.462076431061402 
1440	 0.460838526954199 
1441	 0.459608917041554 
1442	 0.458636038023301 
1443	 0.457736892031932 
1444	 0.457177450942547 
1445	 0.456836462698522 
1446	 0.456792554448451 
1447	 0.457042471657337 
1448	 0.457520854058972 
1449	 0.458341044179136 
1450	 0.459249138974058 
1451	 0.460452205633618 
1452	 0.461641512541575 
1453	 0.463014170914593 
1454	 0.464292051574622 
1455	 0.465637654710006 
1456	 0.466878216965403 
1457	 0.468077534824899 
1458	 0.469196377632448 
1459	 0.470227884123698 
1460	 0.471222789830557 
1461	 0.472143557030725 
1462	 0.473022460008689 
1463	 0.473848107586162 
1464	 0.474650579652916 
1465	 0.475375870183348 
1466	 0.476136568837906 
1467	 0.476855572313165 
1468	 0.477540691205578 
1469	 0.478234122498592 
1470	 0.47885737064135 
1471	 0.479500077611639 
1472	 0.480134191949457 
1473	 0.480753860249415 
1474	 0.481385057979747 
1475	 0.481932380395645 
1476	 0.482459562718316 
1477	 0.482901154579637 
1478	 0.483267267674415 
1479	 0.483587065122791 
1480	 0.483857766266865 
1481	 0.484057885042344 
1482	 0.484175271366745 
1483	 0.48428313988105 
1484	 0.484308186854642 
1485	 0.484379050854216 
1486	 0.484421503639135 
1487	 0.484521153200123 
1488	 0.48459435556472 
1489	 0.484805693363927 
1490	 0.48506877223769 
1491	 0.485444744098656 
1492	 0.485929895714838 
1493	 0.486501435732996 
1494	 0.48717643124256 
1495	 0.48790669638414 
1496	 0.48875252121126 
1497	 0.489612533958551 
1498	 0.49055815214558 
1499	 0.491477134675305 
1500	 0.492447042659693 
1501	 0.493368588094953 
1502	 0.494284844769036 
1503	 0.495150808511432 
1504	 0.495985563027212 
1505	 0.496787144486729 
1506	 0.497566112202844 
1507	 0.498281801601895 
1508	 0.498961606885155 
1509	 0.499582675370158 
1510	 0.50013676564076 
1511	 0.500642210017942 
1512	 0.501108039584463 
1513	 0.501507861834251 
1514	 0.501830230873478 
1515	 0.502122720298744 
1516	 0.502345707286816 
1517	 0.50255361167274 
1518	 0.502727281081901 
1519	 0.502881782099373 
1520	 0.503015656536871 
1521	 0.503122902122974 
1522	 0.503200761819279 
1523	 0.503260932351904 
1524	 0.503284172797327 
1525	 0.503268615996757 
1526	 0.503252450491993 
1527	 0.503206893321052 
1528	 0.503172639640413 
1529	 0.503136049662836 
1530	 0.503087920487698 
1531	 0.503022143927707 
1532	 0.502985083652186 
1533	 0.502940521310458 
1534	 0.502934149869075 
1535	 0.5029465192022 
1536	 0.502999573477098 
1537	 0.503062981426857 
1538	 0.503200950720338 
1539	 0.503384303095705 
1540	 0.503630696009346 
1541	 0.503937187053443 
1542	 0.504293839850967 
1543	 0.504711351322292 
1544	 0.505167478974528 
1545	 0.505683220439627 
1546	 0.50621899104534 
1547	 0.506813441747306 
1548	 0.50739079287156 
1549	 0.507990412323774 
1550	 0.508588100718176 
1551	 0.509188490043038 
1552	 0.509790756238049 
1553	 0.510406958558554 
1554	 0.51101033473914 
1555	 0.511617749450938 
1556	 0.512201141415676 
1557	 0.512771656854643 
1558	 0.513335894133742 
1559	 0.513878598358565 
1560	 0.514425979674171 
1561	 0.51497591268005 
1562	 0.515514259899619 
1563	 0.516053450580536 
1564	 0.516567358723824 
1565	 0.51705705210261 
1566	 0.517555483086567 
1567	 0.518053238266547 
1568	 0.518524152002445 
1569	 0.51898211275986 
1570	 0.519441990720255 
1571	 0.51987690234522 
1572	 0.520316612759589 
1573	 0.520771142069447 
1574	 0.521209632021905 
1575	 0.521638082508774 
1576	 0.522051267496809 
1577	 0.522452759398593 
1578	 0.522852521773599 
1579	 0.52323476055224 
1580	 0.523617673856077 
1581	 0.523999884283501 
1582	 0.524381802999176 
1583	 0.524763808736236 
1584	 0.525133331065413 
1585	 0.525496802121828 
1586	 0.525862038145679 
1587	 0.526214349916762 
1588	 0.526570143915704 
1589	 0.526928729242967 
1590	 0.527291411955622 
1591	 0.52764641131183 
1592	 0.52801626208175 
1593	 0.528401886924835 
1594	 0.528784818885376 
1595	 0.529175039508031 
1596	 0.529561712958798 
1597	 0.529953994715455 
1598	 0.53033459607027 
1599	 0.530706048596126 
1600	 0.531081990063984 
1601	 0.531459069073844 
1602	 0.531824299952912 
1603	 0.532191956311108 
1604	 0.532544492330723 
1605	 0.532877014139358 
1606	 0.533209681693464 
1607	 0.533538239645699 
1608	 0.533860171569905 
1609	 0.534184299835225 
1610	 0.534487395440355 
1611	 0.534778742268201 
1612	 0.535056346211441 
1613	 0.535320047543831 
1614	 0.535563306034101 
1615	 0.535792275386205 
1616	 0.536004667882595 
1617	 0.536190909329368 
1618	 0.536370487731901 
1619	 0.53654445070875 
1620	 0.536695652124808 
1621	 0.536821763173793 
1622	 0.536946028208935 
1623	 0.537044464359944 
1624	 0.537153158662174 
1625	 0.53727654741938 
1626	 0.537378461409356 
1627	 0.537475412662644 
1628	 0.537559681986368 
1629	 0.537617847061568 
1630	 0.537680843674356 
1631	 0.537727964870699 
1632	 0.537794399725716 
1633	 0.537878432984851 
1634	 0.537949276764567 
1635	 0.538042139550887 
1636	 0.538101159484034 
1637	 0.538136270347654 
1638	 0.538157327851466 
1639	 0.538160572351058 
1640	 0.538146673881653 
1641	 0.538121006967855 
1642	 0.538070212781569 
1643	 0.538002630941626 
1644	 0.537904197474175 
1645	 0.537777666308766 
1646	 0.537629812690148 
1647	 0.537448521423172 
1648	 0.537255904084007 
1649	 0.537043315961296 
1650	 0.536813949241438 
1651	 0.536587652094685 
1652	 0.536308085253569 
1653	 0.536018138074047 
1654	 0.535652123586875 
1655	 0.535219327813228 
1656	 0.534742637917491 
1657	 0.534225131284848 
1658	 0.533629709745617 
1659	 0.532986079923203 
1660	 0.532262229885483 
1661	 0.531455449501767 
1662	 0.530577802917011 
1663	 0.529640495202626 
1664	 0.528595540749447 
1665	 0.527470814636242 
1666	 0.526228314002197 
1667	 0.524871221807294 
1668	 0.523445195562815 
1669	 0.521944670611415 
1670	 0.520314630419444 
1671	 0.518566701413396 
1672	 0.516728044112376 
1673	 0.514763271194482 
1674	 0.512714130041838 
1675	 0.510587325950011 
1676	 0.508397734902941 
1677	 0.506121188144479 
1678	 0.503750208306201 
1679	 0.501278654681417 
1680	 0.498735659455184 
1681	 0.496109199445625 
1682	 0.493364115996052 
1683	 0.490542521604147 
1684	 0.487665775425773 
1685	 0.484679215371473 
1686	 0.481610613522804 
1687	 0.478452476454016 
1688	 0.475229069574709 
1689	 0.471891658719091 
1690	 0.468509322689581 
1691	 0.46511050792068 
1692	 0.461663413454336 
1693	 0.458147129362373 
1694	 0.454569384795596 
1695	 0.45091563750253 
1696	 0.447199376043479 
1697	 0.443401157766534 
1698	 0.439540690971698 
1699	 0.435610954742943 
1700	 0.431797834505293 
1701	 0.427898348619275 
1702	 0.424201264930912 
1703	 0.420562141682597 
1704	 0.417117422789642 
1705	 0.413781895841468 
1706	 0.410593466514334 
1707	 0.407795120048554 
1708	 0.405102201761884 
1709	 0.402562318949019 
1710	 0.400251625473571 
1711	 0.397950157682214 
1712	 0.395844558293094 
1713	 0.393816731765744 
1714	 0.391810593518386 
1715	 0.390032161823019 
1716	 0.388260855172151 
1717	 0.386582027010197 
1718	 0.385057057927524 
1719	 0.383546242856035 
1720	 0.38219762416271 
1721	 0.380991551216687 
1722	 0.379938714392486 
1723	 0.379187684675292 
1724	 0.378641398579824 
1725	 0.378322247707007 
1726	 0.378349531552154 
1727	 0.378645401652339 
1728	 0.379200621986805 
1729	 0.380121487386715 
1730	 0.381330083050918 
1731	 0.382674010519288 
1732	 0.384292009420607 
1733	 0.385997511441251 
1734	 0.387743409346323 
1735	 0.389544580240035 
1736	 0.391170749559793 
1737	 0.392643562953629 
1738	 0.393888390926883 
1739	 0.394877864889825 
1740	 0.395661073883877 
1741	 0.396208209383421 
1742	 0.396472573930548 
1743	 0.396581755615227 
1744	 0.396416781260336 
1745	 0.396203226929988 
1746	 0.395764306475158 
1747	 0.395409785769798 
1748	 0.394977603471383 
1749	 0.394624294378588 
1750	 0.394259276160878 
1751	 0.394024493816511 
1752	 0.393825177111881 
1753	 0.393802101398727 
1754	 0.393893310373016 
1755	 0.394156299892176 
1756	 0.394540494296892 
1757	 0.39512666130203 
1758	 0.395945534788912 
1759	 0.396909009483685 
1760	 0.398127553631546 
1761	 0.399587851759148 
1762	 0.401138804567144 
1763	 0.402943906972112 
1764	 0.404867052325769 
1765	 0.406886258562854 
1766	 0.40914653258086 
1767	 0.411389640176039 
1768	 0.413698188572081 
1769	 0.41602631037428 
1770	 0.418145610920341 
1771	 0.420257745470947 
1772	 0.422270124132879 
1773	 0.424148516823737 
1774	 0.426064000980083 
1775	 0.427807688966594 
1776	 0.429444759146468 
1777	 0.431018516142827 
1778	 0.432377011608988 
1779	 0.43367602037491 
1780	 0.434906328948535 
1781	 0.436019682077617 
1782	 0.437091895253199 
1783	 0.438086303576748 
1784	 0.439061676446178 
1785	 0.439911847797212 
1786	 0.440729316439696 
1787	 0.44148345000204 
1788	 0.442213585481023 
1789	 0.442927706638959 
1790	 0.44357554092529 
1791	 0.444168803998621 
1792	 0.444750620167351 
1793	 0.445257113898352 
1794	 0.445769469338065 
1795	 0.446265052380796 
1796	 0.446760851750452 
1797	 0.447279749442408 
1798	 0.447790943007805 
1799	 0.448344298402135 
1800	 0.448887097808791 
1801	 0.46024975974205 
1802	 0.461355144164904 
1803	 0.462314092418998 
1804	 0.463151568964208 
1805	 0.463995638613189 
1806	 0.464735035361889 
1807	 0.46536412535319 
1808	 0.466001477630544 
1809	 0.466569825182342 
1810	 0.46714177782834 
1811	 0.467688808654437 
1812	 0.468222811165094 
1813	 0.468714141452425 
1814	 0.469257239949844 
1815	 0.469753156889812 
1816	 0.470261568320534 
1817	 0.47078610593958 
1818	 0.47130146427641 
1819	 0.471853066683011 
1820	 0.472420812998092 
1821	 0.473012839941157 
1822	 0.473632542718117 
1823	 0.474284449451136 
1824	 0.474918995362691 
1825	 0.475564446570605 
1826	 0.476182733180164 
1827	 0.476797426962826 
1828	 0.477368128415538 
1829	 0.477914807043181 
1830	 0.478451533931458 
1831	 0.478953295611946 
1832	 0.479465669933912 
1833	 0.479937837230452 
1834	 0.480417643801518 
1835	 0.480909693325397 
1836	 0.481377830949914 
1837	 0.481894070457488 
1838	 0.482435106158297 
1839	 0.482997657345138 
1840	 0.483596496938102 
1841	 0.484193640882962 
1842	 0.484812274456245 
1843	 0.485447855409503 
1844	 0.486068714844771 
1845	 0.486631755455351 
1846	 0.487178613913906 
1847	 0.48768353298121 
1848	 0.488139854373296 
1849	 0.488578258942514 
1850	 0.488931586993807 
1851	 0.489219539489773 
1852	 0.489469507921899 
1853	 0.489657149452471 
1854	 0.489781585191598 
1855	 0.489885939482611 
1856	 0.489938485465271 
1857	 0.489917366127059 
1858	 0.48981605112385 
1859	 0.489637198554941 
1860	 0.489385454599594 
1861	 0.489040137027025 
1862	 0.488607093250818 
1863	 0.488127634792678 
1864	 0.487523528537054 
1865	 0.486841203824801 
1866	 0.486060733858835 
1867	 0.485148221069214 
1868	 0.484182456455101 
1869	 0.483146528889408 
1870	 0.48209366549028 
1871	 0.481005181721938 
1872	 0.479899243350841 
1873	 0.478766707361349 
1874	 0.477625502768718 
1875	 0.476465816248953 
1876	 0.475148736852134 
1877	 0.473835579666871 
1878	 0.47237426511042 
1879	 0.470700098829773 
1880	 0.469010287581084 
1881	 0.467123732571963 
1882	 0.465043323062331 
1883	 0.462871664819068 
1884	 0.460565444641179 
1885	 0.457974830486971 
1886	 0.455358919816631 
1887	 0.452537663659782 
1888	 0.449508860320391 
1889	 0.446617347511196 
1890	 0.443553726504123 
1891	 0.440465470728461 
1892	 0.437430222380306 
1893	 0.434275387331615 
1894	 0.430972380900785 
1895	 0.427786395113699 
1896	 0.424548764822394 
1897	 0.421285701629756 
1898	 0.41832322258039 
1899	 0.415331127155932 
1900	 0.412438371023927 
1901	 0.409731881237763 
1902	 0.406927961768818 
1903	 0.40431097163582 
1904	 0.401805796330384 
1905	 0.399378527554689 
1906	 0.397066024946514 
1907	 0.395055321309559 
1908	 0.393067904491768 
1909	 0.391173181424767 
1910	 0.389383027921808 
1911	 0.387528367607504 
1912	 0.385807295357706 
1913	 0.384126093774884 
1914	 0.382440586161491 
1915	 0.380853285625169 
1916	 0.37938280816369 
1917	 0.377855505316718 
1918	 0.376366317822108 
1919	 0.374933217638712 
1920	 0.373390864114484 
1921	 0.371883540745446 
1922	 0.370367230397148 
1923	 0.368814510548302 
1924	 0.367392492044055 
1925	 0.365938291738679 
1926	 0.364507950592012 
1927	 0.363119367589406 
1928	 0.361728776333607 
1929	 0.360297772559818 
1930	 0.358967764951243 
1931	 0.357702180784153 
1932	 0.356503568756605 
1933	 0.355496916064391 
1934	 0.354581127121205 
1935	 0.353752744485036 
1936	 0.353094557864838 
1937	 0.352551478004789 
1938	 0.352109681637778 
1939	 0.351829684841292 
1940	 0.35169399262518 
1941	 0.351700934366671 
1942	 0.351825918569782 
1943	 0.352066917267037 
1944	 0.352381441416234 
1945	 0.352794464431799 
1946	 0.353371767203183 
1947	 0.354022772319371 
1948	 0.354838228583505 
1949	 0.355821083053095 
1950	 0.356879090094906 
1951	 0.358050876346709 
1952	 0.359339840539359 
1953	 0.360730241118721 
1954	 0.362242784710983 
1955	 0.363927647706949 
1956	 0.365609391700771 
1957	 0.367349383057806 
1958	 0.36908427772991 
1959	 0.37061992242407 
1960	 0.372105012133114 
1961	 0.373469764129729 
1962	 0.374697068328873 
1963	 0.375840563961261 
1964	 0.37689098241018 
1965	 0.377835550429604 
1966	 0.378669717204298 
1967	 0.3794373167631 
1968	 0.380080982145981 
1969	 0.380735804997221 
1970	 0.381344414170462 
1971	 0.381936563120088 
1972	 0.382624025820148 
1973	 0.383306386868624 
1974	 0.384024368662108 
1975	 0.384809164711236 
1976	 0.385589698056546 
1977	 0.386357510339663 
1978	 0.38718450693596 
1979	 0.388058324999278 
1980	 0.388922540156823 
1981	 0.389858603816314 
1982	 0.390767966528361 
1983	 0.391710024282002 
1984	 0.392688953542562 
1985	 0.393625282497108 
1986	 0.3946546788923 
1987	 0.395748821608203 
1988	 0.396835991882296 
1989	 0.398088688024137 
1990	 0.399470656023997 
1991	 0.400908990588722 
1992	 0.402455353824242 
1993	 0.404107578956381 
1994	 0.405707100617142 
1995	 0.407417149104276 
1996	 0.409127918050435 
1997	 0.410833247010187 
1998	 0.412590068234019 
1999	 0.414449485477026 
2000	 0.41615816698838 
2001	 0.417928663343247 
2002	 0.419486139005164 
2003	 0.420885629265618 
2004	 0.422248488003475 
2005	 0.42348171148836 
2006	 0.424676407410355 
2007	 0.425853855448082 
2008	 0.426900482202794 
2009	 0.427849987768795 
2010	 0.428726027008646 
2011	 0.429466742816525 
2012	 0.430177747803881 
2013	 0.430828673788304 
2014	 0.431420460575666 
2015	 0.431939971036948 
2016	 0.432419136788712 
2017	 0.432789722542352 
2018	 0.433062085891843 
2019	 0.433283642900169 
2020	 0.433427712392089 
2021	 0.433496306084078 
2022	 0.433498621716727 
2023	 0.433429618470159 
2024	 0.433301605231144 
2025	 0.433121716094513 
2026	 0.432901627729257 
2027	 0.432630495447379 
2028	 0.432339165908518 
2029	 0.431980057345246 
2030	 0.431634595036839 
2031	 0.431286321501477 
2032	 0.430909180558054 
2033	 0.430495253489124 
2034	 0.430095678913047 
2035	 0.429671608489442 
2036	 0.429254343599428 
2037	 0.428882845240724 
2038	 0.428502938016194 
2039	 0.42813847536696 
2040	 0.427794908125515 
2041	 0.427448392895285 
2042	 0.427087224159286 
2043	 0.426776549268509 
2044	 0.426485322111763 
2045	 0.426216906326527 
2046	 0.425993937653968 
2047	 0.425769771203348 
2048	 0.425567996546456 
2049	 0.425361573299834 
2050	 0.425175321636664 
2051	 0.424965223334508 
2052	 0.424754263500266 
2053	 0.424548548141907 
2054	 0.424343545645808 
2055	 0.424132122566008 
2056	 0.423934485035201 
2057	 0.423746674827061 
2058	 0.423555014348413 
2059	 0.423377223402062 
2060	 0.423191539202886 
2061	 0.422991278943581 
2062	 0.422803528518075 
2063	 0.422614659118576 
2064	 0.422431850367074 
2065	 0.422247065634753 
2066	 0.422094052644342 
2067	 0.421929233188957 
2068	 0.421779758459167 
2069	 0.421633783611116 
2070	 0.421499103783561 
2071	 0.421356620132574 
2072	 0.421223066594849 
2073	 0.421074350909392 
2074	 0.420932691372264 
2075	 0.420760698854756 
2076	 0.420557018302311 
2077	 0.420368178522325 
2078	 0.420165150331617 
2079	 0.419961841984186 
2080	 0.419770962009155 
2081	 0.419573470620545 
2082	 0.419367915511277 
2083	 0.419157319401481 
2084	 0.418943711847514 
2085	 0.418723712394285 
2086	 0.418475256974908 
2087	 0.418196454558498 
2088	 0.417924403900417 
2089	 0.417629872871527 
2090	 0.417349632517042 
2091	 0.417095816876762 
2092	 0.416797802261891 
2093	 0.416481089604597 
2094	 0.416156169637677 
2095	 0.415789347957408 
2096	 0.415440219047491 
2097	 0.415103392121222 
2098	 0.414760942706764 
2099	 0.414397083010035 
2100	 0.414007494813141 
2101	 0.413576223002118 
2102	 0.41310497513321 
2103	 0.412619832459011 
2104	 0.412090608103744 
2105	 0.411567923187717 
2106	 0.411035232909083 
2107	 0.410481055504012 
2108	 0.409931519731504 
2109	 0.409335969926097 
2110	 0.408714729316119 
2111	 0.408058642782795 
2112	 0.407331748330844 
2113	 0.406630956491658 
2114	 0.405906880109059 
2115	 0.405188883907281 
2116	 0.404463189036701 
2117	 0.403784318963567 
2118	 0.403081556016607 
2119	 0.402354814890617 
2120	 0.401693166073414 
2121	 0.4010340357404 
2122	 0.400443406190019 
2123	 0.399899735807397 
2124	 0.399401729660322 
2125	 0.398953996160006 
2126	 0.398547092276735 
2127	 0.39818250805718 
2128	 0.39787346444439 
2129	 0.397623430794654 
2130	 0.397399118128708 
2131	 0.397247663335743 
2132	 0.397091358436232 
2133	 0.396958591667719 
2134	 0.39683202437972 
2135	 0.396724725276195 
2136	 0.396645473973003 
2137	 0.396577774038214 
2138	 0.396529767382756 
2139	 0.396499334159308 
2140	 0.396488582738755 
2141	 0.39648524971736 
2142	 0.396498261347069 
2143	 0.396527491554752 
2144	 0.39656095807513 
2145	 0.396623983699432 
2146	 0.396708644641185 
2147	 0.396819194085174 
2148	 0.396959692932328 
2149	 0.397110918426755 
2150	 0.3972955446246 
2151	 0.397474497604564 
2152	 0.39766677762737 
2153	 0.397857911322693 
2154	 0.398049382898094 
2155	 0.398246126840313 
2156	 0.398403409148495 
2157	 0.398548438367178 
2158	 0.398675009107016 
2159	 0.398784815477468 
2160	 0.398844915649255 
2161	 0.398887798979369 
2162	 0.398885927395508 
2163	 0.398815727157212 
2164	 0.398753952878428 
2165	 0.398676638016083 
2166	 0.398579152144213 
2167	 0.398435469189643 
2168	 0.398327803270404 
2169	 0.398214561352851 
2170	 0.398111607779387 
2171	 0.398022987958686 
2172	 0.397948857280704 
2173	 0.39786674582995 
2174	 0.397814475931906 
2175	 0.397802134300309 
2176	 0.397823752319271 
2177	 0.397846188014823 
2178	 0.397902445336009 
2179	 0.397940828973045 
2180	 0.397977833855056 
2181	 0.398020918523244 
2182	 0.398074134321231 
2183	 0.398114597424515 
2184	 0.398171264630971 
2185	 0.398185655911893 
2186	 0.398185203888223 
2187	 0.398157029882689 
2188	 0.398104664608631 
2189	 0.398021831638201 
2190	 0.397910220373414 
2191	 0.397773734525417 
2192	 0.397599032330808 
2193	 0.397412542046204 
2194	 0.39720585327408 
2195	 0.396984959664187 
2196	 0.396758745168876 
2197	 0.396487446165622 
2198	 0.396207572451179 
2199	 0.395893741478765 
2200	 0.39556411743608 
2201	 0.395224087016074 
2202	 0.394820159893833 
2203	 0.394366287252403 
2204	 0.393924143858709 
2205	 0.393431402208023 
2206	 0.392951843720522 
2207	 0.392501980199019 
2208	 0.39198837225152 
2209	 0.391439184245274 
2210	 0.390871567160316 
2211	 0.390247602442549 
2212	 0.389661103284156 
2213	 0.389043028179448 
2214	 0.38847723895258 
2215	 0.387949515724398 
2216	 0.38743110892621 
2217	 0.38696831203605 
2218	 0.386466075848814 
2219	 0.385963682146776 
2220	 0.385450068876504 
2221	 0.384898657964363 
2222	 0.384367001821853 
2223	 0.383886260235399 
2224	 0.38333382219442 
2225	 0.382784726342764 
2226	 0.382191948594091 
2227	 0.381444824620081 
2228	 0.380617173017138 
2229	 0.37966175937237 
2230	 0.37855231729705 
2231	 0.377389819158199 
2232	 0.376158388204896 
2233	 0.374762346661793 
2234	 0.373316457472616 
2235	 0.371609393964292 
2236	 0.369692112249809 
2237	 0.367650948852391 
2238	 0.36535243522316 
2239	 0.363030354071063 
2240	 0.36064295979272 
2241	 0.35806424304425 
2242	 0.355439221714142 
2243	 0.352534540193869 
2244	 0.349309202936958 
2245	 0.346082926914371 
2246	 0.342572666558654 
2247	 0.339145671039987 
2248	 0.335767304900886 
2249	 0.332274205746371 
2250	 0.328732160586308 
2251	 0.325182744174034 
2252	 0.321346728634145 
2253	 0.317601924923618 
2254	 0.313779696897273 
2255	 0.309959251173152 
2256	 0.306496459769495 
2257	 0.303006146766608 
2258	 0.299653272767057 
2259	 0.296520632956379 
2260	 0.293290831721412 
2261	 0.290051938196784 
2262	 0.286933036581439 
2263	 0.283779509276375 
2264	 0.280861684718703 
2265	 0.278129927769413 
2266	 0.275399764547766 
2267	 0.272871008482012 
2268	 0.270245777792339 
2269	 0.267561777632953 
2270	 0.265013674412681 
2271	 0.262467952642488 
2272	 0.260043981408107 
2273	 0.257778483298123 
2274	 0.255496317835286 
2275	 0.253353316986064 
2276	 0.251095520787706 
2277	 0.24883456908635 
2278	 0.246522856649274 
2279	 0.244075027790984 
2280	 0.241690970319495 
2281	 0.239377743569416 
2282	 0.236946481522508 
2283	 0.234504727662726 
2284	 0.232014385367398 
2285	 0.229265983072745 
2286	 0.22656763997248 
2287	 0.22376394961961 
2288	 0.22085131098737 
2289	 0.218077113383268 
2290	 0.215113075672626 
2291	 0.212161845605316 
2292	 0.209280045736508 
2293	 0.206185926024361 
2294	 0.203197713281413 
2295	 0.200325323379993 
2296	 0.19750630058986 
2297	 0.195077490747268 
2298	 0.192935158653312 
2299	 0.191022146111145 
2300	 0.189366670349196 
2301	 0.188032438675114 
2302	 0.186914866661209 
2303	 0.186278294837013 
2304	 0.186022177877471 
2305	 0.186158659057748 
2306	 0.186775048923382 
2307	 0.187663853278259 
2308	 0.188908378109299 
2309	 0.190532657432971 
2310	 0.192624215512224 
2311	 0.194862550230635 
2312	 0.197642823513133 
2313	 0.200258335406682 
2314	 0.20308036867557 
2315	 0.205746830528294 
2316	 0.208421544405603 
2317	 0.210934038692433 
2318	 0.213470612908041 
2319	 0.215632876755049 
2320	 0.217686652949703 
2321	 0.219314422204363 
2322	 0.220511196091275 
2323	 0.221526611737073 
2324	 0.222165989853754 
2325	 0.222649457737796 
2326	 0.222930287917751 
2327	 0.222968905191508 
2328	 0.222701820150461 
2329	 0.22231773908613 
2330	 0.2217677414309 
2331	 0.2209247042998 
2332	 0.219925814420225 
2333	 0.218756201870697 
2334	 0.217277206468173 
2335	 0.215653702110003 
2336	 0.213823312075322 
2337	 0.211815245992236 
2338	 0.2098422790496 
2339	 0.207761650596439 
2340	 0.205792201606498 
2341	 0.203937894165962 
2342	 0.202051631608498 
2343	 0.200490960206772 
2344	 0.199206487834141 
2345	 0.198249047064685 
2346	 0.19779191230907 
2347	 0.197710775119785 
2348	 0.198012924840404 
2349	 0.198857531904114 
2350	 0.200131796830382 
2351	 0.201761976437518 
2352	 0.203637533113632 
2353	 0.205700586544544 
2354	 0.207667292108465 
2355	 0.209539550943887 
2356	 0.211325085024471 
2357	 0.212844210953653 
2358	 0.214231145888067 
2359	 0.215287217755069 
2360	 0.216087783858352 
2361	 0.216671372175877 
2362	 0.216989738230825 
2363	 0.217176748766867 
2364	 0.217247354285903 
2365	 0.217225921359703 
2366	 0.217164108879752 
2367	 0.217109507480038 
2368	 0.2171097494832 
2369	 0.217100493878777 
2370	 0.217043975575375 
2371	 0.21705630016 
2372	 0.217083270477724 
2373	 0.217055196981058 
2374	 0.217108972306391 
2375	 0.217183096145221 
2376	 0.217248130415452 
2377	 0.217382999315766 
2378	 0.217509235020261 
2379	 0.217668671405424 
2380	 0.217772434254101 
2381	 0.217846221487487 
2382	 0.217995968008388 
2383	 0.218166636134535 
2384	 0.218327225238582 
2385	 0.218582210966951 
2386	 0.218753120775863 
2387	 0.218864233626566 
2388	 0.219034452208054 
2389	 0.219181344654395 
2390	 0.219358358653423 
2391	 0.219575803152652 
2392	 0.219721251033157 
2393	 0.219852898639512 
2394	 0.220026198593594 
2395	 0.220204188867758 
2396	 0.220383235254546 
2397	 0.220584640809897 
2398	 0.220729263471403 
2399	 0.220820963945467 
2400	 0.220937979757372 
2401	 0.221049919105221 
2402	 0.221240823844623 
2403	 0.221388178351261 
2404	 0.221524358052484 
2405	 0.221662902658868 
2406	 0.221731622467932 
2407	 0.221823339202023 
2408	 0.221942699028544 
2409	 0.222031879859042 
2410	 0.222243576061041 
2411	 0.222453788725524 
2412	 0.222604708001518 
2413	 0.222772484880224 
2414	 0.222842657477081 
2415	 0.222955268424509 
2416	 0.223114382043281 
2417	 0.223317673864981 
2418	 0.223569645701537 
2419	 0.223753283178549 
2420	 0.22389942607152 
2421	 0.224021030971993 
2422	 0.224188144310335 
2423	 0.224323240763685 
2424	 0.224399690136086 
2425	 0.22451336484439 
2426	 0.224666197599618 
2427	 0.224813450245877 
2428	 0.224987327252727 
2429	 0.225158946945731 
2430	 0.225243302731094 
2431	 0.225380206698605 
2432	 0.225522685888884 
2433	 0.225537664507276 
2434	 0.22552915675393 
2435	 0.225544485506908 
2436	 0.22554106534903 
2437	 0.225582219024326 
2438	 0.22555116257098 
2439	 0.225413736148131 
2440	 0.225349929077235 
2441	 0.225258090001631 
2442	 0.225262089293194 
2443	 0.22544853663459 
2444	 0.225517730132026 
2445	 0.225497774528955 
2446	 0.225439773539634 
2447	 0.22523497513051 
2448	 0.224895263596475 
2449	 0.224485372384125 
2450	 0.224119273694331 
2451	 0.223781789054981 
2452	 0.223381237928074 
2453	 0.223107049663997 
2454	 0.222969351915802 
2455	 0.222553027893826 
2456	 0.222143007029996 
2457	 0.221955017108513 
2458	 0.221583188183832 
2459	 0.221239363732078 
2460	 0.220923174807905 
2461	 0.220503229124873 
2462	 0.22019797642563 
2463	 0.219997964652331 
2464	 0.219871127849728 
2465	 0.219714177584411 
2466	 0.21960862935496 
2467	 0.219393619580891 
2468	 0.219079598729792 
2469	 0.21890610441071 
2470	 0.218653773504162 
2471	 0.218514292270507 
2472	 0.218535923846407 
2473	 0.218557657749228 
2474	 0.218651614249182 
2475	 0.218761188179747 
2476	 0.21902526784844 
2477	 0.219315933939834 
2478	 0.219363167835352 
2479	 0.219369217468288 
2480	 0.219194759276409 
2481	 0.219244643991758 
2482	 0.219416463413672 
2483	 0.219626606929047 
2484	 0.219988954436732 
2485	 0.220246143550412 
2486	 0.220536825675916 
2487	 0.220868661344914 
2488	 0.221049364013388 
2489	 0.221347476490757 
2490	 0.221551489376381 
2491	 0.221832651171622 
2492	 0.222541684624077 
2493	 0.223217233106395 
2494	 0.223899449960386 
2495	 0.224719030210393 
2496	 0.225338316208221 
2497	 0.225707608483795 
2498	 0.226130814269159 
2499	 0.226599717782971 
2500	 0.226933451291704 
