Wavelength	spectrum00014.asd
350	 9.98085752513174E-02 
351	 9.72580397161626E-02 
352	 9.43161350572187E-02 
353	 9.15192913886553E-02 
354	 9.23549319837339E-02 
355	 8.98806577484102E-02 
356	 0.086950661548148 
357	 8.63895648732892E-02 
358	 0.084061689261322 
359	 8.19918181077118E-02 
360	 8.04742108512107E-02 
361	 7.89887504179659E-02 
362	 7.85284207267833E-02 
363	 7.76459806683424E-02 
364	 7.58258509028148E-02 
365	 7.39956981928113E-02 
366	 7.43842943165529E-02 
367	 7.48197941581896E-02 
368	 7.35754548898111E-02 
369	 7.40210775041011E-02 
370	 0.074537669975837 
371	 7.43083134190516E-02 
372	 7.32279575029603E-02 
373	 7.26378317770901E-02 
374	 7.30665022247452E-02 
375	 0.073905481674068 
376	 7.31372727110991E-02 
377	 0.073215352835376 
378	 7.31192008472294E-02 
379	 7.16976049685178E-02 
380	 7.03414001292062E-02 
381	 7.03855353197659E-02 
382	 7.11853907259856E-02 
383	 0.07104451642303 
384	 0.070791501216801 
385	 7.10762944868258E-02 
386	 7.16216372230009E-02 
387	 7.08044013501612E-02 
388	 7.00560714247431E-02 
389	 6.98567114854698E-02 
390	 7.01148340295633E-02 
391	 6.97504637804704E-02 
392	 6.94718399916014E-02 
393	 6.94981741346837E-02 
394	 6.96774649576461E-02 
395	 0.069881038104906 
396	 7.02718151853137E-02 
397	 0.070723039102151 
398	 7.05677836306207E-02 
399	 7.02977465476182E-02 
400	 7.00867937553494E-02 
401	 6.99466203125545E-02 
402	 6.95082927366212E-02 
403	 7.00206150305778E-02 
404	 7.09586179368455E-02 
405	 7.06252724755397E-02 
406	 7.05509890243674E-02 
407	 7.07110682501947E-02 
408	 7.09602105371814E-02 
409	 7.14250393317297E-02 
410	 7.16824670783113E-02 
411	 7.19600229228067E-02 
412	 0.072539698049276 
413	 7.28192688855168E-02 
414	 7.30560576397953E-02 
415	 7.34335444009285E-02 
416	 7.40070502871029E-02 
417	 7.44878035814638E-02 
418	 7.49067110752118E-02 
419	 7.53596484740113E-02 
420	 7.59248401707155E-02 
421	 7.67024606777597E-02 
422	 7.76523895817665E-02 
423	 7.86315283496198E-02 
424	 7.92813975602131E-02 
425	 7.99589231557752E-02 
426	 8.08398862396002E-02 
427	 0.081826437011362 
428	 8.27123982446944E-02 
429	 8.36372207781681E-02 
430	 8.46771200086277E-02 
431	 8.54020370375801E-02 
432	 8.66001661842121E-02 
433	 8.80328684114208E-02 
434	 8.89933202959906E-02 
435	 9.02855457824246E-02 
436	 9.15879028917633E-02 
437	 9.27472369862209E-02 
438	 9.40598126443444E-02 
439	 9.54832869001702E-02 
440	 9.69258538379931E-02 
441	 0.0983375213976 
442	 9.99493983743044E-02 
443	 0.101495231765689 
444	 0.102991930387957 
445	 0.104678944768806 
446	 0.106296505930719 
447	 0.10794846555676 
448	 0.109730206197426 
449	 0.11158152018536 
450	 0.113527487755733 
451	 0.115422535012943 
452	 0.117138980823818 
453	 0.119057211509306 
454	 0.121047249865108 
455	 0.123047988164324 
456	 0.125122392017774 
457	 0.127261896242992 
458	 0.129340961868234 
459	 0.131342377646145 
460	 0.133641461431247 
461	 0.135936530994327 
462	 0.138170352703803 
463	 0.140437109750003 
464	 0.142810947805699 
465	 0.14523581086172 
466	 0.147622414728876 
467	 0.149848809017666 
468	 0.152232529327317 
469	 0.154749105988994 
470	 0.157298844921466 
471	 0.159939652586311 
472	 0.1624659777205 
473	 0.16494046517744 
474	 0.167617073363007 
475	 0.170175425802673 
476	 0.172821102205603 
477	 0.175611720352355 
478	 0.178061679086919 
479	 0.180725529213251 
480	 0.183544005220869 
481	 0.186258057550534 
482	 0.189027225156025 
483	 0.19171771946368 
484	 0.194353628810214 
485	 0.197148906083138 
486	 0.19998135351447 
487	 0.202773420348356 
488	 0.205501777762144 
489	 0.20828066983072 
490	 0.21112473450611 
491	 0.213972012944825 
492	 0.216729958681939 
493	 0.219467949716763 
494	 0.222253043533658 
495	 0.225074872298409 
496	 0.227791769324456 
497	 0.230544816369181 
498	 0.233339551756117 
499	 0.236124610239048 
500	 0.238824569954035 
501	 0.241527676504874 
502	 0.244251023656763 
503	 0.246945458747807 
504	 0.249642462125121 
505	 0.252305300603259 
506	 0.254931953696201 
507	 0.257644202977878 
508	 0.260221509079903 
509	 0.262754792292249 
510	 0.265422456214699 
511	 0.267962306554818 
512	 0.270459063830817 
513	 0.272969503461236 
514	 0.275484566764994 
515	 0.2779075899927 
516	 0.280306862119735 
517	 0.282753785398677 
518	 0.285161014490827 
519	 0.28758655997763 
520	 0.290003850231974 
521	 0.292335533125395 
522	 0.294681616915675 
523	 0.297000558771879 
524	 0.299289552884861 
525	 0.301679660236366 
526	 0.304026001057674 
527	 0.306308786399394 
528	 0.308571861201608 
529	 0.310930454534431 
530	 0.313240147980861 
531	 0.315480420487631 
532	 0.317772770202414 
533	 0.319988269038114 
534	 0.322215280348592 
535	 0.324503570912411 
536	 0.326658744136598 
537	 0.328842498830618 
538	 0.331079206065505 
539	 0.333312415712634 
540	 0.335509971305288 
541	 0.337728799471346 
542	 0.339987474504397 
543	 0.342222062853733 
544	 0.344461911617399 
545	 0.346672692263398 
546	 0.348854017698652 
547	 0.351227851225783 
548	 0.353714927559704 
549	 0.356299254357613 
550	 0.359023591571015 
551	 0.361763173378008 
552	 0.364520207862388 
553	 0.367330400249922 
554	 0.370254336585904 
555	 0.373125483652963 
556	 0.375987046281912 
557	 0.378950815700238 
558	 0.381818341731866 
559	 0.384665459449615 
560	 0.387518632082174 
561	 0.390300750527219 
562	 0.392949505963444 
563	 0.395295385549206 
564	 0.397266126334439 
565	 0.399196073794005 
566	 0.401191913705674 
567	 0.403258207559568 
568	 0.405348251830201 
569	 0.407835409845563 
570	 0.410634260804268 
571	 0.413564817348268 
572	 0.416448681723556 
573	 0.419089062422198 
574	 0.421453169914068 
575	 0.423558911669302 
576	 0.425195605672815 
577	 0.426489544079624 
578	 0.427622575288012 
579	 0.428803266023855 
580	 0.430193321848205 
581	 0.431925083048556 
582	 0.434007925964314 
583	 0.436173850530115 
584	 0.438348969030564 
585	 0.440560625123321 
586	 0.44284701495344 
587	 0.444675849523482 
588	 0.446360124729764 
589	 0.448163069169191 
590	 0.45008162151645 
591	 0.452082926921003 
592	 0.45414694276258 
593	 0.456258110295494 
594	 0.458435241015319 
595	 0.460453162082616 
596	 0.462230357632864 
597	 0.463825459248016 
598	 0.465371935721084 
599	 0.466884382341487 
600	 0.46835007629538 
601	 0.469731222944675 
602	 0.471213043889727 
603	 0.472760124351586 
604	 0.474247134560468 
605	 0.47571370630617 
606	 0.477165726417044 
607	 0.478573720249529 
608	 0.479864986260633 
609	 0.481103716508771 
610	 0.482281815972455 
611	 0.483407121317746 
612	 0.48458552839273 
613	 0.485789962677461 
614	 0.486969499940938 
615	 0.488069508853455 
616	 0.489136800817735 
617	 0.49024423641302 
618	 0.491396400818031 
619	 0.492478058731021 
620	 0.49352603080647 
621	 0.494555700309233 
622	 0.495581461653958 
623	 0.496640170899767 
624	 0.497636028161179 
625	 0.498565955358929 
626	 0.499515597119813 
627	 0.500417297926678 
628	 0.501339374624064 
629	 0.502323696110981 
630	 0.503293844703014 
631	 0.504192407228583 
632	 0.505052688387206 
633	 0.50594846171541 
634	 0.506899600613045 
635	 0.50780859907962 
636	 0.508641075348969 
637	 0.509450867848139 
638	 0.510258438308292 
639	 0.511152901292618 
640	 0.512137373231485 
641	 0.512889154577119 
642	 0.513685015404466 
643	 0.514602710873357 
644	 0.515561488628178 
645	 0.516269985529508 
646	 0.517008931565688 
647	 0.517920365373834 
648	 0.518806392210091 
649	 0.519594977030742 
650	 0.520357916290084 
651	 0.521183443170911 
652	 0.521981327693601 
653	 0.522839341318566 
654	 0.523706660301549 
655	 0.524439944940251 
656	 0.525313284492049 
657	 0.526184924041554 
658	 0.526960910537219 
659	 0.527790467512796 
660	 0.528674749330765 
661	 0.529499168294521 
662	 0.530175115914811 
663	 0.531016953985124 
664	 0.531954395787839 
665	 0.532844904694163 
666	 0.533517729895257 
667	 0.534307270162361 
668	 0.535168982144932 
669	 0.536005634410555 
670	 0.536792747292203 
671	 0.53763339685 
672	 0.538501672223971 
673	 0.539322685147808 
674	 0.540135910146575 
675	 0.540951385139001 
676	 0.541757714162396 
677	 0.542521307797699 
678	 0.543387858874269 
679	 0.544218960048873 
680	 0.544919130492516 
681	 0.545733195444084 
682	 0.546561262055468 
683	 0.54733355820428 
684	 0.548029291623065 
685	 0.548862243905577 
686	 0.549759235899378 
687	 0.550627896183475 
688	 0.551399396114933 
689	 0.552016759940214 
690	 0.552701339551007 
691	 0.553603245056612 
692	 0.554376284597407 
693	 0.555064637852486 
694	 0.555749919660086 
695	 0.556525240700375 
696	 0.557354472272113 
697	 0.558177051495823 
698	 0.558947022611199 
699	 0.55965001500186 
700	 0.560247361927414 
701	 0.56085861589781 
702	 0.561611070709167 
703	 0.562504607772698 
704	 0.563254971946055 
705	 0.563857007482605 
706	 0.564502993875947 
707	 0.565186478348213 
708	 0.565891906702194 
709	 0.566579572087372 
710	 0.567173508089686 
711	 0.567821672994639 
712	 0.568484964591853 
713	 0.569107487778287 
714	 0.569812170601956 
715	 0.570529898130783 
716	 0.571141991407012 
717	 0.571546430979297 
718	 0.572145628086584 
719	 0.572838549662506 
720	 0.57349111197417 
721	 0.574039262288724 
722	 0.574590658906821 
723	 0.575136785625409 
724	 0.575675388924839 
725	 0.576390299981605 
726	 0.577045358455083 
727	 0.577571722024406 
728	 0.578036680934395 
729	 0.578480379482377 
730	 0.578990451097438 
731	 0.579579316773017 
732	 0.580135375243645 
733	 0.580698484670607 
734	 0.581221397214 
735	 0.5816994416004 
736	 0.582385014940288 
737	 0.582931110969424 
738	 0.583346796657761 
739	 0.583858501536946 
740	 0.584275155603411 
741	 0.584641775867688 
742	 0.585034500345921 
743	 0.585532832945554 
744	 0.586016462478097 
745	 0.586401852244355 
746	 0.586684547415199 
747	 0.587054719490087 
748	 0.587548413867464 
749	 0.588054356138343 
750	 0.588408871876179 
751	 0.5887847252982 
752	 0.589131006321054 
753	 0.58946456495449 
754	 0.589913374255466 
755	 0.590380992380692 
756	 0.590766645060409 
757	 0.59104098887249 
758	 0.591364392763007 
759	 0.591707105249478 
760	 0.592083609110335 
761	 0.592499025210214 
762	 0.592799763571005 
763	 0.593062745705324 
764	 0.593362550928239 
765	 0.593743794679159 
766	 0.594119236258359 
767	 0.594524082686356 
768	 0.594948054232628 
769	 0.595221344086182 
770	 0.595415676368749 
771	 0.595654411643813 
772	 0.596031832575021 
773	 0.596407132250558 
774	 0.596673922299674 
775	 0.596867633531639 
776	 0.597132398471813 
777	 0.597435289133052 
778	 0.597865980759583 
779	 0.598342628392325 
780	 0.598472523241868 
781	 0.598710411899834 
782	 0.598983007360763 
783	 0.599156140242922 
784	 0.599443036757149 
785	 0.599719912466861 
786	 0.599987803658255 
787	 0.600294965845393 
788	 0.60046708569937 
789	 0.600617578684128 
790	 0.600855846391633 
791	 0.601240236900608 
792	 0.601578079375557 
793	 0.601814669410837 
794	 0.601981194485174 
795	 0.602228064904291 
796	 0.60248049421467 
797	 0.602739414654247 
798	 0.60300015148158 
799	 0.603099900400266 
800	 0.603280946452006 
801	 0.603616335565419 
802	 0.604009519057516 
803	 0.604243827683608 
804	 0.604441648182438 
805	 0.604689253156206 
806	 0.60494202779655 
807	 0.605187318950263 
808	 0.605444558927453 
809	 0.605709848335824 
810	 0.605879216541506 
811	 0.606066011764508 
812	 0.60629987025415 
813	 0.606565918674723 
814	 0.606854746534423 
815	 0.607060312158606 
816	 0.607215092266207 
817	 0.607458288922464 
818	 0.607605936445821 
819	 0.607751546800041 
820	 0.607967520413751 
821	 0.608222824347689 
822	 0.608424339087698 
823	 0.608590290052861 
824	 0.608776801173506 
825	 0.609061603348408 
826	 0.60921698545588 
827	 0.609323573094987 
828	 0.609561080549883 
829	 0.609765381379457 
830	 0.60992766330802 
831	 0.610092952627125 
832	 0.610326291946429 
833	 0.610445180084206 
834	 0.610584263608321 
835	 0.610802591178523 
836	 0.610972516725821 
837	 0.611154218180523 
838	 0.611294968063673 
839	 0.611361967941725 
840	 0.611425374278276 
841	 0.611702644714419 
842	 0.612016514558023 
843	 0.612116106027656 
844	 0.612291585522505 
845	 0.612381102203288 
846	 0.612458577448257 
847	 0.612744387642145 
848	 0.613058108200396 
849	 0.613280935049184 
850	 0.613432669931165 
851	 0.61368064685887 
852	 0.61371319473018 
853	 0.61380433597501 
854	 0.614133508274086 
855	 0.614432349200218 
856	 0.614642330099595 
857	 0.614795081332864 
858	 0.614963362756286 
859	 0.615218605097546 
860	 0.615407366253084 
861	 0.615569403185168 
862	 0.615815185882775 
863	 0.616017455421205 
864	 0.616189149210779 
865	 0.61633955855626 
866	 0.616474530629545 
867	 0.616661427318746 
868	 0.616919201867988 
869	 0.617166976529096 
870	 0.6172175392991 
871	 0.617362891503715 
872	 0.617614752877946 
873	 0.617898823076716 
874	 0.618104669841931 
875	 0.618294714471361 
876	 0.618494855780701 
877	 0.618723123091387 
878	 0.619018672964385 
879	 0.619218032948794 
880	 0.619331850023155 
881	 0.619463926736206 
882	 0.61967858527476 
883	 0.619906964310948 
884	 0.620063438600622 
885	 0.620097201939047 
886	 0.620248900520575 
887	 0.620494682162062 
888	 0.620761759459456 
889	 0.620961906428287 
890	 0.621004594351594 
891	 0.621095407357451 
892	 0.62134487137996 
893	 0.621609779295796 
894	 0.621772271753278 
895	 0.62194501975985 
896	 0.622215629438338 
897	 0.622447968252875 
898	 0.622543935449676 
899	 0.622720678982364 
900	 0.623147428640731 
901	 0.623384164598925 
902	 0.623580470626651 
903	 0.623763513260914 
904	 0.623924944129026 
905	 0.624212565431928 
906	 0.624477066290955 
907	 0.624725464981383 
908	 0.625072906811848 
909	 0.625459355137874 
910	 0.62576827312609 
911	 0.626004007512101 
912	 0.626285799346354 
913	 0.626503222184917 
914	 0.626775329775443 
915	 0.627128624626761 
916	 0.627425671461381 
917	 0.627751095422021 
918	 0.628018029326677 
919	 0.62820714359552 
920	 0.628476792076058 
921	 0.628783662186796 
922	 0.629080561061745 
923	 0.629349980025486 
924	 0.629665872244694 
925	 0.629876001315386 
926	 0.630061011753789 
927	 0.630336498822936 
928	 0.630658579801959 
929	 0.6309674922606 
930	 0.631292713849597 
931	 0.631645110803594 
932	 0.631773955579701 
933	 0.631979922266456 
934	 0.632295745465774 
935	 0.632597777863891 
936	 0.632854098397063 
937	 0.63320359210244 
938	 0.633518301624272 
939	 0.633573726266632 
940	 0.633836559038433 
941	 0.634052169450569 
942	 0.634172102180715 
943	 0.634371704059057 
944	 0.634657561016286 
945	 0.634949517180155 
946	 0.635157320971401 
947	 0.635221887301878 
948	 0.635317675590897 
949	 0.635529331131512 
950	 0.63581609543659 
951	 0.636010177092064 
952	 0.63607211753086 
953	 0.636138724701851 
954	 0.636302373331758 
955	 0.63653196920519 
956	 0.636819031358206 
957	 0.637069573919961 
958	 0.637220139970473 
959	 0.637291524728787 
960	 0.637440742578498 
961	 0.637713135563599 
962	 0.638041437991538 
963	 0.638218951662336 
964	 0.63832183823402 
965	 0.63849939807469 
966	 0.638819410584197 
967	 0.639130989787248 
968	 0.639292535067285 
969	 0.639485575231237 
970	 0.639809735898167 
971	 0.639901614954279 
972	 0.64013937514517 
973	 0.640418863400051 
974	 0.640583579057879 
975	 0.640759536986372 
976	 0.641005876650514 
977	 0.641215893233741 
978	 0.641315261159357 
979	 0.641501234855125 
980	 0.641720314800138 
981	 0.641862291578335 
982	 0.641902271331699 
983	 0.642150171661001 
984	 0.642327679428916 
985	 0.642521387678219 
986	 0.642849924493539 
987	 0.64309714243672 
988	 0.643352886573216 
989	 0.643546746117721 
990	 0.643629793198055 
991	 0.643794605824837 
992	 0.644041529223066 
993	 0.644316691934146 
994	 0.64455150536858 
995	 0.644705799278815 
996	 0.645018989151951 
997	 0.645361916574934 
998	 0.645563056070389 
999	 0.645791289056095 
1000	 0.646078171016856 
1001	 0.623537017327003 
1002	 0.623818220071523 
1003	 0.624104976351792 
1004	 0.624376420485631 
1005	 0.624625414248661 
1006	 0.624885292300557 
1007	 0.625151441014366 
1008	 0.625409708018258 
1009	 0.62563753187675 
1010	 0.625896153370328 
1011	 0.626192099774233 
1012	 0.626460409744482 
1013	 0.62674912146325 
1014	 0.626996461137232 
1015	 0.627208040897257 
1016	 0.627391547682122 
1017	 0.627634926721091 
1018	 0.627865246714405 
1019	 0.628108792422955 
1020	 0.628414108736484 
1021	 0.628692166096374 
1022	 0.628956489450801 
1023	 0.629234869665761 
1024	 0.629513960639167 
1025	 0.629813100760782 
1026	 0.63012711485481 
1027	 0.630424463868064 
1028	 0.630738660344481 
1029	 0.631061648179554 
1030	 0.631288303211319 
1031	 0.631559212524895 
1032	 0.631811466851466 
1033	 0.632036114757226 
1034	 0.632286320479923 
1035	 0.632492936743299 
1036	 0.63275883453991 
1037	 0.633054633051771 
1038	 0.633344366186988 
1039	 0.633686496878564 
1040	 0.633981744090416 
1041	 0.634254439357002 
1042	 0.634503827958646 
1043	 0.634730491904038 
1044	 0.634953766441982 
1045	 0.635149268825574 
1046	 0.635371457269717 
1047	 0.63559198230466 
1048	 0.635743419671758 
1049	 0.63590107588577 
1050	 0.636087025408582 
1051	 0.636262411654562 
1052	 0.636513121107022 
1053	 0.636731257095831 
1054	 0.636983936988085 
1055	 0.637154956214421 
1056	 0.637256680242047 
1057	 0.637391587635874 
1058	 0.63750599131324 
1059	 0.637633206129114 
1060	 0.63780088326388 
1061	 0.637960637097748 
1062	 0.638088262363347 
1063	 0.638213866401775 
1064	 0.638335231260195 
1065	 0.638466307040201 
1066	 0.63861298954129 
1067	 0.638751894898623 
1068	 0.638851226861524 
1069	 0.638960646908652 
1070	 0.639090510378444 
1071	 0.63922898565693 
1072	 0.639364688435438 
1073	 0.639509723302522 
1074	 0.639640125445895 
1075	 0.639752271154206 
1076	 0.639871500460794 
1077	 0.640010649922113 
1078	 0.640132010776777 
1079	 0.640230725176289 
1080	 0.640339879425505 
1081	 0.640458370785004 
1082	 0.64058975336159 
1083	 0.640717086209914 
1084	 0.64083910210778 
1085	 0.640978986924557 
1086	 0.641103953799304 
1087	 0.64122128332226 
1088	 0.641342317633066 
1089	 0.641466526586767 
1090	 0.641544294898271 
1091	 0.641622308070791 
1092	 0.641723550425617 
1093	 0.64182001665275 
1094	 0.641930984643682 
1095	 0.642038768603166 
1096	 0.642116427993264 
1097	 0.642179697897652 
1098	 0.642240174247635 
1099	 0.642312936370896 
1100	 0.642409122354751 
1101	 0.642495066956646 
1102	 0.642557551608488 
1103	 0.642627270303551 
1104	 0.642684561967454 
1105	 0.642746891021515 
1106	 0.642830650281945 
1107	 0.642928358463648 
1108	 0.64301520065661 
1109	 0.643075786519369 
1110	 0.643118828464885 
1111	 0.643157206213335 
1112	 0.643191893270325 
1113	 0.643245503541673 
1114	 0.643304763888848 
1115	 0.643355453929944 
1116	 0.643413925732946 
1117	 0.64345858099347 
1118	 0.643495905695507 
1119	 0.643527692439952 
1120	 0.643550478724033 
1121	 0.643562332382746 
1122	 0.643575340626937 
1123	 0.643573728843144 
1124	 0.643586887083333 
1125	 0.643615253557283 
1126	 0.643629099568917 
1127	 0.643621855649795 
1128	 0.643606084039615 
1129	 0.643558498061694 
1130	 0.643491615367152 
1131	 0.643444414491474 
1132	 0.643380821509066 
1133	 0.643317073067734 
1134	 0.643241947032453 
1135	 0.643151868570008 
1136	 0.643051521522507 
1137	 0.642940135782162 
1138	 0.642811728348116 
1139	 0.642681046662037 
1140	 0.642551229961263 
1141	 0.642392146872284 
1142	 0.642219303780523 
1143	 0.642030136185193 
1144	 0.641784381321911 
1145	 0.641514589390966 
1146	 0.641243142258912 
1147	 0.640940455801388 
1148	 0.640639396950426 
1149	 0.640338998555436 
1150	 0.639996186740892 
1151	 0.639638276046553 
1152	 0.639257406495395 
1153	 0.638854045265674 
1154	 0.63842100939805 
1155	 0.637971343428559 
1156	 0.637485946654425 
1157	 0.63697696332336 
1158	 0.636431155143761 
1159	 0.635844998929447 
1160	 0.635250778571288 
1161	 0.634608539259182 
1162	 0.63391264515218 
1163	 0.633249783517935 
1164	 0.632555939274332 
1165	 0.631863323317839 
1166	 0.631240522556395 
1167	 0.630597216173746 
1168	 0.629983257905069 
1169	 0.629384837302378 
1170	 0.628790861178912 
1171	 0.628230563007233 
1172	 0.627670329678902 
1173	 0.627181521253195 
1174	 0.626752175157173 
1175	 0.626352113207455 
1176	 0.625988401887576 
1177	 0.625675612225649 
1178	 0.625402094268677 
1179	 0.625145601006706 
1180	 0.624974947170095 
1181	 0.624843741472921 
1182	 0.624767786343242 
1183	 0.624743264491931 
1184	 0.624737370990176 
1185	 0.624785945129447 
1186	 0.62484146469536 
1187	 0.62491770394479 
1188	 0.625009685603979 
1189	 0.625129113748986 
1190	 0.625254328917883 
1191	 0.625403896117511 
1192	 0.625542329817502 
1193	 0.625686180216157 
1194	 0.625835466686355 
1195	 0.625988855649086 
1196	 0.62613789876491 
1197	 0.626302100829217 
1198	 0.626448517065859 
1199	 0.626569255510909 
1200	 0.626688377075821 
1201	 0.626808138453198 
1202	 0.62691165557938 
1203	 0.627012541150546 
1204	 0.627139330701919 
1205	 0.62731092634674 
1206	 0.627487139679796 
1207	 0.627740150063761 
1208	 0.628052758206667 
1209	 0.628399310905162 
1210	 0.628803801430746 
1211	 0.629223954538008 
1212	 0.629704064438685 
1213	 0.63016711686332 
1214	 0.630667059013321 
1215	 0.631131691525604 
1216	 0.631605069715667 
1217	 0.6320313773357 
1218	 0.632438820916172 
1219	 0.632795195452457 
1220	 0.633110315740543 
1221	 0.633442222418062 
1222	 0.633735240088319 
1223	 0.634013100250763 
1224	 0.634285815553538 
1225	 0.634547897158813 
1226	 0.634786508513176 
1227	 0.635005855985771 
1228	 0.635225944504927 
1229	 0.635406557170904 
1230	 0.635633626753534 
1231	 0.63587503482319 
1232	 0.636134265726271 
1233	 0.636423177647156 
1234	 0.636706581001108 
1235	 0.636989286838126 
1236	 0.637292595828443 
1237	 0.637599710028917 
1238	 0.637933068846102 
1239	 0.638295829338064 
1240	 0.638666815686244 
1241	 0.639063567178795 
1242	 0.639427368894563 
1243	 0.639775495447155 
1244	 0.640117344139729 
1245	 0.64043220862854 
1246	 0.640723413245835 
1247	 0.640997461003797 
1248	 0.641249572637026 
1249	 0.641491761347054 
1250	 0.641711946850992 
1251	 0.64192935376076 
1252	 0.642149468659512 
1253	 0.642335655607973 
1254	 0.642513469408295 
1255	 0.642654344896946 
1256	 0.642734840135252 
1257	 0.642844259386381 
1258	 0.642940885576332 
1259	 0.64303872316614 
1260	 0.643157811374075 
1261	 0.643260477503685 
1262	 0.643344410361587 
1263	 0.643429460868056 
1264	 0.643515775352873 
1265	 0.643594074293249 
1266	 0.643690455983602 
1267	 0.64379998908932 
1268	 0.643893286222955 
1269	 0.643988838558902 
1270	 0.644084669196038 
1271	 0.644176644114834 
1272	 0.644257496597598 
1273	 0.644353098900378 
1274	 0.644412643935345 
1275	 0.644425605670755 
1276	 0.644468845417742 
1277	 0.644510788883462 
1278	 0.644552202768326 
1279	 0.64460153535929 
1280	 0.644654339671639 
1281	 0.644698246403481 
1282	 0.644752535626298 
1283	 0.644833779252195 
1284	 0.644895750862113 
1285	 0.644950722560402 
1286	 0.644999995896912 
1287	 0.645046709732251 
1288	 0.64508203906732 
1289	 0.645121404919121 
1290	 0.645170220548035 
1291	 0.645193925412593 
1292	 0.645206270126453 
1293	 0.645212136447054 
1294	 0.645202664955077 
1295	 0.645191135843145 
1296	 0.645164905456574 
1297	 0.645155268874341 
1298	 0.64515691835693 
1299	 0.645138834757269 
1300	 0.645134059815377 
1301	 0.645101008370705 
1302	 0.645043719187347 
1303	 0.644975232061778 
1304	 0.644888886120147 
1305	 0.644799005483037 
1306	 0.644696936408731 
1307	 0.644586571696794 
1308	 0.644478174316088 
1309	 0.64434823081555 
1310	 0.644215624597382 
1311	 0.64406806954426 
1312	 0.643926057176079 
1313	 0.643789388531339 
1314	 0.643624715195874 
1315	 0.643460582004694 
1316	 0.643258791267585 
1317	 0.643020818257896 
1318	 0.642787610969731 
1319	 0.64252613588923 
1320	 0.642285089383731 
1321	 0.642058859845562 
1322	 0.641809682698999 
1323	 0.641558094337566 
1324	 0.641297299274792 
1325	 0.641029786669019 
1326	 0.64073994337682 
1327	 0.640457818782538 
1328	 0.640131919421847 
1329	 0.639761074053283 
1330	 0.639388749936436 
1331	 0.63901230900958 
1332	 0.638596338288566 
1333	 0.638179095775519 
1334	 0.63769947730579 
1335	 0.637214987794185 
1336	 0.636693297320587 
1337	 0.636161073396965 
1338	 0.635616018280831 
1339	 0.635052804269157 
1340	 0.634467492172078 
1341	 0.63386047940292 
1342	 0.633244246260502 
1343	 0.632593499762705 
1344	 0.631917361866898 
1345	 0.631209494682645 
1346	 0.630470385772013 
1347	 0.629718791546144 
1348	 0.628944085322522 
1349	 0.628142320773116 
1350	 0.627308333795833 
1351	 0.626475548788448 
1352	 0.625606974323537 
1353	 0.624752857823458 
1354	 0.623878192725808 
1355	 0.623052356940413 
1356	 0.622225034165595 
1357	 0.621446288459248 
1358	 0.620709927108893 
1359	 0.620005249096356 
1360	 0.619339135048272 
1361	 0.618693388506448 
1362	 0.618062282567491 
1363	 0.617516896136195 
1364	 0.616980161399174 
1365	 0.616474620886249 
1366	 0.616000251006145 
1367	 0.615567736404508 
1368	 0.615138481666314 
1369	 0.614749238281438 
1370	 0.614326938663784 
1371	 0.613918990626699 
1372	 0.613478897988647 
1373	 0.613037207135048 
1374	 0.612537398458624 
1375	 0.612012586139857 
1376	 0.611441307853968 
1377	 0.610805940281539 
1378	 0.61016476919582 
1379	 0.60948692306379 
1380	 0.60880641031346 
1381	 0.608094878336337 
1382	 0.607397764200059 
1383	 0.606710573645951 
1384	 0.605998269243948 
1385	 0.605321823328224 
1386	 0.604566714876871 
1387	 0.603777779869757 
1388	 0.602942691486271 
1389	 0.602080358268886 
1390	 0.60112960450929 
1391	 0.600138460056208 
1392	 0.59903699825192 
1393	 0.597902518493833 
1394	 0.596671813247553 
1395	 0.59539256239896 
1396	 0.594070405922572 
1397	 0.592668249601774 
1398	 0.591200129547225 
1399	 0.589642326126924 
1400	 0.588011058549734 
1401	 0.586301536361483 
1402	 0.584513595952091 
1403	 0.582626855840849 
1404	 0.580668574676793 
1405	 0.578625909135586 
1406	 0.576478146402917 
1407	 0.574268332794147 
1408	 0.571964289264158 
1409	 0.569626147997771 
1410	 0.567219287517831 
1411	 0.564761387832462 
1412	 0.562225500957016 
1413	 0.559721239842697 
1414	 0.557162209047183 
1415	 0.554624357381707 
1416	 0.552075965460749 
1417	 0.54956544006764 
1418	 0.547039312520512 
1419	 0.544566061500664 
1420	 0.54210894457505 
1421	 0.539754885707161 
1422	 0.537459529779429 
1423	 0.5352176676428 
1424	 0.533114874909276 
1425	 0.530946535387906 
1426	 0.528933090927246 
1427	 0.526880297858966 
1428	 0.524766015263839 
1429	 0.522763749500202 
1430	 0.520584936559345 
1431	 0.518346546745393 
1432	 0.515948573491551 
1433	 0.513466688651456 
1434	 0.510821342280972 
1435	 0.508000421436757 
1436	 0.505108038380534 
1437	 0.502038528280217 
1438	 0.49907414739227 
1439	 0.495944724619192 
1440	 0.493095351015254 
1441	 0.490201922994767 
1442	 0.487768608674245 
1443	 0.485424776656686 
1444	 0.483695747838922 
1445	 0.482342523023131 
1446	 0.481533458351086 
1447	 0.481246992439855 
1448	 0.481366467580052 
1449	 0.482107372389431 
1450	 0.482993438480175 
1451	 0.484402476645702 
1452	 0.485770054763546 
1453	 0.487452246087316 
1454	 0.488969659355595 
1455	 0.490581574427798 
1456	 0.492028218512823 
1457	 0.493415111893287 
1458	 0.494658576580657 
1459	 0.495774760396197 
1460	 0.496792239977215 
1461	 0.497660415174223 
1462	 0.498458623870742 
1463	 0.4991466225428 
1464	 0.499785513019391 
1465	 0.500339950184571 
1466	 0.500842260794932 
1467	 0.501284670619422 
1468	 0.501680411095261 
1469	 0.502041744628469 
1470	 0.502354920186723 
1471	 0.502652490744367 
1472	 0.502929509288086 
1473	 0.503159556066889 
1474	 0.503376118458561 
1475	 0.503488106509605 
1476	 0.503571033971696 
1477	 0.503497750209971 
1478	 0.50332850352178 
1479	 0.503029698146294 
1480	 0.502598343207177 
1481	 0.502084895634122 
1482	 0.501419291899831 
1483	 0.500760786607454 
1484	 0.499985023962534 
1485	 0.499281634627443 
1486	 0.498514339392513 
1487	 0.497903422064279 
1488	 0.497279885062031 
1489	 0.496894325390632 
1490	 0.496631104714814 
1491	 0.496565095088729 
1492	 0.496671111294816 
1493	 0.496971063201886 
1494	 0.497483852613146 
1495	 0.498112344857095 
1496	 0.49894594792503 
1497	 0.499860112226704 
1498	 0.500946879388218 
1499	 0.502045997366834 
1500	 0.5032909107079 
1501	 0.504489088150809 
1502	 0.505734078600465 
1503	 0.506916981801649 
1504	 0.508106348537781 
1505	 0.50922677429332 
1506	 0.510317127001331 
1507	 0.51132481173564 
1508	 0.51226167184939 
1509	 0.513149834426741 
1510	 0.513963302731931 
1511	 0.514725090335661 
1512	 0.515440826118946 
1513	 0.516098955401132 
1514	 0.516687126332859 
1515	 0.517234872074388 
1516	 0.517717221259931 
1517	 0.518178107862798 
1518	 0.518598933178641 
1519	 0.518984978635772 
1520	 0.519337636980694 
1521	 0.519663977633859 
1522	 0.519933011663286 
1523	 0.520211319148808 
1524	 0.520472943996611 
1525	 0.520715063577255 
1526	 0.520960718885748 
1527	 0.52119171956946 
1528	 0.521448241609309 
1529	 0.521700134702941 
1530	 0.5219900492505 
1531	 0.52229302770726 
1532	 0.522648591546181 
1533	 0.523031306509962 
1534	 0.523464030105019 
1535	 0.523941599151025 
1536	 0.524461568566661 
1537	 0.52499795816861 
1538	 0.525648980526419 
1539	 0.526370987839559 
1540	 0.527159175615251 
1541	 0.528048834431343 
1542	 0.528960457884029 
1543	 0.529924916692466 
1544	 0.5309230449061 
1545	 0.531972354367341 
1546	 0.53305452894513 
1547	 0.534194614354141 
1548	 0.535317760571514 
1549	 0.536487374521834 
1550	 0.537615194959322 
1551	 0.538733151870502 
1552	 0.539826120013239 
1553	 0.540908644332326 
1554	 0.541962041959603 
1555	 0.542995967699377 
1556	 0.543993559699875 
1557	 0.544950489320741 
1558	 0.545910925528803 
1559	 0.546835586161323 
1560	 0.547775187002546 
1561	 0.548718976546099 
1562	 0.549660417191484 
1563	 0.550616113635165 
1564	 0.55153100522905 
1565	 0.552429697310198 
1566	 0.553318340444744 
1567	 0.554175218295051 
1568	 0.555030544007372 
1569	 0.555876082037184 
1570	 0.556728350336419 
1571	 0.557575922948217 
1572	 0.558411719027327 
1573	 0.559258042994367 
1574	 0.560082112629088 
1575	 0.560893059473701 
1576	 0.561676961924019 
1577	 0.562439165684432 
1578	 0.563195945572148 
1579	 0.563927416860195 
1580	 0.56465099080768 
1581	 0.56535880026647 
1582	 0.566078350756122 
1583	 0.56678720632207 
1584	 0.567502314624922 
1585	 0.568234819915765 
1586	 0.568958094015403 
1587	 0.569662688498723 
1588	 0.570384744124822 
1589	 0.571112680143684 
1590	 0.571850279233763 
1591	 0.572601726142723 
1592	 0.573355146542682 
1593	 0.574113689968754 
1594	 0.57487950682407 
1595	 0.575647298625699 
1596	 0.576424640195148 
1597	 0.577207050685788 
1598	 0.578004942310442 
1599	 0.578832956440771 
1600	 0.579638756431357 
1601	 0.580432381155756 
1602	 0.581246947044853 
1603	 0.582056135538427 
1604	 0.582872351748399 
1605	 0.583720027398269 
1606	 0.58455046552076 
1607	 0.585384438742055 
1608	 0.58619415236694 
1609	 0.587005879687768 
1610	 0.587782390066601 
1611	 0.588515393699817 
1612	 0.589243682487701 
1613	 0.589955651709391 
1614	 0.590647937216412 
1615	 0.591326998075228 
1616	 0.591993991970058 
1617	 0.592622383213024 
1618	 0.593271004820168 
1619	 0.59392859337238 
1620	 0.594568266342049 
1621	 0.595220452832575 
1622	 0.595842081441285 
1623	 0.596435631184205 
1624	 0.597023631215157 
1625	 0.597590142023446 
1626	 0.598155893641625 
1627	 0.598717605553284 
1628	 0.599264451717919 
1629	 0.599782153885766 
1630	 0.600327703295377 
1631	 0.600883623660904 
1632	 0.601432637436421 
1633	 0.602003740871122 
1634	 0.602560916482886 
1635	 0.603113801408463 
1636	 0.603635157507314 
1637	 0.604146337172073 
1638	 0.604633401201844 
1639	 0.605095617188584 
1640	 0.605535093147399 
1641	 0.60594548182071 
1642	 0.606355709219456 
1643	 0.606744124763119 
1644	 0.607114299271658 
1645	 0.607482760160501 
1646	 0.60783091500565 
1647	 0.60816786707133 
1648	 0.608466950670361 
1649	 0.608754525304857 
1650	 0.608995161825181 
1651	 0.60918669421403 
1652	 0.609348530995309 
1653	 0.609474523284359 
1654	 0.609570733101597 
1655	 0.609626588529718 
1656	 0.609659553180226 
1657	 0.609687938602166 
1658	 0.609643814669796 
1659	 0.609562721700719 
1660	 0.609417916631569 
1661	 0.609218646042917 
1662	 0.608941808506757 
1663	 0.608609903471611 
1664	 0.608189903453268 
1665	 0.607696169897856 
1666	 0.607098287020165 
1667	 0.606418209316568 
1668	 0.605638264811159 
1669	 0.604764774612512 
1670	 0.603776937230816 
1671	 0.602650470010941 
1672	 0.601485798400727 
1673	 0.60021028411152 
1674	 0.598899946598711 
1675	 0.597544035171792 
1676	 0.59616090415566 
1677	 0.59469809473534 
1678	 0.593248022946592 
1679	 0.591741647173624 
1680	 0.590286099002961 
1681	 0.588814867701783 
1682	 0.587417206255599 
1683	 0.58604960594383 
1684	 0.584795443093456 
1685	 0.58359577464989 
1686	 0.582502781358272 
1687	 0.581505488547486 
1688	 0.580596764357148 
1689	 0.57977816220671 
1690	 0.579045745200506 
1691	 0.578446148797884 
1692	 0.577869273913676 
1693	 0.577399328112692 
1694	 0.576888975669144 
1695	 0.576416012994208 
1696	 0.575889718225879 
1697	 0.575364825319902 
1698	 0.574757140195121 
1699	 0.57411409191739 
1700	 0.573428504240819 
1701	 0.572676191137991 
1702	 0.571900877232843 
1703	 0.571089643602414 
1704	 0.570223633992664 
1705	 0.569321969077683 
1706	 0.56833818486323 
1707	 0.567358426922305 
1708	 0.566251047512304 
1709	 0.56502478568587 
1710	 0.563672010172322 
1711	 0.562174240943125 
1712	 0.56067063083605 
1713	 0.558990767086179 
1714	 0.557149171205439 
1715	 0.555331385050579 
1716	 0.553320525209481 
1717	 0.551275511622531 
1718	 0.549271621015891 
1719	 0.547096402760355 
1720	 0.544971962086577 
1721	 0.542858630655274 
1722	 0.540734069673024 
1723	 0.53882026452971 
1724	 0.536949819698895 
1725	 0.535183030445593 
1726	 0.533614416474608 
1727	 0.532063014403091 
1728	 0.530695017529818 
1729	 0.529477930799205 
1730	 0.528342280367106 
1731	 0.527404525189368 
1732	 0.526540264768149 
1733	 0.525726280566533 
1734	 0.525014353537362 
1735	 0.524329248592382 
1736	 0.523713853876019 
1737	 0.523161922220094 
1738	 0.522644319541158 
1739	 0.522200894560399 
1740	 0.521778305185307 
1741	 0.521471756121198 
1742	 0.521268196187637 
1743	 0.521131010992853 
1744	 0.5210640182049 
1745	 0.521118768952743 
1746	 0.521272089048762 
1747	 0.521518220329612 
1748	 0.521894285469926 
1749	 0.522312818040068 
1750	 0.522821751780819 
1751	 0.523372348506781 
1752	 0.523991725907423 
1753	 0.524662068712114 
1754	 0.525388821214757 
1755	 0.526127143021208 
1756	 0.526920971900892 
1757	 0.527723640277872 
1758	 0.528573218492296 
1759	 0.529449243545694 
1760	 0.530356339412848 
1761	 0.531263627234196 
1762	 0.532107925744911 
1763	 0.532970728161719 
1764	 0.533780554361395 
1765	 0.534534695446584 
1766	 0.535358456782035 
1767	 0.536117718352551 
1768	 0.536858499930693 
1769	 0.53760857616253 
1770	 0.538261674185173 
1771	 0.538920510926187 
1772	 0.539551937314561 
1773	 0.540144306108031 
1774	 0.540771553847803 
1775	 0.541356306288716 
1776	 0.541947503992801 
1777	 0.542560491717369 
1778	 0.543145378567184 
1779	 0.543770083037355 
1780	 0.544408464979555 
1781	 0.545053723144743 
1782	 0.545733847781164 
1783	 0.546393704151409 
1784	 0.547128771435403 
1785	 0.547913355143658 
1786	 0.548701141063987 
1787	 0.549559239997674 
1788	 0.550383296886769 
1789	 0.551220816326776 
1790	 0.552051314270084 
1791	 0.552876229947437 
1792	 0.553684959618692 
1793	 0.554448799057927 
1794	 0.555219449584318 
1795	 0.556041830727043 
1796	 0.556838335327791 
1797	 0.557637733149149 
1798	 0.558429368326709 
1799	 0.559189928699134 
1800	 0.559942498094517 
1801	 0.573504425923184 
1802	 0.574956286347156 
1803	 0.576210303481272 
1804	 0.577292786479069 
1805	 0.578394133039261 
1806	 0.579364469985631 
1807	 0.580188204529348 
1808	 0.581012991687248 
1809	 0.581785501797711 
1810	 0.582501104544124 
1811	 0.583150449223257 
1812	 0.583775036185331 
1813	 0.584332787832456 
1814	 0.58490735966762 
1815	 0.585447169821746 
1816	 0.58594023093031 
1817	 0.5864294762212 
1818	 0.586893463224748 
1819	 0.587350442654459 
1820	 0.587787272124365 
1821	 0.588219891505854 
1822	 0.588634956752529 
1823	 0.589064300316648 
1824	 0.589471221425689 
1825	 0.589893179832592 
1826	 0.590296487961328 
1827	 0.590712974236225 
1828	 0.591062715488009 
1829	 0.591381054837878 
1830	 0.591688760566176 
1831	 0.591962314375356 
1832	 0.592225022103076 
1833	 0.59245160944901 
1834	 0.59267012318181 
1835	 0.592873060587433 
1836	 0.593041457884281 
1837	 0.593240932366609 
1838	 0.593479486182154 
1839	 0.593664158380144 
1840	 0.593836000874205 
1841	 0.593999493217987 
1842	 0.594170948361471 
1843	 0.59427593548033 
1844	 0.594346888798242 
1845	 0.594354347020544 
1846	 0.59426349733865 
1847	 0.594132391167202 
1848	 0.593930741444747 
1849	 0.593702021990033 
1850	 0.593343990077672 
1851	 0.59292280179083 
1852	 0.592360062963867 
1853	 0.591675307901778 
1854	 0.590942107401247 
1855	 0.590080561886114 
1856	 0.589137829040572 
1857	 0.588069266906117 
1858	 0.586819541319837 
1859	 0.5854914740292 
1860	 0.584066644791898 
1861	 0.582449541244376 
1862	 0.580684115302521 
1863	 0.578879593377362 
1864	 0.576801189794452 
1865	 0.574655384268969 
1866	 0.572353317959418 
1867	 0.569757790760823 
1868	 0.567117786962943 
1869	 0.564260348141473 
1870	 0.561330058043529 
1871	 0.558314527135275 
1872	 0.555259041523853 
1873	 0.552081431969598 
1874	 0.548929006873473 
1875	 0.545779464775123 
1876	 0.542250877421103 
1877	 0.538742006901731 
1878	 0.534974116767367 
1879	 0.530860154933164 
1880	 0.526893876396975 
1881	 0.522637878185325 
1882	 0.518121434571034 
1883	 0.513516538427943 
1884	 0.508761702300604 
1885	 0.503486710284475 
1886	 0.498258506374877 
1887	 0.492729658874544 
1888	 0.486916627979725 
1889	 0.481441883101576 
1890	 0.475680010164477 
1891	 0.469884254180859 
1892	 0.464177410143236 
1893	 0.458183120798452 
1894	 0.451868586055271 
1895	 0.4457392260425 
1896	 0.439468685592943 
1897	 0.433018899635725 
1898	 0.427055072478551 
1899	 0.420898612207255 
1900	 0.414824342334477 
1901	 0.408990840600189 
1902	 0.402809545257593 
1903	 0.396927017108121 
1904	 0.391140602901415 
1905	 0.385378053136511 
1906	 0.379703254676128 
1907	 0.374614577451236 
1908	 0.369435506323426 
1909	 0.364406238132231 
1910	 0.359621935165737 
1911	 0.354577881726671 
1912	 0.349781283555657 
1913	 0.345041570110511 
1914	 0.340244105656328 
1915	 0.335722623845068 
1916	 0.33148131751723 
1917	 0.327133789964334 
1918	 0.322917872741471 
1919	 0.318850137988526 
1920	 0.314532494337973 
1921	 0.310431767084368 
1922	 0.306312559619037 
1923	 0.302156420331816 
1924	 0.298391259825867 
1925	 0.29453390663794 
1926	 0.290796186107398 
1927	 0.287237356432141 
1928	 0.283680228346981 
1929	 0.280064842823428 
1930	 0.276709459180503 
1931	 0.273472299812281 
1932	 0.27035385283931 
1933	 0.267681648447919 
1934	 0.265183202189893 
1935	 0.262915665931347 
1936	 0.26098468528724 
1937	 0.259242600394191 
1938	 0.25767516488359 
1939	 0.256459402116953 
1940	 0.255515337153918 
1941	 0.254838294017883 
1942	 0.254494669867496 
1943	 0.254361030296634 
1944	 0.254425279202293 
1945	 0.254744714733769 
1946	 0.255330665071105 
1947	 0.25609635037932 
1948	 0.257167931806092 
1949	 0.258553795450881 
1950	 0.260121986673268 
1951	 0.261954786620707 
1952	 0.263994033831646 
1953	 0.266246950287731 
1954	 0.268713629648883 
1955	 0.271488618564819 
1956	 0.274285156680347 
1957	 0.277170156674372 
1958	 0.280084529416048 
1959	 0.28271939042868 
1960	 0.285260325601002 
1961	 0.28761806247827 
1962	 0.289777450811313 
1963	 0.291799591347962 
1964	 0.293680855328264 
1965	 0.295378701601071 
1966	 0.296899571614602 
1967	 0.298313798895135 
1968	 0.299513847070501 
1969	 0.300721206097313 
1970	 0.301884248415166 
1971	 0.303031347448099 
1972	 0.304310810561991 
1973	 0.305598279700855 
1974	 0.306964469033034 
1975	 0.30844020511218 
1976	 0.309922647489915 
1977	 0.311431553177901 
1978	 0.313011554409115 
1979	 0.314633798600024 
1980	 0.316285399994216 
1981	 0.318112337255447 
1982	 0.319891985845919 
1983	 0.321789314333694 
1984	 0.323775045931613 
1985	 0.325683331046465 
1986	 0.327775036219093 
1987	 0.32999221488462 
1988	 0.332211987684573 
1989	 0.334754321525333 
1990	 0.337520770093371 
1991	 0.34043172089227 
1992	 0.343574270403387 
1993	 0.34693980223852 
1994	 0.35019552788371 
1995	 0.353701223751739 
1996	 0.357225440203383 
1997	 0.360756019295757 
1998	 0.36443084351068 
1999	 0.368325489616784 
2000	 0.371988372896393 
2001	 0.37582170637102 
2002	 0.379282566534123 
2003	 0.382516212349181 
2004	 0.385676979169928 
2005	 0.388592057671217 
2006	 0.391465324208894 
2007	 0.394340666866801 
2008	 0.396973397782949 
2009	 0.399443942698387 
2010	 0.401835028281029 
2011	 0.403867152772034 
2012	 0.405783672273096 
2013	 0.407580754607527 
2014	 0.409188685889096 
2015	 0.410707639229943 
2016	 0.412158827868074 
2017	 0.413402084106934 
2018	 0.414505343667955 
2019	 0.415434940014013 
2020	 0.416164063358374 
2021	 0.416784154860514 
2022	 0.417239768269615 
2023	 0.417487644850876 
2024	 0.417609225780589 
2025	 0.417580916687669 
2026	 0.4174066027233 
2027	 0.417053558405583 
2028	 0.416626773524499 
2029	 0.416011172613659 
2030	 0.415392974683779 
2031	 0.414663551395195 
2032	 0.41394602753641 
2033	 0.413104046358822 
2034	 0.412386419695223 
2035	 0.411665073118712 
2036	 0.411015032757426 
2037	 0.410500828882859 
2038	 0.410089296445814 
2039	 0.409797835861758 
2040	 0.409607159748467 
2041	 0.409570449594282 
2042	 0.409666432886346 
2043	 0.409880975269379 
2044	 0.41027968052317 
2045	 0.410704614997305 
2046	 0.411224780691072 
2047	 0.411823209004686 
2048	 0.412502235071622 
2049	 0.413247749512329 
2050	 0.414104301244768 
2051	 0.414993623847217 
2052	 0.41594284104351 
2053	 0.416928489057673 
2054	 0.41791741002834 
2055	 0.418930832416627 
2056	 0.419988092656444 
2057	 0.421034751775834 
2058	 0.422179457413974 
2059	 0.423411268082902 
2060	 0.424643480520453 
2061	 0.425969127046662 
2062	 0.427250672253431 
2063	 0.428513855723027 
2064	 0.429807624606477 
2065	 0.431105561063737 
2066	 0.432399439951145 
2067	 0.433795871745853 
2068	 0.435162250791166 
2069	 0.436485506791916 
2070	 0.437840286737584 
2071	 0.439091824386889 
2072	 0.440256936706219 
2073	 0.441426939594877 
2074	 0.44256706684276 
2075	 0.443662023542122 
2076	 0.444759669360726 
2077	 0.445748043310305 
2078	 0.446689425843638 
2079	 0.447532902835471 
2080	 0.448255626152785 
2081	 0.448950309784324 
2082	 0.449582087611765 
2083	 0.450138719539263 
2084	 0.450667003627705 
2085	 0.451149929387608 
2086	 0.451555775552972 
2087	 0.451908137535484 
2088	 0.452169688242728 
2089	 0.452337536359927 
2090	 0.452469151729848 
2091	 0.452506410769739 
2092	 0.452540496391961 
2093	 0.452542899489042 
2094	 0.452503967662469 
2095	 0.452436692107218 
2096	 0.45231709386154 
2097	 0.452131222915232 
2098	 0.451936465929875 
2099	 0.451717280394999 
2100	 0.451448996315533 
2101	 0.451172966729602 
2102	 0.45088701489493 
2103	 0.450559399350444 
2104	 0.450190381003631 
2105	 0.449817401014199 
2106	 0.44941345868163 
2107	 0.449005968136377 
2108	 0.448593257749763 
2109	 0.448155923586654 
2110	 0.447697511588833 
2111	 0.447232702121918 
2112	 0.44675143665953 
2113	 0.446253587168599 
2114	 0.445758584346291 
2115	 0.445223756457364 
2116	 0.444649950856604 
2117	 0.444075552750666 
2118	 0.443468054929808 
2119	 0.442830507317706 
2120	 0.442177611495737 
2121	 0.441503291900244 
2122	 0.440808802810623 
2123	 0.440091384623968 
2124	 0.439351926383955 
2125	 0.438627957622199 
2126	 0.437809123085412 
2127	 0.436939629961964 
2128	 0.436031714543185 
2129	 0.435042176882076 
2130	 0.434032804773746 
2131	 0.433030613593014 
2132	 0.431929195352991 
2133	 0.430757440040064 
2134	 0.429548999106602 
2135	 0.428215363869734 
2136	 0.426868741092223 
2137	 0.425430293753168 
2138	 0.423877605333241 
2139	 0.422380224535418 
2140	 0.420851959236776 
2141	 0.419290124803499 
2142	 0.41777772863065 
2143	 0.41613594333809 
2144	 0.414384446812306 
2145	 0.41264053903165 
2146	 0.41079098456935 
2147	 0.409013194638354 
2148	 0.407285080282063 
2149	 0.405484991114329 
2150	 0.403737788848163 
2151	 0.401880234937017 
2152	 0.399868266398763 
2153	 0.397921840043507 
2154	 0.395962536119066 
2155	 0.393929188097775 
2156	 0.39202000148323 
2157	 0.390171650656635 
2158	 0.388325392470441 
2159	 0.38653769448992 
2160	 0.384733899513395 
2161	 0.382902595533409 
2162	 0.381176338467111 
2163	 0.379430625734337 
2164	 0.377851201557256 
2165	 0.376373086683332 
2166	 0.375001194968097 
2167	 0.373773955654808 
2168	 0.372597238716959 
2169	 0.371489782962344 
2170	 0.370495403962379 
2171	 0.369556359525441 
2172	 0.368763057168405 
2173	 0.36812185901736 
2174	 0.367561549367911 
2175	 0.367112819763278 
2176	 0.366763444352928 
2177	 0.366494168812801 
2178	 0.366317000556902 
2179	 0.366223832340394 
2180	 0.366228948830403 
2181	 0.36630126855052 
2182	 0.366469534973705 
2183	 0.366677667580458 
2184	 0.366953173351673 
2185	 0.367299659193661 
2186	 0.367738811208689 
2187	 0.368179067008401 
2188	 0.368711229729575 
2189	 0.369207364405281 
2190	 0.369706203088519 
2191	 0.370204192893051 
2192	 0.370711023514223 
2193	 0.371209186782819 
2194	 0.371722473814283 
2195	 0.372195848870334 
2196	 0.372653718440658 
2197	 0.37310050388406 
2198	 0.373463503381496 
2199	 0.373839428560099 
2200	 0.374171917559719 
2201	 0.374470951651858 
2202	 0.374726668923852 
2203	 0.374949300533574 
2204	 0.375143191486021 
2205	 0.375287820855169 
2206	 0.375423412639602 
2207	 0.375519313664765 
2208	 0.375635948660353 
2209	 0.375696273480071 
2210	 0.375851005522967 
2211	 0.376030102303092 
2212	 0.376275867979531 
2213	 0.376591857980095 
2214	 0.376936202435095 
2215	 0.377316609889419 
2216	 0.377760024228939 
2217	 0.378211998308992 
2218	 0.378784646260761 
2219	 0.379467231221065 
2220	 0.380190646109627 
2221	 0.381009158893321 
2222	 0.381895388652932 
2223	 0.382752158359129 
2224	 0.383629480966744 
2225	 0.384503003878172 
2226	 0.385336323863038 
2227	 0.386108540454963 
2228	 0.386890743305021 
2229	 0.387496116568343 
2230	 0.388037173928849 
2231	 0.388377780236117 
2232	 0.388573574008198 
2233	 0.388622262746128 
2234	 0.388519793727765 
2235	 0.388253638427106 
2236	 0.387831367110669 
2237	 0.387253736416791 
2238	 0.386465876589538 
2239	 0.385599667702901 
2240	 0.384591349326459 
2241	 0.383472868454097 
2242	 0.382277930214736 
2243	 0.380889343099497 
2244	 0.379321102884077 
2245	 0.377667466591107 
2246	 0.375771407588481 
2247	 0.373899170865379 
2248	 0.37198113073337 
2249	 0.36997983553815 
2250	 0.367914217694362 
2251	 0.365836979316509 
2252	 0.363555411379395 
2253	 0.361292546031195 
2254	 0.359009157080565 
2255	 0.356730487392172 
2256	 0.354654498954459 
2257	 0.3526265810318 
2258	 0.350723530360825 
2259	 0.348952981597082 
2260	 0.347240199017506 
2261	 0.345577079946418 
2262	 0.344123168667643 
2263	 0.34277447199686 
2264	 0.341606989120261 
2265	 0.340650488634472 
2266	 0.339775231987225 
2267	 0.339083485859101 
2268	 0.338406583813733 
2269	 0.337837803116004 
2270	 0.337318696790236 
2271	 0.336832237560965 
2272	 0.336457495725102 
2273	 0.336236103830661 
2274	 0.335981094949436 
2275	 0.33578719387829 
2276	 0.335601996143693 
2277	 0.335413205429214 
2278	 0.33526778711046 
2279	 0.335146030625847 
2280	 0.335084962962974 
2281	 0.335039796924461 
2282	 0.335077397995013 
2283	 0.335197098811579 
2284	 0.335368719244263 
2285	 0.335593133847283 
2286	 0.33590874308467 
2287	 0.336268461881417 
2288	 0.336680441538568 
2289	 0.337154125346985 
2290	 0.337678239370288 
2291	 0.338250382243929 
2292	 0.338904431975115 
2293	 0.339588601095606 
2294	 0.340253103940336 
2295	 0.341002348480495 
2296	 0.341754660189877 
2297	 0.342455875352736 
2298	 0.343159937827742 
2299	 0.343854583689256 
2300	 0.344495583506041 
2301	 0.345158583851818 
2302	 0.345843264172453 
2303	 0.34649756353544 
2304	 0.347151200435377 
2305	 0.34774305625167 
2306	 0.348285072752976 
2307	 0.348859440772624 
2308	 0.349369787654364 
2309	 0.349969414669889 
2310	 0.350632887578358 
2311	 0.351290466590297 
2312	 0.351986142043824 
2313	 0.352659796315231 
2314	 0.353361923851268 
2315	 0.354029610905002 
2316	 0.354649732440246 
2317	 0.355313236518207 
2318	 0.356037745571486 
2319	 0.356634846392987 
2320	 0.357259032198606 
2321	 0.357727652631364 
2322	 0.358019100893952 
2323	 0.358296420682303 
2324	 0.358493231493784 
2325	 0.358659051905648 
2326	 0.358767279652919 
2327	 0.358831342699908 
2328	 0.358836681647127 
2329	 0.358811706746321 
2330	 0.35874426920538 
2331	 0.358645664950155 
2332	 0.358476649507649 
2333	 0.358248785449111 
2334	 0.357927816166296 
2335	 0.357555010717003 
2336	 0.357183403604171 
2337	 0.356755182322787 
2338	 0.3563228127793 
2339	 0.355818033151378 
2340	 0.35523285819511 
2341	 0.354584647992551 
2342	 0.353917379616065 
2343	 0.353307353156456 
2344	 0.3527060889996 
2345	 0.352172098797037 
2346	 0.351687436556449 
2347	 0.351260282400096 
2348	 0.350934563953611 
2349	 0.350667747567873 
2350	 0.350452115812154 
2351	 0.350317451642993 
2352	 0.350214915249891 
2353	 0.350124054870521 
2354	 0.350065000935806 
2355	 0.349971461828184 
2356	 0.349904233005309 
2357	 0.349883804027059 
2358	 0.349742968397383 
2359	 0.349572860090577 
2360	 0.349330041649911 
2361	 0.348946765516216 
2362	 0.348660062781349 
2363	 0.348344105915513 
2364	 0.348020205081134 
2365	 0.347686812035181 
2366	 0.347166526099239 
2367	 0.346688271792527 
2368	 0.346110539423002 
2369	 0.345440539801039 
2370	 0.344936618007769 
2371	 0.344358508519297 
2372	 0.343763077825843 
2373	 0.343146913505398 
2374	 0.342373719490335 
2375	 0.341575157209527 
2376	 0.340734624210678 
2377	 0.339904567372431 
2378	 0.339135111486824 
2379	 0.338346052962613 
2380	 0.337516889671262 
2381	 0.33664411499545 
2382	 0.33571822330908 
2383	 0.334706536286947 
2384	 0.333712792055706 
2385	 0.332636785088714 
2386	 0.331670164736149 
2387	 0.33077634161636 
2388	 0.329789488816098 
2389	 0.328860031341708 
2390	 0.327852645801324 
2391	 0.326781360009113 
2392	 0.325644338600204 
2393	 0.324382906140092 
2394	 0.323242633850525 
2395	 0.322065978248574 
2396	 0.320910183677123 
2397	 0.319952720779839 
2398	 0.318762281152476 
2399	 0.317392908219749 
2400	 0.316078024006301 
2401	 0.314641286642345 
2402	 0.31336706846477 
2403	 0.312166564026019 
2404	 0.311104166048489 
2405	 0.310030135940224 
2406	 0.308676649934225 
2407	 0.307390981579926 
2408	 0.306115438619306 
2409	 0.30476993803617 
2410	 0.303800022019803 
2411	 0.302923377026574 
2412	 0.301968271482472 
2413	 0.301087797915088 
2414	 0.300111189153908 
2415	 0.299159386392467 
2416	 0.298213321256711 
2417	 0.297264047894974 
2418	 0.296519017269314 
2419	 0.295727152965752 
2420	 0.294895845138724 
2421	 0.294356790501733 
2422	 0.293757584577233 
2423	 0.293143235506502 
2424	 0.292643874971788 
2425	 0.291876422835286 
2426	 0.291173344338455 
2427	 0.290548341186591 
2428	 0.289866051783168 
2429	 0.289256763416943 
2430	 0.28849770970609 
2431	 0.287611916925621 
2432	 0.286624766395994 
2433	 0.285719553891983 
2434	 0.285006446873663 
2435	 0.284238420765334 
2436	 0.283510024778242 
2437	 0.282804596586435 
2438	 0.281926492589192 
2439	 0.281098837318919 
2440	 0.280245344647216 
2441	 0.279296640395311 
2442	 0.278479950932775 
2443	 0.277530759605971 
2444	 0.27667120468218 
2445	 0.276016957772415 
2446	 0.275176255854757 
2447	 0.274308786489643 
2448	 0.273563154950845 
2449	 0.27278803547329 
2450	 0.271950736160922 
2451	 0.271268175417955 
2452	 0.270547256250663 
2453	 0.269581421419626 
2454	 0.268789890514036 
2455	 0.268060712319543 
2456	 0.267193046033684 
2457	 0.266547369541024 
2458	 0.265921596324141 
2459	 0.265191285798126 
2460	 0.264505448820713 
2461	 0.263806958137911 
2462	 0.263115606300318 
2463	 0.262347986036278 
2464	 0.261618870839417 
2465	 0.260882811926151 
2466	 0.260169066860623 
2467	 0.259578329608291 
2468	 0.258955538128457 
2469	 0.258504552518352 
2470	 0.25802779661134 
2471	 0.257371713949077 
2472	 0.256851563640487 
2473	 0.256201034240732 
2474	 0.255581049048446 
2475	 0.255193168047098 
2476	 0.254712397940542 
2477	 0.254452733806633 
2478	 0.254179786855572 
2479	 0.25373768114817 
2480	 0.253778638071726 
2481	 0.253691519750908 
2482	 0.253801747408082 
2483	 0.253783242884327 
2484	 0.253489706123668 
2485	 0.253330334002364 
2486	 0.252966535526334 
2487	 0.252633814072441 
2488	 0.252609993993192 
2489	 0.25275155728493 
2490	 0.252843695588461 
2491	 0.252675079226383 
2492	 0.25251700194107 
2493	 0.252235022382483 
2494	 0.251865436517382 
2495	 0.251710696878378 
2496	 0.251627736855111 
2497	 0.251544631309775 
2498	 0.251421240692051 
2499	 0.251648967220175 
2500	 0.25196506378445 
