Wavelength	spectrum00002.asd
350	 3.27639780983555E-02 
351	 2.97843934750842E-02 
352	 2.75719510529077E-02 
353	 2.77622101535789E-02 
354	 2.86398989415262E-02 
355	 2.75919782004299E-02 
356	 2.62058792231879E-02 
357	 2.58204798872377E-02 
358	 2.37291645383419E-02 
359	 2.28867066139423E-02 
360	 2.32568855379642E-02 
361	 2.33020577889814E-02 
362	 2.34707945491911E-02 
363	 2.27198401054499E-02 
364	 2.11041702291738E-02 
365	 2.01915156511034E-02 
366	 2.07626546260643E-02 
367	 2.11058037075697E-02 
368	 2.00233783184665E-02 
369	 1.99877890720168E-02 
370	 2.01981734764997E-02 
371	 0.020015773699314 
372	 1.91802412931681E-02 
373	 0.01977134906103 
374	 2.00069147770486E-02 
375	 1.95261316628988E-02 
376	 2.05725731561994E-02 
377	 0.021216123527293 
378	 2.08458604735007E-02 
379	 1.96719175443015E-02 
380	 1.92066645249519E-02 
381	 1.96123702447828E-02 
382	 1.98935918795897E-02 
383	 1.87626734324421E-02 
384	 1.90168159920988E-02 
385	 1.98498941703299E-02 
386	 2.01103781462939E-02 
387	 1.87444856709368E-02 
388	 1.87647649068214E-02 
389	 1.92766601024578E-02 
390	 1.89150378064486E-02 
391	 1.89646992875647E-02 
392	 1.85037418550504E-02 
393	 1.80383701929277E-02 
394	 1.87747938941162E-02 
395	 0.01860793378361 
396	 1.84506664412472E-02 
397	 0.018633892948762 
398	 1.78175258373687E-02 
399	 0.017616786596085 
400	 1.78897672275012E-02 
401	 1.79726906932329E-02 
402	 0.017296393314166 
403	 1.73647171260227E-02 
404	 1.79590852247567E-02 
405	 1.76363869903016E-02 
406	 1.72384541091237E-02 
407	 1.70079350830303E-02 
408	 1.70664496737367E-02 
409	 1.75991429959569E-02 
410	 1.74335127089452E-02 
411	 1.70249152554377E-02 
412	 1.71670371969724E-02 
413	 1.74065525161829E-02 
414	 1.72042107190012E-02 
415	 1.67635359419099E-02 
416	 1.68973517270236E-02 
417	 1.69800725625943E-02 
418	 1.71493388842224E-02 
419	 1.74326617210792E-02 
420	 1.72711183830186E-02 
421	 1.71293781650435E-02 
422	 1.72087869228027E-02 
423	 1.75097512535348E-02 
424	 1.75536914590742E-02 
425	 1.75842863557823E-02 
426	 1.77149577592014E-02 
427	 1.78425040972556E-02 
428	 1.79628941408091E-02 
429	 1.80990685528081E-02 
430	 1.82355759045141E-02 
431	 0.018176233830717 
432	 1.84091250384684E-02 
433	 1.87552536338086E-02 
434	 1.87415204342349E-02 
435	 1.89659596334671E-02 
436	 1.91894326751178E-02 
437	 1.93345995853053E-02 
438	 1.97319080353718E-02 
439	 2.00183104733962E-02 
440	 2.01869977381945E-02 
441	 2.03234536690052E-02 
442	 2.04043637701495E-02 
443	 2.05658329230255E-02 
444	 2.07986801126878E-02 
445	 0.020981239405613 
446	 2.11989486602244E-02 
447	 2.13569934779179E-02 
448	 0.021422075857978 
449	 0.021547062094766 
450	 2.17210274151528E-02 
451	 2.18498975879625E-02 
452	 2.18487904277357E-02 
453	 2.19119388262584E-02 
454	 2.20605530733637E-02 
455	 2.22119650050285E-02 
456	 2.21925068025279E-02 
457	 2.22635818831444E-02 
458	 2.22827321914097E-02 
459	 0.022169230240571 
460	 0.022304146594094 
461	 2.24376887595396E-02 
462	 2.24754517236149E-02 
463	 2.24292646133454E-02 
464	 2.24043250499875E-02 
465	 2.24026306775806E-02 
466	 0.022407249532046 
467	 2.23929007355926E-02 
468	 2.23998816982364E-02 
469	 2.24013309202543E-02 
470	 2.23963987984562E-02 
471	 2.25956353649448E-02 
472	 2.26588024528076E-02 
473	 2.26142956207672E-02 
474	 2.27702947138684E-02 
475	 2.27862204368216E-02 
476	 2.27792570422791E-02 
477	 2.28637909296513E-02 
478	 0.022993911172624 
479	 0.023072072787262 
480	 2.31422318620372E-02 
481	 2.32824738662889E-02 
482	 2.33753362581977E-02 
483	 2.35029982744475E-02 
484	 2.36609437691356E-02 
485	 2.37336212273436E-02 
486	 0.023979829716206 
487	 2.42028788896693E-02 
488	 0.024243143958451 
489	 2.43768740406476E-02 
490	 2.45993917176818E-02 
491	 0.024886647765993 
492	 2.51921536555378E-02 
493	 2.54167478250339E-02 
494	 2.56788251386365E-02 
495	 2.60024859958763E-02 
496	 0.026203984574205 
497	 2.64899824590097E-02 
498	 2.68578119482445E-02 
499	 2.72411754306753E-02 
500	 2.76277460927883E-02 
501	 2.79465327559617E-02 
502	 2.82281054097946E-02 
503	 2.85910987503762E-02 
504	 2.90766806322911E-02 
505	 2.95066992583167E-02 
506	 2.98276702220104E-02 
507	 3.03974102269371E-02 
508	 3.08814074912332E-02 
509	 3.13226721866826E-02 
510	 3.18962667971546E-02 
511	 3.24317395828858E-02 
512	 0.032980344119511 
513	 3.35759511834002E-02 
514	 3.42090762497879E-02 
515	 3.47715202718427E-02 
516	 3.53449693765675E-02 
517	 0.03601905163121 
518	 3.67259052913502E-02 
519	 3.74454811404524E-02 
520	 3.81996750239351E-02 
521	 3.90285995591394E-02 
522	 3.98239620541723E-02 
523	 4.06458716652415E-02 
524	 0.041529414570067 
525	 0.042411808710302 
526	 4.33442989394494E-02 
527	 4.43289655399896E-02 
528	 4.53501315851567E-02 
529	 4.63944021532665E-02 
530	 4.74682728507661E-02 
531	 4.85966869893944E-02 
532	 4.98175271569532E-02 
533	 0.05098910151732 
534	 5.21871713796955E-02 
535	 5.34853636670718E-02 
536	 0.054810993392454 
537	 0.056190783266638 
538	 5.76077226774908E-02 
539	 5.90261931440622E-02 
540	 0.060469605833753 
541	 6.19607155716989E-02 
542	 6.34945455849423E-02 
543	 0.06501838402994 
544	 6.65848835233193E-02 
545	 6.81627415847575E-02 
546	 6.97283701849712E-02 
547	 7.14105585518868E-02 
548	 7.31582671756982E-02 
549	 7.49178019794172E-02 
550	 7.66450480913188E-02 
551	 7.84368556255167E-02 
552	 8.02682320298929E-02 
553	 8.20985790415216E-02 
554	 8.39027026370444E-02 
555	 8.57329984847928E-02 
556	 8.75855903190657E-02 
557	 8.94248459857247E-02 
558	 9.12125979382435E-02 
559	 0.092988144022267 
560	 9.47538037941832E-02 
561	 0.096451589230197 
562	 9.79964511687314E-02 
563	 9.94102908812611E-02 
564	 0.100749041911111 
565	 0.102052615674136 
566	 0.103329697092038 
567	 0.104605309040116 
568	 0.10591764113257 
569	 0.107326643283647 
570	 0.108793729383456 
571	 0.110249383106884 
572	 0.111604381080098 
573	 0.112834901017006 
574	 0.11388462900029 
575	 0.114707621966244 
576	 0.115338755163775 
577	 0.115854040527186 
578	 0.116341592855858 
579	 0.116894726916282 
580	 0.11752917981496 
581	 0.118254653776654 
582	 0.119046482129014 
583	 0.119807633200205 
584	 0.120487640336177 
585	 0.121074075876706 
586	 0.121580913466311 
587	 0.121986725709411 
588	 0.122317646269172 
589	 0.122621482325292 
590	 0.122968716454633 
591	 0.123331671857996 
592	 0.123690690825454 
593	 0.124025941307508 
594	 0.124322548640953 
595	 0.124550160540279 
596	 0.124707053956658 
597	 0.124817374414468 
598	 0.124900279807564 
599	 0.12493863520466 
600	 0.12492789590791 
601	 0.124906341347305 
602	 0.124901875561352 
603	 0.124894044056825 
604	 0.124847900653015 
605	 0.124800480853772 
606	 0.124765661362635 
607	 0.12473428297909 
608	 0.12467224933716 
609	 0.124564408165783 
610	 0.124461981685416 
611	 0.124394508659291 
612	 0.124264241345701 
613	 0.124100223308501 
614	 0.123932475812372 
615	 0.123784546602029 
616	 0.12360245707774 
617	 0.123447738847146 
618	 0.123334468349779 
619	 0.123165343595188 
620	 0.122998588198812 
621	 0.122847983448669 
622	 0.12271155458525 
623	 0.122585155920145 
624	 0.122432723147023 
625	 0.122259436009608 
626	 0.122108573186156 
627	 0.121970868893669 
628	 0.121838550435201 
629	 0.121709677867304 
630	 0.121603652982858 
631	 0.121457872705794 
632	 0.121314718930906 
633	 0.121242708043773 
634	 0.121128426318685 
635	 0.121031098460267 
636	 0.120970857291982 
637	 0.120902049821224 
638	 0.120831528396486 
639	 0.12076588283745 
640	 0.120704516791378 
641	 0.1206126344228 
642	 0.120575942154912 
643	 0.120592422442279 
644	 0.120602673837535 
645	 0.12058253048024 
646	 0.120547058185312 
647	 0.120528361468199 
648	 0.120577971100132 
649	 0.12061496953732 
650	 0.120635403260143 
651	 0.120659188102392 
652	 0.120690476313438 
653	 0.120757712158823 
654	 0.120847706205051 
655	 0.120916806452658 
656	 0.120995411165335 
657	 0.121103801152015 
658	 0.121239196684554 
659	 0.121351597202634 
660	 0.121501319563483 
661	 0.121669563102002 
662	 0.121817580884106 
663	 0.121973305582237 
664	 0.122131567094886 
665	 0.122293224654261 
666	 0.122467676187352 
667	 0.122692459935149 
668	 0.122921574669272 
669	 0.123122945559828 
670	 0.123340291931445 
671	 0.123606659970628 
672	 0.123899266909498 
673	 0.124173926164289 
674	 0.124443639109018 
675	 0.124750940344772 
676	 0.125091360833363 
677	 0.125402325606549 
678	 0.125715837746753 
679	 0.126029861331544 
680	 0.126353097376696 
681	 0.126751819989463 
682	 0.127162082191761 
683	 0.12755437861464 
684	 0.127928615741359 
685	 0.128338197951229 
686	 0.128781628238615 
687	 0.129238210040129 
688	 0.12967136626049 
689	 0.130066411051388 
690	 0.130503747189898 
691	 0.131038620727377 
692	 0.131555602290259 
693	 0.132039074978019 
694	 0.132527990091542 
695	 0.133083347899427 
696	 0.133622930982573 
697	 0.134162337279784 
698	 0.134718983389183 
699	 0.13529626397141 
700	 0.135846135687651 
701	 0.13640586209767 
702	 0.137022147768994 
703	 0.137681142835219 
704	 0.138312009797831 
705	 0.138916053359158 
706	 0.139545893975352 
707	 0.140203382926705 
708	 0.140876231385076 
709	 0.141545589980921 
710	 0.142183435435804 
711	 0.142869478191849 
712	 0.143582254102966 
713	 0.144280107891865 
714	 0.144980932681963 
715	 0.145661423389228 
716	 0.146324962789934 
717	 0.146997075283989 
718	 0.147717563217068 
719	 0.148450585876647 
720	 0.149165311104184 
721	 0.149856887891944 
722	 0.150567664563082 
723	 0.151267163553911 
724	 0.151932795116283 
725	 0.152672863789137 
726	 0.153393012700852 
727	 0.154071364025133 
728	 0.154742100641867 
729	 0.155407001118575 
730	 0.156083459195552 
731	 0.156772694386897 
732	 0.157449604840934 
733	 0.158113305770559 
734	 0.15874692436208 
735	 0.159352420597499 
736	 0.16001530861117 
737	 0.160623724727055 
738	 0.161185092401881 
739	 0.161777330962823 
740	 0.162321538659648 
741	 0.162846211672039 
742	 0.163363194506089 
743	 0.163840544147169 
744	 0.164325453836908 
745	 0.164772729214103 
746	 0.165149337994136 
747	 0.165538701091582 
748	 0.165965872633153 
749	 0.166385970014086 
750	 0.166727394917775 
751	 0.167070014777896 
752	 0.167369958941558 
753	 0.167623697636207 
754	 0.167893760018667 
755	 0.168154397501672 
756	 0.168366807693552 
757	 0.168514664435687 
758	 0.168651012948014 
759	 0.168769639306562 
760	 0.168859229476659 
761	 0.168912689348338 
762	 0.168974626533855 
763	 0.169000471774023 
764	 0.16898557705731 
765	 0.168973359706544 
766	 0.168952286992353 
767	 0.168898993560905 
768	 0.16880384048938 
769	 0.16869513985246 
770	 0.168550926729078 
771	 0.168388649600767 
772	 0.168229044292413 
773	 0.168038420722649 
774	 0.167815602473982 
775	 0.167559877512019 
776	 0.167273515070062 
777	 0.166993025236756 
778	 0.166751506624654 
779	 0.166520088685369 
780	 0.166171585010434 
781	 0.165835033786333 
782	 0.16549369506197 
783	 0.165110013041204 
784	 0.164725259211379 
785	 0.164339592197678 
786	 0.163951602250838 
787	 0.163553499808163 
788	 0.163100925093178 
789	 0.162648475618277 
790	 0.162214821976496 
791	 0.161765599041513 
792	 0.16132842892596 
793	 0.160872262493825 
794	 0.160379530968092 
795	 0.159893216959346 
796	 0.15939174691891 
797	 0.158883928932732 
798	 0.158377543630261 
799	 0.157818615174618 
800	 0.157277377590226 
801	 0.156768109424637 
802	 0.156256263003914 
803	 0.15572768862554 
804	 0.155192346825328 
805	 0.154657834433053 
806	 0.15412207082159 
807	 0.153576714738653 
808	 0.153013504527587 
809	 0.152435913074951 
810	 0.15187965455474 
811	 0.151321763201563 
812	 0.150772447570078 
813	 0.150247171240078 
814	 0.149705095777303 
815	 0.149181420194689 
816	 0.148660426233856 
817	 0.148087048328815 
818	 0.147530299067739 
819	 0.147008940708158 
820	 0.146513176082349 
821	 0.146003422259658 
822	 0.14544396051086 
823	 0.144908409738277 
824	 0.144450973971201 
825	 0.143977334411116 
826	 0.143444034728762 
827	 0.142906665967994 
828	 0.142443927579728 
829	 0.141965939103862 
830	 0.141481013290156 
831	 0.141001449836235 
832	 0.140535410269295 
833	 0.140059389235892 
834	 0.139607219976437 
835	 0.139180741167463 
836	 0.138721115314134 
837	 0.138286620783801 
838	 0.137848981530096 
839	 0.137383451961392 
840	 0.136928341093231 
841	 0.136534977241907 
842	 0.136162657137677 
843	 0.135746543459119 
844	 0.135315949410094 
845	 0.134892625438782 
846	 0.134502653527734 
847	 0.134162632706966 
848	 0.133804088249365 
849	 0.133401050785346 
850	 0.132986289336646 
851	 0.13265096029322 
852	 0.132294109245475 
853	 0.131957320467278 
854	 0.131656444013459 
855	 0.131290899881739 
856	 0.130943621803018 
857	 0.130613624878707 
858	 0.130288647684128 
859	 0.130019151321391 
860	 0.129705332832473 
861	 0.129375999159053 
862	 0.129113981291149 
863	 0.128883572118404 
864	 0.128623423355486 
865	 0.128329234447935 
866	 0.128046736667089 
867	 0.127770263425765 
868	 0.127536902042502 
869	 0.127340637907055 
870	 0.127114006856431 
871	 0.12688790575924 
872	 0.126672902895375 
873	 0.126472454331048 
874	 0.126282088592779 
875	 0.126107194790863 
876	 0.12594511360298 
877	 0.125786394964768 
878	 0.125609939780021 
879	 0.125427580203924 
880	 0.125259787920981 
881	 0.125119670441173 
882	 0.124960237141268 
883	 0.124823015134342 
884	 0.124696982925488 
885	 0.124538399999958 
886	 0.124414866649241 
887	 0.124318627335751 
888	 0.124234156933311 
889	 0.124149227318535 
890	 0.124076277417632 
891	 0.12399833831569 
892	 0.123907577381223 
893	 0.123819943531559 
894	 0.12371953789901 
895	 0.12365355150016 
896	 0.12363950651111 
897	 0.123581174342122 
898	 0.123532289267741 
899	 0.12347480842096 
900	 0.123401128944973 
901	 0.123433250033369 
902	 0.123448987821104 
903	 0.123423764436081 
904	 0.123389163388284 
905	 0.123361628420616 
906	 0.123370683251349 
907	 0.123397607147197 
908	 0.123397773236437 
909	 0.123412214431807 
910	 0.12344941198556 
911	 0.123490094505455 
912	 0.123496286556666 
913	 0.123497743067814 
914	 0.123528206789789 
915	 0.123588558080595 
916	 0.123636367806184 
917	 0.12368214221625 
918	 0.123733225199258 
919	 0.123793793154541 
920	 0.123862244336924 
921	 0.123914736332184 
922	 0.123984568327456 
923	 0.124090581539432 
924	 0.124176864187168 
925	 0.124279711842181 
926	 0.124378516444815 
927	 0.124461284452056 
928	 0.124608604517142 
929	 0.124729767721953 
930	 0.12480693543609 
931	 0.124872619625617 
932	 0.125014884522378 
933	 0.125161495770781 
934	 0.125292209618072 
935	 0.12541859310177 
936	 0.125530492106321 
937	 0.125696852845931 
938	 0.125877466118237 
939	 0.12597924924217 
940	 0.126112117014042 
941	 0.126239996051521 
942	 0.126387519457651 
943	 0.126619739519507 
944	 0.126808123579758 
945	 0.126978648958534 
946	 0.127148411942002 
947	 0.127307590547592 
948	 0.127476742096407 
949	 0.127665217192574 
950	 0.127864691240597 
951	 0.128049218034321 
952	 0.128212905256754 
953	 0.128396357375788 
954	 0.128619887291396 
955	 0.128860111476058 
956	 0.129087703165382 
957	 0.129319672587951 
958	 0.129547693810286 
959	 0.129706730639358 
960	 0.12994325835548 
961	 0.130193560084285 
962	 0.130409129417455 
963	 0.130675027550029 
964	 0.130827866556054 
965	 0.131007133851917 
966	 0.131316436237788 
967	 0.131597161816911 
968	 0.13189130539563 
969	 0.13218278906106 
970	 0.132446865884664 
971	 0.132668304174783 
972	 0.132948489206469 
973	 0.133205215595285 
974	 0.133390315076529 
975	 0.133711472246214 
976	 0.134039242162389 
977	 0.134345947848668 
978	 0.134631783991347 
979	 0.134874491175539 
980	 0.135168786629792 
981	 0.135475658778273 
982	 0.135742007700429 
983	 0.136026327712214 
984	 0.13636330912181 
985	 0.136732867406857 
986	 0.137091801671588 
987	 0.137403667236065 
988	 0.137706630294174 
989	 0.13801018022523 
990	 0.138313637685982 
991	 0.138613941746332 
992	 0.138987680088604 
993	 0.139369476609436 
994	 0.139685276484439 
995	 0.140015066995104 
996	 0.140432531187863 
997	 0.140809398759128 
998	 0.141071237648709 
999	 0.141578838368715 
1000	 0.142018533270053 
1001	 0.135644729405124 
1002	 0.136002927746062 
1003	 0.136359870246433 
1004	 0.136716606820599 
1005	 0.137060621424846 
1006	 0.137437710413127 
1007	 0.137836474336482 
1008	 0.138225450640643 
1009	 0.138617516954425 
1010	 0.139017067929666 
1011	 0.139423678479574 
1012	 0.139816279622007 
1013	 0.140204724783908 
1014	 0.140612031169868 
1015	 0.141012857639511 
1016	 0.141418656685982 
1017	 0.141878995079575 
1018	 0.142298185140609 
1019	 0.142681356062126 
1020	 0.143095726869169 
1021	 0.143492582369313 
1022	 0.143847365332947 
1023	 0.144261698995408 
1024	 0.14470386843481 
1025	 0.145143603439626 
1026	 0.145617058863728 
1027	 0.146065365217855 
1028	 0.146492586948882 
1029	 0.146957212395443 
1030	 0.147415444039262 
1031	 0.147898437506993 
1032	 0.148375148914854 
1033	 0.148839676661988 
1034	 0.14935349780912 
1035	 0.149871704502645 
1036	 0.150376710459261 
1037	 0.15090681579525 
1038	 0.151427745609891 
1039	 0.151914510070833 
1040	 0.152439338642192 
1041	 0.152977337511412 
1042	 0.153553530476161 
1043	 0.154163531291497 
1044	 0.154758103383056 
1045	 0.155367033641761 
1046	 0.15602202262585 
1047	 0.156630960395678 
1048	 0.157201860047898 
1049	 0.157781727569925 
1050	 0.158390584784673 
1051	 0.159047745104443 
1052	 0.159705402509369 
1053	 0.160389006001521 
1054	 0.161159555287343 
1055	 0.161845173668926 
1056	 0.162482791440283 
1057	 0.16314993702647 
1058	 0.16379985706139 
1059	 0.164439574625311 
1060	 0.165139627498907 
1061	 0.165841185037247 
1062	 0.166563586090303 
1063	 0.167279302603365 
1064	 0.16793383495587 
1065	 0.168613633166712 
1066	 0.169293565618608 
1067	 0.169969088632434 
1068	 0.170690236018295 
1069	 0.171403714810747 
1070	 0.172119388342194 
1071	 0.172841348356572 
1072	 0.17355804525794 
1073	 0.174267914580785 
1074	 0.175004243389172 
1075	 0.17571759743396 
1076	 0.176454172458163 
1077	 0.177229816739139 
1078	 0.177954423636986 
1079	 0.178701789982093 
1080	 0.179470862881936 
1081	 0.180181216977746 
1082	 0.180913094952243 
1083	 0.181655086502911 
1084	 0.182380320873328 
1085	 0.183171179248364 
1086	 0.183949774207 
1087	 0.184739661260964 
1088	 0.185532840888911 
1089	 0.186332600320276 
1090	 0.187065994233496 
1091	 0.187829867852484 
1092	 0.188606997736588 
1093	 0.189388697233681 
1094	 0.190249495512766 
1095	 0.191073799216519 
1096	 0.191909014321908 
1097	 0.192759955463335 
1098	 0.193537061324733 
1099	 0.194345257663906 
1100	 0.195168149147496 
1101	 0.195994588848716 
1102	 0.196883947705457 
1103	 0.197744004327698 
1104	 0.198597044654953 
1105	 0.199469638659578 
1106	 0.200365016425311 
1107	 0.201183882239085 
1108	 0.202045273048669 
1109	 0.202919041430303 
1110	 0.203756723236018 
1111	 0.204659804104038 
1112	 0.205547914046203 
1113	 0.206437964112641 
1114	 0.207361725888757 
1115	 0.20822454608334 
1116	 0.209107472671371 
1117	 0.210004902816929 
1118	 0.210900021726388 
1119	 0.211801648550128 
1120	 0.212707394549388 
1121	 0.21361540923424 
1122	 0.214527665395851 
1123	 0.215450961397733 
1124	 0.216323229594492 
1125	 0.217244341977184 
1126	 0.218143520328231 
1127	 0.219006388017595 
1128	 0.219942377439763 
1129	 0.220837730872729 
1130	 0.2217385264645 
1131	 0.222675549403853 
1132	 0.223539832795361 
1133	 0.224418682676134 
1134	 0.225285457627591 
1135	 0.226163622206177 
1136	 0.227063684230422 
1137	 0.227947412776139 
1138	 0.22883634951647 
1139	 0.229704038308384 
1140	 0.230576870561747 
1141	 0.231361250317702 
1142	 0.232160212841092 
1143	 0.232953874672873 
1144	 0.233736232776417 
1145	 0.234548769117748 
1146	 0.235324846580466 
1147	 0.236113515419302 
1148	 0.236903631535681 
1149	 0.237633688406897 
1150	 0.23838045743125 
1151	 0.239117912994541 
1152	 0.239847092510063 
1153	 0.240572634732915 
1154	 0.241280599365374 
1155	 0.241982861156855 
1156	 0.242669958246078 
1157	 0.243335546727352 
1158	 0.243974350261991 
1159	 0.244601855626765 
1160	 0.245212284730176 
1161	 0.245786659411691 
1162	 0.246382300853634 
1163	 0.246948221704709 
1164	 0.247504707899497 
1165	 0.248070816235857 
1166	 0.248605313414596 
1167	 0.249150573093581 
1168	 0.249683193102695 
1169	 0.250203582182937 
1170	 0.250703423152465 
1171	 0.251212671750362 
1172	 0.251711338191717 
1173	 0.252223352329041 
1174	 0.252741277499235 
1175	 0.253248286553862 
1176	 0.253752780483738 
1177	 0.254264950434857 
1178	 0.254770605529416 
1179	 0.255296883790532 
1180	 0.255796766301005 
1181	 0.256307585380502 
1182	 0.256838041560461 
1183	 0.257344452307369 
1184	 0.257889373557453 
1185	 0.258448853129413 
1186	 0.258997649004783 
1187	 0.259548552792481 
1188	 0.260091242205401 
1189	 0.260637572115297 
1190	 0.261172899221432 
1191	 0.261692928273541 
1192	 0.262211400470089 
1193	 0.262724017205854 
1194	 0.26323308036325 
1195	 0.263742518144908 
1196	 0.26425254807592 
1197	 0.264752761248066 
1198	 0.265266479742961 
1199	 0.265797559246727 
1200	 0.266275633814437 
1201	 0.266763227864681 
1202	 0.267242067752382 
1203	 0.267709810670373 
1204	 0.268220938689566 
1205	 0.268732331377145 
1206	 0.269251773123976 
1207	 0.269804686545228 
1208	 0.270371961597609 
1209	 0.270955507670475 
1210	 0.271566512408673 
1211	 0.272195101539835 
1212	 0.272853733314675 
1213	 0.273507305404326 
1214	 0.274175710184924 
1215	 0.274853725685328 
1216	 0.27554828134607 
1217	 0.276217258523839 
1218	 0.276892200115172 
1219	 0.2775630835838 
1220	 0.278196458382653 
1221	 0.278835356357688 
1222	 0.279444261540214 
1223	 0.280044168711137 
1224	 0.280634656564481 
1225	 0.281198862636585 
1226	 0.281763211160528 
1227	 0.282332287674106 
1228	 0.282877602477954 
1229	 0.283407767804083 
1230	 0.283927049708586 
1231	 0.284417906958517 
1232	 0.284929277485815 
1233	 0.285445286381848 
1234	 0.285941159294146 
1235	 0.286439578400184 
1236	 0.286930648211578 
1237	 0.287399758406558 
1238	 0.28787360740897 
1239	 0.288350287237839 
1240	 0.288825649946299 
1241	 0.289307456585613 
1242	 0.289747633954909 
1243	 0.290180219736694 
1244	 0.290610445611659 
1245	 0.291001532625734 
1246	 0.291369031550498 
1247	 0.291706003946484 
1248	 0.292008170394977 
1249	 0.292303340200056 
1250	 0.292572735769765 
1251	 0.292827843925543 
1252	 0.293069590223046 
1253	 0.293296467051171 
1254	 0.293498565427673 
1255	 0.293698136377179 
1256	 0.29387512662794 
1257	 0.294067665084022 
1258	 0.29424703977715 
1259	 0.294445993182161 
1260	 0.294659254823931 
1261	 0.294883727520279 
1262	 0.295110745837914 
1263	 0.295371676506036 
1264	 0.295623690650405 
1265	 0.295887148508473 
1266	 0.296150225680615 
1267	 0.29640932840135 
1268	 0.29668935897174 
1269	 0.296981626664765 
1270	 0.297278082287208 
1271	 0.297595430954329 
1272	 0.297898532222558 
1273	 0.29820284604703 
1274	 0.298500339537886 
1275	 0.298783024663693 
1276	 0.299078511785817 
1277	 0.299376762951227 
1278	 0.299674601080353 
1279	 0.299997041460706 
1280	 0.30028669114334 
1281	 0.30055089788019 
1282	 0.300819435085167 
1283	 0.301074735867298 
1284	 0.301322642948146 
1285	 0.30156616990098 
1286	 0.301821617957303 
1287	 0.302034274235125 
1288	 0.302218694371228 
1289	 0.302407968435929 
1290	 0.302579918253462 
1291	 0.302747517864364 
1292	 0.302916126406877 
1293	 0.30306622805198 
1294	 0.3032033196753 
1295	 0.303324698858961 
1296	 0.303419577620016 
1297	 0.303533907314554 
1298	 0.303643266205963 
1299	 0.303751291819191 
1300	 0.303888229154484 
1301	 0.303985004590013 
1302	 0.304054558818713 
1303	 0.304120750840212 
1304	 0.304158748551456 
1305	 0.304207899974869 
1306	 0.304265956695764 
1307	 0.304308777798123 
1308	 0.304345046550547 
1309	 0.304379356130245 
1310	 0.304405940018851 
1311	 0.304419045516589 
1312	 0.30443519192715 
1313	 0.304457111198302 
1314	 0.304457487820183 
1315	 0.304446659025434 
1316	 0.30442998776874 
1317	 0.304401300862151 
1318	 0.304368302215445 
1319	 0.304317465098594 
1320	 0.304289292686197 
1321	 0.30426981959474 
1322	 0.304240427155985 
1323	 0.304233307784869 
1324	 0.304194658276375 
1325	 0.30412560101481 
1326	 0.304066468753616 
1327	 0.304007664796585 
1328	 0.30393487376875 
1329	 0.303866867739999 
1330	 0.303776479893746 
1331	 0.303666126636912 
1332	 0.303546056600884 
1333	 0.303413397161014 
1334	 0.303267485627508 
1335	 0.303115218438737 
1336	 0.302948646875857 
1337	 0.302788289810651 
1338	 0.302629989119946 
1339	 0.302450002855324 
1340	 0.302265665222659 
1341	 0.302066721367359 
1342	 0.301847390368756 
1343	 0.301625619245838 
1344	 0.301409241243809 
1345	 0.301158743856005 
1346	 0.300886577491121 
1347	 0.300606636009855 
1348	 0.30030947582582 
1349	 0.299996935851905 
1350	 0.299665730254794 
1351	 0.29933384189075 
1352	 0.298976994492349 
1353	 0.298633162324752 
1354	 0.298296443625908 
1355	 0.297957981465495 
1356	 0.297605091250346 
1357	 0.297276834399357 
1358	 0.296953451208185 
1359	 0.296645703698103 
1360	 0.296356599476134 
1361	 0.296083245503433 
1362	 0.295816077566135 
1363	 0.295555983539453 
1364	 0.295301869405525 
1365	 0.295057400022721 
1366	 0.294817873183231 
1367	 0.294586991161017 
1368	 0.294351466365915 
1369	 0.294130780232444 
1370	 0.293879928813865 
1371	 0.2936222341965 
1372	 0.293346399490746 
1373	 0.293056731861337 
1374	 0.292745236555848 
1375	 0.292418222032032 
1376	 0.292070009340498 
1377	 0.291688414760837 
1378	 0.291310299575444 
1379	 0.290905239269164 
1380	 0.29052286250545 
1381	 0.290136969025992 
1382	 0.289769497045239 
1383	 0.289406081453381 
1384	 0.289071551860588 
1385	 0.288776340283246 
1386	 0.288463190126118 
1387	 0.288190808900206 
1388	 0.287874693000114 
1389	 0.287551610291796 
1390	 0.287179447574297 
1391	 0.286784375782592 
1392	 0.28632416681478 
1393	 0.285844403935731 
1394	 0.285339604910494 
1395	 0.284817226060221 
1396	 0.284263991715872 
1397	 0.283734959218012 
1398	 0.283199005595565 
1399	 0.282651612096471 
1400	 0.282127898855448 
1401	 0.281543644139627 
1402	 0.280945373405671 
1403	 0.28027044265399 
1404	 0.279569381143662 
1405	 0.278784643974886 
1406	 0.277937765019268 
1407	 0.277011734144953 
1408	 0.275998677431363 
1409	 0.274951426523038 
1410	 0.27382131591847 
1411	 0.27267633690484 
1412	 0.271454280605226 
1413	 0.270294091800164 
1414	 0.269089591727409 
1415	 0.267965002137069 
1416	 0.266873314496437 
1417	 0.265850438662846 
1418	 0.264876769912615 
1419	 0.263960134029065 
1420	 0.263133815931493 
1421	 0.262324807865074 
1422	 0.261594703177674 
1423	 0.260830721464509 
1424	 0.260109593382748 
1425	 0.259320170689077 
1426	 0.258540864705736 
1427	 0.257711169796741 
1428	 0.256806549639284 
1429	 0.255919974020242 
1430	 0.254933465580086 
1431	 0.253888377481694 
1432	 0.252761532136561 
1433	 0.251566476454852 
1434	 0.250302515343763 
1435	 0.248937128569167 
1436	 0.247567663483758 
1437	 0.246121540025294 
1438	 0.24473270625796 
1439	 0.24329255580594 
1440	 0.24196096987277 
1441	 0.240605373494185 
1442	 0.239456934107807 
1443	 0.238333907955941 
1444	 0.237514259469089 
1445	 0.236844807516521 
1446	 0.23649081870416 
1447	 0.236383592525622 
1448	 0.236543357612591 
1449	 0.23705638740757 
1450	 0.237667690116019 
1451	 0.238598863934421 
1452	 0.239502096605092 
1453	 0.240603085216258 
1454	 0.241587121303632 
1455	 0.242632937798109 
1456	 0.243550131216926 
1457	 0.244378267321857 
1458	 0.24516390622008 
1459	 0.245839131553191 
1460	 0.246524623665275 
1461	 0.247167603707899 
1462	 0.247805411514988 
1463	 0.248434805124234 
1464	 0.249052120100272 
1465	 0.249646805213266 
1466	 0.250257045351389 
1467	 0.250832931025169 
1468	 0.251373687201884 
1469	 0.251853372254736 
1470	 0.252266693720836 
1471	 0.252657463693607 
1472	 0.252990056883237 
1473	 0.253310540844038 
1474	 0.253618121196504 
1475	 0.253858873019388 
1476	 0.254062434832697 
1477	 0.254204858165218 
1478	 0.254294800331909 
1479	 0.254323700950429 
1480	 0.25429824948487 
1481	 0.254214822984062 
1482	 0.254049984422077 
1483	 0.253883382908254 
1484	 0.253648858382057 
1485	 0.253450837793634 
1486	 0.253214261611498 
1487	 0.253058165972628 
1488	 0.25289435688845 
1489	 0.252850394861996 
1490	 0.252873065180025 
1491	 0.252982718640156 
1492	 0.253175505697305 
1493	 0.253459056400252 
1494	 0.253839871713192 
1495	 0.254275174927806 
1496	 0.254817304905242 
1497	 0.255378075741755 
1498	 0.256022788264188 
1499	 0.256644295047787 
1500	 0.257311607063025 
1501	 0.257947662782452 
1502	 0.258593393017197 
1503	 0.259183846587028 
1504	 0.259761259780498 
1505	 0.260287328515325 
1506	 0.260763390303201 
1507	 0.261201334387273 
1508	 0.261603158090113 
1509	 0.261960975750081 
1510	 0.262265323199483 
1511	 0.262539950724787 
1512	 0.262769255843087 
1513	 0.262976199315109 
1514	 0.263144225057607 
1515	 0.263298100258379 
1516	 0.263420355435706 
1517	 0.263536555987655 
1518	 0.263639899281691 
1519	 0.263726742389132 
1520	 0.263792209261788 
1521	 0.26386300120478 
1522	 0.263906056034346 
1523	 0.263933312699486 
1524	 0.263948111793832 
1525	 0.263945671243362 
1526	 0.263941858000622 
1527	 0.263926788704887 
1528	 0.263905202518735 
1529	 0.263881053527783 
1530	 0.263840207144123 
1531	 0.263775524966152 
1532	 0.263735970616287 
1533	 0.263685744642063 
1534	 0.263672227482542 
1535	 0.263672732594283 
1536	 0.263710639029355 
1537	 0.263761484840731 
1538	 0.263874760263478 
1539	 0.264035442475945 
1540	 0.264222047606122 
1541	 0.264444911386597 
1542	 0.264720157859964 
1543	 0.265030327655352 
1544	 0.265386038523308 
1545	 0.265803251115726 
1546	 0.266241549114882 
1547	 0.266719996115309 
1548	 0.267210662909137 
1549	 0.267746891036156 
1550	 0.268269917151504 
1551	 0.268807132308038 
1552	 0.269333877698651 
1553	 0.269865072754209 
1554	 0.270387505811945 
1555	 0.270907669677178 
1556	 0.271414674630718 
1557	 0.271912528612094 
1558	 0.272408140171022 
1559	 0.272898661970693 
1560	 0.273374385124264 
1561	 0.273848154213956 
1562	 0.274303918929815 
1563	 0.274749820434541 
1564	 0.275166337002368 
1565	 0.275564386227884 
1566	 0.275944894277254 
1567	 0.276283597813386 
1568	 0.276638769471886 
1569	 0.276994607674899 
1570	 0.277338510091305 
1571	 0.277685939604801 
1572	 0.278011033115611 
1573	 0.278314563766497 
1574	 0.278617256466489 
1575	 0.278906023995816 
1576	 0.279194465371479 
1577	 0.279484821394199 
1578	 0.279760445885409 
1579	 0.280029856368611 
1580	 0.280284982808785 
1581	 0.280513324021362 
1582	 0.280758458177439 
1583	 0.281003275507778 
1584	 0.281246554204121 
1585	 0.281498062287902 
1586	 0.281745135944788 
1587	 0.281988260526167 
1588	 0.282225506855085 
1589	 0.282462260539737 
1590	 0.28269517717092 
1591	 0.282914294322868 
1592	 0.283143261598025 
1593	 0.28337020820526 
1594	 0.283609707447118 
1595	 0.283858253245994 
1596	 0.284108645552937 
1597	 0.284380749741826 
1598	 0.28463245388284 
1599	 0.284870814587307 
1600	 0.28511591744934 
1601	 0.285350909859796 
1602	 0.28559280748805 
1603	 0.285859294306738 
1604	 0.286094262637044 
1605	 0.286302242991308 
1606	 0.286526335645685 
1607	 0.286752153020758 
1608	 0.286959341835026 
1609	 0.287171494683066 
1610	 0.287371845217665 
1611	 0.287539618149013 
1612	 0.287718231359108 
1613	 0.287914518587871 
1614	 0.288086131334074 
1615	 0.288242705111791 
1616	 0.288395877728227 
1617	 0.288529724323919 
1618	 0.288668116629162 
1619	 0.288808570551012 
1620	 0.288942205145071 
1621	 0.289077137468507 
1622	 0.289199862287022 
1623	 0.289309135232572 
1624	 0.289419986489744 
1625	 0.289525037742512 
1626	 0.289626111039042 
1627	 0.289725054989376 
1628	 0.289822314608824 
1629	 0.289909891055534 
1630	 0.290002445266777 
1631	 0.290096904522901 
1632	 0.29019385478404 
1633	 0.290293230636905 
1634	 0.290393990826134 
1635	 0.290509220069865 
1636	 0.290600885475473 
1637	 0.290682487573325 
1638	 0.290758179981434 
1639	 0.29081438222548 
1640	 0.290873275439528 
1641	 0.290937539987251 
1642	 0.290985873724502 
1643	 0.291028586069457 
1644	 0.291055960849431 
1645	 0.291056411771028 
1646	 0.291070163946611 
1647	 0.291087749060329 
1648	 0.291092475917747 
1649	 0.291102341494768 
1650	 0.291096690283766 
1651	 0.29106898514051 
1652	 0.291039621287283 
1653	 0.291015187778778 
1654	 0.290966176350516 
1655	 0.290899329715077 
1656	 0.290825707496902 
1657	 0.290746334112248 
1658	 0.290637194383681 
1659	 0.2905122782069 
1660	 0.290366842628352 
1661	 0.290184703047799 
1662	 0.290002007865908 
1663	 0.289819712619162 
1664	 0.289604256908797 
1665	 0.289377616750523 
1666	 0.289109446398959 
1667	 0.288796516253379 
1668	 0.288481353893571 
1669	 0.288158701817923 
1670	 0.287784593588975 
1671	 0.287384630030229 
1672	 0.286949090739876 
1673	 0.286452830206745 
1674	 0.285954539722865 
1675	 0.285445232015292 
1676	 0.284914309152553 
1677	 0.284368209210571 
1678	 0.28378807232233 
1679	 0.28316676872227 
1680	 0.282543090129727 
1681	 0.281906716839513 
1682	 0.281226933804104 
1683	 0.280535093329108 
1684	 0.279816815571677 
1685	 0.279041832741133 
1686	 0.278280321636548 
1687	 0.277510924202867 
1688	 0.276719005191958 
1689	 0.275917149228484 
1690	 0.275083322222498 
1691	 0.274238630159108 
1692	 0.273373900746026 
1693	 0.272479043958498 
1694	 0.271576149028223 
1695	 0.270645718422002 
1696	 0.269696967596347 
1697	 0.268737460942513 
1698	 0.267746753346415 
1699	 0.266738979032963 
1700	 0.265725611374904 
1701	 0.264673437537284 
1702	 0.263651322483809 
1703	 0.262604322249648 
1704	 0.26163204652596 
1705	 0.260687310560108 
1706	 0.25975280147025 
1707	 0.258921581285998 
1708	 0.258059563554914 
1709	 0.257254139468619 
1710	 0.256496746274697 
1711	 0.255675929042157 
1712	 0.254876727616574 
1713	 0.254053020941159 
1714	 0.253197881849402 
1715	 0.252396684391024 
1716	 0.251568312538394 
1717	 0.250761880869788 
1718	 0.249999034500673 
1719	 0.24918866961705 
1720	 0.248400707432516 
1721	 0.247626992639563 
1722	 0.246861022321827 
1723	 0.2461978549081 
1724	 0.245596234842688 
1725	 0.245049453898203 
1726	 0.244569504197905 
1727	 0.244108926938786 
1728	 0.243726791997267 
1729	 0.243427738647772 
1730	 0.243166320969997 
1731	 0.242968260002225 
1732	 0.24280188685229 
1733	 0.242613946687824 
1734	 0.242439018284987 
1735	 0.242260531654363 
1736	 0.242071505191036 
1737	 0.241873139634218 
1738	 0.241678126568959 
1739	 0.241448089632889 
1740	 0.241169090227376 
1741	 0.240905068736511 
1742	 0.240613403456968 
1743	 0.24034580440658 
1744	 0.240066498207351 
1745	 0.239834003476619 
1746	 0.239627153136152 
1747	 0.239472690474273 
1748	 0.239348961177523 
1749	 0.239295015739232 
1750	 0.239284369533784 
1751	 0.239347851977323 
1752	 0.239477824564768 
1753	 0.239677681360492 
1754	 0.239961056781315 
1755	 0.240270630656909 
1756	 0.24064637400732 
1757	 0.241034889588638 
1758	 0.241487491522154 
1759	 0.24195510240912 
1760	 0.242469466695566 
1761	 0.243045730234056 
1762	 0.243600773756586 
1763	 0.244193830630707 
1764	 0.244797955128412 
1765	 0.245372012499794 
1766	 0.245962531804782 
1767	 0.246519724360736 
1768	 0.247072920655903 
1769	 0.247623802842227 
1770	 0.248133329619199 
1771	 0.248650684399652 
1772	 0.249141751082992 
1773	 0.249603222589575 
1774	 0.250086471852013 
1775	 0.250521747217376 
1776	 0.250936109087666 
1777	 0.251365561031896 
1778	 0.251743398990263 
1779	 0.252124087054328 
1780	 0.252514302912766 
1781	 0.252866810317226 
1782	 0.253238989408246 
1783	 0.253617140323298 
1784	 0.254021069793128 
1785	 0.254451217764559 
1786	 0.254869548969214 
1787	 0.25531895809117 
1788	 0.255732278979784 
1789	 0.256133393425837 
1790	 0.256538685011242 
1791	 0.256914810830762 
1792	 0.257304506460185 
1793	 0.257711681290693 
1794	 0.25806420956362 
1795	 0.258418434712426 
1796	 0.258764711935788 
1797	 0.259112131082045 
1798	 0.259463413465611 
1799	 0.259814695197713 
1800	 0.260152703205946 
1801	 0.271320866934048 
1802	 0.271939689935923 
1803	 0.272493329806765 
1804	 0.272991672090318 
1805	 0.273479472251486 
1806	 0.273903377836805 
1807	 0.274272263597639 
1808	 0.274628307437179 
1809	 0.274939277313833 
1810	 0.27523495737291 
1811	 0.275502299002967 
1812	 0.275760390869758 
1813	 0.275980890233411 
1814	 0.276210797761019 
1815	 0.276447204697744 
1816	 0.276689752268382 
1817	 0.276919747297307 
1818	 0.277151553555749 
1819	 0.277371337525753 
1820	 0.27757936468074 
1821	 0.277781982398211 
1822	 0.277969963757841 
1823	 0.278179986296508 
1824	 0.278371828250198 
1825	 0.278552106378159 
1826	 0.278737521240293 
1827	 0.278933272668729 
1828	 0.279097147835201 
1829	 0.279244563977193 
1830	 0.279396238553121 
1831	 0.279545410034776 
1832	 0.279674656785865 
1833	 0.279772035678555 
1834	 0.279878262580586 
1835	 0.279964591451554 
1836	 0.280037749697488 
1837	 0.2801265289492 
1838	 0.280228076990202 
1839	 0.280329438989927 
1840	 0.280438486829163 
1841	 0.280534632910352 
1842	 0.280642398729041 
1843	 0.280732827245789 
1844	 0.280802495979848 
1845	 0.280843366545457 
1846	 0.280850220248447 
1847	 0.280842703112213 
1848	 0.280800510569673 
1849	 0.280735421735415 
1850	 0.280617863681062 
1851	 0.28047231602632 
1852	 0.280278670426258 
1853	 0.280024642939383 
1854	 0.279749161737954 
1855	 0.279429336398934 
1856	 0.27907264265673 
1857	 0.278671833486082 
1858	 0.278208714776207 
1859	 0.277706285632728 
1860	 0.277173214847816 
1861	 0.276550930019324 
1862	 0.275864507971685 
1863	 0.2751439763766 
1864	 0.274320668029134 
1865	 0.273465212291334 
1866	 0.27254822361411 
1867	 0.271522194958257 
1868	 0.270451185882819 
1869	 0.269312247303231 
1870	 0.268158861047689 
1871	 0.266966423057774 
1872	 0.265785356261405 
1873	 0.264588673241939 
1874	 0.263393759055648 
1875	 0.262201358786311 
1876	 0.260864660032953 
1877	 0.259549779761916 
1878	 0.258142815111643 
1879	 0.256609125330887 
1880	 0.255132060928748 
1881	 0.253551733247494 
1882	 0.251871915585254 
1883	 0.250166730338606 
1884	 0.248418317806378 
1885	 0.246488749672614 
1886	 0.244578358782794 
1887	 0.242555081621156 
1888	 0.240435817053288 
1889	 0.23844882471091 
1890	 0.236355876995037 
1891	 0.234255579535616 
1892	 0.232194242543041 
1893	 0.230035931312448 
1894	 0.227770012736145 
1895	 0.225566774656738 
1896	 0.223306867604498 
1897	 0.220980770735462 
1898	 0.218809364105243 
1899	 0.216560889557592 
1900	 0.21435027308445 
1901	 0.212206639409428 
1902	 0.209944163565786 
1903	 0.207801965559563 
1904	 0.205656991598567 
1905	 0.203503924933711 
1906	 0.201366971348997 
1907	 0.199424575704124 
1908	 0.197411255865538 
1909	 0.195452145046655 
1910	 0.193585782996207 
1911	 0.191587531801125 
1912	 0.189651742018892 
1913	 0.187703639355119 
1914	 0.185696311259166 
1915	 0.183762042562817 
1916	 0.181895866855978 
1917	 0.179959556363498 
1918	 0.178064752951107 
1919	 0.176192713396006 
1920	 0.174161106917103 
1921	 0.172181795541088 
1922	 0.170134468505871 
1923	 0.167991553317791 
1924	 0.166006045467856 
1925	 0.163952600650772 
1926	 0.161921271011635 
1927	 0.159927856966273 
1928	 0.15792742417029 
1929	 0.155866357601162 
1930	 0.153928302322825 
1931	 0.152024636354946 
1932	 0.150174437469043 
1933	 0.1485827191473 
1934	 0.147069491375323 
1935	 0.145698157146737 
1936	 0.144537687762749 
1937	 0.143488693085954 
1938	 0.142545915055278 
1939	 0.141806197267815 
1940	 0.141221516456566 
1941	 0.14081065557141 
1942	 0.140596502085504 
1943	 0.14049632090822 
1944	 0.140533449832869 
1945	 0.14072959922491 
1946	 0.141088828739459 
1947	 0.141563511116911 
1948	 0.142234917575421 
1949	 0.143098027007609 
1950	 0.144073395337509 
1951	 0.145200667518836 
1952	 0.146484005210226 
1953	 0.147903725041626 
1954	 0.149482112185384 
1955	 0.151257287651687 
1956	 0.153047560676348 
1957	 0.154872544183096 
1958	 0.156696793790846 
1959	 0.158322182119024 
1960	 0.159847878302451 
1961	 0.161220105224327 
1962	 0.16243215408444 
1963	 0.163513214753283 
1964	 0.164454515906652 
1965	 0.165266975240667 
1966	 0.165933708963266 
1967	 0.166492343578039 
1968	 0.166932212068833 
1969	 0.167365190659919 
1970	 0.167758176521321 
1971	 0.168154671107875 
1972	 0.168611888827788 
1973	 0.169078562739852 
1974	 0.169600618627325 
1975	 0.170190052640038 
1976	 0.170789975210716 
1977	 0.171409753735111 
1978	 0.172081652438555 
1979	 0.172790262792068 
1980	 0.173518625449805 
1981	 0.174336487073795 
1982	 0.175141576599604 
1983	 0.176004392628854 
1984	 0.176925083019537 
1985	 0.177852328575538 
1986	 0.17888872580608 
1987	 0.180017067017443 
1988	 0.181166316165471 
1989	 0.182527569088621 
1990	 0.184026880848802 
1991	 0.18564611915385 
1992	 0.187431696281031 
1993	 0.1893735019239 
1994	 0.191266256710585 
1995	 0.193325480883875 
1996	 0.195406512065594 
1997	 0.197484555603526 
1998	 0.199641767313869 
1999	 0.201930442958332 
2000	 0.20407327112853 
2001	 0.206306904926803 
2002	 0.208323715472906 
2003	 0.210209887605569 
2004	 0.21203535905108 
2005	 0.213703696622184 
2006	 0.215354078850864 
2007	 0.216993788379144 
2008	 0.21848821349778 
2009	 0.219921358140573 
2010	 0.22128936988883 
2011	 0.222464124839473 
2012	 0.223604756629128 
2013	 0.224664694187107 
2014	 0.225604001036406 
2015	 0.226535931353725 
2016	 0.227429542161829 
2017	 0.228243001328534 
2018	 0.229030464637533 
2019	 0.229718092408174 
2020	 0.230298868808435 
2021	 0.23083840997776 
2022	 0.231320789013614 
2023	 0.231723579200976 
2024	 0.232116019064007 
2025	 0.232463151288168 
2026	 0.232766601594218 
2027	 0.233028942110903 
2028	 0.233251614618195 
2029	 0.23341333564983 
2030	 0.233567853806617 
2031	 0.233672560787407 
2032	 0.233784172703097 
2033	 0.233873280931821 
2034	 0.233963636686156 
2035	 0.234039310871303 
2036	 0.23413723029121 
2037	 0.23421247722823 
2038	 0.234299377349495 
2039	 0.234390781483544 
2040	 0.234473223080467 
2041	 0.234590450734335 
2042	 0.234722044109854 
2043	 0.234870264063169 
2044	 0.235057581010927 
2045	 0.235227849937142 
2046	 0.235401744632182 
2047	 0.235579143921594 
2048	 0.235754333975086 
2049	 0.235935331387491 
2050	 0.23612294135407 
2051	 0.23631370809944 
2052	 0.236520248332891 
2053	 0.236700730056951 
2054	 0.236867097871855 
2055	 0.237024554024869 
2056	 0.237171747324422 
2057	 0.237289348669902 
2058	 0.237426711423278 
2059	 0.237565563279193 
2060	 0.237703497086413 
2061	 0.237845102269273 
2062	 0.237981937029933 
2063	 0.238119013634036 
2064	 0.238253767916737 
2065	 0.23837014871944 
2066	 0.238503555360637 
2067	 0.238682889079422 
2068	 0.238859570678927 
2069	 0.239046155538956 
2070	 0.23928386381765 
2071	 0.239466413180691 
2072	 0.239636161782698 
2073	 0.239774443539739 
2074	 0.239869460738298 
2075	 0.239987913234303 
2076	 0.240104865197922 
2077	 0.240196843988026 
2078	 0.240310133348265 
2079	 0.240373368157221 
2080	 0.240383499552213 
2081	 0.240390751685976 
2082	 0.240377441431888 
2083	 0.240351804246844 
2084	 0.240312929847054 
2085	 0.240241198228316 
2086	 0.240156618115638 
2087	 0.24004743654454 
2088	 0.239929849469521 
2089	 0.239796088967031 
2090	 0.239649658289046 
2091	 0.239491687914253 
2092	 0.239314838020064 
2093	 0.239119968512002 
2094	 0.238912752700005 
2095	 0.238676771737742 
2096	 0.238448646227386 
2097	 0.238227096662908 
2098	 0.237980803136957 
2099	 0.23770651525365 
2100	 0.237440264700771 
2101	 0.237158508262388 
2102	 0.236851284145839 
2103	 0.236544851996283 
2104	 0.236241386908503 
2105	 0.235919286315638 
2106	 0.235571654066897 
2107	 0.235233796229789 
2108	 0.234906251599138 
2109	 0.234551091659312 
2110	 0.234191233750298 
2111	 0.23380914738452 
2112	 0.23338362447749 
2113	 0.232978457780033 
2114	 0.232569486233715 
2115	 0.232157086174503 
2116	 0.231751177580333 
2117	 0.231345406317406 
2118	 0.230928653681142 
2119	 0.230504977446132 
2120	 0.230078297401967 
2121	 0.229634720269839 
2122	 0.229217172262718 
2123	 0.22881147287863 
2124	 0.228390952803906 
2125	 0.227989653174979 
2126	 0.227563547926515 
2127	 0.227099682629163 
2128	 0.22666570696112 
2129	 0.226231275033425 
2130	 0.22580929870671 
2131	 0.225410597992736 
2132	 0.225005083464214 
2133	 0.224607544098194 
2134	 0.224212336548793 
2135	 0.223774263700584 
2136	 0.223351450837581 
2137	 0.222908539067277 
2138	 0.222434081709964 
2139	 0.221981785224592 
2140	 0.221537802463576 
2141	 0.221082409615118 
2142	 0.220631869121603 
2143	 0.220164886531851 
2144	 0.219685698702832 
2145	 0.219207021347998 
2146	 0.218723477423997 
2147	 0.218228764316534 
2148	 0.217723287786029 
2149	 0.217220576238715 
2150	 0.216728816877099 
2151	 0.216201207874221 
2152	 0.215637835604512 
2153	 0.215108217244356 
2154	 0.214542189118644 
2155	 0.213968732151829 
2156	 0.213429992809856 
2157	 0.212924997870255 
2158	 0.212388604605443 
2159	 0.211865659404828 
2160	 0.211309231700014 
2161	 0.210717583107455 
2162	 0.210154148911771 
2163	 0.209557700875947 
2164	 0.209022212469501 
2165	 0.208527053701517 
2166	 0.208037678785076 
2167	 0.207588366672601 
2168	 0.207131771305641 
2169	 0.206655077524075 
2170	 0.206229033541446 
2171	 0.20581870593555 
2172	 0.205444370804467 
2173	 0.205121126811696 
2174	 0.204809594170608 
2175	 0.204516936782028 
2176	 0.204254364619766 
2177	 0.204015578406787 
2178	 0.203804899325633 
2179	 0.203613659306725 
2180	 0.203446896567384 
2181	 0.20330174475678 
2182	 0.203186287371174 
2183	 0.203070437848955 
2184	 0.202993003720562 
2185	 0.2028806759781 
2186	 0.20275896439596 
2187	 0.202637557291557 
2188	 0.202516188173572 
2189	 0.202368083504036 
2190	 0.20221501567907 
2191	 0.202041287721745 
2192	 0.201845114576784 
2193	 0.201627879182193 
2194	 0.201413071315312 
2195	 0.201151909782638 
2196	 0.200845629455909 
2197	 0.200512072161879 
2198	 0.200182141285527 
2199	 0.19982070465068 
2200	 0.199474476012435 
2201	 0.199146140337937 
2202	 0.198768700433242 
2203	 0.198364902361929 
2204	 0.197961247489619 
2205	 0.197502333594655 
2206	 0.197119259555113 
2207	 0.196751303180326 
2208	 0.196424166479519 
2209	 0.196152096971182 
2210	 0.195878493787433 
2211	 0.195605958916768 
2212	 0.195395819837175 
2213	 0.195196661534392 
2214	 0.19506914878722 
2215	 0.195023396199012 
2216	 0.194994466840692 
2217	 0.195003272101461 
2218	 0.195059396860228 
2219	 0.195145687963432 
2220	 0.195282243021879 
2221	 0.195465625037015 
2222	 0.195723104450246 
2223	 0.195984430056324 
2224	 0.196265715235117 
2225	 0.196529113869783 
2226	 0.196791802162076 
2227	 0.197028873182369 
2228	 0.197277912165432 
2229	 0.197431290085309 
2230	 0.197560832974442 
2231	 0.19758540976344 
2232	 0.197530431963034 
2233	 0.197406445811787 
2234	 0.197219825199918 
2235	 0.196931010700985 
2236	 0.196555799721733 
2237	 0.19609273605754 
2238	 0.195520463405912 
2239	 0.194885969781577 
2240	 0.194156329200518 
2241	 0.193377697244709 
2242	 0.192552345931734 
2243	 0.191618468118714 
2244	 0.190580159512678 
2245	 0.189510322333204 
2246	 0.188300003198292 
2247	 0.18712469446284 
2248	 0.185924150580558 
2249	 0.184725734707708 
2250	 0.183515163372028 
2251	 0.182327815086225 
2252	 0.181081172738672 
2253	 0.179917184264248 
2254	 0.178706681177759 
2255	 0.177499701923605 
2256	 0.176410871286347 
2257	 0.175264314373911 
2258	 0.174125983716447 
2259	 0.173043825439575 
2260	 0.171862227047825 
2261	 0.170606319193435 
2262	 0.169387757816237 
2263	 0.168096815221604 
2264	 0.166926999928368 
2265	 0.16576766287836 
2266	 0.164720357067878 
2267	 0.163778887779637 
2268	 0.162876478013597 
2269	 0.162011748842919 
2270	 0.161290478109128 
2271	 0.160640053389251 
2272	 0.160117131749621 
2273	 0.159807174993146 
2274	 0.1594457982187 
2275	 0.159173807085815 
2276	 0.158869756568714 
2277	 0.15859846340248 
2278	 0.158270827920251 
2279	 0.157931629124117 
2280	 0.157553553720416 
2281	 0.15712860819482 
2282	 0.156663355455371 
2283	 0.156173921075584 
2284	 0.155652781728609 
2285	 0.155030083816198 
2286	 0.154401199900036 
2287	 0.153741266931112 
2288	 0.153033293355836 
2289	 0.152315778884642 
2290	 0.151569633805703 
2291	 0.150828717487909 
2292	 0.150062308190573 
2293	 0.149288842083396 
2294	 0.148574111171074 
2295	 0.147887027015984 
2296	 0.147266459680892 
2297	 0.146768615853652 
2298	 0.146382103524643 
2299	 0.146065194613806 
2300	 0.145839677120069 
2301	 0.145729814991367 
2302	 0.145697329621228 
2303	 0.145817360793881 
2304	 0.146090007592876 
2305	 0.146439114857978 
2306	 0.146927052552505 
2307	 0.147488461387615 
2308	 0.148127800486846 
2309	 0.148882146717162 
2310	 0.149801065471383 
2311	 0.150699595834586 
2312	 0.151727273611523 
2313	 0.152696398644962 
2314	 0.153661866949979 
2315	 0.154620477607254 
2316	 0.155621401037423 
2317	 0.156505674377811 
2318	 0.157383310917013 
2319	 0.158115467500638 
2320	 0.158759436474896 
2321	 0.159261258699007 
2322	 0.159606339724064 
2323	 0.15989260946679 
2324	 0.160038713577902 
2325	 0.160133128661833 
2326	 0.160176592198293 
2327	 0.160107602633165 
2328	 0.159912061031009 
2329	 0.159671125088054 
2330	 0.159359582057799 
2331	 0.158938855911379 
2332	 0.158469978295384 
2333	 0.15791425009028 
2334	 0.157181380773742 
2335	 0.156419139707283 
2336	 0.155609041433183 
2337	 0.15473129956404 
2338	 0.153929137950753 
2339	 0.153072877115148 
2340	 0.152242467426976 
2341	 0.151491602686523 
2342	 0.150717446613603 
2343	 0.150086038018955 
2344	 0.149551500310927 
2345	 0.149072493193941 
2346	 0.148786054440786 
2347	 0.148637395375984 
2348	 0.148585875421696 
2349	 0.148711956431572 
2350	 0.148945659936049 
2351	 0.149314084950877 
2352	 0.149764275773022 
2353	 0.150203214823034 
2354	 0.150623651462649 
2355	 0.150963470664035 
2356	 0.15118124195208 
2357	 0.151319930121163 
2358	 0.151407810507585 
2359	 0.151400350979509 
2360	 0.151359458872172 
2361	 0.151270091321709 
2362	 0.151097107892514 
2363	 0.150846967489924 
2364	 0.15056457095707 
2365	 0.150238669618129 
2366	 0.14985535464755 
2367	 0.149502778759701 
2368	 0.149152883163595 
2369	 0.148767310954949 
2370	 0.148367519663829 
2371	 0.147952986717165 
2372	 0.147519729499239 
2373	 0.147098283317956 
2374	 0.146731224803118 
2375	 0.146344798297657 
2376	 0.145910355693202 
2377	 0.145448523718025 
2378	 0.144944401498012 
2379	 0.144466603481439 
2380	 0.143993804128925 
2381	 0.143520427006731 
2382	 0.143006909956539 
2383	 0.142463760932626 
2384	 0.141901619167492 
2385	 0.141275781440627 
2386	 0.140709612791417 
2387	 0.14014954040259 
2388	 0.139613838250288 
2389	 0.139189502585723 
2390	 0.138570296869953 
2391	 0.137840780364388 
2392	 0.137209570285014 
2393	 0.136470723179218 
2394	 0.135843687326427 
2395	 0.135372205909845 
2396	 0.134764455975528 
2397	 0.134131852991805 
2398	 0.133458499512862 
2399	 0.132719967314014 
2400	 0.132029414112916 
2401	 0.131276509091195 
2402	 0.13064385540731 
2403	 0.130045446438433 
2404	 0.129487926818025 
2405	 0.128979073018993 
2406	 0.128385004283655 
2407	 0.127800791153754 
2408	 0.127257113915686 
2409	 0.126690548323177 
2410	 0.12627590381288 
2411	 0.125912099943159 
2412	 0.125424179548006 
2413	 0.125002289844619 
2414	 0.124614488998303 
2415	 0.124177423889686 
2416	 0.123837365447053 
2417	 0.123496712901524 
2418	 0.123062184813957 
2419	 0.122727252556702 
2420	 0.122499414293626 
2421	 0.122298293698451 
2422	 0.122171108351366 
2423	 0.12203213357489 
2424	 0.12177505085955 
2425	 0.121567835064012 
2426	 0.12138574088741 
2427	 0.121131122810105 
2428	 0.12100014252957 
2429	 0.120834519529836 
2430	 0.120637914757337 
2431	 0.120488125322637 
2432	 0.120232126998796 
2433	 0.120023689118312 
2434	 0.11982287848476 
2435	 0.119661242594473 
2436	 0.119569709356383 
2437	 0.119393520721809 
2438	 0.119215908458894 
2439	 0.119023360083117 
2440	 0.118861322425135 
2441	 0.118811122025505 
2442	 0.118823410927887 
2443	 0.118762694067063 
2444	 0.118509409273381 
2445	 0.118287929437134 
2446	 0.118066631127357 
2447	 0.117813163543723 
2448	 0.117711736950964 
2449	 0.1175515742627 
2450	 0.117297529828434 
2451	 0.117056392899799 
2452	 0.116786786514456 
2453	 0.116578619899329 
2454	 0.116432715570144 
2455	 0.116223974881377 
2456	 0.115978003046187 
2457	 0.115744262135132 
2458	 0.11544057381099 
2459	 0.115120559816577 
2460	 0.114887817924896 
2461	 0.114614756688394 
2462	 0.114306805780027 
2463	 0.114086113850575 
2464	 0.113794066433199 
2465	 0.113414463629005 
2466	 0.11314016513296 
2467	 0.112868033596195 
2468	 0.112502908646913 
2469	 0.112124449452941 
2470	 0.111729410640364 
2471	 0.111277610605558 
2472	 0.110934822686163 
2473	 0.110687878314513 
2474	 0.110393271471883 
2475	 0.110187060790865 
2476	 0.110144787958959 
2477	 0.110147200331591 
2478	 0.109976069559318 
2479	 0.109873184008396 
2480	 0.109632065312708 
2481	 0.109536271709834 
2482	 0.109744628856699 
2483	 0.109501840711801 
2484	 0.109592126935678 
2485	 0.109595606029449 
2486	 0.109651091046452 
2487	 0.10991063197787 
2488	 0.109773508493529 
2489	 0.109739816691673 
2490	 0.109940926514165 
2491	 0.109910176098968 
2492	 0.11002388402384 
2493	 0.11024535532241 
2494	 0.110373477387289 
2495	 0.110300105103784 
2496	 0.110108546232238 
2497	 0.110169262801672 
2498	 0.11025232166893 
2499	 0.110434427336603 
2500	 0.111107988742688 
