Wavelength	spectrum00025.asd
350	 7.13399527820204E-02 
351	 6.75851889221653E-02 
352	 6.25915980964515E-02 
353	 0.059449030203705 
354	 6.02735523684154E-02 
355	 5.92443502392864E-02 
356	 5.69511960356715E-02 
357	 5.49384388760381E-02 
358	 5.26406251062579E-02 
359	 5.10098347352086E-02 
360	 0.04990950280639 
361	 4.87549563128825E-02 
362	 4.86623074108544E-02 
363	 4.72802639504784E-02 
364	 0.044867116109659 
365	 4.54176991732621E-02 
366	 4.52036829749977E-02 
367	 0.044219434348315 
368	 4.32936497550117E-02 
369	 4.27307399114132E-02 
370	 0.043358966821376 
371	 4.39041066390458E-02 
372	 4.23368929861516E-02 
373	 4.11740732058186E-02 
374	 4.07075152016191E-02 
375	 4.08152833350405E-02 
376	 4.12001038046549E-02 
377	 4.11219972070681E-02 
378	 4.03735887162707E-02 
379	 3.92888902108236E-02 
380	 3.93057775138155E-02 
381	 3.97783840547528E-02 
382	 3.95063254930495E-02 
383	 3.74977970414737E-02 
384	 3.75228961852067E-02 
385	 3.78375628451821E-02 
386	 3.72440573924098E-02 
387	 3.63722802839422E-02 
388	 3.54124085941735E-02 
389	 3.51000862165346E-02 
390	 3.56489025094021E-02 
391	 3.50747354290561E-02 
392	 3.43074412697148E-02 
393	 3.38203166667922E-02 
394	 3.36720290938824E-02 
395	 3.34596201721013E-02 
396	 3.31920924677689E-02 
397	 3.29114457042004E-02 
398	 3.26136061974419E-02 
399	 3.22629514574111E-02 
400	 3.17296698203635E-02 
401	 3.09806354125919E-02 
402	 3.03679253428556E-02 
403	 3.04168874591086E-02 
404	 3.06566269170052E-02 
405	 3.00340886948318E-02 
406	 3.01869852979738E-02 
407	 2.98775966119571E-02 
408	 2.86815768846788E-02 
409	 2.85362343933664E-02 
410	 2.82220969859942E-02 
411	 2.78339311141646E-02 
412	 2.77413106550075E-02 
413	 2.75837875784732E-02 
414	 2.70535034294082E-02 
415	 2.65057935771242E-02 
416	 2.67975677918872E-02 
417	 0.026781785572258 
418	 2.66365794061581E-02 
419	 2.65457507413591E-02 
420	 0.026062157858008 
421	 2.59156091238823E-02 
422	 2.60186715758942E-02 
423	 2.59794757009146E-02 
424	 2.59052074967839E-02 
425	 2.57290441875852E-02 
426	 2.55665373892405E-02 
427	 2.57417082135885E-02 
428	 2.56617819766448E-02 
429	 2.55046880519501E-02 
430	 2.54703500457847E-02 
431	 2.52245118982775E-02 
432	 2.52665554606234E-02 
433	 2.55254476338233E-02 
434	 2.56206456751073E-02 
435	 2.55864197432075E-02 
436	 0.025583071938183 
437	 0.025696957459643 
438	 0.02588377837817 
439	 2.59860392293353E-02 
440	 2.60326503604458E-02 
441	 2.61206903572506E-02 
442	 2.63594270290502E-02 
443	 2.65999486872267E-02 
444	 2.68035919849268E-02 
445	 2.70309859831871E-02 
446	 2.73344690864047E-02 
447	 2.75645591123289E-02 
448	 2.77158340873312E-02 
449	 2.81819489913579E-02 
450	 2.86440607087403E-02 
451	 2.90413730897947E-02 
452	 2.94144357684533E-02 
453	 2.97720371652123E-02 
454	 3.02326575637409E-02 
455	 3.07932048714456E-02 
456	 3.13140318332476E-02 
457	 3.18656281222671E-02 
458	 3.24520791302421E-02 
459	 3.30997685086562E-02 
460	 3.39587345099877E-02 
461	 3.47522473225415E-02 
462	 3.54947900059626E-02 
463	 3.63587278160971E-02 
464	 3.72889929406649E-02 
465	 3.83036825356661E-02 
466	 0.039373810423681 
467	 4.03842934328976E-02 
468	 4.15603481393804E-02 
469	 4.27860652434909E-02 
470	 4.39803024421811E-02 
471	 4.56672468605885E-02 
472	 4.71743327056924E-02 
473	 4.85024516683319E-02 
474	 5.01831699290763E-02 
475	 5.17942551847571E-02 
476	 5.35030749993375E-02 
477	 5.54087225381412E-02 
478	 0.05724814543635 
479	 0.059230690506809 
480	 6.13674144398337E-02 
481	 6.35812217066299E-02 
482	 6.57595263217725E-02 
483	 6.81113190410632E-02 
484	 7.06310928425105E-02 
485	 7.30449939805353E-02 
486	 7.56966352935871E-02 
487	 0.078422417461332 
488	 8.10614547148984E-02 
489	 8.38331365843158E-02 
490	 8.67395405093106E-02 
491	 8.97597983228288E-02 
492	 9.28455546066572E-02 
493	 9.58391874638231E-02 
494	 9.89481600204683E-02 
495	 0.102237162549054 
496	 0.10545939868776 
497	 0.108742427516365 
498	 0.112075537475181 
499	 0.115422481803915 
500	 0.118859308742681 
501	 0.122253383645072 
502	 0.125638448313306 
503	 0.12919035804468 
504	 0.132779234621184 
505	 0.13628760348016 
506	 0.139694349877293 
507	 0.143180331208716 
508	 0.146747263376853 
509	 0.150344240319653 
510	 0.153895768363198 
511	 0.157399369124211 
512	 0.16091368731578 
513	 0.164439436662118 
514	 0.167908998709729 
515	 0.171375176036509 
516	 0.174830315239468 
517	 0.178262480145077 
518	 0.181697935104603 
519	 0.185095460983601 
520	 0.188462000556186 
521	 0.191832651037946 
522	 0.195189010611188 
523	 0.198448020055601 
524	 0.201615455326608 
525	 0.204909074365949 
526	 0.208101703436966 
527	 0.211251183874973 
528	 0.214460397902944 
529	 0.2174688965643 
530	 0.220440645568632 
531	 0.223444491318203 
532	 0.226415853455753 
533	 0.229325450147146 
534	 0.232208337042453 
535	 0.235073997752374 
536	 0.237818373587998 
537	 0.240558704761652 
538	 0.243307968890317 
539	 0.246012767873113 
540	 0.248596704761283 
541	 0.251160546278969 
542	 0.253744711943284 
543	 0.256257593532933 
544	 0.258690050878827 
545	 0.261038594571685 
546	 0.263341342628031 
547	 0.26578390856862 
548	 0.268284841625902 
549	 0.270831920209282 
550	 0.273478050915278 
551	 0.2761577479762 
552	 0.27880168143635 
553	 0.281381285297243 
554	 0.283962723851178 
555	 0.286497932326894 
556	 0.289013959849809 
557	 0.291550843046407 
558	 0.293979134099226 
559	 0.296324633543219 
560	 0.298622684009681 
561	 0.300899000511906 
562	 0.303078119149603 
563	 0.305026916587899 
564	 0.306678809270269 
565	 0.308232592644605 
566	 0.309818568129827 
567	 0.311456766797913 
568	 0.313102080116795 
569	 0.31503888238158 
570	 0.317251923633786 
571	 0.319646373598913 
572	 0.322101893295744 
573	 0.324450079773126 
574	 0.326534777865356 
575	 0.328239661731249 
576	 0.329568494315505 
577	 0.330520456321843 
578	 0.331238016512065 
579	 0.332015365463537 
580	 0.333064177606156 
581	 0.334401665061885 
582	 0.335956267813135 
583	 0.337596825385718 
584	 0.339330508840221 
585	 0.341126669063528 
586	 0.342913644634623 
587	 0.344438898157911 
588	 0.345869983265238 
589	 0.347363489305238 
590	 0.348961902388693 
591	 0.350582467149889 
592	 0.352276624846953 
593	 0.354104527717084 
594	 0.356010326778342 
595	 0.357752149001815 
596	 0.359271633304503 
597	 0.360680685478257 
598	 0.362086366235449 
599	 0.363406249922695 
600	 0.364609112698347 
601	 0.365868482181309 
602	 0.367132470233171 
603	 0.368407950134061 
604	 0.369714759419327 
605	 0.371021003219186 
606	 0.372366124092798 
607	 0.373707852003721 
608	 0.374896354077703 
609	 0.376091648716815 
610	 0.377255191746241 
611	 0.378345322546741 
612	 0.37946250157962 
613	 0.380624060516675 
614	 0.381792094892723 
615	 0.382900513235366 
616	 0.383977933281663 
617	 0.385070461235991 
618	 0.386189261346527 
619	 0.387286083601587 
620	 0.388338651439148 
621	 0.38935924415821 
622	 0.390375720327266 
623	 0.391416735516488 
624	 0.392439573095091 
625	 0.393441455788798 
626	 0.394457108678858 
627	 0.395413443494093 
628	 0.396364978548647 
629	 0.397346364271036 
630	 0.398277515205053 
631	 0.399205392684272 
632	 0.400149057273701 
633	 0.401102845395458 
634	 0.401989199538912 
635	 0.402883705649979 
636	 0.403795172487022 
637	 0.404631528208681 
638	 0.405469414010922 
639	 0.406361404753761 
640	 0.407300813902681 
641	 0.408110037416119 
642	 0.408945984389647 
643	 0.409826223506586 
644	 0.410678833358142 
645	 0.411477157724738 
646	 0.412265650133764 
647	 0.41308496678733 
648	 0.413958885157858 
649	 0.41471432992333 
650	 0.415406438830684 
651	 0.416144772323054 
652	 0.416924466666481 
653	 0.417710568018023 
654	 0.418470763243971 
655	 0.419188095200248 
656	 0.420024703843881 
657	 0.420837235227553 
658	 0.421525230483647 
659	 0.422167138096127 
660	 0.422944797778583 
661	 0.423760707571529 
662	 0.424451867850888 
663	 0.425164665979512 
664	 0.425922719532398 
665	 0.426674583341949 
666	 0.42731036024784 
667	 0.428014709679685 
668	 0.428746046782257 
669	 0.429436737070148 
670	 0.430063193873661 
671	 0.430801285430834 
672	 0.431594376234596 
673	 0.432288779381325 
674	 0.432883385976522 
675	 0.433549794701922 
676	 0.434285644410811 
677	 0.434867122676627 
678	 0.435523309204184 
679	 0.436199728466363 
680	 0.436831537943071 
681	 0.43753910160079 
682	 0.438214182683031 
683	 0.438846750775498 
684	 0.439478790191504 
685	 0.440069654373567 
686	 0.440736250031408 
687	 0.44147265723589 
688	 0.442084237175036 
689	 0.442662336291917 
690	 0.443251796013028 
691	 0.443868500207153 
692	 0.444461816096509 
693	 0.445052004923833 
694	 0.445646895263053 
695	 0.44624693455087 
696	 0.446863877776726 
697	 0.447525350507992 
698	 0.448199183066861 
699	 0.44876209822656 
700	 0.449257302452911 
701	 0.449793260476647 
702	 0.450445550599078 
703	 0.451103477110806 
704	 0.451678026156584 
705	 0.452191477837092 
706	 0.452736668352862 
707	 0.453244325401875 
708	 0.453802133338935 
709	 0.454420004971564 
710	 0.454947242183364 
711	 0.455490456600596 
712	 0.45605689110187 
713	 0.456618037066569 
714	 0.457120974773475 
715	 0.45766321005054 
716	 0.458211546067024 
717	 0.45865387150048 
718	 0.459118752716164 
719	 0.459660865861492 
720	 0.460247086204109 
721	 0.460718119336701 
722	 0.461159802166778 
723	 0.461617533773019 
724	 0.462118943114766 
725	 0.462667792910321 
726	 0.463235681274272 
727	 0.463741858584546 
728	 0.464102097188256 
729	 0.464557519502531 
730	 0.465063664076235 
731	 0.465571531348964 
732	 0.466095526235871 
733	 0.466584085406912 
734	 0.467020504203099 
735	 0.467440877338599 
736	 0.468032345276072 
737	 0.468561105595024 
738	 0.468984529184384 
739	 0.469396083282907 
740	 0.469820885199737 
741	 0.470196583115223 
742	 0.470551856674478 
743	 0.471068347289259 
744	 0.471471642699576 
745	 0.471795453919414 
746	 0.472144015410642 
747	 0.472544020000038 
748	 0.473009720801464 
749	 0.473477875830291 
750	 0.473858888045906 
751	 0.474240685531044 
752	 0.474605874848251 
753	 0.474979570025104 
754	 0.475451050980523 
755	 0.475894755656686 
756	 0.476291364846245 
757	 0.476661836857909 
758	 0.477055493467017 
759	 0.477473600209601 
760	 0.477879333073416 
761	 0.478229599311063 
762	 0.478566056346474 
763	 0.478955307246658 
764	 0.479373651086348 
765	 0.479708900544444 
766	 0.480060344306884 
767	 0.480456765322813 
768	 0.480876651006942 
769	 0.481211181437411 
770	 0.481586236095196 
771	 0.481975557547164 
772	 0.482322030292971 
773	 0.482716220989965 
774	 0.483061293666113 
775	 0.483375786544855 
776	 0.483766932153552 
777	 0.484135573096243 
778	 0.484568868251682 
779	 0.485039932322718 
780	 0.485287305958732 
781	 0.485550657134991 
782	 0.485885574087168 
783	 0.486278826029872 
784	 0.486683834620218 
785	 0.4870572700199 
786	 0.487405586077436 
787	 0.487756242333098 
788	 0.488042613101231 
789	 0.488360411422901 
790	 0.488729214864735 
791	 0.489064835081906 
792	 0.489433260401073 
793	 0.489797330612894 
794	 0.490124777579112 
795	 0.490446264018533 
796	 0.490737778585577 
797	 0.491042438814756 
798	 0.491393100184106 
799	 0.491647200864239 
800	 0.491948490577572 
801	 0.492326989126701 
802	 0.492712436979077 
803	 0.493087733432854 
804	 0.493404096027472 
805	 0.493676325585898 
806	 0.494012780440495 
807	 0.494351886066847 
808	 0.494697936970188 
809	 0.495045546275153 
810	 0.49531456276307 
811	 0.495568293326815 
812	 0.495846258527396 
813	 0.496169849175785 
814	 0.496529565827914 
815	 0.496887869852489 
816	 0.497190927861623 
817	 0.49738991748748 
818	 0.497621044636092 
819	 0.497914575127622 
820	 0.498241269018247 
821	 0.49850840572899 
822	 0.498784799958628 
823	 0.499079718355848 
824	 0.499380386875191 
825	 0.499660775863924 
826	 0.499902204909752 
827	 0.500159649724559 
828	 0.500487048801753 
829	 0.500734982086498 
830	 0.500913124409423 
831	 0.501116814581995 
832	 0.501472196106143 
833	 0.501698751692379 
834	 0.501888537436116 
835	 0.502125329548427 
836	 0.502390504815499 
837	 0.502648534873099 
838	 0.502863939374163 
839	 0.503015923715927 
840	 0.503090866445679 
841	 0.503362818048435 
842	 0.50376418596515 
843	 0.504090201061867 
844	 0.504282836257906 
845	 0.504396121832352 
846	 0.504527961942062 
847	 0.504775269344494 
848	 0.504999336891519 
849	 0.505234878137985 
850	 0.50550756750937 
851	 0.50580190597247 
852	 0.505999434359795 
853	 0.506189740633542 
854	 0.506451664989124 
855	 0.506751063527197 
856	 0.506946358235875 
857	 0.507059588691835 
858	 0.507189669587952 
859	 0.5074887071474 
860	 0.507727710255284 
861	 0.507911659549143 
862	 0.508155737622835 
863	 0.508420410184954 
864	 0.508603988947913 
865	 0.508728883200933 
866	 0.508920334094964 
867	 0.509146574370132 
868	 0.509434528280932 
869	 0.509710100071276 
870	 0.509771878000685 
871	 0.509888334544026 
872	 0.510091655857085 
873	 0.510336137852368 
874	 0.51053147166819 
875	 0.510753093476895 
876	 0.510952741515375 
877	 0.511111683917062 
878	 0.51146598805733 
879	 0.511667853051122 
880	 0.511720702410959 
881	 0.511805760339086 
882	 0.511989423681432 
883	 0.512176694902038 
884	 0.512298562127826 
885	 0.512342662156948 
886	 0.512472461654392 
887	 0.512700810676266 
888	 0.5129486611617 
889	 0.513068356132587 
890	 0.513127566873956 
891	 0.513154497969638 
892	 0.513204613135259 
893	 0.513381419140319 
894	 0.51357399563611 
895	 0.513734626960977 
896	 0.513855518895137 
897	 0.513988295501768 
898	 0.514032722895836 
899	 0.51411926333502 
900	 0.514357564364142 
901	 0.514476402343765 
902	 0.514574932211797 
903	 0.514649986329944 
904	 0.514675936593412 
905	 0.514776294473024 
906	 0.514990524514193 
907	 0.51525303011499 
908	 0.515450965151819 
909	 0.515704236419909 
910	 0.51592267234936 
911	 0.516065189836252 
912	 0.516170649841355 
913	 0.516334683363358 
914	 0.516565891947609 
915	 0.516846140850669 
916	 0.517141882896315 
917	 0.517355245911549 
918	 0.51750391003637 
919	 0.517658866102005 
920	 0.517931169814563 
921	 0.518099994899134 
922	 0.518248196174078 
923	 0.518468339314543 
924	 0.518657360617652 
925	 0.518951038319827 
926	 0.519252072448713 
927	 0.519460016450032 
928	 0.519727483962281 
929	 0.520032825711707 
930	 0.520338494350829 
931	 0.520595210712927 
932	 0.520739883459476 
933	 0.520943504729243 
934	 0.521235999666699 
935	 0.521546714204903 
936	 0.521781507194823 
937	 0.5219691745536 
938	 0.522146340373971 
939	 0.52235305368397 
940	 0.522663603847377 
941	 0.522904488481091 
942	 0.523048791011514 
943	 0.52321138123884 
944	 0.523387382457924 
945	 0.523547098501822 
946	 0.523665421507474 
947	 0.523744443336311 
948	 0.523968439348568 
949	 0.524202714784664 
950	 0.524373266741532 
951	 0.524539220212108 
952	 0.524570356477135 
953	 0.524571686670475 
954	 0.524637504698638 
955	 0.524773915541352 
956	 0.524948285084859 
957	 0.525010287708432 
958	 0.524962752830109 
959	 0.525090489283993 
960	 0.525215855449321 
961	 0.525360786313366 
962	 0.525525559884431 
963	 0.525587169558723 
964	 0.525588447258988 
965	 0.525569017345441 
966	 0.525589297473775 
967	 0.525748634963241 
968	 0.525879795214619 
969	 0.526000662003424 
970	 0.52612979431465 
971	 0.526144013507398 
972	 0.526177499305907 
973	 0.5262604483376 
974	 0.526364606850779 
975	 0.526396357523351 
976	 0.526520968427138 
977	 0.526674283791829 
978	 0.526738562963479 
979	 0.526669157068124 
980	 0.526710146237584 
981	 0.526813677492655 
982	 0.526868315822225 
983	 0.52692138381706 
984	 0.527000375394875 
985	 0.527073653828034 
986	 0.527127680698152 
987	 0.527282483903334 
988	 0.527447408116212 
989	 0.527587410565095 
990	 0.527698800593981 
991	 0.527802436096124 
992	 0.527913475675409 
993	 0.528057725868682 
994	 0.528265530816029 
995	 0.52858435382959 
996	 0.528851398680015 
997	 0.529062811397665 
998	 0.529278273267002 
999	 0.529530620227476 
1000	 0.529853097479988 
1001	 0.507637853542985 
1002	 0.507888273586721 
1003	 0.508183987802248 
1004	 0.508441838012232 
1005	 0.508701063485636 
1006	 0.508956174694764 
1007	 0.509186145050127 
1008	 0.509435823824582 
1009	 0.509696389024889 
1010	 0.509958763373695 
1011	 0.510216316179462 
1012	 0.510490837874596 
1013	 0.510801526539025 
1014	 0.511074977770869 
1015	 0.511347605047471 
1016	 0.511592570106377 
1017	 0.511834424250874 
1018	 0.512043248023344 
1019	 0.512306209681107 
1020	 0.512636675803193 
1021	 0.512902306358523 
1022	 0.513177527799229 
1023	 0.513423231934146 
1024	 0.513601105172143 
1025	 0.513822672916525 
1026	 0.514067584393638 
1027	 0.51430655439315 
1028	 0.514557904109779 
1029	 0.514792009520159 
1030	 0.515037662145844 
1031	 0.515257701320526 
1032	 0.515432736857186 
1033	 0.515660806242255 
1034	 0.515887400150693 
1035	 0.516061594683693 
1036	 0.516282746763548 
1037	 0.516551682574292 
1038	 0.516781937519775 
1039	 0.516986841792095 
1040	 0.517235370069665 
1041	 0.51749732899384 
1042	 0.517740249890587 
1043	 0.517995432213798 
1044	 0.518275688513199 
1045	 0.518499458470985 
1046	 0.518702011347906 
1047	 0.518893346712246 
1048	 0.519071884228902 
1049	 0.51926832169786 
1050	 0.519497924963172 
1051	 0.5197596446437 
1052	 0.520049847943294 
1053	 0.520322789765384 
1054	 0.520626253081706 
1055	 0.520858014115302 
1056	 0.521063090316729 
1057	 0.521247779121334 
1058	 0.521383223017302 
1059	 0.521517658345143 
1060	 0.521683228908817 
1061	 0.521818262815305 
1062	 0.521973066591811 
1063	 0.522139290156726 
1064	 0.522272938528845 
1065	 0.52240499973319 
1066	 0.522530692637398 
1067	 0.522644557417948 
1068	 0.52276016305398 
1069	 0.522892658241109 
1070	 0.522991828554693 
1071	 0.523076310526712 
1072	 0.523132699658829 
1073	 0.523208375047575 
1074	 0.523263762984846 
1075	 0.523338432700292 
1076	 0.523474309361704 
1077	 0.523575895099884 
1078	 0.523639010745116 
1079	 0.523703389654376 
1080	 0.523762284060553 
1081	 0.523833157918821 
1082	 0.52392299273653 
1083	 0.524009898069475 
1084	 0.524078360468906 
1085	 0.524130454053113 
1086	 0.524179335964557 
1087	 0.524222585645388 
1088	 0.524262077545459 
1089	 0.524290541012765 
1090	 0.524315046949253 
1091	 0.524345393076373 
1092	 0.524402356752974 
1093	 0.524468215020278 
1094	 0.524533214570599 
1095	 0.524562938593387 
1096	 0.524558098874403 
1097	 0.524585141044346 
1098	 0.524612217330343 
1099	 0.524640586433103 
1100	 0.524698821806044 
1101	 0.524747013871844 
1102	 0.52479533373078 
1103	 0.524842425478383 
1104	 0.524905769151456 
1105	 0.524944906332795 
1106	 0.524982452221896 
1107	 0.52502044048633 
1108	 0.525053260322022 
1109	 0.525107182944594 
1110	 0.525146828546054 
1111	 0.525190736095649 
1112	 0.525242684317009 
1113	 0.525284092184305 
1114	 0.525338877683312 
1115	 0.525384047803981 
1116	 0.525428559080848 
1117	 0.525470167737841 
1118	 0.525492356410991 
1119	 0.525495880067842 
1120	 0.525510374883249 
1121	 0.525515755774612 
1122	 0.525521451448491 
1123	 0.525533552555383 
1124	 0.525513482397826 
1125	 0.525473554379478 
1126	 0.525417599888247 
1127	 0.525351095142734 
1128	 0.525283851011481 
1129	 0.525182840235298 
1130	 0.525061522415485 
1131	 0.524926264517065 
1132	 0.524767141491622 
1133	 0.524582451583147 
1134	 0.524381781431526 
1135	 0.524155167245111 
1136	 0.523897952186639 
1137	 0.523614882338161 
1138	 0.5233233657109 
1139	 0.522987597476722 
1140	 0.522601250352828 
1141	 0.522231669252106 
1142	 0.521829186131429 
1143	 0.521388510421771 
1144	 0.520930692122302 
1145	 0.520402495590021 
1146	 0.519868162828641 
1147	 0.519294951571196 
1148	 0.518688476365261 
1149	 0.518118422005925 
1150	 0.517517978749917 
1151	 0.516906277715353 
1152	 0.516252474350967 
1153	 0.51558117921544 
1154	 0.514863015709374 
1155	 0.514114057726976 
1156	 0.513303618657584 
1157	 0.512459871314433 
1158	 0.511574711030758 
1159	 0.510619939854144 
1160	 0.509655413588158 
1161	 0.508666905984622 
1162	 0.507594126545741 
1163	 0.506523530551084 
1164	 0.505398776421377 
1165	 0.504265910805871 
1166	 0.503208085343153 
1167	 0.502102978996399 
1168	 0.50102873439975 
1169	 0.499957827573865 
1170	 0.498870520093 
1171	 0.497805104565204 
1172	 0.496747047569668 
1173	 0.495725164061056 
1174	 0.494707171141191 
1175	 0.493764997663079 
1176	 0.492863449655896 
1177	 0.492013483371328 
1178	 0.491224932615467 
1179	 0.490444354191201 
1180	 0.489741998275277 
1181	 0.48908989341601 
1182	 0.48850244293367 
1183	 0.488027706779511 
1184	 0.487608485368865 
1185	 0.487260406456046 
1186	 0.486967988024817 
1187	 0.486746957472213 
1188	 0.486555612913596 
1189	 0.486419751440906 
1190	 0.48632475953168 
1191	 0.486274980225942 
1192	 0.486265082531785 
1193	 0.486312773215977 
1194	 0.486372724264503 
1195	 0.486478104405821 
1196	 0.486584857433449 
1197	 0.486714344197896 
1198	 0.486851130910084 
1199	 0.486985652189554 
1200	 0.487113637762949 
1201	 0.487241451824657 
1202	 0.487385207871973 
1203	 0.487562799402909 
1204	 0.487789351447228 
1205	 0.488069568844 
1206	 0.488365084104276 
1207	 0.488802027883964 
1208	 0.489303730206611 
1209	 0.489914017679995 
1210	 0.490657936516776 
1211	 0.491446940140838 
1212	 0.492342961399072 
1213	 0.493258406795211 
1214	 0.494254730550706 
1215	 0.495257532145063 
1216	 0.496316994248296 
1217	 0.497340242469279 
1218	 0.498382913505514 
1219	 0.499413565691949 
1220	 0.500385706784901 
1221	 0.501391485170821 
1222	 0.502340495226666 
1223	 0.503275133897074 
1224	 0.504168322507139 
1225	 0.505027164369152 
1226	 0.505840069317494 
1227	 0.506608105454015 
1228	 0.507365247747739 
1229	 0.508089608803983 
1230	 0.508794748124718 
1231	 0.509472226283048 
1232	 0.510146139366482 
1233	 0.510790867186971 
1234	 0.511427539814227 
1235	 0.512062181169137 
1236	 0.512682773444298 
1237	 0.513273155875048 
1238	 0.513874325179393 
1239	 0.514464656438467 
1240	 0.515073534212161 
1241	 0.515700776241335 
1242	 0.516277486640088 
1243	 0.516850724371397 
1244	 0.517422340455453 
1245	 0.517958135755845 
1246	 0.518486849659977 
1247	 0.518950432543654 
1248	 0.519375599210328 
1249	 0.519770621191971 
1250	 0.520101479867482 
1251	 0.52043338713539 
1252	 0.520763251707059 
1253	 0.521043929844648 
1254	 0.521278812544518 
1255	 0.521511439150874 
1256	 0.521692498923781 
1257	 0.521902423387858 
1258	 0.522133984306221 
1259	 0.52233767856811 
1260	 0.522518053887713 
1261	 0.522717899724215 
1262	 0.522903409998933 
1263	 0.52310783733393 
1264	 0.52330910173842 
1265	 0.523531982021345 
1266	 0.523747128257091 
1267	 0.523947220768477 
1268	 0.524166517645143 
1269	 0.524405487172005 
1270	 0.524634471442601 
1271	 0.524864825629456 
1272	 0.525092880530039 
1273	 0.525320770336973 
1274	 0.525546881496117 
1275	 0.525778599336945 
1276	 0.525991702649148 
1277	 0.526196567260962 
1278	 0.526395908806433 
1279	 0.52658157247464 
1280	 0.526762257479382 
1281	 0.526951949201759 
1282	 0.527113528296556 
1283	 0.527249545213323 
1284	 0.52738243757316 
1285	 0.527503752609775 
1286	 0.527612357504743 
1287	 0.527696047876482 
1288	 0.5277681058967 
1289	 0.527826480973428 
1290	 0.52786306969859 
1291	 0.52788181639899 
1292	 0.527891387520051 
1293	 0.527883323000016 
1294	 0.527847033305173 
1295	 0.527806257829759 
1296	 0.527754371161926 
1297	 0.52769959582025 
1298	 0.527635568479663 
1299	 0.527559149779224 
1300	 0.527489128261037 
1301	 0.527389372613356 
1302	 0.52725576304852 
1303	 0.527128418984205 
1304	 0.52699560206852 
1305	 0.5268479264145 
1306	 0.526705512413463 
1307	 0.526536452079498 
1308	 0.526346067347593 
1309	 0.526136000174581 
1310	 0.525920185822746 
1311	 0.5256889368936 
1312	 0.525449585726211 
1313	 0.525198729102022 
1314	 0.524945804664942 
1315	 0.524681711848047 
1316	 0.524416951110331 
1317	 0.524153320631152 
1318	 0.523877027368429 
1319	 0.523593264530129 
1320	 0.523302355112809 
1321	 0.523017324708267 
1322	 0.522697364648621 
1323	 0.522370104693317 
1324	 0.522008170738717 
1325	 0.521594699954862 
1326	 0.521198960190815 
1327	 0.520804298047239 
1328	 0.520383132304567 
1329	 0.51997119246595 
1330	 0.519520561645965 
1331	 0.519041377560178 
1332	 0.518531765623503 
1333	 0.518017507005518 
1334	 0.517435819422368 
1335	 0.516835368371428 
1336	 0.516200589900243 
1337	 0.515539028046126 
1338	 0.514849681911705 
1339	 0.514124802769779 
1340	 0.513387679770174 
1341	 0.512570365215426 
1342	 0.51170246780899 
1343	 0.510790432197688 
1344	 0.509818085099898 
1345	 0.50880970289455 
1346	 0.507759494691923 
1347	 0.506681492984312 
1348	 0.505553289143617 
1349	 0.504408884060619 
1350	 0.503225008956211 
1351	 0.502039324577548 
1352	 0.500816032748132 
1353	 0.49960834164837 
1354	 0.498370244234221 
1355	 0.497191451590138 
1356	 0.496032621156535 
1357	 0.494898265013972 
1358	 0.493792887414745 
1359	 0.492722430608477 
1360	 0.491684868805306 
1361	 0.49065702957795 
1362	 0.48965141233482 
1363	 0.488726832588345 
1364	 0.487765428722531 
1365	 0.486826538226676 
1366	 0.48584478867874 
1367	 0.484847833105395 
1368	 0.48385400758128 
1369	 0.482849567893862 
1370	 0.48182276596732 
1371	 0.480809644920462 
1372	 0.479750563045761 
1373	 0.478660683755494 
1374	 0.477532889213877 
1375	 0.476363976736061 
1376	 0.4751819588403 
1377	 0.473952738888644 
1378	 0.47272003167234 
1379	 0.471453512833792 
1380	 0.470220956647836 
1381	 0.468958728988931 
1382	 0.467751427696869 
1383	 0.466587494015397 
1384	 0.465437023081604 
1385	 0.464345050804409 
1386	 0.463223023338259 
1387	 0.462132342375531 
1388	 0.461003310242891 
1389	 0.459870607564392 
1390	 0.458681013476737 
1391	 0.457498334660134 
1392	 0.456192524654404 
1393	 0.454878296859279 
1394	 0.453444676652938 
1395	 0.451888342685146 
1396	 0.450245290353639 
1397	 0.448477924447161 
1398	 0.446604836894327 
1399	 0.444568597081502 
1400	 0.44240470878241 
1401	 0.440113579231931 
1402	 0.437660495781443 
1403	 0.435108569017234 
1404	 0.432431355425138 
1405	 0.429706917116868 
1406	 0.426860414990332 
1407	 0.423968566413262 
1408	 0.420990955648462 
1409	 0.417998489835207 
1410	 0.41493483267154 
1411	 0.411848730145466 
1412	 0.408718051778545 
1413	 0.405627465834998 
1414	 0.402495894166831 
1415	 0.399396736052055 
1416	 0.396284450216603 
1417	 0.39325053503472 
1418	 0.390217957594675 
1419	 0.387268958748854 
1420	 0.384370718216628 
1421	 0.381606644110993 
1422	 0.378921405404286 
1423	 0.376326120702921 
1424	 0.373919976390914 
1425	 0.371453262508591 
1426	 0.369172041082597 
1427	 0.366879911243771 
1428	 0.364554838629724 
1429	 0.362374462092845 
1430	 0.360021182196363 
1431	 0.357653492212514 
1432	 0.355070776298345 
1433	 0.352388320541106 
1434	 0.349542730007224 
1435	 0.346502219903301 
1436	 0.34338953048995 
1437	 0.34009672462971 
1438	 0.336920761874324 
1439	 0.333542633614683 
1440	 0.330522517816747 
1441	 0.327460652508552 
1442	 0.324966732270729 
1443	 0.32260625791785 
1444	 0.320973560624363 
1445	 0.31979786354544 
1446	 0.319278017301878 
1447	 0.319381246132597 
1448	 0.319984769070972 
1449	 0.321361568474646 
1450	 0.322884495723347 
1451	 0.325014250594049 
1452	 0.327116477096866 
1453	 0.329599456891005 
1454	 0.331873078072825 
1455	 0.334268254993669 
1456	 0.336468550340828 
1457	 0.3385940029163 
1458	 0.340536450784638 
1459	 0.342326615589133 
1460	 0.344002498068309 
1461	 0.345488507160225 
1462	 0.34688277465193 
1463	 0.348146835837218 
1464	 0.349356967054588 
1465	 0.350423909360096 
1466	 0.351492504839409 
1467	 0.352493577817426 
1468	 0.353449618220779 
1469	 0.354399917942326 
1470	 0.355245623690909 
1471	 0.356097145386008 
1472	 0.356930434862981 
1473	 0.357705229691984 
1474	 0.358455451944783 
1475	 0.359114461173834 
1476	 0.359736437049102 
1477	 0.360226320266308 
1478	 0.360640466065008 
1479	 0.360909661741186 
1480	 0.361058762350404 
1481	 0.361102735990595 
1482	 0.360987000180876 
1483	 0.360862593240362 
1484	 0.360597674698149 
1485	 0.360422071436206 
1486	 0.360165841874726 
1487	 0.360088019504 
1488	 0.36001238683122 
1489	 0.360183095308623 
1490	 0.360472822061848 
1491	 0.360999045274558 
1492	 0.3617264274428 
1493	 0.362650819345378 
1494	 0.363815613733964 
1495	 0.365093659946508 
1496	 0.366598580991954 
1497	 0.368152466753283 
1498	 0.369902306907905 
1499	 0.371601960127033 
1500	 0.373398047934143 
1501	 0.375134639185091 
1502	 0.376906067524199 
1503	 0.378549713402106 
1504	 0.380166815055689 
1505	 0.381667373269268 
1506	 0.383077057864455 
1507	 0.384364974624095 
1508	 0.385550350063756 
1509	 0.386634087062031 
1510	 0.387573192178548 
1511	 0.38844089972109 
1512	 0.389221756798737 
1513	 0.389918150935409 
1514	 0.390510246674409 
1515	 0.391041316490369 
1516	 0.391478452570351 
1517	 0.391870353743002 
1518	 0.392190589414114 
1519	 0.392467993394808 
1520	 0.392693239115962 
1521	 0.392872995475133 
1522	 0.393002572500126 
1523	 0.393092047047472 
1524	 0.393129007697992 
1525	 0.393110465106445 
1526	 0.393073137941285 
1527	 0.3929773687361 
1528	 0.392907628764932 
1529	 0.39282334211983 
1530	 0.392738703520479 
1531	 0.392642990342444 
1532	 0.392574907431027 
1533	 0.39247720388614 
1534	 0.392489403108669 
1535	 0.392539296310698 
1536	 0.392674651397965 
1537	 0.392872407997356 
1538	 0.393170363544613 
1539	 0.393528821442564 
1540	 0.394018467487235 
1541	 0.394628394422079 
1542	 0.395308251457501 
1543	 0.396086303546345 
1544	 0.396949249111049 
1545	 0.397902725680367 
1546	 0.398927495056498 
1547	 0.400080843201775 
1548	 0.401215210795713 
1549	 0.402405828105123 
1550	 0.403603728947943 
1551	 0.40483655242883 
1552	 0.40604805772893 
1553	 0.407285991418015 
1554	 0.408495030935159 
1555	 0.409697153066692 
1556	 0.410861580722533 
1557	 0.412017047123673 
1558	 0.413132700971859 
1559	 0.414215401511345 
1560	 0.415254588136882 
1561	 0.416251433241331 
1562	 0.417237199674486 
1563	 0.418181674082409 
1564	 0.419112151519654 
1565	 0.420035775187013 
1566	 0.4209279215865 
1567	 0.421794227686214 
1568	 0.422624484821825 
1569	 0.423412360506738 
1570	 0.424206662703002 
1571	 0.424977694382166 
1572	 0.425731319920176 
1573	 0.426493298388342 
1574	 0.427215414957834 
1575	 0.427889079229647 
1576	 0.42856747357758 
1577	 0.429224809377368 
1578	 0.429886975886163 
1579	 0.430544314894078 
1580	 0.43119551514386 
1581	 0.43184820432853 
1582	 0.432487942209043 
1583	 0.433128412318258 
1584	 0.433741417977959 
1585	 0.434319344367706 
1586	 0.434918271793391 
1587	 0.435505265718911 
1588	 0.436097445671271 
1589	 0.436710972379117 
1590	 0.437310429379299 
1591	 0.437889644563402 
1592	 0.438485051722779 
1593	 0.439085867731289 
1594	 0.439691143187367 
1595	 0.440310669943744 
1596	 0.44091878815154 
1597	 0.441533362034491 
1598	 0.442129591011686 
1599	 0.442709503177427 
1600	 0.443291110951765 
1601	 0.443870901103378 
1602	 0.444433883046168 
1603	 0.444985824673085 
1604	 0.445534405316875 
1605	 0.446076545860844 
1606	 0.446599493282113 
1607	 0.447135717164368 
1608	 0.447624117537523 
1609	 0.448063746401246 
1610	 0.44850294316969 
1611	 0.448913193678719 
1612	 0.449315451467618 
1613	 0.449716488022635 
1614	 0.450095905207807 
1615	 0.450459528604048 
1616	 0.450803141619534 
1617	 0.451124339195829 
1618	 0.451437005723492 
1619	 0.451737686434684 
1620	 0.452012355279901 
1621	 0.45226847372917 
1622	 0.452509261437147 
1623	 0.452718618958502 
1624	 0.452928164728174 
1625	 0.453126196541136 
1626	 0.453321898208642 
1627	 0.45351460423637 
1628	 0.45369170674572 
1629	 0.453842561292024 
1630	 0.454018850975156 
1631	 0.454194577596108 
1632	 0.454380707485131 
1633	 0.454593967939741 
1634	 0.454798495520335 
1635	 0.455009219333181 
1636	 0.455199043062511 
1637	 0.455395629460301 
1638	 0.455561275477815 
1639	 0.455684886627104 
1640	 0.455822568086246 
1641	 0.455967532837043 
1642	 0.456075589099835 
1643	 0.456189339839957 
1644	 0.456257436669364 
1645	 0.456280097101373 
1646	 0.456276510351114 
1647	 0.456254386911889 
1648	 0.456179707540258 
1649	 0.45607552711074 
1650	 0.455908946161599 
1651	 0.455680199017409 
1652	 0.45542095454792 
1653	 0.455136101780308 
1654	 0.454762504369301 
1655	 0.454335712649812 
1656	 0.453836584779529 
1657	 0.453258941067852 
1658	 0.452601329392087 
1659	 0.451891891048877 
1660	 0.451084176099097 
1661	 0.450204307994812 
1662	 0.449189862907952 
1663	 0.448075759666486 
1664	 0.446824890700472 
1665	 0.44545098384498 
1666	 0.443920034261557 
1667	 0.442270850095528 
1668	 0.440470933570942 
1669	 0.43850271839663 
1670	 0.436409506606689 
1671	 0.434134814921688 
1672	 0.431780128291504 
1673	 0.429295504299447 
1674	 0.426720709232014 
1675	 0.424023306612561 
1676	 0.421344859729321 
1677	 0.418578251916343 
1678	 0.415807915806463 
1679	 0.413000320104591 
1680	 0.410186211640756 
1681	 0.407323168947809 
1682	 0.404479960953953 
1683	 0.401647409572911 
1684	 0.398879030642522 
1685	 0.396121537887431 
1686	 0.393396568442706 
1687	 0.390677176680877 
1688	 0.388038997960209 
1689	 0.385425053162291 
1690	 0.382895113224674 
1691	 0.380480556311202 
1692	 0.378135366447564 
1693	 0.375845561353447 
1694	 0.373628672066281 
1695	 0.371492419058382 
1696	 0.369390628964656 
1697	 0.367354137956265 
1698	 0.365324157587344 
1699	 0.363371877027823 
1700	 0.361432042082479 
1701	 0.359495976546241 
1702	 0.357603951351921 
1703	 0.355723511986323 
1704	 0.353902229685016 
1705	 0.352113880697434 
1706	 0.350352188792838 
1707	 0.348758963518551 
1708	 0.347166534507308 
1709	 0.345613045887825 
1710	 0.344154245952708 
1711	 0.342647171686053 
1712	 0.341208463416129 
1713	 0.339758260143765 
1714	 0.338251960594094 
1715	 0.33683305140339 
1716	 0.33538497015853 
1717	 0.333968494524685 
1718	 0.332591358873789 
1719	 0.331174042378538 
1720	 0.329845784330832 
1721	 0.328546932870706 
1722	 0.327301923518814 
1723	 0.32621982878915 
1724	 0.325188735871458 
1725	 0.324272693465069 
1726	 0.32349130891994 
1727	 0.322773096925632 
1728	 0.322202025973316 
1729	 0.321748012400866 
1730	 0.32142144697136 
1731	 0.321228526318072 
1732	 0.321096837947726 
1733	 0.320994146776372 
1734	 0.320928305037978 
1735	 0.320861182529741 
1736	 0.320790011747037 
1737	 0.320700945190438 
1738	 0.320570421976687 
1739	 0.320410045125825 
1740	 0.32019961678686 
1741	 0.319967842356923 
1742	 0.319690669408178 
1743	 0.319432863205703 
1744	 0.319111613615163 
1745	 0.318897551077972 
1746	 0.318704850501093 
1747	 0.318630346346673 
1748	 0.318614665587322 
1749	 0.318747079095432 
1750	 0.318991847695031 
1751	 0.31936693727094 
1752	 0.319888107271896 
1753	 0.320523811534284 
1754	 0.321281237319233 
1755	 0.322135088403143 
1756	 0.323106942070724 
1757	 0.324161222191993 
1758	 0.325391974378161 
1759	 0.326641300613544 
1760	 0.328004179928075 
1761	 0.329453005574441 
1762	 0.330838008677412 
1763	 0.332338720020833 
1764	 0.33385330946561 
1765	 0.335361181634891 
1766	 0.336997884881464 
1767	 0.338583227729486 
1768	 0.340178957296845 
1769	 0.341758552745105 
1770	 0.343195471700225 
1771	 0.344634144499146 
1772	 0.34600340014603 
1773	 0.347306768763458 
1774	 0.34864948642639 
1775	 0.349892408102494 
1776	 0.351097738941601 
1777	 0.352269137888663 
1778	 0.353317096417211 
1779	 0.354367632613305 
1780	 0.355389184527644 
1781	 0.356398649759798 
1782	 0.357444737343291 
1783	 0.358418352975711 
1784	 0.359422513874638 
1785	 0.360399728156987 
1786	 0.361347163276084 
1787	 0.362295978959597 
1788	 0.363237927543135 
1789	 0.364167285742263 
1790	 0.365088682522464 
1791	 0.366031560119014 
1792	 0.366924459867072 
1793	 0.367745464725655 
1794	 0.368567377751619 
1795	 0.369387134302944 
1796	 0.370171362299218 
1797	 0.37098422489192 
1798	 0.371731398009838 
1799	 0.372438534550403 
1800	 0.373104692944098 
1801	 0.381922419643064 
1802	 0.383066792318526 
1803	 0.384106066147707 
1804	 0.38503721021386 
1805	 0.385953915897896 
1806	 0.386765593238932 
1807	 0.387478432978527 
1808	 0.388173773234811 
1809	 0.388795305138248 
1810	 0.389389523850308 
1811	 0.389940184878432 
1812	 0.390478006913076 
1813	 0.390954452730965 
1814	 0.391460587073264 
1815	 0.391950418929539 
1816	 0.392400671889387 
1817	 0.392860969447027 
1818	 0.393300035262219 
1819	 0.393748786545282 
1820	 0.394208626910221 
1821	 0.394653017472958 
1822	 0.395085673915007 
1823	 0.395533588009503 
1824	 0.395955672375584 
1825	 0.396368825621351 
1826	 0.396780301394775 
1827	 0.39721369525225 
1828	 0.397567718587908 
1829	 0.397893967219502 
1830	 0.398198610823168 
1831	 0.398448777137682 
1832	 0.398691416285307 
1833	 0.398947374001918 
1834	 0.399187839354088 
1835	 0.399403357401046 
1836	 0.399622390228207 
1837	 0.399854629449487 
1838	 0.400084027546133 
1839	 0.400317271528921 
1840	 0.400593705156549 
1841	 0.400809257025049 
1842	 0.401011426542522 
1843	 0.401186522524067 
1844	 0.401314547576232 
1845	 0.401394338889834 
1846	 0.401409036811587 
1847	 0.401386696363023 
1848	 0.401300024254055 
1849	 0.401173371028778 
1850	 0.400947381157546 
1851	 0.400671834760746 
1852	 0.400290042610369 
1853	 0.39978323707941 
1854	 0.399222547514318 
1855	 0.398566361222486 
1856	 0.397828395986517 
1857	 0.396998274975769 
1858	 0.396001065112081 
1859	 0.394912935660988 
1860	 0.393724758741946 
1861	 0.392377475951547 
1862	 0.390888636246315 
1863	 0.389359518667082 
1864	 0.387594035521999 
1865	 0.385733316158537 
1866	 0.383732531421223 
1867	 0.381482452414297 
1868	 0.379207607592776 
1869	 0.37675382498656 
1870	 0.374241046984014 
1871	 0.371658820774779 
1872	 0.369045367022133 
1873	 0.366347960869568 
1874	 0.363640544895875 
1875	 0.360911846752025 
1876	 0.357863611234053 
1877	 0.354810139364096 
1878	 0.351558045032366 
1879	 0.348018579705571 
1880	 0.344577835682101 
1881	 0.340893601152607 
1882	 0.336979901209761 
1883	 0.332987636424764 
1884	 0.328868633839721 
1885	 0.324331878897799 
1886	 0.319845652572686 
1887	 0.315095550267301 
1888	 0.310122659821032 
1889	 0.305427481852184 
1890	 0.300492340258041 
1891	 0.295585038579627 
1892	 0.290746728145267 
1893	 0.285698557871148 
1894	 0.280410867012001 
1895	 0.275329003148194 
1896	 0.270108986050954 
1897	 0.264804682360884 
1898	 0.259959622645655 
1899	 0.254963409061693 
1900	 0.250071104662152 
1901	 0.24539190963109 
1902	 0.240435946695816 
1903	 0.235742197166477 
1904	 0.231124579799769 
1905	 0.226535964941456 
1906	 0.22201937871948 
1907	 0.217968740454632 
1908	 0.213850913533037 
1909	 0.209884202540535 
1910	 0.206118981167395 
1911	 0.202142420152975 
1912	 0.198350983761172 
1913	 0.194575839627193 
1914	 0.190756939259381 
1915	 0.187141666047626 
1916	 0.183743674436629 
1917	 0.180245433526996 
1918	 0.176844853804613 
1919	 0.173537942287898 
1920	 0.170008717389467 
1921	 0.166619739220938 
1922	 0.163169579783758 
1923	 0.159614726655357 
1924	 0.15635958758775 
1925	 0.153022225347483 
1926	 0.149741869066998 
1927	 0.146573762299304 
1928	 0.143393752937867 
1929	 0.140126199848371 
1930	 0.137060786922227 
1931	 0.134118826815775 
1932	 0.13126761272242 
1933	 0.12881967495856 
1934	 0.126533744052316 
1935	 0.124436818076337 
1936	 0.12267249465471 
1937	 0.121099230647239 
1938	 0.11970771894245 
1939	 0.118631178811539 
1940	 0.117815088643717 
1941	 0.117250144738383 
1942	 0.116971804272698 
1943	 0.116890260122225 
1944	 0.117001546984609 
1945	 0.11735057757817 
1946	 0.117974964291389 
1947	 0.118770008272173 
1948	 0.11989478081383 
1949	 0.121343614209346 
1950	 0.122970406784196 
1951	 0.124857024655833 
1952	 0.126986691070321 
1953	 0.129329632235876 
1954	 0.13192001753926 
1955	 0.134867257232272 
1956	 0.137841924525926 
1957	 0.140905833195298 
1958	 0.143975711762561 
1959	 0.146699914527526 
1960	 0.149280696311419 
1961	 0.151623328016031 
1962	 0.153710160698269 
1963	 0.15559294425605 
1964	 0.157276698593301 
1965	 0.158727433782228 
1966	 0.159929644838281 
1967	 0.160972715713212 
1968	 0.161796474565021 
1969	 0.162618019553252 
1970	 0.163402120093274 
1971	 0.164182064835738 
1972	 0.165066775970755 
1973	 0.165994727235806 
1974	 0.167006327984072 
1975	 0.168122064279976 
1976	 0.169264948915504 
1977	 0.170453391176201 
1978	 0.171719925618626 
1979	 0.173033680779684 
1980	 0.174399871403183 
1981	 0.175938904609418 
1982	 0.177467394119635 
1983	 0.17913621908166 
1984	 0.18091346519904 
1985	 0.182647073847343 
1986	 0.184577795593591 
1987	 0.186675211860134 
1988	 0.188786439552645 
1989	 0.191279034748252 
1990	 0.194048897570315 
1991	 0.196994259164826 
1992	 0.200204198611171 
1993	 0.203694469891194 
1994	 0.207102423928388 
1995	 0.210776851465813 
1996	 0.214475470880762 
1997	 0.218166255247029 
1998	 0.221998001903555 
1999	 0.226048104861617 
2000	 0.229844449591395 
2001	 0.233801257592019 
2002	 0.237376932738546 
2003	 0.240718686440001 
2004	 0.243960267188887 
2005	 0.24696126154496 
2006	 0.249877540361992 
2007	 0.252749127165273 
2008	 0.255351989515198 
2009	 0.257820443615939 
2010	 0.260178635669703 
2011	 0.262202996368438 
2012	 0.264143933627272 
2013	 0.26595464910967 
2014	 0.267544810957365 
2015	 0.269125654683679 
2016	 0.270657061349214 
2017	 0.272027973114751 
2018	 0.273318533459891 
2019	 0.274464614309689 
2020	 0.275432277495497 
2021	 0.276332331379778 
2022	 0.277140152671231 
2023	 0.277827810802686 
2024	 0.278460865708854 
2025	 0.279005808389099 
2026	 0.279490873373462 
2027	 0.279899674251589 
2028	 0.280244273721294 
2029	 0.280502400991 
2030	 0.280733515167047 
2031	 0.280890300410082 
2032	 0.281022956479542 
2033	 0.281087770415722 
2034	 0.281166305830977 
2035	 0.281213918544359 
2036	 0.281265093881201 
2037	 0.281296097894859 
2038	 0.281337524835584 
2039	 0.281378711090385 
2040	 0.281395792653902 
2041	 0.281443261201611 
2042	 0.281513213294948 
2043	 0.281585423146124 
2044	 0.281658079773031 
2045	 0.281747220861096 
2046	 0.281862871660404 
2047	 0.28196500509209 
2048	 0.28207831410142 
2049	 0.282179124943253 
2050	 0.282287146286731 
2051	 0.282366759678615 
2052	 0.282408721186881 
2053	 0.282447613589302 
2054	 0.282479256256289 
2055	 0.282476195224434 
2056	 0.282494656048983 
2057	 0.282522954157533 
2058	 0.282545882026416 
2059	 0.282556946321625 
2060	 0.282584479898429 
2061	 0.282614862852821 
2062	 0.282662019157463 
2063	 0.282723732901812 
2064	 0.282788950326587 
2065	 0.282863747504808 
2066	 0.282944637508897 
2067	 0.283039477184549 
2068	 0.283145213470802 
2069	 0.283258025124355 
2070	 0.283393278713948 
2071	 0.28351448536517 
2072	 0.283645693588935 
2073	 0.283755783857442 
2074	 0.283858006670927 
2075	 0.283949903756218 
2076	 0.284036463314855 
2077	 0.284095918591903 
2078	 0.284160750068638 
2079	 0.284176589756599 
2080	 0.28413251041868 
2081	 0.284101446074296 
2082	 0.284070396507513 
2083	 0.283997021925071 
2084	 0.283896557828672 
2085	 0.283792253861424 
2086	 0.283629200770032 
2087	 0.283394646748469 
2088	 0.28317304839846 
2089	 0.282923638776277 
2090	 0.282670490604469 
2091	 0.282418474878083 
2092	 0.282125768537495 
2093	 0.281818376933862 
2094	 0.281480686522822 
2095	 0.28108889441299 
2096	 0.280704364434092 
2097	 0.280324098830762 
2098	 0.279902909366066 
2099	 0.279456959202614 
2100	 0.278997656485247 
2101	 0.278498940477283 
2102	 0.277960694647747 
2103	 0.277400319286772 
2104	 0.276803493461224 
2105	 0.276201227102572 
2106	 0.275565984213102 
2107	 0.274928722899845 
2108	 0.274303677666815 
2109	 0.273630568987076 
2110	 0.272920721423353 
2111	 0.272208221720451 
2112	 0.271441165263898 
2113	 0.270702556446925 
2114	 0.269975878965785 
2115	 0.269238668101103 
2116	 0.268500325497219 
2117	 0.267791810022105 
2118	 0.267022422993041 
2119	 0.266228992538224 
2120	 0.265430367830041 
2121	 0.264571699626883 
2122	 0.263780109497149 
2123	 0.263006571452055 
2124	 0.262245185077947 
2125	 0.261535979960951 
2126	 0.260787037153938 
2127	 0.260021010468958 
2128	 0.259271350827217 
2129	 0.258497358408672 
2130	 0.257755671316106 
2131	 0.257047783211916 
2132	 0.256333086391884 
2133	 0.255632467297167 
2134	 0.254939062821619 
2135	 0.254192165650386 
2136	 0.253483740176517 
2137	 0.252776080563797 
2138	 0.252042136485116 
2139	 0.251369448477495 
2140	 0.250748646036624 
2141	 0.25010529764197 
2142	 0.249489219005544 
2143	 0.248855761531805 
2144	 0.248203431055566 
2145	 0.24757291582889 
2146	 0.246931298249322 
2147	 0.246329439820664 
2148	 0.245775490354966 
2149	 0.245191873852335 
2150	 0.244625374986671 
2151	 0.244049893800958 
2152	 0.243444934566935 
2153	 0.24285325073259 
2154	 0.242291321677162 
2155	 0.241713752947635 
2156	 0.241158882197363 
2157	 0.240612453652287 
2158	 0.240081255478584 
2159	 0.239578407940937 
2160	 0.239047260853447 
2161	 0.238509947346992 
2162	 0.237989344466418 
2163	 0.237438255533377 
2164	 0.236942140364347 
2165	 0.236490538281316 
2166	 0.236034904021404 
2167	 0.235595391946178 
2168	 0.235174958044604 
2169	 0.234747989962664 
2170	 0.234367434703969 
2171	 0.234018476273971 
2172	 0.233698925618191 
2173	 0.233420522623395 
2174	 0.233155250940944 
2175	 0.232915709442318 
2176	 0.232723699884108 
2177	 0.232566137911657 
2178	 0.232453339330155 
2179	 0.232348587172428 
2180	 0.232280832638773 
2181	 0.232216980849837 
2182	 0.232178860729377 
2183	 0.232128092621906 
2184	 0.232102166573737 
2185	 0.232046857655932 
2186	 0.231963122549442 
2187	 0.231898505225363 
2188	 0.231855534590508 
2189	 0.231766840711192 
2190	 0.231673627689567 
2191	 0.231554245901676 
2192	 0.231387497740166 
2193	 0.231220309430192 
2194	 0.231059934457729 
2195	 0.230861826086562 
2196	 0.230645257946931 
2197	 0.230389456208638 
2198	 0.230102671533051 
2199	 0.229803012320151 
2200	 0.229487325132279 
2201	 0.229154681446856 
2202	 0.228790428991302 
2203	 0.228413323068401 
2204	 0.227994010567209 
2205	 0.227515828449504 
2206	 0.227064802921025 
2207	 0.226599210029084 
2208	 0.226125233733847 
2209	 0.225654835183714 
2210	 0.225172525805238 
2211	 0.224622101952982 
2212	 0.22417505287847 
2213	 0.2237470642954 
2214	 0.223383450588371 
2215	 0.223089259269115 
2216	 0.222842561276787 
2217	 0.222614101300946 
2218	 0.222487554666843 
2219	 0.222459060451476 
2220	 0.222472242290858 
2221	 0.222565234443384 
2222	 0.222727750278363 
2223	 0.222882393679082 
2224	 0.223029177451907 
2225	 0.22313776129174 
2226	 0.223208210138546 
2227	 0.22320839764967 
2228	 0.223190383250733 
2229	 0.223007639321623 
2230	 0.222751345979196 
2231	 0.222337030871505 
2232	 0.22179261048546 
2233	 0.221096842332034 
2234	 0.220288809979766 
2235	 0.219283892617993 
2236	 0.218082156247009 
2237	 0.216777286892585 
2238	 0.215265476439134 
2239	 0.21370875979345 
2240	 0.212070987800905 
2241	 0.210278556622711 
2242	 0.208399822905741 
2243	 0.206360564943946 
2244	 0.204111131426618 
2245	 0.201824463343755 
2246	 0.199326971198239 
2247	 0.196894517915098 
2248	 0.194462564117607 
2249	 0.191961018170299 
2250	 0.18944144181642 
2251	 0.186919109976837 
2252	 0.184185149570175 
2253	 0.181545462411818 
2254	 0.178888218598777 
2255	 0.176214648031237 
2256	 0.173789911244158 
2257	 0.171350957689116 
2258	 0.169002977430049 
2259	 0.166790929720083 
2260	 0.164557412152369 
2261	 0.162287110870748 
2262	 0.160228536830725 
2263	 0.158212650472864 
2264	 0.156415110271922 
2265	 0.154835767019372 
2266	 0.153309053047251 
2267	 0.151937273723152 
2268	 0.15063044750292 
2269	 0.149437369155875 
2270	 0.148298232909822 
2271	 0.147248766957115 
2272	 0.146267521562001 
2273	 0.14539362827091 
2274	 0.144503439492021 
2275	 0.143742691019606 
2276	 0.142866618585846 
2277	 0.141981532450938 
2278	 0.141015751986788 
2279	 0.139936290582805 
2280	 0.138869577456773 
2281	 0.137792796298629 
2282	 0.136631816038776 
2283	 0.135430664273097 
2284	 0.134202619742049 
2285	 0.132834012757697 
2286	 0.131480496227752 
2287	 0.13009210762993 
2288	 0.128690364380706 
2289	 0.127362881101266 
2290	 0.125977593061274 
2291	 0.124652919215999 
2292	 0.12339286079977 
2293	 0.122089378562019 
2294	 0.120886500656654 
2295	 0.119786860347445 
2296	 0.118757658255178 
2297	 0.117902409865953 
2298	 0.117191293306731 
2299	 0.11663063503832 
2300	 0.116181999508754 
2301	 0.115991157865183 
2302	 0.115990324140367 
2303	 0.116193862172292 
2304	 0.116659439197739 
2305	 0.117257411232538 
2306	 0.118065952628092 
2307	 0.11900258173888 
2308	 0.120109785005993 
2309	 0.12135624362293 
2310	 0.122814551796549 
2311	 0.124295840683242 
2312	 0.126005423720558 
2313	 0.12758828792448 
2314	 0.129195532656443 
2315	 0.130750326788072 
2316	 0.132324682517643 
2317	 0.133736124350019 
2318	 0.135146915507583 
2319	 0.136295215240192 
2320	 0.137245100858735 
2321	 0.138034586037531 
2322	 0.138562443012646 
2323	 0.139061301546103 
2324	 0.139454651126496 
2325	 0.139696443210984 
2326	 0.139832421815696 
2327	 0.139835006146899 
2328	 0.139645895295539 
2329	 0.139366369547337 
2330	 0.138977470763662 
2331	 0.138460342605511 
2332	 0.137833101722744 
2333	 0.137105736618902 
2334	 0.136276581374703 
2335	 0.135390340170913 
2336	 0.134461600917648 
2337	 0.133469399205725 
2338	 0.132487960980142 
2339	 0.131525971016412 
2340	 0.130547039777085 
2341	 0.129604528601341 
2342	 0.128749404384511 
2343	 0.127999239938233 
2344	 0.127383916627134 
2345	 0.126983705338281 
2346	 0.126761304125644 
2347	 0.126732243981372 
2348	 0.126870383560879 
2349	 0.127197176300931 
2350	 0.127706181764392 
2351	 0.128301143731414 
2352	 0.128990399536849 
2353	 0.129752484598228 
2354	 0.130442669718839 
2355	 0.131135550855511 
2356	 0.131741415339696 
2357	 0.132132412084056 
2358	 0.132467190873021 
2359	 0.132601988383143 
2360	 0.132593446608746 
2361	 0.132587282746197 
2362	 0.132482460279374 
2363	 0.132258019550917 
2364	 0.131978394472519 
2365	 0.131627515674205 
2366	 0.131199795713992 
2367	 0.130830012300568 
2368	 0.13045081035348 
2369	 0.129971019634445 
2370	 0.129540368716493 
2371	 0.129080660845666 
2372	 0.128534405797566 
2373	 0.128048775971323 
2374	 0.127479049269365 
2375	 0.126836917714619 
2376	 0.126270143257251 
2377	 0.125658671726595 
2378	 0.125007798783056 
2379	 0.124352398748932 
2380	 0.123726105129404 
2381	 0.12310568842948 
2382	 0.122445158380881 
2383	 0.121846505663234 
2384	 0.121112663576195 
2385	 0.120230474026178 
2386	 0.119443136714236 
2387	 0.118614353573389 
2388	 0.117849218941428 
2389	 0.117155961068636 
2390	 0.116371915198142 
2391	 0.115640195078661 
2392	 0.114780314301247 
2393	 0.11377717574514 
2394	 0.112909086794487 
2395	 0.112008352863529 
2396	 0.111117382979653 
2397	 0.110302973260288 
2398	 0.109467599085119 
2399	 0.108578383851634 
2400	 0.10773608730416 
2401	 0.106957733855733 
2402	 0.106108905684334 
2403	 0.105336242110463 
2404	 0.104654759781048 
2405	 0.103953220261904 
2406	 0.103198710457491 
2407	 0.102486935907343 
2408	 0.101738780573694 
2409	 0.100905478019855 
2410	 0.10015678321345 
2411	 9.94872758269276E-02 
2412	 9.88846664788493E-02 
2413	 9.83821754988268E-02 
2414	 9.78674253621319E-02 
2415	 9.73056926697414E-02 
2416	 9.67479232530113E-02 
2417	 0.096198904905381 
2418	 9.57682880454922E-02 
2419	 9.54362306946612E-02 
2420	 9.50284474679022E-02 
2421	 9.46266760881226E-02 
2422	 9.42147474553246E-02 
2423	 9.37684746011024E-02 
2424	 9.34582895742175E-02 
2425	 9.31891269666154E-02 
2426	 0.092915588854265 
2427	 9.26921220808934E-02 
2428	 9.23527889879534E-02 
2429	 9.18743400443477E-02 
2430	 9.14877701995523E-02 
2431	 9.11678479795227E-02 
2432	 9.08122736480027E-02 
2433	 9.05754856037001E-02 
2434	 9.04028130536068E-02 
2435	 9.00958344550766E-02 
2436	 8.96924874415559E-02 
2437	 8.93526386656065E-02 
2438	 8.89617056491751E-02 
2439	 8.85446765945342E-02 
2440	 8.83134999009485E-02 
2441	 8.80823697675502E-02 
2442	 8.78562569224563E-02 
2443	 8.76080225316891E-02 
2444	 8.71631847760598E-02 
2445	 8.67616181419052E-02 
2446	 8.64173892734305E-02 
2447	 8.61065307050975E-02 
2448	 8.58687354803902E-02 
2449	 8.56252210386149E-02 
2450	 8.53378663762275E-02 
2451	 8.49428091902486E-02 
2452	 8.47106524537221E-02 
2453	 8.44824256705088E-02 
2454	 8.40501876589564E-02 
2455	 8.35776296974616E-02 
2456	 8.30622403883337E-02 
2457	 8.26751784005152E-02 
2458	 0.0824586801276 
2459	 8.23121941088866E-02 
2460	 8.21048249665823E-02 
2461	 8.17690495396522E-02 
2462	 0.081354894990049 
2463	 8.09303288317422E-02 
2464	 8.05643032828673E-02 
2465	 8.00931077751818E-02 
2466	 7.96164718111299E-02 
2467	 7.92529723211157E-02 
2468	 7.88561477492942E-02 
2469	 7.85792599108451E-02 
2470	 7.84184079328186E-02 
2471	 7.81705337535332E-02 
2472	 0.077896039834378 
2473	 7.77491944711351E-02 
2474	 7.76216164141847E-02 
2475	 7.73960419178898E-02 
2476	 7.72029842689787E-02 
2477	 7.70280584127062E-02 
2478	 7.66291194159586E-02 
2479	 7.63411957508705E-02 
2480	 7.64921055377703E-02 
2481	 7.63950710846203E-02 
2482	 7.64008007826325E-02 
2483	 0.07629343100622 
2484	 7.62748201039415E-02 
2485	 7.63473369772877E-02 
2486	 7.63894226216462E-02 
2487	 7.63939110497089E-02 
2488	 7.63153129657735E-02 
2489	 7.62979992442856E-02 
2490	 7.63095631250444E-02 
2491	 7.63526459818076E-02 
2492	 7.63733654785794E-02 
2493	 0.076501143041892 
2494	 0.076777513171636 
2495	 7.69382242218942E-02 
2496	 7.70976957771457E-02 
2497	 7.72319256429819E-02 
2498	 7.72741849672317E-02 
2499	 0.077393511238156 
2500	 7.76103142606953E-02 
