Wavelength	spectrum00008.asd
350	 0.116784833076877 
351	 0.113789461590205 
352	 0.112428460322316 
353	 0.111209298971945 
354	 0.108252254212492 
355	 0.107086523805022 
356	 0.105597740500668 
357	 0.101992443478428 
358	 9.89055113361185E-02 
359	 9.75344327698112E-02 
360	 9.71626272857164E-02 
361	 9.61255102288604E-02 
362	 9.40237714223025E-02 
363	 0.092935424761584 
364	 9.29163597332249E-02 
365	 9.11067291276274E-02 
366	 9.16227969095305E-02 
367	 9.21898464068154E-02 
368	 9.06867022655859E-02 
369	 9.06020637339472E-02 
370	 9.02474028372601E-02 
371	 8.93332817439799E-02 
372	 0.088492154208915 
373	 8.85653099641351E-02 
374	 8.94867110137093E-02 
375	 0.090328482734457 
376	 8.91540757498612E-02 
377	 8.81720781722344E-02 
378	 8.74721130522335E-02 
379	 8.66116791059087E-02 
380	 8.51850823370589E-02 
381	 8.54721664946297E-02 
382	 8.62740806751029E-02 
383	 8.48077218473233E-02 
384	 8.49808745201599E-02 
385	 8.52304246786739E-02 
386	 8.45085190781523E-02 
387	 8.34669523094921E-02 
388	 8.30948074482488E-02 
389	 8.29872326163616E-02 
390	 8.25869702170434E-02 
391	 8.24515511316234E-02 
392	 8.22187743939563E-02 
393	 8.18599080043384E-02 
394	 8.15911082547291E-02 
395	 8.16266430272833E-02 
396	 8.16613968742831E-02 
397	 8.14638300053394E-02 
398	 8.10308732843631E-02 
399	 0.08044243224501 
400	 7.98949408064019E-02 
401	 7.95110746120354E-02 
402	 7.89462541056531E-02 
403	 7.88641189730273E-02 
404	 7.89837974873994E-02 
405	 7.84046414953066E-02 
406	 7.80812802871775E-02 
407	 7.77205970356758E-02 
408	 7.72418636789087E-02 
409	 7.74075463079803E-02 
410	 7.70221366390803E-02 
411	 7.65922513317825E-02 
412	 7.68624011473932E-02 
413	 7.68376538336713E-02 
414	 7.64250306496722E-02 
415	 7.60121426126759E-02 
416	 7.62940368002625E-02 
417	 7.62561231533496E-02 
418	 7.59812348430755E-02 
419	 7.57434322624235E-02 
420	 7.57765514802991E-02 
421	 7.57917770991147E-02 
422	 7.58683491124174E-02 
423	 7.61536023312035E-02 
424	 7.62016266863903E-02 
425	 0.076235442929162 
426	 7.63153014641675E-02 
427	 7.62571613877082E-02 
428	 7.62264743804322E-02 
429	 7.63880889036206E-02 
430	 7.67278980034318E-02 
431	 7.66826014393017E-02 
432	 7.69382001342051E-02 
433	 7.73509358119139E-02 
434	 7.73911953781664E-02 
435	 7.76505131240183E-02 
436	 7.80651665088136E-02 
437	 7.84693909178818E-02 
438	 7.86511058366179E-02 
439	 7.89283650290965E-02 
440	 7.93266254991239E-02 
441	 7.97816989431642E-02 
442	 8.02466999152041E-02 
443	 8.08537505609784E-02 
444	 8.15122287484165E-02 
445	 8.19848433269598E-02 
446	 8.26604652510739E-02 
447	 8.33904615746556E-02 
448	 8.40595478832719E-02 
449	 8.48244921735315E-02 
450	 8.55363984442536E-02 
451	 8.63638585689398E-02 
452	 8.74814789999565E-02 
453	 8.83180800994051E-02 
454	 8.93321736659417E-02 
455	 9.06126678917669E-02 
456	 9.17709346902159E-02 
457	 9.29943640191161E-02 
458	 9.42752976495574E-02 
459	 9.56219835960369E-02 
460	 9.72153851799129E-02 
461	 9.88303015870588E-02 
462	 0.100414149228118 
463	 0.102041712065686 
464	 0.103922893991192 
465	 0.105864447856055 
466	 0.107789015501006 
467	 0.109867232953037 
468	 0.112135216235645 
469	 0.114510792163695 
470	 0.116928611646723 
471	 0.119545042504608 
472	 0.122220192718175 
473	 0.124978525769923 
474	 0.127964016049224 
475	 0.130988869711019 
476	 0.134069765707819 
477	 0.137273961597542 
478	 0.140718154312009 
479	 0.144238834956188 
480	 0.14783165352039 
481	 0.151555541504157 
482	 0.155447524066252 
483	 0.15935822609228 
484	 0.163316060130524 
485	 0.167552590585355 
486	 0.171917774966316 
487	 0.176265393062228 
488	 0.180536400622404 
489	 0.184945101155686 
490	 0.189398797774418 
491	 0.193885785994115 
492	 0.198439889524831 
493	 0.203020770299578 
494	 0.207641249452199 
495	 0.212297065894688 
496	 0.21694224594598 
497	 0.221585963707651 
498	 0.226217101837499 
499	 0.230816932175993 
500	 0.235402165584587 
501	 0.23993115475896 
502	 0.244441082330857 
503	 0.249028783623284 
504	 0.253498275809044 
505	 0.257894137606203 
506	 0.262280485220191 
507	 0.266655778748955 
508	 0.270948612771812 
509	 0.275190468685208 
510	 0.27944468038478 
511	 0.28366893403445 
512	 0.287782496284233 
513	 0.29181098081835 
514	 0.29593424539157 
515	 0.299925804760771 
516	 0.30389113558297 
517	 0.307934684771098 
518	 0.311839852317789 
519	 0.315707284851137 
520	 0.319595450946086 
521	 0.32351741642246 
522	 0.327404570776087 
523	 0.331241658063819 
524	 0.335024261162457 
525	 0.338757051149439 
526	 0.342494654394606 
527	 0.346228414069549 
528	 0.349935616620232 
529	 0.353657345397226 
530	 0.357298473749249 
531	 0.360862197508876 
532	 0.364456733476491 
533	 0.36805620136113 
534	 0.371616627403165 
535	 0.375098246271561 
536	 0.378486489911565 
537	 0.381957319684998 
538	 0.385466453542536 
539	 0.388856208329972 
540	 0.392178729756711 
541	 0.395489908260691 
542	 0.398797158891728 
543	 0.402021873781316 
544	 0.405215330412927 
545	 0.408336822857685 
546	 0.411390842908072 
547	 0.414702733098467 
548	 0.41806909072311 
549	 0.421441392108559 
550	 0.424920928417546 
551	 0.428411314797434 
552	 0.431944420898849 
553	 0.435538180061839 
554	 0.4391122098245 
555	 0.44266545865728 
556	 0.446222507165952 
557	 0.449793348423257 
558	 0.453179464308302 
559	 0.456509228852048 
560	 0.459864896535884 
561	 0.463223915895105 
562	 0.466292060818035 
563	 0.468932062153743 
564	 0.471164739681706 
565	 0.473325715308802 
566	 0.475540769235673 
567	 0.477783540795916 
568	 0.47995328719758 
569	 0.482578834983998 
570	 0.485567396264741 
571	 0.488694810575427 
572	 0.491721837002271 
573	 0.494478481718767 
574	 0.496919668028208 
575	 0.499059322468747 
576	 0.500811878448123 
577	 0.502173283914138 
578	 0.503266981305448 
579	 0.504347860440332 
580	 0.50577687947335 
581	 0.507567795641901 
582	 0.509628672334008 
583	 0.511900768612011 
584	 0.514164493954612 
585	 0.516442730494424 
586	 0.518847007870416 
587	 0.520809130807847 
588	 0.522557589112392 
589	 0.524385570036275 
590	 0.526516273779636 
591	 0.528684913753561 
592	 0.530920961669148 
593	 0.533296241309615 
594	 0.5356813937088 
595	 0.537946658512753 
596	 0.540016537429902 
597	 0.5418747559701 
598	 0.543739072787234 
599	 0.545516776210596 
600	 0.547151092378863 
601	 0.548798368971211 
602	 0.550462682636221 
603	 0.552165289221316 
604	 0.553918895394072 
605	 0.555702807670726 
606	 0.557441060650677 
607	 0.559078211755633 
608	 0.560586245832862 
609	 0.56207694567153 
610	 0.563549580463597 
611	 0.564991624542105 
612	 0.566441652751798 
613	 0.567927324639751 
614	 0.569418181268459 
615	 0.570851455828048 
616	 0.57222715015401 
617	 0.573613197080875 
618	 0.575038439527068 
619	 0.576451996058277 
620	 0.577864559325127 
621	 0.579232110945526 
622	 0.580527623959222 
623	 0.581893518850822 
624	 0.583179888212503 
625	 0.584378278942628 
626	 0.58562068375277 
627	 0.586864225229152 
628	 0.588097652823248 
629	 0.589314100402061 
630	 0.590505488067638 
631	 0.591651141264685 
632	 0.592815193321116 
633	 0.59406204380443 
634	 0.595197618243632 
635	 0.596273774849403 
636	 0.597337444223787 
637	 0.598397234219809 
638	 0.599449617863369 
639	 0.600541980493616 
640	 0.601671802807072 
641	 0.602629364245579 
642	 0.603636469703786 
643	 0.604751724409658 
644	 0.605898824846274 
645	 0.606794977479367 
646	 0.607690875188505 
647	 0.608708445526202 
648	 0.609649318621773 
649	 0.610505280018613 
650	 0.611397787363657 
651	 0.612423830559718 
652	 0.613383282908484 
653	 0.614314692316151 
654	 0.615193884136203 
655	 0.615962274995983 
656	 0.616904150292199 
657	 0.617822089970182 
658	 0.618606719481443 
659	 0.619504157747654 
660	 0.620448884048363 
661	 0.621302787519681 
662	 0.621967576134104 
663	 0.622730458943648 
664	 0.623614036886998 
665	 0.624497773281196 
666	 0.625154831812169 
667	 0.625934327491889 
668	 0.62672910788607 
669	 0.627416291385506 
670	 0.628056593535163 
671	 0.628870900871909 
672	 0.62970485749513 
673	 0.630299727468485 
674	 0.630996232112286 
675	 0.631732937218202 
676	 0.63240516609014 
677	 0.632903810153954 
678	 0.63357585902858 
679	 0.634273066775273 
680	 0.634846100511801 
681	 0.635525333306017 
682	 0.636204948564779 
683	 0.636841651550515 
684	 0.637440478837055 
685	 0.638079833645919 
686	 0.638802357458736 
687	 0.639549031795791 
688	 0.640131564928519 
689	 0.64064032545322 
690	 0.641213356410728 
691	 0.641929105937562 
692	 0.642634997122506 
693	 0.643217017387607 
694	 0.643723821376908 
695	 0.64430020973571 
696	 0.644907263622998 
697	 0.645579755953999 
698	 0.646268036798501 
699	 0.646785433066748 
700	 0.647229257930632 
701	 0.647704785555215 
702	 0.648288011073118 
703	 0.648952073023995 
704	 0.649483834781928 
705	 0.649893943096868 
706	 0.650351037627786 
707	 0.650866004235963 
708	 0.651422695009431 
709	 0.651974204972893 
710	 0.65243261660527 
711	 0.652920859339593 
712	 0.653377351624143 
713	 0.653753006256877 
714	 0.654274430313712 
715	 0.654814410165657 
716	 0.655266110688424 
717	 0.655583942052942 
718	 0.656133012194909 
719	 0.656656332475786 
720	 0.657025107639976 
721	 0.657475415105799 
722	 0.6578948629369 
723	 0.658255946764219 
724	 0.658605170405772 
725	 0.659191372830631 
726	 0.659738825393511 
727	 0.660165407747518 
728	 0.660540192280895 
729	 0.6608393717367 
730	 0.661191800320928 
731	 0.661639251450186 
732	 0.66205387344207 
733	 0.662510542770182 
734	 0.662978472834594 
735	 0.663424414545453 
736	 0.663929578401545 
737	 0.664333974258433 
738	 0.664686738598473 
739	 0.6651386573397 
740	 0.665375652505508 
741	 0.665588392869979 
742	 0.665912167564319 
743	 0.666306070697034 
744	 0.666712829266591 
745	 0.667084089243499 
746	 0.66738136558346 
747	 0.667546996947711 
748	 0.667892232337101 
749	 0.668372072797566 
750	 0.668748145523304 
751	 0.66912057827632 
752	 0.669309685341468 
753	 0.66939971789672 
754	 0.669828886076554 
755	 0.670257581268651 
756	 0.670621144450689 
757	 0.670921983666655 
758	 0.671151628204214 
759	 0.671406665935675 
760	 0.671740192715124 
761	 0.672144575452836 
762	 0.672414187566875 
763	 0.67268732815796 
764	 0.673008886187084 
765	 0.673299096235148 
766	 0.673619221444529 
767	 0.673961209673697 
768	 0.674277620665936 
769	 0.674451222496538 
770	 0.674649511390733 
771	 0.674947485704537 
772	 0.67534281499435 
773	 0.675674459027346 
774	 0.675923165989159 
775	 0.676127446695768 
776	 0.676366514669459 
777	 0.676653775451825 
778	 0.677051081918773 
779	 0.677467910427403 
780	 0.677552204553271 
781	 0.677713320088007 
782	 0.677946011127385 
783	 0.67816105182688 
784	 0.678431098096995 
785	 0.678637996399582 
786	 0.678872967450271 
787	 0.679284521382221 
788	 0.679502361610075 
789	 0.679658840138233 
790	 0.679866560225714 
791	 0.680148902576455 
792	 0.680431407527477 
793	 0.680644058087753 
794	 0.680804089971034 
795	 0.68113892774389 
796	 0.681416243163967 
797	 0.681606901188195 
798	 0.681763634518989 
799	 0.681919957029091 
800	 0.682145379649539 
801	 0.682475134405987 
802	 0.682890133798523 
803	 0.683167700355618 
804	 0.68334087214186 
805	 0.683505480828971 
806	 0.6837848977258 
807	 0.68411091104764 
808	 0.68443197149461 
809	 0.684693602262819 
810	 0.684812126556903 
811	 0.684975631949092 
812	 0.685201652456821 
813	 0.685441406100232 
814	 0.68578410080467 
815	 0.686065526511304 
816	 0.686216007092933 
817	 0.686281059700918 
818	 0.686416610278676 
819	 0.686652458047424 
820	 0.686944163489903 
821	 0.68717353233731 
822	 0.687266981109561 
823	 0.68736471941362 
824	 0.687597273552855 
825	 0.687887070731879 
826	 0.688045340826588 
827	 0.688145325483441 
828	 0.688348354953303 
829	 0.688528747881121 
830	 0.688606645405949 
831	 0.688644499892782 
832	 0.68881043595048 
833	 0.689017246430966 
834	 0.689299786218075 
835	 0.689586261052669 
836	 0.689629241753795 
837	 0.689729492801686 
838	 0.689893429528575 
839	 0.690036407040066 
840	 0.690017831010133 
841	 0.690207194891894 
842	 0.690528523461777 
843	 0.690737379006294 
844	 0.690795468092438 
845	 0.690785727718815 
846	 0.690846015120366 
847	 0.691109280729526 
848	 0.691405155967581 
849	 0.691645439095978 
850	 0.691835675730675 
851	 0.692076061779423 
852	 0.692176175923203 
853	 0.692345195500653 
854	 0.692675265440052 
855	 0.692841320524007 
856	 0.692986688311076 
857	 0.693117826094958 
858	 0.693245883855222 
859	 0.69355699127724 
860	 0.693699322241178 
861	 0.693721233952165 
862	 0.693857459929065 
863	 0.694051892909482 
864	 0.694191313099037 
865	 0.694286686642747 
866	 0.694447895896735 
867	 0.694573467695755 
868	 0.694754125538209 
869	 0.694959508716512 
870	 0.694975185430414 
871	 0.695037305469389 
872	 0.695174434044396 
873	 0.695342564915105 
874	 0.695446987236523 
875	 0.695562006632765 
876	 0.695742254519062 
877	 0.69598807486059 
878	 0.696150567499514 
879	 0.696246112284322 
880	 0.696298212064812 
881	 0.696348463645531 
882	 0.696493556113568 
883	 0.69664173517529 
884	 0.696748293795043 
885	 0.696816948196515 
886	 0.696822130660431 
887	 0.696942424210536 
888	 0.697179594123728 
889	 0.697316230566811 
890	 0.69735908486271 
891	 0.697388662221277 
892	 0.697454488555685 
893	 0.697522025593188 
894	 0.697614239048948 
895	 0.697788470311957 
896	 0.698023572954351 
897	 0.698086737596593 
898	 0.69807261076639 
899	 0.698093686556795 
900	 0.698247043516419 
901	 0.698542507490125 
902	 0.698818046498086 
903	 0.698965096042116 
904	 0.698968660415336 
905	 0.699059165068892 
906	 0.699283163193113 
907	 0.699500980321143 
908	 0.699519852597407 
909	 0.699734272362994 
910	 0.700014881338194 
911	 0.70024507333136 
912	 0.700383018488979 
913	 0.700385242267101 
914	 0.700481866456461 
915	 0.700737334846798 
916	 0.700940427683256 
917	 0.701142672302421 
918	 0.701226098959216 
919	 0.701224920406582 
920	 0.701489924410283 
921	 0.70173499630257 
922	 0.701882544558792 
923	 0.701951485780494 
924	 0.702050808310579 
925	 0.702171568163104 
926	 0.702287934153901 
927	 0.702388922574841 
928	 0.702535845673006 
929	 0.702745328021518 
930	 0.703004016314217 
931	 0.703241755656228 
932	 0.703209677851639 
933	 0.703339304410652 
934	 0.703651944455757 
935	 0.703929967386851 
936	 0.704102719746487 
937	 0.704320935291555 
938	 0.70452401389927 
939	 0.704563899306109 
940	 0.70480726456485 
941	 0.705036205969188 
942	 0.705169843146563 
943	 0.705293986605623 
944	 0.705430121560842 
945	 0.705601095230321 
946	 0.705768502342639 
947	 0.705847992061715 
948	 0.70592641060962 
949	 0.706104721045411 
950	 0.70632420315016 
951	 0.706353025762425 
952	 0.706386293566241 
953	 0.70636979878183 
954	 0.706342459657603 
955	 0.706522608916441 
956	 0.706774172925836 
957	 0.707021759222726 
958	 0.707196157646614 
959	 0.70723019608796 
960	 0.707366231431487 
961	 0.707554361151512 
962	 0.707701492383209 
963	 0.707785073998126 
964	 0.707822497583124 
965	 0.707952053543836 
966	 0.708222587317871 
967	 0.708421564127704 
968	 0.708695085453727 
969	 0.708925374085075 
970	 0.709034415249748 
971	 0.709225556672122 
972	 0.709393160898811 
973	 0.709531574237041 
974	 0.70966600538326 
975	 0.709808596164915 
976	 0.710137895754256 
977	 0.710458477118828 
978	 0.710567676063834 
979	 0.710624056738028 
980	 0.71078805974181 
981	 0.710923224376814 
982	 0.710902992435206 
983	 0.710997187399767 
984	 0.711018224158825 
985	 0.711087917769478 
986	 0.711336214596682 
987	 0.711561548555031 
988	 0.711802731102894 
989	 0.711953971573243 
990	 0.711963225757731 
991	 0.712097998666786 
992	 0.712268220083111 
993	 0.712417417672086 
994	 0.712530527093489 
995	 0.712693189439455 
996	 0.712859908227721 
997	 0.713020336160769 
998	 0.713176523837928 
999	 0.713317458648402 
1000	 0.713570077329091 
1001	 0.686937427105252 
1002	 0.687097495359405 
1003	 0.68721386729269 
1004	 0.687320034414256 
1005	 0.687420437175282 
1006	 0.687533982574565 
1007	 0.687615189272293 
1008	 0.687743803040581 
1009	 0.687927858390406 
1010	 0.688061952373779 
1011	 0.688193782403299 
1012	 0.68830871410026 
1013	 0.688400063899142 
1014	 0.688483929167973 
1015	 0.688538931422883 
1016	 0.688618008282187 
1017	 0.688719099357276 
1018	 0.688832156170982 
1019	 0.68897960208255 
1020	 0.689121311400454 
1021	 0.68924659676169 
1022	 0.68935152534078 
1023	 0.689483147481429 
1024	 0.689610799295073 
1025	 0.689757069775057 
1026	 0.689913686109306 
1027	 0.690078217652581 
1028	 0.690257407161448 
1029	 0.690439029067279 
1030	 0.690619880372302 
1031	 0.690841046085201 
1032	 0.690984103459977 
1033	 0.6911124670543 
1034	 0.691263667569839 
1035	 0.691369474559323 
1036	 0.69153506727148 
1037	 0.691789398535909 
1038	 0.691951778915959 
1039	 0.692081424061365 
1040	 0.692227961015575 
1041	 0.692326485930521 
1042	 0.692441467511018 
1043	 0.692573337625283 
1044	 0.692728376837165 
1045	 0.692855129634719 
1046	 0.692999162694903 
1047	 0.693124637402018 
1048	 0.693203423174845 
1049	 0.693248567855958 
1050	 0.693302085151613 
1051	 0.693377841396418 
1052	 0.693486646317767 
1053	 0.693585154330615 
1054	 0.693699077631623 
1055	 0.693802498730923 
1056	 0.693928577579151 
1057	 0.693977066087442 
1058	 0.6939829431471 
1059	 0.694016969601883 
1060	 0.694007258579712 
1061	 0.694030199394569 
1062	 0.69411163099713 
1063	 0.694153736441351 
1064	 0.694178851258173 
1065	 0.694212430762018 
1066	 0.69425684110846 
1067	 0.694269136015887 
1068	 0.694290106428278 
1069	 0.6943368431388 
1070	 0.694364434651362 
1071	 0.694372399346732 
1072	 0.694432782878593 
1073	 0.694481794607196 
1074	 0.694491221330301 
1075	 0.694532641866767 
1076	 0.694590778340058 
1077	 0.694646278967311 
1078	 0.694698205363329 
1079	 0.694771372521807 
1080	 0.694842780409257 
1081	 0.694895565241234 
1082	 0.694933901919269 
1083	 0.694968380378011 
1084	 0.695019160926847 
1085	 0.695074578625127 
1086	 0.695123574886127 
1087	 0.695185635819623 
1088	 0.695250957825017 
1089	 0.695301276283141 
1090	 0.695330273379722 
1091	 0.695401605013365 
1092	 0.695476532566611 
1093	 0.695527046646267 
1094	 0.695604724982423 
1095	 0.695655074578454 
1096	 0.695691631385163 
1097	 0.695748634905772 
1098	 0.695817475465652 
1099	 0.695874825383649 
1100	 0.695927942453804 
1101	 0.695992869173122 
1102	 0.696036895870783 
1103	 0.696075059544719 
1104	 0.696113264808718 
1105	 0.696162710776755 
1106	 0.69619175422731 
1107	 0.696192030961546 
1108	 0.69621195523406 
1109	 0.696229522705669 
1110	 0.696217828180008 
1111	 0.696242776286354 
1112	 0.696282744657426 
1113	 0.6963186200583 
1114	 0.69637836977481 
1115	 0.696428603875767 
1116	 0.696472542178629 
1117	 0.696524026188031 
1118	 0.696547746678952 
1119	 0.696552625000171 
1120	 0.696558409395451 
1121	 0.696553285134531 
1122	 0.696528113601172 
1123	 0.696514151391371 
1124	 0.696504485640789 
1125	 0.69651181447186 
1126	 0.696523498158295 
1127	 0.696511769274549 
1128	 0.696508950541513 
1129	 0.696470100256441 
1130	 0.69640966010507 
1131	 0.696378345445464 
1132	 0.696339671926035 
1133	 0.696300645075636 
1134	 0.696246561401443 
1135	 0.696177047160655 
1136	 0.696083420123129 
1137	 0.696000988950789 
1138	 0.695917317857581 
1139	 0.695821794106837 
1140	 0.695735927494667 
1141	 0.695621934640894 
1142	 0.695462773731118 
1143	 0.695291114491642 
1144	 0.695086199700239 
1145	 0.694870726727749 
1146	 0.694673455227753 
1147	 0.694442478569492 
1148	 0.694196142126727 
1149	 0.693958748770192 
1150	 0.693698412692142 
1151	 0.693433031776851 
1152	 0.693170060500575 
1153	 0.692915547571137 
1154	 0.69263921946202 
1155	 0.692364664247263 
1156	 0.692062135622349 
1157	 0.691755398168423 
1158	 0.691409485934325 
1159	 0.691033673072392 
1160	 0.690630687515767 
1161	 0.690206460023599 
1162	 0.689753859272061 
1163	 0.689318328807219 
1164	 0.688870402079377 
1165	 0.688409460629481 
1166	 0.687981905168595 
1167	 0.687540695419632 
1168	 0.687107359814947 
1169	 0.686674143306546 
1170	 0.686236363153925 
1171	 0.68582031857438 
1172	 0.685400881784026 
1173	 0.685007533425405 
1174	 0.684665200833042 
1175	 0.684294272711289 
1176	 0.683919809054823 
1177	 0.683548833306985 
1178	 0.683187800438881 
1179	 0.682776257478391 
1180	 0.682389011236598 
1181	 0.682030981897566 
1182	 0.681680041544016 
1183	 0.681380468585095 
1184	 0.681097427427275 
1185	 0.680809679244633 
1186	 0.680547620688802 
1187	 0.680288118893454 
1188	 0.680069332107825 
1189	 0.679890572032325 
1190	 0.679704800639057 
1191	 0.679531880820203 
1192	 0.679381316348249 
1193	 0.679241652676461 
1194	 0.679115454175655 
1195	 0.679022723067108 
1196	 0.67892000655676 
1197	 0.67882429168912 
1198	 0.678720605199918 
1199	 0.678607254888748 
1200	 0.678495651577639 
1201	 0.678363142543854 
1202	 0.678245426956089 
1203	 0.678158993107384 
1204	 0.678093701088342 
1205	 0.678069129249234 
1206	 0.678054519864339 
1207	 0.678132043759688 
1208	 0.678250901811577 
1209	 0.678448760280155 
1210	 0.678734044408024 
1211	 0.679055694542571 
1212	 0.679448176357375 
1213	 0.679863980387305 
1214	 0.680327688922898 
1215	 0.680826925838781 
1216	 0.681364793848177 
1217	 0.681925430442263 
1218	 0.68253839483148 
1219	 0.683154674852551 
1220	 0.683773234145506 
1221	 0.68445022092409 
1222	 0.685114358041801 
1223	 0.685778207661073 
1224	 0.686417977929684 
1225	 0.687057855241885 
1226	 0.687652696078669 
1227	 0.688230427854268 
1228	 0.688764502322415 
1229	 0.689263273910905 
1230	 0.689738831413119 
1231	 0.690163866138452 
1232	 0.690596669115858 
1233	 0.69101181079793 
1234	 0.691411860815727 
1235	 0.691804126719502 
1236	 0.692179978260275 
1237	 0.692523196191682 
1238	 0.692881948257937 
1239	 0.693247571484851 
1240	 0.693594076213775 
1241	 0.693949580184481 
1242	 0.694281971235337 
1243	 0.694596209843618 
1244	 0.694885683565325 
1245	 0.695178845956828 
1246	 0.69546466509317 
1247	 0.695731100294719 
1248	 0.695986365329974 
1249	 0.696234290117446 
1250	 0.696455492518882 
1251	 0.696691930435648 
1252	 0.696945385372035 
1253	 0.697167359708163 
1254	 0.697385810694951 
1255	 0.697582535265162 
1256	 0.697751977637742 
1257	 0.697915277011743 
1258	 0.698063993262234 
1259	 0.6982051599164 
1260	 0.698326639767466 
1261	 0.698451616352258 
1262	 0.698571609327829 
1263	 0.698694816049727 
1264	 0.698804634423846 
1265	 0.698907391676932 
1266	 0.699017016184054 
1267	 0.699121438268283 
1268	 0.699222316687802 
1269	 0.699329693864339 
1270	 0.699425766193631 
1271	 0.699513783942723 
1272	 0.699593234028493 
1273	 0.69967671773585 
1274	 0.699735859583444 
1275	 0.699764246613726 
1276	 0.699806990549644 
1277	 0.69984217000787 
1278	 0.699878297779622 
1279	 0.699913537678646 
1280	 0.699957225640035 
1281	 0.700002990368298 
1282	 0.700047126550904 
1283	 0.700105019347828 
1284	 0.700152809627133 
1285	 0.700194894070858 
1286	 0.700225732425556 
1287	 0.700266091039736 
1288	 0.700309744186372 
1289	 0.700342164433056 
1290	 0.700371007698386 
1291	 0.700402464849258 
1292	 0.700431269211644 
1293	 0.700451446907865 
1294	 0.700473735228265 
1295	 0.70048746494893 
1296	 0.700481742031374 
1297	 0.700489846435001 
1298	 0.700504279324835 
1299	 0.700515283927068 
1300	 0.700528686546678 
1301	 0.700539178182276 
1302	 0.700550213459126 
1303	 0.700555668038898 
1304	 0.700555911752311 
1305	 0.700557528560263 
1306	 0.700549504787926 
1307	 0.70055148480177 
1308	 0.70056091548487 
1309	 0.700576637482239 
1310	 0.700569618985582 
1311	 0.700562293776145 
1312	 0.700539877866642 
1313	 0.700494249944317 
1314	 0.700460176139178 
1315	 0.700436572283977 
1316	 0.700382516588159 
1317	 0.700319988970684 
1318	 0.700240635313564 
1319	 0.700123329542974 
1320	 0.700036218576534 
1321	 0.699949400056138 
1322	 0.699870356586071 
1323	 0.699817697788926 
1324	 0.699739050165179 
1325	 0.699657810716323 
1326	 0.699560533975995 
1327	 0.699458128560352 
1328	 0.699329313348774 
1329	 0.699172909166223 
1330	 0.699019088029664 
1331	 0.698850754298148 
1332	 0.698673526475902 
1333	 0.698497755906514 
1334	 0.698309720868692 
1335	 0.698108119812545 
1336	 0.697885585377536 
1337	 0.697672564309816 
1338	 0.69746355035749 
1339	 0.697227274292626 
1340	 0.696991007548569 
1341	 0.696718337199363 
1342	 0.696420617205603 
1343	 0.696101454554391 
1344	 0.695768767040388 
1345	 0.69539497635138 
1346	 0.694993383499781 
1347	 0.694563708228661 
1348	 0.694089929924044 
1349	 0.693613574109125 
1350	 0.693118220519276 
1351	 0.692604128599719 
1352	 0.692078067886086 
1353	 0.69152945060567 
1354	 0.690927271842511 
1355	 0.690365939299247 
1356	 0.689792346879664 
1357	 0.689248652583471 
1358	 0.688718165266984 
1359	 0.688227887096468 
1360	 0.687768659726277 
1361	 0.687320119616269 
1362	 0.686926451471015 
1363	 0.686581450942456 
1364	 0.686231370786216 
1365	 0.685904581330388 
1366	 0.685590252353601 
1367	 0.685294220125101 
1368	 0.684994196814024 
1369	 0.684721419388082 
1370	 0.684414823792181 
1371	 0.684114144706682 
1372	 0.683761893798368 
1373	 0.683399326056599 
1374	 0.682975455234072 
1375	 0.682495494659113 
1376	 0.681995103711596 
1377	 0.68144824082321 
1378	 0.680885315887572 
1379	 0.680264044530865 
1380	 0.679687208092771 
1381	 0.67906785247634 
1382	 0.678528492792742 
1383	 0.678035521313187 
1384	 0.677577096147118 
1385	 0.677203547176529 
1386	 0.67679773297419 
1387	 0.676412121869101 
1388	 0.676021373154539 
1389	 0.675622588934884 
1390	 0.675217506525665 
1391	 0.674811535304422 
1392	 0.674399843366148 
1393	 0.674016201106851 
1394	 0.673601336810318 
1395	 0.673187400362244 
1396	 0.672796618300281 
1397	 0.672350098861157 
1398	 0.671901639714142 
1399	 0.671349998892753 
1400	 0.67076255816877 
1401	 0.670080966685127 
1402	 0.669314090248343 
1403	 0.668475101194315 
1404	 0.667570417584449 
1405	 0.666597840050657 
1406	 0.665523081203132 
1407	 0.66443549668064 
1408	 0.663263888456965 
1409	 0.662121678184223 
1410	 0.660949732112113 
1411	 0.659791354962128 
1412	 0.658628162902354 
1413	 0.657497812420359 
1414	 0.656379342542465 
1415	 0.655265885011809 
1416	 0.654164285902943 
1417	 0.65308033570886 
1418	 0.651985778705441 
1419	 0.65093244630284 
1420	 0.649908222119274 
1421	 0.648921223760435 
1422	 0.647963768442065 
1423	 0.647033584884766 
1424	 0.646152384895594 
1425	 0.645265124484867 
1426	 0.644446662924705 
1427	 0.643624990512426 
1428	 0.642787330500246 
1429	 0.641980932185466 
1430	 0.641108274499139 
1431	 0.640216129272344 
1432	 0.639246610516971 
1433	 0.638231843895942 
1434	 0.637168279121183 
1435	 0.63603549000006 
1436	 0.634871775586596 
1437	 0.633649861429795 
1438	 0.632455872653972 
1439	 0.631162672613495 
1440	 0.630036493350608 
1441	 0.628912073600148 
1442	 0.627984450075794 
1443	 0.627124348249415 
1444	 0.626514032763343 
1445	 0.626048018429779 
1446	 0.625836871600458 
1447	 0.625859703662905 
1448	 0.626067102677423 
1449	 0.626556897527872 
1450	 0.627108841255831 
1451	 0.627896420567368 
1452	 0.628661944981473 
1453	 0.629567883732278 
1454	 0.630393038122095 
1455	 0.631258035935228 
1456	 0.632043973325653 
1457	 0.632797600125262 
1458	 0.63348270444233 
1459	 0.634107196170898 
1460	 0.63468211565857 
1461	 0.635187499218346 
1462	 0.63565081378153 
1463	 0.636052326349298 
1464	 0.636433525821086 
1465	 0.636767195508883 
1466	 0.637082589932821 
1467	 0.637369459030787 
1468	 0.637632502472932 
1469	 0.637882318703184 
1470	 0.638097767578857 
1471	 0.638317539659051 
1472	 0.638531146685671 
1473	 0.638724646196006 
1474	 0.638922432376005 
1475	 0.639050876091164 
1476	 0.639159467881277 
1477	 0.639191964425722 
1478	 0.639160943629353 
1479	 0.639089048362207 
1480	 0.63897864207781 
1481	 0.638787248077298 
1482	 0.638516771518839 
1483	 0.638233175264915 
1484	 0.637865414389766 
1485	 0.637525965265302 
1486	 0.637144911673287 
1487	 0.636840907504122 
1488	 0.636512859340198 
1489	 0.636305194507455 
1490	 0.636169108057241 
1491	 0.636109738277803 
1492	 0.636123102976196 
1493	 0.636221355169516 
1494	 0.636408890748472 
1495	 0.636654400443345 
1496	 0.637002613118827 
1497	 0.637365826258238 
1498	 0.637811868059411 
1499	 0.638235954655394 
1500	 0.638697193522967 
1501	 0.639133458017229 
1502	 0.639573468581735 
1503	 0.639983732562734 
1504	 0.640387312633297 
1505	 0.64075654950328 
1506	 0.641104584127793 
1507	 0.641416583434199 
1508	 0.641692181374006 
1509	 0.641945579965747 
1510	 0.642168612599708 
1511	 0.642362125258627 
1512	 0.642528955777801 
1513	 0.64267173433912 
1514	 0.642783983057782 
1515	 0.642870448052945 
1516	 0.642929698442172 
1517	 0.642967521882963 
1518	 0.642964138150783 
1519	 0.64296083027222 
1520	 0.642945427557274 
1521	 0.642918129775787 
1522	 0.642892253760445 
1523	 0.64283822178663 
1524	 0.64276473443272 
1525	 0.642661479601135 
1526	 0.642578640498734 
1527	 0.64248458506629 
1528	 0.642391086649409 
1529	 0.642306961064035 
1530	 0.642213308346173 
1531	 0.642091474984476 
1532	 0.642022350673177 
1533	 0.641968015225913 
1534	 0.641942888786415 
1535	 0.641938124853445 
1536	 0.641981568462711 
1537	 0.642045676655128 
1538	 0.64217168187115 
1539	 0.642359335948757 
1540	 0.642561367450574 
1541	 0.642805013273145 
1542	 0.643069185951679 
1543	 0.643352629060169 
1544	 0.643680770833591 
1545	 0.644045116150551 
1546	 0.644440859639427 
1547	 0.644893925762559 
1548	 0.645326458404024 
1549	 0.645777017503503 
1550	 0.646231973594459 
1551	 0.646691472826205 
1552	 0.647147595002585 
1553	 0.64761760533291 
1554	 0.648079166197174 
1555	 0.648543943852397 
1556	 0.648979911000751 
1557	 0.649420124458887 
1558	 0.649820387876081 
1559	 0.650175905399334 
1560	 0.650535383550652 
1561	 0.650878473746101 
1562	 0.65121389130787 
1563	 0.651550234179713 
1564	 0.651853606298513 
1565	 0.65212996886534 
1566	 0.652404078832366 
1567	 0.652647283475545 
1568	 0.652905228986352 
1569	 0.653150103551905 
1570	 0.653427360219162 
1571	 0.653714872677688 
1572	 0.654019030998293 
1573	 0.654353329533136 
1574	 0.654688251932369 
1575	 0.655033571255127 
1576	 0.655381203669897 
1577	 0.655733580757618 
1578	 0.656098836928118 
1579	 0.656477884553188 
1580	 0.656849544242932 
1581	 0.657228712230754 
1582	 0.65760857424291 
1583	 0.657975116734635 
1584	 0.658360455688484 
1585	 0.658766652965392 
1586	 0.659164112844119 
1587	 0.659567127953223 
1588	 0.659964838079799 
1589	 0.660341477920312 
1590	 0.660749433031493 
1591	 0.661167933909425 
1592	 0.661600332471041 
1593	 0.662070126274601 
1594	 0.66252034618921 
1595	 0.662970696544649 
1596	 0.663415399194027 
1597	 0.663855881536486 
1598	 0.664289053605829 
1599	 0.664715999092287 
1600	 0.6651419139689 
1601	 0.66555219008746 
1602	 0.665975556065408 
1603	 0.666408202213206 
1604	 0.666835584302363 
1605	 0.667267400116519 
1606	 0.667696869338686 
1607	 0.668129378472238 
1608	 0.668549297884179 
1609	 0.668975566373011 
1610	 0.669376928129087 
1611	 0.669758398106344 
1612	 0.670125343129461 
1613	 0.670473012672142 
1614	 0.670809214796174 
1615	 0.671130061616649 
1616	 0.671443817964994 
1617	 0.671748027503946 
1618	 0.672038418556027 
1619	 0.67230736655494 
1620	 0.67258084275654 
1621	 0.672848345984769 
1622	 0.673108813539871 
1623	 0.673386337294414 
1624	 0.673626473787858 
1625	 0.67383603711835 
1626	 0.674041110825776 
1627	 0.674226898232188 
1628	 0.674399893080098 
1629	 0.674546981042539 
1630	 0.674713521097102 
1631	 0.674874051901743 
1632	 0.675039152646311 
1633	 0.675228517467325 
1634	 0.67540241421617 
1635	 0.675564659606302 
1636	 0.675721730826058 
1637	 0.675880210891312 
1638	 0.676025015097643 
1639	 0.67616933503342 
1640	 0.676289978274934 
1641	 0.676395833237602 
1642	 0.676481549389828 
1643	 0.676532055586485 
1644	 0.676587472863506 
1645	 0.676633334090757 
1646	 0.676670583846057 
1647	 0.676708012646646 
1648	 0.676731920145089 
1649	 0.676764152870461 
1650	 0.676745111286585 
1651	 0.676704911497505 
1652	 0.676629078961286 
1653	 0.676521389485703 
1654	 0.676359074514908 
1655	 0.676144610729144 
1656	 0.675910624141049 
1657	 0.675614144701409 
1658	 0.675318887688175 
1659	 0.675024300895045 
1660	 0.674697634105799 
1661	 0.674344866709312 
1662	 0.673966117641625 
1663	 0.673564233197388 
1664	 0.673128631339666 
1665	 0.672690610942065 
1666	 0.672168417555747 
1667	 0.67158781207588 
1668	 0.670973003542538 
1669	 0.670298081598993 
1670	 0.669578413897859 
1671	 0.668837364022802 
1672	 0.66800809807806 
1673	 0.667095053896847 
1674	 0.666146202830061 
1675	 0.665146688662814 
1676	 0.664100643809172 
1677	 0.663019386154782 
1678	 0.661857348833331 
1679	 0.660615384424292 
1680	 0.659321552250466 
1681	 0.657973822722661 
1682	 0.656541069169741 
1683	 0.655044044372976 
1684	 0.653497503616563 
1685	 0.651855147414884 
1686	 0.650196435993635 
1687	 0.648465189960164 
1688	 0.646747583732945 
1689	 0.644992440677066 
1690	 0.643248035918535 
1691	 0.641515396647899 
1692	 0.639799920261747 
1693	 0.638095654880559 
1694	 0.636379121157442 
1695	 0.634671498553729 
1696	 0.632905277375441 
1697	 0.631124795066642 
1698	 0.62926377769187 
1699	 0.627351275117424 
1700	 0.625471256211765 
1701	 0.623526109764342 
1702	 0.621642662635925 
1703	 0.619746204552916 
1704	 0.617942716592032 
1705	 0.616161952868282 
1706	 0.614451930829267 
1707	 0.612941022631606 
1708	 0.611417696764458 
1709	 0.609934077590723 
1710	 0.608504602215427 
1711	 0.607011737144628 
1712	 0.605571098136819 
1713	 0.604106206628916 
1714	 0.602584208442977 
1715	 0.601137619215875 
1716	 0.599658013185779 
1717	 0.598188406152097 
1718	 0.59676431206285 
1719	 0.595303192080573 
1720	 0.593909642458478 
1721	 0.592540426765532 
1722	 0.59119613986779 
1723	 0.590018945930565 
1724	 0.588911527026208 
1725	 0.587915635472047 
1726	 0.587124719184392 
1727	 0.58647388257514 
1728	 0.586017711223268 
1729	 0.585851369517593 
1730	 0.585957590729619 
1731	 0.586281237344422 
1732	 0.586861376832873 
1733	 0.587563374030986 
1734	 0.588400624946332 
1735	 0.589383396761846 
1736	 0.590390075275063 
1737	 0.591413990847869 
1738	 0.59239520963399 
1739	 0.593201812227114 
1740	 0.593927182513297 
1741	 0.594482552798831 
1742	 0.59485172728348 
1743	 0.595182968229594 
1744	 0.595359745110347 
1745	 0.595509760249007 
1746	 0.595581751990348 
1747	 0.595664291346236 
1748	 0.595677230069073 
1749	 0.595733204761981 
1750	 0.595805669376088 
1751	 0.595897666573951 
1752	 0.595967819971527 
1753	 0.596126112349721 
1754	 0.59633668495123 
1755	 0.59657561355059 
1756	 0.596845519101671 
1757	 0.597197944595787 
1758	 0.597624280512835 
1759	 0.59815377577476 
1760	 0.598835583511164 
1761	 0.599628329175813 
1762	 0.60046643863655 
1763	 0.601444630275344 
1764	 0.602483916714792 
1765	 0.603629213678292 
1766	 0.604958536841888 
1767	 0.606300106756885 
1768	 0.607726391984529 
1769	 0.609184508496632 
1770	 0.610534954917965 
1771	 0.61189901653552 
1772	 0.61319610132017 
1773	 0.61440250479586 
1774	 0.615615458360222 
1775	 0.616737453418718 
1776	 0.617784665309942 
1777	 0.618770739860929 
1778	 0.619604217944734 
1779	 0.620356359191523 
1780	 0.621106647789447 
1781	 0.621816855911271 
1782	 0.62250261279041 
1783	 0.623151747089297 
1784	 0.623769829253039 
1785	 0.624315607926575 
1786	 0.624873086004012 
1787	 0.625470080199162 
1788	 0.625974413264215 
1789	 0.626429764603083 
1790	 0.626854372706992 
1791	 0.627198838027251 
1792	 0.627581459808092 
1793	 0.627940011991797 
1794	 0.628297141306294 
1795	 0.628648770203071 
1796	 0.62896489114592 
1797	 0.629339454956417 
1798	 0.629692560268018 
1799	 0.630059371190931 
1800	 0.630431807022083 
1801	 0.646274527946904 
1802	 0.64735327432624 
1803	 0.648284440080984 
1804	 0.649090552641025 
1805	 0.64989476229784 
1806	 0.650566037876228 
1807	 0.651129088279854 
1808	 0.651648221623752 
1809	 0.652060857239519 
1810	 0.652460243047636 
1811	 0.652791998128858 
1812	 0.653122395707851 
1813	 0.653407723908347 
1814	 0.653709637934337 
1815	 0.653983634012068 
1816	 0.654229207441715 
1817	 0.654511616315163 
1818	 0.654788868152063 
1819	 0.655087960391376 
1820	 0.655409795573861 
1821	 0.655742554419571 
1822	 0.656089955629889 
1823	 0.656446288164593 
1824	 0.656802683429574 
1825	 0.657165713026131 
1826	 0.657495867134228 
1827	 0.657807340691124 
1828	 0.658096982311109 
1829	 0.658352948125013 
1830	 0.658631546310923 
1831	 0.65890151276313 
1832	 0.659190713757132 
1833	 0.65943017903618 
1834	 0.65966216178874 
1835	 0.659904081931808 
1836	 0.660102670209764 
1837	 0.660356021309244 
1838	 0.660644161481136 
1839	 0.660949574122744 
1840	 0.661271276245268 
1841	 0.661615203604508 
1842	 0.662002443509189 
1843	 0.662388109440263 
1844	 0.662758867506274 
1845	 0.66307843483372 
1846	 0.663375263726327 
1847	 0.663641770251701 
1848	 0.663875170831695 
1849	 0.664108065867793 
1850	 0.664256114376803 
1851	 0.664360392813883 
1852	 0.664403086487103 
1853	 0.664381365303965 
1854	 0.664305967021138 
1855	 0.664158195335552 
1856	 0.663964135389554 
1857	 0.663698739615636 
1858	 0.663359561686813 
1859	 0.662989053829691 
1860	 0.662606157938784 
1861	 0.662094709534758 
1862	 0.661501737997973 
1863	 0.660878343458651 
1864	 0.660127161341757 
1865	 0.659298252134325 
1866	 0.658372153108576 
1867	 0.657325110255678 
1868	 0.65619523198233 
1869	 0.655020959976234 
1870	 0.653891758585898 
1871	 0.652757141656296 
1872	 0.651659348727352 
1873	 0.650593511582618 
1874	 0.649553909288423 
1875	 0.648530426460665 
1876	 0.647400172423882 
1877	 0.646282195836596 
1878	 0.645057892358462 
1879	 0.643670430234605 
1880	 0.642306596345299 
1881	 0.640777670585552 
1882	 0.639096114794625 
1883	 0.637353605707374 
1884	 0.635528793151621 
1885	 0.633470165808418 
1886	 0.631402957576912 
1887	 0.629180009707934 
1888	 0.626822895661958 
1889	 0.624561857294359 
1890	 0.622144110511063 
1891	 0.619708625693734 
1892	 0.617278126652148 
1893	 0.614711164687636 
1894	 0.611988949465707 
1895	 0.609335796179266 
1896	 0.606592285182725 
1897	 0.603735425613295 
1898	 0.601078086085057 
1899	 0.59835999030219 
1900	 0.595688283081056 
1901	 0.593136475984639 
1902	 0.590454478164895 
1903	 0.587934137488202 
1904	 0.58544312692081 
1905	 0.58296212927711 
1906	 0.580539687290589 
1907	 0.578392866481547 
1908	 0.576173176250996 
1909	 0.574052715023002 
1910	 0.57207840869113 
1911	 0.569976505348797 
1912	 0.567987941471806 
1913	 0.566048872548572 
1914	 0.564091670190944 
1915	 0.562264348323075 
1916	 0.56056527962525 
1917	 0.558850863113056 
1918	 0.557205689734517 
1919	 0.555617954439088 
1920	 0.553955824952582 
1921	 0.552411484687432 
1922	 0.550866592213303 
1923	 0.549330798718452 
1924	 0.547955871377498 
1925	 0.546553081891844 
1926	 0.545198883092994 
1927	 0.543921487010091 
1928	 0.542642577641073 
1929	 0.541345362831785 
1930	 0.540144717583008 
1931	 0.539006963164664 
1932	 0.537904329264889 
1933	 0.536989134776324 
1934	 0.536140419327184 
1935	 0.535346121025252 
1936	 0.534704352467461 
1937	 0.534146906665543 
1938	 0.533670080015818 
1939	 0.533313612779751 
1940	 0.533070755941696 
1941	 0.532928878923035 
1942	 0.53289250406199 
1943	 0.532920765211043 
1944	 0.533021228868423 
1945	 0.533219508522881 
1946	 0.533519769434501 
1947	 0.533878002584421 
1948	 0.534360829685773 
1949	 0.534952943353218 
1950	 0.535599752274528 
1951	 0.536330598264384 
1952	 0.537138596570043 
1953	 0.538021565023693 
1954	 0.538977387251867 
1955	 0.540037761859813 
1956	 0.541086866141773 
1957	 0.5421448234161 
1958	 0.543177371582141 
1959	 0.544073853702251 
1960	 0.544901208399239 
1961	 0.545641977922486 
1962	 0.546298727583159 
1963	 0.546842762317459 
1964	 0.547288593963052 
1965	 0.547652469104092 
1966	 0.547901140745227 
1967	 0.548090095101208 
1968	 0.548221171925714 
1969	 0.548332582994102 
1970	 0.548428374298415 
1971	 0.5485083033743 
1972	 0.548587553609601 
1973	 0.54868071954358 
1974	 0.548798132313116 
1975	 0.54892501786451 
1976	 0.549077790831169 
1977	 0.549260484753043 
1978	 0.549449830921163 
1979	 0.549644390556952 
1980	 0.549869606280755 
1981	 0.550127062375838 
1982	 0.550384425655968 
1983	 0.55067574542802 
1984	 0.550968580581893 
1985	 0.551254774773275 
1986	 0.55161653331605 
1987	 0.552026246388068 
1988	 0.552460709713902 
1989	 0.552985504792776 
1990	 0.553588649435123 
1991	 0.554232785302793 
1992	 0.554952945959809 
1993	 0.555724622704934 
1994	 0.556470363845222 
1995	 0.557270999086098 
1996	 0.55807775643619 
1997	 0.558883481949422 
1998	 0.55971060909345 
1999	 0.560604183071653 
2000	 0.561396744627052 
2001	 0.562206105385911 
2002	 0.56290462586162 
2003	 0.563512852970733 
2004	 0.564100079317035 
2005	 0.564604731497437 
2006	 0.565097339172941 
2007	 0.565581687471842 
2008	 0.566007742143896 
2009	 0.566365630899456 
2010	 0.566694320914948 
2011	 0.566949610526504 
2012	 0.567181450915057 
2013	 0.567398781446333 
2014	 0.567603566470137 
2015	 0.567763702260466 
2016	 0.567899856011707 
2017	 0.567992890329302 
2018	 0.568042299187841 
2019	 0.568062946305274 
2020	 0.568052758606448 
2021	 0.568006756657237 
2022	 0.567923689187067 
2023	 0.567790417692391 
2024	 0.567589715337029 
2025	 0.567354832855093 
2026	 0.5670561060211 
2027	 0.566683883572908 
2028	 0.566285023945191 
2029	 0.565823332800045 
2030	 0.565350312711808 
2031	 0.564860121209038 
2032	 0.564320716546977 
2033	 0.563730175390059 
2034	 0.563133187865917 
2035	 0.562494249545939 
2036	 0.561823769901631 
2037	 0.561201057609839 
2038	 0.560551123529483 
2039	 0.559894276555162 
2040	 0.559244366563856 
2041	 0.558559955436822 
2042	 0.557831959576021 
2043	 0.557144358019713 
2044	 0.556419658763476 
2045	 0.555762695435285 
2046	 0.555146563919375 
2047	 0.554546640315205 
2048	 0.553977797312355 
2049	 0.55344381179331 
2050	 0.552908688499757 
2051	 0.552443047066682 
2052	 0.552046254535289 
2053	 0.551693124927517 
2054	 0.551449977694748 
2055	 0.551290317024395 
2056	 0.551219954381739 
2057	 0.551246866701137 
2058	 0.551345425998641 
2059	 0.551536368937286 
2060	 0.551793979777881 
2061	 0.55214435492631 
2062	 0.552536940132369 
2063	 0.553041893442952 
2064	 0.55353024816795 
2065	 0.554050648721805 
2066	 0.554589282902317 
2067	 0.555178315592989 
2068	 0.555732913051928 
2069	 0.556301914463136 
2070	 0.556928780528029 
2071	 0.557465879999695 
2072	 0.557978613740487 
2073	 0.558442262014222 
2074	 0.558865859428456 
2075	 0.559233493180726 
2076	 0.559556292275209 
2077	 0.55982771659739 
2078	 0.560060721892274 
2079	 0.560219698452013 
2080	 0.560308432281431 
2081	 0.560359888095313 
2082	 0.560347591170673 
2083	 0.56028113758613 
2084	 0.560203972746267 
2085	 0.560072715666046 
2086	 0.559867296326152 
2087	 0.559587747862331 
2088	 0.55928502563867 
2089	 0.558901528121038 
2090	 0.558525413178499 
2091	 0.558157304591772 
2092	 0.557712819193138 
2093	 0.557209646467189 
2094	 0.556693164098006 
2095	 0.556107821964083 
2096	 0.555526817223916 
2097	 0.554950592019964 
2098	 0.55434425870519 
2099	 0.553696604790162 
2100	 0.553018585025797 
2101	 0.552290009904457 
2102	 0.551511278756128 
2103	 0.550711501322419 
2104	 0.549853100797556 
2105	 0.54900968246748 
2106	 0.548154173846252 
2107	 0.547270184377611 
2108	 0.546382776227 
2109	 0.545459435103982 
2110	 0.54448367661856 
2111	 0.543524158874008 
2112	 0.542523241204839 
2113	 0.541560019846592 
2114	 0.540640126734674 
2115	 0.539678733086629 
2116	 0.538697936811906 
2117	 0.537757592486676 
2118	 0.536772797757878 
2119	 0.535735157065281 
2120	 0.534763252900051 
2121	 0.533789154376449 
2122	 0.53286660031943 
2123	 0.531979573555075 
2124	 0.531112331750465 
2125	 0.530313218709111 
2126	 0.529466082731102 
2127	 0.528597617666891 
2128	 0.52777884178514 
2129	 0.526952575694593 
2130	 0.526153663943146 
2131	 0.525431188633578 
2132	 0.524668585560492 
2133	 0.523897098703633 
2134	 0.52311908377267 
2135	 0.522300026797058 
2136	 0.521535089120331 
2137	 0.520765024379118 
2138	 0.519977376287724 
2139	 0.519246437703409 
2140	 0.518554600471832 
2141	 0.517859641432572 
2142	 0.517202446114955 
2143	 0.516532210512062 
2144	 0.515850481052521 
2145	 0.515200938308266 
2146	 0.514537514620243 
2147	 0.513938146797037 
2148	 0.513401334152555 
2149	 0.51285206493014 
2150	 0.512339036849751 
2151	 0.511830090112551 
2152	 0.511308452791084 
2153	 0.510822027180621 
2154	 0.510346767248628 
2155	 0.509869020517589 
2156	 0.50941698923537 
2157	 0.508968338390898 
2158	 0.508548489921716 
2159	 0.508162259055308 
2160	 0.507772902372197 
2161	 0.507377594999382 
2162	 0.507037318023201 
2163	 0.50669837411021 
2164	 0.506436703900642 
2165	 0.506228120951016 
2166	 0.506070005794565 
2167	 0.505981179257173 
2168	 0.505915535265245 
2169	 0.505890974717324 
2170	 0.505907637085334 
2171	 0.505966172917304 
2172	 0.506055924052527 
2173	 0.506180177439307 
2174	 0.506355573003675 
2175	 0.506572403982 
2176	 0.506796673087525 
2177	 0.507092528166599 
2178	 0.50746075256283 
2179	 0.507814781159636 
2180	 0.508221305571801 
2181	 0.508594278154644 
2182	 0.508958928356454 
2183	 0.509336082255183 
2184	 0.50970415152951 
2185	 0.510101430595873 
2186	 0.510524554679195 
2187	 0.510935927703556 
2188	 0.5113788260267 
2189	 0.511785811443517 
2190	 0.512181754227475 
2191	 0.512557244218467 
2192	 0.512905630767811 
2193	 0.513248852747622 
2194	 0.513579447368217 
2195	 0.513892665601032 
2196	 0.514206197047206 
2197	 0.514492640419382 
2198	 0.514705304939669 
2199	 0.514937804925397 
2200	 0.515149162425855 
2201	 0.515329576927476 
2202	 0.515500672619142 
2203	 0.51567900416642 
2204	 0.51581037322917 
2205	 0.515893521125561 
2206	 0.515981361717329 
2207	 0.516038349191468 
2208	 0.516121681516482 
2209	 0.516194907130974 
2210	 0.516298159109083 
2211	 0.516428398804119 
2212	 0.516551840071105 
2213	 0.516671247642118 
2214	 0.516820013793664 
2215	 0.516980251881081 
2216	 0.517159260609052 
2217	 0.517388972539156 
2218	 0.517585280013805 
2219	 0.517773246429221 
2220	 0.517961883927136 
2221	 0.518135235737007 
2222	 0.518330199354174 
2223	 0.518499252913831 
2224	 0.518620830095436 
2225	 0.518689211593824 
2226	 0.518706441102258 
2227	 0.518641764594942 
2228	 0.51852978725277 
2229	 0.518303578739128 
2230	 0.517977122457161 
2231	 0.517587062118958 
2232	 0.517126785174516 
2233	 0.516552030507106 
2234	 0.515899099239161 
2235	 0.515124464455817 
2236	 0.514203017612352 
2237	 0.513245231274286 
2238	 0.512159620707027 
2239	 0.511082422760833 
2240	 0.509962300876856 
2241	 0.508791426963526 
2242	 0.507637474760723 
2243	 0.506346494688953 
2244	 0.504923326920876 
2245	 0.503503667712087 
2246	 0.501944895670975 
2247	 0.500446798450595 
2248	 0.498985448744934 
2249	 0.497489947947526 
2250	 0.495981215155175 
2251	 0.494503837619242 
2252	 0.492930117079669 
2253	 0.491358830955604 
2254	 0.489726478053273 
2255	 0.488013297770887 
2256	 0.486365831857197 
2257	 0.484663423769363 
2258	 0.48297640973782 
2259	 0.481332437306867 
2260	 0.479596816839354 
2261	 0.477807715044074 
2262	 0.476029495756609 
2263	 0.474146791896612 
2264	 0.472398546053297 
2265	 0.470714100723962 
2266	 0.469011167572536 
2267	 0.467398047497666 
2268	 0.465716852453076 
2269	 0.463935227238127 
2270	 0.462301998790683 
2271	 0.460677808603295 
2272	 0.459150337733928 
2273	 0.457776966217712 
2274	 0.456357895267075 
2275	 0.455020168482456 
2276	 0.453616916815031 
2277	 0.452217659193033 
2278	 0.450767067651301 
2279	 0.449226965962387 
2280	 0.447703356365874 
2281	 0.446197309417388 
2282	 0.444609475884614 
2283	 0.443003823224554 
2284	 0.441375932867426 
2285	 0.439514402736118 
2286	 0.437674465250354 
2287	 0.435687998676766 
2288	 0.433552299099364 
2289	 0.431544533501799 
2290	 0.429380730313112 
2291	 0.42722442073307 
2292	 0.425088823347245 
2293	 0.422678919121904 
2294	 0.420264486844791 
2295	 0.417799898028543 
2296	 0.415280917860062 
2297	 0.413021859486754 
2298	 0.410870940776518 
2299	 0.408903311508086 
2300	 0.407142715205391 
2301	 0.405474256557688 
2302	 0.403892385613164 
2303	 0.402611687617297 
2304	 0.401468148515799 
2305	 0.400654575638224 
2306	 0.400117819323586 
2307	 0.399873916190525 
2308	 0.399808393678274 
2309	 0.400280155646492 
2310	 0.401073623294593 
2311	 0.402483650210311 
2312	 0.404484059321175 
2313	 0.406921282419894 
2314	 0.410098781426366 
2315	 0.413370421376239 
2316	 0.417211925610307 
2317	 0.420904729597123 
2318	 0.425069990155226 
2319	 0.428568009864156 
2320	 0.432049855334058 
2321	 0.434890174400605 
2322	 0.437100658813089 
2323	 0.439025819626886 
2324	 0.440457686446337 
2325	 0.441638714259669 
2326	 0.442430591199599 
2327	 0.442992456056398 
2328	 0.443200517851718 
2329	 0.443223037463022 
2330	 0.442952660583666 
2331	 0.442473322749212 
2332	 0.441876624493291 
2333	 0.441063350537427 
2334	 0.439992549090867 
2335	 0.438738160233277 
2336	 0.437174359255683 
2337	 0.435472236522161 
2338	 0.43383940338706 
2339	 0.432034176785113 
2340	 0.430222010040965 
2341	 0.42839934153637 
2342	 0.426376457583802 
2343	 0.424506304588002 
2344	 0.422781674864271 
2345	 0.421141286990952 
2346	 0.419943879033654 
2347	 0.419121572397845 
2348	 0.418637778709082 
2349	 0.418730259871666 
2350	 0.419282252070356 
2351	 0.420272213024921 
2352	 0.421745574347255 
2353	 0.423780141728683 
2354	 0.426022073489441 
2355	 0.428466375373393 
2356	 0.430913833309759 
2357	 0.433074525263316 
2358	 0.435086350420573 
2359	 0.436778256963718 
2360	 0.43828827781346 
2361	 0.439466296407898 
2362	 0.440159204939761 
2363	 0.440612622434169 
2364	 0.440858254723306 
2365	 0.440943371476443 
2366	 0.441077541656123 
2367	 0.441157843241942 
2368	 0.441228014252549 
2369	 0.441313249162348 
2370	 0.441322226617743 
2371	 0.44138789670805 
2372	 0.44138452550946 
2373	 0.441275260349853 
2374	 0.441180405976599 
2375	 0.441092704878642 
2376	 0.440993494999729 
2377	 0.440839237029589 
2378	 0.440639323164025 
2379	 0.440363198265085 
2380	 0.44004190584154 
2381	 0.439673221384815 
2382	 0.439329020855918 
2383	 0.43897047413568 
2384	 0.438746280130552 
2385	 0.438551568923059 
2386	 0.438437816735375 
2387	 0.438472174361987 
2388	 0.438434181686624 
2389	 0.438406422894202 
2390	 0.438358151982717 
2391	 0.438341148809787 
2392	 0.438264799673488 
2393	 0.43809592742537 
2394	 0.438054112639197 
2395	 0.438042426159056 
2396	 0.43803055343118 
2397	 0.438088014275879 
2398	 0.438124548070212 
2399	 0.438132163012892 
2400	 0.4382059629566 
2401	 0.438353810568555 
2402	 0.438488883657579 
2403	 0.438631453936869 
2404	 0.438784434970667 
2405	 0.438775925668478 
2406	 0.438814155045857 
2407	 0.43887192042445 
2408	 0.438914101590123 
2409	 0.439089768083763 
2410	 0.439207187423298 
2411	 0.439186392703532 
2412	 0.43917922754374 
2413	 0.439266413906121 
2414	 0.43938457382638 
2415	 0.439512985944136 
2416	 0.439633938088968 
2417	 0.439682741812136 
2418	 0.439641792995502 
2419	 0.439622985991524 
2420	 0.439630441669716 
2421	 0.439577573757804 
2422	 0.439599948494763 
2423	 0.43965874713831 
2424	 0.439694729434802 
2425	 0.439661098292438 
2426	 0.439629060639025 
2427	 0.439709130060083 
2428	 0.439672218894142 
2429	 0.439662801247835 
2430	 0.439645512324462 
2431	 0.439305926583863 
2432	 0.438980497022492 
2433	 0.438864725049331 
2434	 0.438735167156138 
2435	 0.438560729080771 
2436	 0.438394938180479 
2437	 0.438144872636636 
2438	 0.437839831904177 
2439	 0.437766364408365 
2440	 0.437928125083404 
2441	 0.437987705107932 
2442	 0.437992698047459 
2443	 0.437967029134455 
2444	 0.437672468651302 
2445	 0.43744419874511 
2446	 0.437435731577419 
2447	 0.437453639399078 
2448	 0.43747831905101 
2449	 0.43742241145436 
2450	 0.437283329063772 
2451	 0.436875320804855 
2452	 0.436306916794781 
2453	 0.435874505849315 
2454	 0.435386208227957 
2455	 0.434983036570993 
2456	 0.434893963445177 
2457	 0.434799479683288 
2458	 0.434621729942039 
2459	 0.434448741759571 
2460	 0.434042592959242 
2461	 0.433543220263835 
2462	 0.433164355196706 
2463	 0.432856007349638 
2464	 0.432864975496755 
2465	 0.433023457622156 
2466	 0.433015627114087 
2467	 0.432910959255347 
2468	 0.432501421024307 
2469	 0.432055993801114 
2470	 0.43193551457658 
2471	 0.431890787732229 
2472	 0.432028852768062 
2473	 0.432281086580383 
2474	 0.432366221739478 
2475	 0.432484378674124 
2476	 0.432663487731469 
2477	 0.432763714739706 
2478	 0.432939318564181 
2479	 0.433203762346583 
2480	 0.433501839663864 
2481	 0.433794249471249 
2482	 0.433955563689168 
2483	 0.43400234410942 
2484	 0.434264302757573 
2485	 0.434482829076129 
2486	 0.434861225346617 
2487	 0.435329790969959 
2488	 0.435847269874556 
2489	 0.436382061913246 
2490	 0.436820224543644 
2491	 0.437276106037389 
2492	 0.437838597013373 
2493	 0.438461352269498 
2494	 0.439238016251094 
2495	 0.439600820829877 
2496	 0.439685468463642 
2497	 0.439981659824238 
2498	 0.439961309591764 
2499	 0.44050726832341 
2500	 0.441392681376485 
