Wavelength	spectrum00001.asd
350	 0.060939095578034 
351	 5.82503914145633E-02 
352	 0.055054442326639 
353	 5.41067170332028E-02 
354	 5.57729274917563E-02 
355	 5.40627992710958E-02 
356	 5.17972948633378E-02 
357	 5.16804564205017E-02 
358	 4.97836321855367E-02 
359	 4.74681115887497E-02 
360	 4.64051074062969E-02 
361	 4.77579330087345E-02 
362	 4.82007672021358E-02 
363	 4.70906185137781E-02 
364	 4.50683862352437E-02 
365	 4.39451057050602E-02 
366	 4.45267002782308E-02 
367	 4.50951398239143E-02 
368	 4.44670147403025E-02 
369	 4.54828134709478E-02 
370	 4.51299957357736E-02 
371	 4.38644797009661E-02 
372	 4.39380898049845E-02 
373	 4.41888173538126E-02 
374	 4.45377208639528E-02 
375	 4.45188601929648E-02 
376	 4.29382741284193E-02 
377	 4.29843600714013E-02 
378	 4.36982065322212E-02 
379	 4.34375026144189E-02 
380	 4.21227970177668E-02 
381	 4.23636524224786E-02 
382	 4.30278106402313E-02 
383	 4.12815781607386E-02 
384	 4.15195061161744E-02 
385	 4.24121988378222E-02 
386	 4.24610261252784E-02 
387	 4.09099147318228E-02 
388	 4.03868007416197E-02 
389	 4.07309977917023E-02 
390	 4.10210337603147E-02 
391	 4.08420061641395E-02 
392	 4.04050672703089E-02 
393	 4.00934930504611E-02 
394	 4.02936874878836E-02 
395	 4.03767354253642E-02 
396	 4.05535680981526E-02 
397	 4.07084068060192E-02 
398	 3.99469145167039E-02 
399	 3.97514597882109E-02 
400	 3.97727125331567E-02 
401	 3.92987465874441E-02 
402	 3.83908745076064E-02 
403	 3.85570655886267E-02 
404	 3.92031363691264E-02 
405	 3.83729192581892E-02 
406	 3.82784317758897E-02 
407	 3.83686359907764E-02 
408	 0.038184085047446 
409	 3.82713099534741E-02 
410	 3.80647061243878E-02 
411	 3.79107479924136E-02 
412	 3.82070031622014E-02 
413	 3.81033419015195E-02 
414	 3.76910390581478E-02 
415	 3.73417419656786E-02 
416	 0.037573865114017 
417	 3.77740338586863E-02 
418	 3.78957742690906E-02 
419	 3.79494884013515E-02 
420	 3.77862058680173E-02 
421	 3.77304645658254E-02 
422	 3.78349983619325E-02 
423	 3.79951327783626E-02 
424	 3.79565758890226E-02 
425	 3.78395748867778E-02 
426	 3.78331483353395E-02 
427	 3.81586083610589E-02 
428	 3.82265835661759E-02 
429	 3.83652215487993E-02 
430	 3.87811281657841E-02 
431	 3.86148829204685E-02 
432	 3.87973185854762E-02 
433	 3.92347119837198E-02 
434	 3.93222489257302E-02 
435	 0.039561203148018 
436	 0.039934639291566 
437	 4.02640213232144E-02 
438	 4.01887668815312E-02 
439	 4.04397195289649E-02 
440	 4.08274273855403E-02 
441	 4.10115809458074E-02 
442	 4.12547219273707E-02 
443	 4.15265227070486E-02 
444	 4.18100414473567E-02 
445	 4.20956835502419E-02 
446	 4.22084056978274E-02 
447	 4.22947925271514E-02 
448	 4.24888609230305E-02 
449	 4.27980910005568E-02 
450	 4.30412839742994E-02 
451	 4.31571099002417E-02 
452	 4.31584303249496E-02 
453	 4.31234147028229E-02 
454	 4.32319294264665E-02 
455	 4.34151183049743E-02 
456	 4.33375888022729E-02 
457	 4.34254552884281E-02 
458	 4.35044381900695E-02 
459	 4.34292965787988E-02 
460	 4.35664840994254E-02 
461	 4.35916934145979E-02 
462	 4.35231006422302E-02 
463	 4.35568508919262E-02 
464	 4.36129556931668E-02 
465	 4.36904919435774E-02 
466	 4.37444473251076E-02 
467	 4.36441162476082E-02 
468	 4.36661945921032E-02 
469	 4.36907669532099E-02 
470	 4.35958519655254E-02 
471	 4.37862791962189E-02 
472	 4.38753185184871E-02 
473	 4.38299906264185E-02 
474	 4.39078356926072E-02 
475	 0.043985517284483 
476	 4.40502799574145E-02 
477	 4.41273910967857E-02 
478	 4.42982384320533E-02 
479	 4.44545435887231E-02 
480	 4.45619729534653E-02 
481	 4.46315801678352E-02 
482	 4.47441602059286E-02 
483	 4.48635389547858E-02 
484	 4.50097801462432E-02 
485	 4.52736421388287E-02 
486	 4.55072074698438E-02 
487	 4.56971339509166E-02 
488	 4.58676228638769E-02 
489	 4.60388299094114E-02 
490	 4.62773028088241E-02 
491	 4.65781735307493E-02 
492	 4.68931230734903E-02 
493	 4.72253828201783E-02 
494	 4.75325262863927E-02 
495	 4.78329958851925E-02 
496	 4.82574259300309E-02 
497	 4.86303563377127E-02 
498	 4.89874711176087E-02 
499	 4.94140871767271E-02 
500	 4.99059309863254E-02 
501	 5.03668642802326E-02 
502	 5.08095066407113E-02 
503	 5.13399829241955E-02 
504	 5.19045962674407E-02 
505	 0.052410394067155 
506	 5.28676168420836E-02 
507	 0.053561647444211 
508	 5.42087327170496E-02 
509	 5.48085852426383E-02 
510	 5.54759022776731E-02 
511	 5.61650597830931E-02 
512	 0.056902960052406 
513	 5.76919411030273E-02 
514	 5.85005419581755E-02 
515	 0.059281065720318 
516	 6.00749394159329E-02 
517	 6.09357630560777E-02 
518	 6.18679744684729E-02 
519	 6.28320355853577E-02 
520	 6.38394933013875E-02 
521	 6.49318708044911E-02 
522	 6.60594440879803E-02 
523	 6.72324105799288E-02 
524	 6.84521868292401E-02 
525	 6.96881339662897E-02 
526	 7.09595446743024E-02 
527	 7.22943293617781E-02 
528	 7.37167576515615E-02 
529	 7.52086780097818E-02 
530	 7.67344865358027E-02 
531	 7.83041516021256E-02 
532	 7.99725247613389E-02 
533	 8.16765997208014E-02 
534	 0.083464580116699 
535	 8.53622676237565E-02 
536	 8.72641460431586E-02 
537	 8.92739921142744E-02 
538	 9.14019602438127E-02 
539	 9.35952352870018E-02 
540	 9.57527289227272E-02 
541	 9.79744875867395E-02 
542	 0.100313128341095 
543	 0.102705563387527 
544	 0.105122053647842 
545	 0.107555644501219 
546	 0.110026535715246 
547	 0.112631011406753 
548	 0.115283753888413 
549	 0.11797845112802 
550	 0.120779214946208 
551	 0.123609142925711 
552	 0.126476700172526 
553	 0.129402758949271 
554	 0.132394135410672 
555	 0.135421450692079 
556	 0.138495156824186 
557	 0.141623449478009 
558	 0.144664899067095 
559	 0.147670435618916 
560	 0.150679196692599 
561	 0.153686348767022 
562	 0.15658998609412 
563	 0.159310017864804 
564	 0.161826264289951 
565	 0.164288811286042 
566	 0.16672031088447 
567	 0.169122618150714 
568	 0.171489762405953 
569	 0.17396317949827 
570	 0.176472214536475 
571	 0.178942385908661 
572	 0.181383889373889 
573	 0.183648377149505 
574	 0.185721521787966 
575	 0.187636728817719 
576	 0.189326036152747 
577	 0.190785747740448 
578	 0.192091970989584 
579	 0.193398017163393 
580	 0.194719958274735 
581	 0.196093360075415 
582	 0.19752770247367 
583	 0.198962274879662 
584	 0.200384167636916 
585	 0.201760683402142 
586	 0.203041739746513 
587	 0.204110821651881 
588	 0.205046349521947 
589	 0.20593062873115 
590	 0.206803681901419 
591	 0.207640504695998 
592	 0.208459490341365 
593	 0.209278525843956 
594	 0.210075629365387 
595	 0.210743938359715 
596	 0.211254758812514 
597	 0.211653949834878 
598	 0.212009763895036 
599	 0.212286741907847 
600	 0.212475814450743 
601	 0.21267844293652 
602	 0.212873871605358 
603	 0.213020902433188 
604	 0.213083242673266 
605	 0.213140620546504 
606	 0.213193983983476 
607	 0.213216124576807 
608	 0.213155053395427 
609	 0.213044494703421 
610	 0.212906640378456 
611	 0.212758139711216 
612	 0.212605039945843 
613	 0.212448685062933 
614	 0.21228675591795 
615	 0.212113854960666 
616	 0.2119209483844 
617	 0.211736258340646 
618	 0.211565631524427 
619	 0.211364953843712 
620	 0.211181577287786 
621	 0.210994931818514 
622	 0.210777464370116 
623	 0.210579567703318 
624	 0.210395122986771 
625	 0.2102104082831 
626	 0.210009087197249 
627	 0.209822474109183 
628	 0.209663825035095 
629	 0.209531607361572 
630	 0.209404050998335 
631	 0.209241169670305 
632	 0.209091618898646 
633	 0.209022768065738 
634	 0.208925545324485 
635	 0.208800908483927 
636	 0.208677926715357 
637	 0.208607238000309 
638	 0.20855688856263 
639	 0.208524910343699 
640	 0.208506044567594 
641	 0.208456620575493 
642	 0.208448736782218 
643	 0.208511987385955 
644	 0.208628060922381 
645	 0.208617018692267 
646	 0.208623840283664 
647	 0.208732560222408 
648	 0.208862326304678 
649	 0.208982890175273 
650	 0.209101016200477 
651	 0.209237893872305 
652	 0.209401496449114 
653	 0.209615560266042 
654	 0.209852089199759 
655	 0.210050515388976 
656	 0.210311968461496 
657	 0.21060688885943 
658	 0.210906555512486 
659	 0.211230095778343 
660	 0.211588728375224 
661	 0.211946863183129 
662	 0.212276794105005 
663	 0.212697162927487 
664	 0.213142838392937 
665	 0.213572771366049 
666	 0.213986066338608 
667	 0.21447981802515 
668	 0.215034962580036 
669	 0.215596186750129 
670	 0.216071226668078 
671	 0.216659498828461 
672	 0.217311639327439 
673	 0.217891909800693 
674	 0.218533066740915 
675	 0.219224856453471 
676	 0.219927858704356 
677	 0.220584355591147 
678	 0.221323940331566 
679	 0.222099231462487 
680	 0.222862079894215 
681	 0.223702251893891 
682	 0.224555526392389 
683	 0.22541521012721 
684	 0.226307463164288 
685	 0.227235267109786 
686	 0.228186546914234 
687	 0.229153534252818 
688	 0.230137909936114 
689	 0.231098708929644 
690	 0.232110541855111 
691	 0.233232800121579 
692	 0.234367957481519 
693	 0.235472081015782 
694	 0.236585320518855 
695	 0.237786051504866 
696	 0.238967272460489 
697	 0.240192318185315 
698	 0.241476377825622 
699	 0.242731883817375 
700	 0.243970402940717 
701	 0.245262260967346 
702	 0.246656744671081 
703	 0.24805528686548 
704	 0.249448482412261 
705	 0.250847467997901 
706	 0.25227596324154 
707	 0.253713946212511 
708	 0.255174809885618 
709	 0.256669049044836 
710	 0.258195760609611 
711	 0.259727644152807 
712	 0.261250579578066 
713	 0.262774532852829 
714	 0.264387869850287 
715	 0.265977766831356 
716	 0.267520535541577 
717	 0.269069379165631 
718	 0.270734409259517 
719	 0.27239820324967 
720	 0.274003864865994 
721	 0.275652509012965 
722	 0.277263306474997 
723	 0.278848638129178 
724	 0.28045712198627 
725	 0.282181840413284 
726	 0.283836735976255 
727	 0.285401941295835 
728	 0.286981079870595 
729	 0.288581580183759 
730	 0.290174910469838 
731	 0.291743254586874 
732	 0.293297508988787 
733	 0.2948827033582 
734	 0.296427765678197 
735	 0.297874736277485 
736	 0.299335983788948 
737	 0.300793168034054 
738	 0.302240868081332 
739	 0.303669436074989 
740	 0.30495091477963 
741	 0.306205434259576 
742	 0.307486918493548 
743	 0.308704976030426 
744	 0.309928177476632 
745	 0.311076169605368 
746	 0.312085782667017 
747	 0.3130637394942 
748	 0.31410033131596 
749	 0.315149294199453 
750	 0.316089307793705 
751	 0.316934745712875 
752	 0.317678764089546 
753	 0.318364899391106 
754	 0.319097395954933 
755	 0.319818078959441 
756	 0.320431426970389 
757	 0.320902043117011 
758	 0.321377821463301 
759	 0.321841185191815 
760	 0.322251079612714 
761	 0.322565985279815 
762	 0.322837064452076 
763	 0.323091843045507 
764	 0.323299446486984 
765	 0.323377715954381 
766	 0.32343242017653 
767	 0.323449420492854 
768	 0.323405015353952 
769	 0.323314562251425 
770	 0.323113614768176 
771	 0.322877777136721 
772	 0.322688142167468 
773	 0.322382846234804 
774	 0.322026093802879 
775	 0.321632779159732 
776	 0.32117554981681 
777	 0.320716880782353 
778	 0.320267210007324 
779	 0.319778681426932 
780	 0.319122471992644 
781	 0.318478738005881 
782	 0.317806681888248 
783	 0.317048391502218 
784	 0.316322531428758 
785	 0.315568229239567 
786	 0.314787115928497 
787	 0.314001568736139 
788	 0.313100084070767 
789	 0.312162229891433 
790	 0.311243576570498 
791	 0.310345234510775 
792	 0.309437930597231 
793	 0.308483811622967 
794	 0.307474326092141 
795	 0.30647070837907 
796	 0.30544912813272 
797	 0.304404962480338 
798	 0.303343730906384 
799	 0.302290491806443 
800	 0.301179974385802 
801	 0.300058713046046 
802	 0.2990368723718 
803	 0.297914036710132 
804	 0.296779242910348 
805	 0.295697310479083 
806	 0.294637366015514 
807	 0.293484861130787 
808	 0.292299885235096 
809	 0.291164783107871 
810	 0.290086626797966 
811	 0.288988305068189 
812	 0.287847770230018 
813	 0.286679984491253 
814	 0.285534489631991 
815	 0.284396793391772 
816	 0.28326254545037 
817	 0.282139619114991 
818	 0.281007750558637 
819	 0.279897607375616 
820	 0.278805702965504 
821	 0.277663532726476 
822	 0.276513517352127 
823	 0.275421511195031 
824	 0.274409056773694 
825	 0.273351276623998 
826	 0.272265022902061 
827	 0.271158921878344 
828	 0.270054893208697 
829	 0.269051112230565 
830	 0.268025690897476 
831	 0.266968589085582 
832	 0.265970231672421 
833	 0.264962458525009 
834	 0.263969316631451 
835	 0.26300372736693 
836	 0.2620404614934 
837	 0.261111841106417 
838	 0.260193350368212 
839	 0.259252940927288 
840	 0.258266480037792 
841	 0.257358622791137 
842	 0.256516951440011 
843	 0.255671027835357 
844	 0.254787262964106 
845	 0.253916797544839 
846	 0.253087321777831 
847	 0.25230000677937 
848	 0.251532202103705 
849	 0.250758036224839 
850	 0.249981123957466 
851	 0.249240390602986 
852	 0.248478586870259 
853	 0.247766702206143 
854	 0.247126624041624 
855	 0.246427038487204 
856	 0.245686600800499 
857	 0.244962700384735 
858	 0.244318128627599 
859	 0.243781593448622 
860	 0.243190425311594 
861	 0.242549420142781 
862	 0.241949533385611 
863	 0.241391645796706 
864	 0.240836290723622 
865	 0.240264713957053 
866	 0.239685958849755 
867	 0.23916427257739 
868	 0.238679201983038 
869	 0.238204246124048 
870	 0.237724556052835 
871	 0.237243024399827 
872	 0.236783384187667 
873	 0.236356536264155 
874	 0.235933585117467 
875	 0.235548170997465 
876	 0.235195441050871 
877	 0.234856147001659 
878	 0.234511641528497 
879	 0.23417114990931 
880	 0.233827023070334 
881	 0.233474179024338 
882	 0.233162257536032 
883	 0.232869080002446 
884	 0.232583862475328 
885	 0.23230435405588 
886	 0.23198647200538 
887	 0.231764098889387 
888	 0.231634835285291 
889	 0.231429215217492 
890	 0.231225858376627 
891	 0.231003063073425 
892	 0.230773582640801 
893	 0.230630877075422 
894	 0.230468738089908 
895	 0.230338830337127 
896	 0.230282740687828 
897	 0.230218529338564 
898	 0.230113269631064 
899	 0.230003135767214 
900	 0.229933704040431 
901	 0.229873949754662 
902	 0.229836353511935 
903	 0.229821209548179 
904	 0.229816072984548 
905	 0.229774482304664 
906	 0.229790661421974 
907	 0.229843112736845 
908	 0.229841685079368 
909	 0.229890585852107 
910	 0.229987022724648 
911	 0.230087137434031 
912	 0.230130643971414 
913	 0.230214873986258 
914	 0.230323456578591 
915	 0.230423387748688 
916	 0.230490673765224 
917	 0.23067429234297 
918	 0.230818083204684 
919	 0.230870482796907 
920	 0.231083294945489 
921	 0.231276620867004 
922	 0.231423135499435 
923	 0.231563913757188 
924	 0.23180849408257 
925	 0.232042379641687 
926	 0.232214599204349 
927	 0.232349555433573 
928	 0.232637175828463 
929	 0.232905761014507 
930	 0.233155066301075 
931	 0.233432182926853 
932	 0.233643975251322 
933	 0.233882785247088 
934	 0.234175989278895 
935	 0.234503467624096 
936	 0.23483299762498 
937	 0.235150836686258 
938	 0.235440899388164 
939	 0.235708267852588 
940	 0.236101182327465 
941	 0.23649290175807 
942	 0.23683267912002 
943	 0.237165131088609 
944	 0.237540514846373 
945	 0.237937303504477 
946	 0.238352523167411 
947	 0.238800968206783 
948	 0.239156537895565 
949	 0.239504235408956 
950	 0.239887224538168 
951	 0.240257824678199 
952	 0.240663544779769 
953	 0.241090672237749 
954	 0.241513228936676 
955	 0.241910196463845 
956	 0.242398698209085 
957	 0.242893500514895 
958	 0.24333806559488 
959	 0.243800503620118 
960	 0.244270346104984 
961	 0.244789088914781 
962	 0.245374102943252 
963	 0.245979361437862 
964	 0.246412671295047 
965	 0.246850850464786 
966	 0.247439692887243 
967	 0.248022697638367 
968	 0.248579258162364 
969	 0.24915483725445 
970	 0.249768485140724 
971	 0.250315692893412 
972	 0.250853926500388 
973	 0.251428777163604 
974	 0.25205257753619 
975	 0.252651997890303 
976	 0.253328683301904 
977	 0.254056069957603 
978	 0.254748464135232 
979	 0.255276438742113 
980	 0.255902910401209 
981	 0.256568269660175 
982	 0.257166045961299 
983	 0.257825521333619 
984	 0.258509316160281 
985	 0.259231959589432 
986	 0.260001569758972 
987	 0.260765536000212 
988	 0.261427394460413 
989	 0.262087352593382 
990	 0.262856868952673 
991	 0.263620692409653 
992	 0.26439484393583 
993	 0.265132423603787 
994	 0.265839435194495 
995	 0.266765293803133 
996	 0.267631951207613 
997	 0.268418949173966 
998	 0.269203292976955 
999	 0.270019943266551 
1000	 0.270951546858452 
1001	 0.265296855771968 
1002	 0.266212902903779 
1003	 0.267091340481131 
1004	 0.267934666743775 
1005	 0.268771220565912 
1006	 0.269604354929016 
1007	 0.270362862218036 
1008	 0.271229352952993 
1009	 0.272152272202478 
1010	 0.273044009268379 
1011	 0.273982734158534 
1012	 0.274891985793438 
1013	 0.275730761989 
1014	 0.276655384239896 
1015	 0.277612666300095 
1016	 0.278577134986222 
1017	 0.279632639871344 
1018	 0.280671834718892 
1019	 0.281714179410232 
1020	 0.282778490352522 
1021	 0.283806991440274 
1022	 0.284809811738461 
1023	 0.2858507140657 
1024	 0.286864539330308 
1025	 0.287927302719899 
1026	 0.289004932617496 
1027	 0.290124739963719 
1028	 0.291292929204458 
1029	 0.29250161977877 
1030	 0.293617720072476 
1031	 0.294780399094179 
1032	 0.295898024787025 
1033	 0.297008790686326 
1034	 0.29824996931703 
1035	 0.299443335182285 
1036	 0.300663721049434 
1037	 0.301939510493764 
1038	 0.30315887694169 
1039	 0.304348270030227 
1040	 0.305590148925478 
1041	 0.306800433218537 
1042	 0.308065504596823 
1043	 0.309410397460316 
1044	 0.310694353072098 
1045	 0.311980010983846 
1046	 0.313336898331638 
1047	 0.314625711745809 
1048	 0.315955290701607 
1049	 0.317281691538548 
1050	 0.318595070002335 
1051	 0.319994892921466 
1052	 0.321390702153174 
1053	 0.322839586902068 
1054	 0.324407202737828 
1055	 0.325868855515636 
1056	 0.327292714478212 
1057	 0.328757910342913 
1058	 0.330187476505881 
1059	 0.331635954037033 
1060	 0.333203739009221 
1061	 0.334712038008704 
1062	 0.33626388764944 
1063	 0.337860564828757 
1064	 0.33933534004185 
1065	 0.340877221743676 
1066	 0.342455168793349 
1067	 0.343993715786069 
1068	 0.345658322299542 
1069	 0.347307288561095 
1070	 0.348950816084157 
1071	 0.350598034960616 
1072	 0.352262055181187 
1073	 0.353839835366092 
1074	 0.355501872969415 
1075	 0.357168707559605 
1076	 0.358842199953604 
1077	 0.360653967693465 
1078	 0.362387920183672 
1079	 0.364142148249294 
1080	 0.36594693272704 
1081	 0.367635021724306 
1082	 0.369395066812422 
1083	 0.371137441836199 
1084	 0.372859095164958 
1085	 0.374718855226208 
1086	 0.376537238602391 
1087	 0.378333551005832 
1088	 0.380227803152863 
1089	 0.382142080421392 
1090	 0.383899134243941 
1091	 0.385761389019905 
1092	 0.38757485490687 
1093	 0.38938771283227 
1094	 0.391380528289921 
1095	 0.393266001348814 
1096	 0.395183384017175 
1097	 0.397138654131605 
1098	 0.398948317639039 
1099	 0.400869739528756 
1100	 0.402774675348699 
1101	 0.404623335172262 
1102	 0.406603280781024 
1103	 0.40854763082141 
1104	 0.410463960859217 
1105	 0.412463957664121 
1106	 0.414528090848572 
1107	 0.416454197801585 
1108	 0.418443849509891 
1109	 0.420391902986691 
1110	 0.422302478284363 
1111	 0.42435500009491 
1112	 0.426335827290632 
1113	 0.428371721724259 
1114	 0.430483507774827 
1115	 0.432438803315957 
1116	 0.434436850772392 
1117	 0.436406374557707 
1118	 0.438396666267614 
1119	 0.440390404708538 
1120	 0.442408205764691 
1121	 0.444425627911018 
1122	 0.446501972070613 
1123	 0.448620277579066 
1124	 0.450570349852643 
1125	 0.452584098197668 
1126	 0.454579470345101 
1127	 0.456516163004586 
1128	 0.458582592578836 
1129	 0.460577005912275 
1130	 0.462629508425048 
1131	 0.464734256909964 
1132	 0.466645200946052 
1133	 0.468617325055195 
1134	 0.470562810873513 
1135	 0.472503571536654 
1136	 0.474434463230376 
1137	 0.476380947171417 
1138	 0.478347052171114 
1139	 0.480274282468521 
1140	 0.482222758311122 
1141	 0.484014345594247 
1142	 0.485823996465162 
1143	 0.487610390858767 
1144	 0.489357761199326 
1145	 0.491183882091092 
1146	 0.492925693762388 
1147	 0.494681314964272 
1148	 0.496465629192821 
1149	 0.498109666917823 
1150	 0.499787334634937 
1151	 0.501426450653036 
1152	 0.503030675119646 
1153	 0.504593575651786 
1154	 0.506148016429225 
1155	 0.507686249545104 
1156	 0.509203109426071 
1157	 0.510697616057227 
1158	 0.512114327347645 
1159	 0.513498715371646 
1160	 0.514842009998366 
1161	 0.516099630648278 
1162	 0.517428053031182 
1163	 0.518708280845209 
1164	 0.51995128198807 
1165	 0.521225000586447 
1166	 0.522415290785704 
1167	 0.523615435607606 
1168	 0.524805677206296 
1169	 0.525971812330205 
1170	 0.527106347145667 
1171	 0.528247319276241 
1172	 0.529358600064141 
1173	 0.530514081258456 
1174	 0.531684622470403 
1175	 0.53282630107415 
1176	 0.533970414498243 
1177	 0.535128873821711 
1178	 0.536252764735495 
1179	 0.537439830579832 
1180	 0.538622394993483 
1181	 0.539845947544127 
1182	 0.541097305973558 
1183	 0.542271084560799 
1184	 0.543461805126718 
1185	 0.544626294484915 
1186	 0.545804335928716 
1187	 0.546971826372983 
1188	 0.548142712317614 
1189	 0.549333400343861 
1190	 0.550507285745815 
1191	 0.551655332977231 
1192	 0.552789453878767 
1193	 0.553925555025277 
1194	 0.555051620241274 
1195	 0.556173995370234 
1196	 0.557276891861447 
1197	 0.558365060950635 
1198	 0.559455158329274 
1199	 0.560532941003773 
1200	 0.5615537114491 
1201	 0.562599078948298 
1202	 0.563630510443323 
1203	 0.564656411751635 
1204	 0.565748528267942 
1205	 0.566865323442054 
1206	 0.568008284847404 
1207	 0.569211904314763 
1208	 0.570440860537792 
1209	 0.571735336340755 
1210	 0.57309628386927 
1211	 0.574489279300761 
1212	 0.575975039286963 
1213	 0.577438425104799 
1214	 0.578926114160692 
1215	 0.580423061029242 
1216	 0.581934205919564 
1217	 0.583420045137071 
1218	 0.58492829131713 
1219	 0.586412203232538 
1220	 0.587826535749086 
1221	 0.589298022466031 
1222	 0.590700725547912 
1223	 0.592086047244102 
1224	 0.593447171229174 
1225	 0.594792173065445 
1226	 0.596065808089392 
1227	 0.597297103739478 
1228	 0.598506693486064 
1229	 0.599659542502129 
1230	 0.600812380450347 
1231	 0.60195065240171 
1232	 0.603071309957031 
1233	 0.604157260185435 
1234	 0.605231825056463 
1235	 0.60629020390212 
1236	 0.607348469985589 
1237	 0.608393526537185 
1238	 0.609434721336396 
1239	 0.610470271441308 
1240	 0.61150808804858 
1241	 0.612561756600044 
1242	 0.613525709094332 
1243	 0.61447623461375 
1244	 0.615396390621708 
1245	 0.616305534776767 
1246	 0.617188065127482 
1247	 0.618040617116017 
1248	 0.618883929305417 
1249	 0.619688373995641 
1250	 0.620445660154736 
1251	 0.621182875028475 
1252	 0.6218961691678 
1253	 0.622593594134494 
1254	 0.62326941355146 
1255	 0.623916633536426 
1256	 0.624542299754564 
1257	 0.625152890312407 
1258	 0.625728380342742 
1259	 0.626292389372256 
1260	 0.626835515654188 
1261	 0.627381286537657 
1262	 0.627906097574872 
1263	 0.628448172965152 
1264	 0.628958840992175 
1265	 0.6294686484179 
1266	 0.62995917158818 
1267	 0.630416019287172 
1268	 0.630884608402382 
1269	 0.631348501290175 
1270	 0.631816673993048 
1271	 0.632301428175312 
1272	 0.632741597550352 
1273	 0.633171637567765 
1274	 0.633579023019192 
1275	 0.63393572249297 
1276	 0.634307333287656 
1277	 0.634672917969812 
1278	 0.635038668407192 
1279	 0.635404136609726 
1280	 0.635759347543877 
1281	 0.636113165855086 
1282	 0.63645679599303 
1283	 0.63678719611883 
1284	 0.637109831619057 
1285	 0.637424532616602 
1286	 0.637738498660514 
1287	 0.638020897946724 
1288	 0.638286709854497 
1289	 0.638539484555593 
1290	 0.638760011803134 
1291	 0.638999035772471 
1292	 0.639246621498317 
1293	 0.639463335723774 
1294	 0.639669939492366 
1295	 0.63986782277742 
1296	 0.640031603572527 
1297	 0.640217093108879 
1298	 0.640421395233036 
1299	 0.640600233736168 
1300	 0.64077968825191 
1301	 0.640937089434861 
1302	 0.641079329512724 
1303	 0.641201614248719 
1304	 0.641298394844151 
1305	 0.641394961690198 
1306	 0.6414710920949 
1307	 0.641549022333277 
1308	 0.641634938374742 
1309	 0.641708956334285 
1310	 0.641758459329826 
1311	 0.641794582422257 
1312	 0.64181957501361 
1313	 0.641824642906106 
1314	 0.641821641079638 
1315	 0.641818330937709 
1316	 0.641784219039808 
1317	 0.641727360648598 
1318	 0.641659940854137 
1319	 0.641564960334529 
1320	 0.641479514737623 
1321	 0.641391135055434 
1322	 0.641291948688635 
1323	 0.641202091771981 
1324	 0.641080127099967 
1325	 0.640930169541307 
1326	 0.640781482098955 
1327	 0.640634438900325 
1328	 0.640451595943622 
1329	 0.64026171113317 
1330	 0.64004176098307 
1331	 0.639796288263518 
1332	 0.639514094661913 
1333	 0.639205390227432 
1334	 0.638864724796061 
1335	 0.638515285139349 
1336	 0.638128248836776 
1337	 0.637748037225549 
1338	 0.637372544690805 
1339	 0.636961360889074 
1340	 0.636536213869544 
1341	 0.636076401021086 
1342	 0.6355966629548 
1343	 0.635077461897518 
1344	 0.634531482385565 
1345	 0.633942904324228 
1346	 0.633314405780524 
1347	 0.632664036236154 
1348	 0.631982875836744 
1349	 0.631268649200448 
1350	 0.630511470820101 
1351	 0.629750960272526 
1352	 0.628953487029561 
1353	 0.628159066024109 
1354	 0.627334976439718 
1355	 0.626553669551044 
1356	 0.625756573416298 
1357	 0.62501041788552 
1358	 0.624310783410334 
1359	 0.623628845360645 
1360	 0.622977737449475 
1361	 0.622350654863468 
1362	 0.621720531629282 
1363	 0.621134713046253 
1364	 0.620545685190976 
1365	 0.619971215181393 
1366	 0.619398400231577 
1367	 0.618838083173089 
1368	 0.618277432142058 
1369	 0.617736273766333 
1370	 0.617153029169493 
1371	 0.616577187617332 
1372	 0.615951650430237 
1373	 0.615290026675336 
1374	 0.614599594374278 
1375	 0.613876208839992 
1376	 0.613127524606285 
1377	 0.612343735766173 
1378	 0.61153434133693 
1379	 0.610674730188239 
1380	 0.609839526771161 
1381	 0.608948326043509 
1382	 0.60813609640681 
1383	 0.60735798491717 
1384	 0.60661250925534 
1385	 0.605957900679096 
1386	 0.60525618185164 
1387	 0.604590226891532 
1388	 0.603871666597583 
1389	 0.603163118141691 
1390	 0.602353736005967 
1391	 0.601501567796735 
1392	 0.600544386067206 
1393	 0.599541877400861 
1394	 0.598456526931937 
1395	 0.597348496333946 
1396	 0.596199524000976 
1397	 0.595022923204652 
1398	 0.593813163575675 
1399	 0.592536960560304 
1400	 0.591246107240642 
1401	 0.589830796197257 
1402	 0.588369216414634 
1403	 0.586731961244465 
1404	 0.584999784968563 
1405	 0.583119427581101 
1406	 0.581110342476608 
1407	 0.578935245227345 
1408	 0.576583107407726 
1409	 0.574158174074448 
1410	 0.57154613486007 
1411	 0.568925158515582 
1412	 0.566173274499405 
1413	 0.563520917345624 
1414	 0.560780527350099 
1415	 0.558188561719539 
1416	 0.555643507114432 
1417	 0.553230325074456 
1418	 0.550909339898364 
1419	 0.548699183442749 
1420	 0.54664172873808 
1421	 0.544645685048885 
1422	 0.542814832095299 
1423	 0.540928899617192 
1424	 0.539142351763492 
1425	 0.537235377219538 
1426	 0.535361706555832 
1427	 0.533389139089663 
1428	 0.531264728301397 
1429	 0.529173076422342 
1430	 0.526851153886042 
1431	 0.524386603735325 
1432	 0.521762228222689 
1433	 0.51896520930554 
1434	 0.516093409705572 
1435	 0.513046553872165 
1436	 0.509978713977323 
1437	 0.506777315427528 
1438	 0.503698866774983 
1439	 0.500484051248171 
1440	 0.497565775616309 
1441	 0.49462623373058 
1442	 0.492173777342103 
1443	 0.489824620366481 
1444	 0.488131522293341 
1445	 0.48682150064203 
1446	 0.486143187623314 
1447	 0.486000498510876 
1448	 0.486398699203572 
1449	 0.487531524697632 
1450	 0.488861736762332 
1451	 0.490843867487249 
1452	 0.492778076978893 
1453	 0.495122930522905 
1454	 0.497227874069631 
1455	 0.499425196672125 
1456	 0.501435037405368 
1457	 0.503321656816582 
1458	 0.505096181596392 
1459	 0.506705382988002 
1460	 0.508298182636331 
1461	 0.509767692530232 
1462	 0.511217125040164 
1463	 0.512656188980608 
1464	 0.514035612647724 
1465	 0.515326927191001 
1466	 0.516649073306632 
1467	 0.517865047131768 
1468	 0.519028514307637 
1469	 0.520135642088775 
1470	 0.521095661925494 
1471	 0.522008612956934 
1472	 0.522848702282485 
1473	 0.523594827405996 
1474	 0.524266545233486 
1475	 0.524823228040685 
1476	 0.525296753209733 
1477	 0.525629936454815 
1478	 0.525849997025915 
1479	 0.525939781495027 
1480	 0.525900083019781 
1481	 0.525747697350909 
1482	 0.525414999220697 
1483	 0.525112511344734 
1484	 0.524673225729775 
1485	 0.524331802319482 
1486	 0.523944139402546 
1487	 0.523725972784665 
1488	 0.523503195280692 
1489	 0.52353128374429 
1490	 0.523715627289307 
1491	 0.524075057540905 
1492	 0.524607426466263 
1493	 0.525323374737349 
1494	 0.52624041144232 
1495	 0.527274006945106 
1496	 0.528526544872056 
1497	 0.529820663847116 
1498	 0.531298482041592 
1499	 0.532718631189942 
1500	 0.534230798315869 
1501	 0.535671297186263 
1502	 0.537111206821606 
1503	 0.538462853630546 
1504	 0.53980124482784 
1505	 0.541024877114931 
1506	 0.542172098681524 
1507	 0.543212223502114 
1508	 0.544146132407232 
1509	 0.545000047214548 
1510	 0.545736199595382 
1511	 0.546413186989565 
1512	 0.547007688612994 
1513	 0.547544133573 
1514	 0.548000646863474 
1515	 0.548412138068083 
1516	 0.548733501222365 
1517	 0.54905393858109 
1518	 0.5493472588935 
1519	 0.549601265984422 
1520	 0.549837509841621 
1521	 0.550041871961568 
1522	 0.550174123470865 
1523	 0.550277729839879 
1524	 0.550357649020891 
1525	 0.550400687403554 
1526	 0.550424797851812 
1527	 0.550421095050424 
1528	 0.550409529040332 
1529	 0.550364953621405 
1530	 0.550339696169243 
1531	 0.550297208753439 
1532	 0.550301821875177 
1533	 0.550305257976131 
1534	 0.550380324015743 
1535	 0.550493732964897 
1536	 0.550662259360025 
1537	 0.550869002475216 
1538	 0.551159101568734 
1539	 0.551493522114162 
1540	 0.551939904026093 
1541	 0.552472167630679 
1542	 0.553090741149843 
1543	 0.553810171091347 
1544	 0.554586277435997 
1545	 0.555442934087149 
1546	 0.556365353351151 
1547	 0.557379211400691 
1548	 0.558408369448018 
1549	 0.559507015263763 
1550	 0.56061786514582 
1551	 0.561771065682459 
1552	 0.562912893730395 
1553	 0.564088347212445 
1554	 0.565246760904171 
1555	 0.566406323694568 
1556	 0.567544110502904 
1557	 0.568682918153761 
1558	 0.569800183455661 
1559	 0.570900837644972 
1560	 0.571972310340404 
1561	 0.573034576340231 
1562	 0.574061031311298 
1563	 0.575058973419414 
1564	 0.576016537879422 
1565	 0.576945433273704 
1566	 0.577838269476715 
1567	 0.578676157152638 
1568	 0.579509082868045 
1569	 0.580310979583365 
1570	 0.581111135804877 
1571	 0.58190693056524 
1572	 0.582670231624554 
1573	 0.583415511955606 
1574	 0.584142661955739 
1575	 0.584841077941845 
1576	 0.585524770920797 
1577	 0.586184167163278 
1578	 0.586847841450314 
1579	 0.58749944719271 
1580	 0.588138290834383 
1581	 0.588779832576269 
1582	 0.58940150023433 
1583	 0.589997350030346 
1584	 0.590591527621399 
1585	 0.59117277506126 
1586	 0.591757159131831 
1587	 0.592325506156156 
1588	 0.592909807574651 
1589	 0.593505302332129 
1590	 0.594098942185396 
1591	 0.594711879917632 
1592	 0.595300211427454 
1593	 0.595869771346069 
1594	 0.596447612883429 
1595	 0.597010736257116 
1596	 0.597582437817793 
1597	 0.5981611520013 
1598	 0.598746209690975 
1599	 0.599344008690812 
1600	 0.599929416386203 
1601	 0.600517821056952 
1602	 0.601098896900448 
1603	 0.601664271868389 
1604	 0.602230875313072 
1605	 0.602804433589301 
1606	 0.603365811666197 
1607	 0.603937533871864 
1608	 0.604469219096732 
1609	 0.604981409625552 
1610	 0.605469212637536 
1611	 0.605921005023073 
1612	 0.60635531185838 
1613	 0.606760407746195 
1614	 0.60716489371718 
1615	 0.607551794922597 
1616	 0.607932709238001 
1617	 0.608307049903513 
1618	 0.608677401459269 
1619	 0.609044803408839 
1620	 0.609389398536634 
1621	 0.609733142728026 
1622	 0.610048740037114 
1623	 0.610333542781855 
1624	 0.610608930483061 
1625	 0.610848014876843 
1626	 0.611107918088017 
1627	 0.611367548982099 
1628	 0.611621394927647 
1629	 0.611876567544835 
1630	 0.612142809491809 
1631	 0.612407752914721 
1632	 0.612677625712855 
1633	 0.612973079572614 
1634	 0.613246506432209 
1635	 0.613512661021552 
1636	 0.613762847114661 
1637	 0.614003389965393 
1638	 0.614227059681168 
1639	 0.614441901343983 
1640	 0.614630720368225 
1641	 0.614798681679881 
1642	 0.614949749035333 
1643	 0.615074835902992 
1644	 0.615185821393576 
1645	 0.615273480172389 
1646	 0.615357501370494 
1647	 0.615424208484908 
1648	 0.615491312521556 
1649	 0.615576935212423 
1650	 0.615614235014322 
1651	 0.615639164659853 
1652	 0.61562060818383 
1653	 0.61555872711364 
1654	 0.615468288772499 
1655	 0.615343930759471 
1656	 0.615187344829917 
1657	 0.61500099963783 
1658	 0.614772854925319 
1659	 0.614521640437653 
1660	 0.614211375217112 
1661	 0.61384893830077 
1662	 0.613440649523163 
1663	 0.612975082811392 
1664	 0.612469550947672 
1665	 0.611950750126176 
1666	 0.611323871959203 
1667	 0.61063218158677 
1668	 0.609863218507365 
1669	 0.608991878233522 
1670	 0.608073550593612 
1671	 0.607096822415905 
1672	 0.606040552884294 
1673	 0.604904824940018 
1674	 0.603710800946023 
1675	 0.602441099174231 
1676	 0.601143630249159 
1677	 0.599801296989962 
1678	 0.598395617745232 
1679	 0.596920965466568 
1680	 0.595407607563814 
1681	 0.593839546203687 
1682	 0.592215210893365 
1683	 0.590546238707904 
1684	 0.588861616557622 
1685	 0.587124952915547 
1686	 0.585350427375872 
1687	 0.583531063785561 
1688	 0.581686068378518 
1689	 0.579790684726117 
1690	 0.577878504166834 
1691	 0.57597103783553 
1692	 0.574036006777774 
1693	 0.572084512869785 
1694	 0.570057221805535 
1695	 0.567989436498148 
1696	 0.565832813217858 
1697	 0.563587545468601 
1698	 0.561294164404394 
1699	 0.558937193588657 
1700	 0.556608591265667 
1701	 0.554205120343058 
1702	 0.551887294630722 
1703	 0.549559011423042 
1704	 0.547325490361184 
1705	 0.545143904314124 
1706	 0.542969336747878 
1707	 0.541007967862491 
1708	 0.539006419487359 
1709	 0.537039681350964 
1710	 0.535163973267869 
1711	 0.53320683956691 
1712	 0.5313306411399 
1713	 0.529458552092482 
1714	 0.527567271035148 
1715	 0.525778548062111 
1716	 0.523932405124668 
1717	 0.522122538976629 
1718	 0.520333498107087 
1719	 0.518471719192215 
1720	 0.516707184706612 
1721	 0.514963590037749 
1722	 0.513266652772639 
1723	 0.511776727223288 
1724	 0.510388204898174 
1725	 0.509154988772118 
1726	 0.50811492161943 
1727	 0.50718254666274 
1728	 0.506416503611176 
1729	 0.505795172992756 
1730	 0.505328888859334 
1731	 0.504991458032398 
1732	 0.504738240776624 
1733	 0.50454264713112 
1734	 0.504372079671745 
1735	 0.50416005721068 
1736	 0.503915597824638 
1737	 0.503607830349662 
1738	 0.503218150190652 
1739	 0.502781247197045 
1740	 0.502247216562687 
1741	 0.501716792532564 
1742	 0.501105507593229 
1743	 0.500550561312542 
1744	 0.499978790084994 
1745	 0.499481184438617 
1746	 0.498994771169294 
1747	 0.49865708943061 
1748	 0.498376527298555 
1749	 0.49825673332154 
1750	 0.498280994008857 
1751	 0.498434022056982 
1752	 0.49871564682878 
1753	 0.499141520202158 
1754	 0.499707891877839 
1755	 0.500397329199584 
1756	 0.501237865754782 
1757	 0.50214897699001 
1758	 0.50325464710461 
1759	 0.504403383767886 
1760	 0.505651507626965 
1761	 0.507020820126816 
1762	 0.508346035291048 
1763	 0.509717041557424 
1764	 0.511093827259793 
1765	 0.512483381577857 
1766	 0.513950952540861 
1767	 0.515354523676151 
1768	 0.516774806544291 
1769	 0.518143478067237 
1770	 0.519367818306641 
1771	 0.520597713762427 
1772	 0.521766782192108 
1773	 0.52288284521258 
1774	 0.524024156636035 
1775	 0.525065908357724 
1776	 0.526069300626364 
1777	 0.527045420538892 
1778	 0.527920152675584 
1779	 0.528828186830595 
1780	 0.529753225117049 
1781	 0.530658834865106 
1782	 0.531600172026468 
1783	 0.532488121392614 
1784	 0.533405411497902 
1785	 0.534337516914958 
1786	 0.535261039219229 
1787	 0.536241737095924 
1788	 0.537178234370556 
1789	 0.538108925741799 
1790	 0.539019763103232 
1791	 0.539904843861008 
1792	 0.540795002779263 
1793	 0.541634960428154 
1794	 0.542480831484891 
1795	 0.543338611576725 
1796	 0.544163606113146 
1797	 0.545008223051996 
1798	 0.545804801907179 
1799	 0.546619964697672 
1800	 0.547396561701927 
1801	 0.562277827823062 
1802	 0.563610188134546 
1803	 0.564778916822837 
1804	 0.565792540722507 
1805	 0.566812415535268 
1806	 0.567716579712984 
1807	 0.568506710686301 
1808	 0.569276186617054 
1809	 0.569979253653511 
1810	 0.570640710991653 
1811	 0.571227708097753 
1812	 0.571809923846617 
1813	 0.572341716319256 
1814	 0.572886563675077 
1815	 0.573388605278664 
1816	 0.573908313134959 
1817	 0.574412394682272 
1818	 0.574894273722727 
1819	 0.57537650014008 
1820	 0.575856590331042 
1821	 0.576331459458596 
1822	 0.576784996876224 
1823	 0.577277962535643 
1824	 0.577749642441981 
1825	 0.578197649149431 
1826	 0.57863405987597 
1827	 0.579079960981045 
1828	 0.579447702331109 
1829	 0.579770463818993 
1830	 0.580095116180014 
1831	 0.580387024034387 
1832	 0.580648311432524 
1833	 0.580899836663626 
1834	 0.581131111859971 
1835	 0.581342993767193 
1836	 0.581542228002766 
1837	 0.581736825401772 
1838	 0.581936067742639 
1839	 0.58212452023454 
1840	 0.582298190973906 
1841	 0.582457629708649 
1842	 0.582630612064761 
1843	 0.582770491898252 
1844	 0.582863714985811 
1845	 0.582923457055249 
1846	 0.582915621650703 
1847	 0.582865890627223 
1848	 0.582734557989074 
1849	 0.582555654541688 
1850	 0.582268183678377 
1851	 0.581913032424105 
1852	 0.581448286657242 
1853	 0.580880586733549 
1854	 0.580244832768205 
1855	 0.57947379820969 
1856	 0.578642042772661 
1857	 0.577696268350133 
1858	 0.5765827785943 
1859	 0.57540360793422 
1860	 0.574158002713461 
1861	 0.572725109220686 
1862	 0.571142198455887 
1863	 0.569533288976411 
1864	 0.567706871979775 
1865	 0.565782999170196 
1866	 0.563744936636173 
1867	 0.561449181984859 
1868	 0.55907103141045 
1869	 0.556532269670901 
1870	 0.55394185911048 
1871	 0.551262032113491 
1872	 0.548586015231024 
1873	 0.545853574552713 
1874	 0.543112120162271 
1875	 0.540348242620451 
1876	 0.537289173153773 
1877	 0.534271719820278 
1878	 0.531067666711022 
1879	 0.527590211667525 
1880	 0.524249275477868 
1881	 0.520678601250835 
1882	 0.516889676829659 
1883	 0.51302697104053 
1884	 0.509086167068491 
1885	 0.504735177058299 
1886	 0.500426058037865 
1887	 0.495900959440062 
1888	 0.491171550213136 
1889	 0.486728561914498 
1890	 0.482074010260947 
1891	 0.477413778084661 
1892	 0.472831516989629 
1893	 0.468040805650654 
1894	 0.46301865125944 
1895	 0.458151267767051 
1896	 0.453178935750075 
1897	 0.448113238759893 
1898	 0.443435144589422 
1899	 0.438597645316995 
1900	 0.43383696209787 
1901	 0.429250477568541 
1902	 0.424377078154047 
1903	 0.419748456059439 
1904	 0.415156792255927 
1905	 0.410564889898685 
1906	 0.406009388124562 
1907	 0.401894924531717 
1908	 0.397665196763066 
1909	 0.393555049199696 
1910	 0.389616714381691 
1911	 0.385405206551367 
1912	 0.381370584648744 
1913	 0.377302225440525 
1914	 0.373084287374785 
1915	 0.369055164249993 
1916	 0.365205955233789 
1917	 0.36118524497176 
1918	 0.35721604553266 
1919	 0.353315023898157 
1920	 0.349075052311453 
1921	 0.344943199412455 
1922	 0.340723518252115 
1923	 0.336372068797587 
1924	 0.332351059919156 
1925	 0.328183171188997 
1926	 0.32408133659987 
1927	 0.320081941958972 
1928	 0.316063154251079 
1929	 0.311918548598708 
1930	 0.308042596350797 
1931	 0.304277874075706 
1932	 0.300649038275361 
1933	 0.297538908174437 
1934	 0.294610666874858 
1935	 0.291935916133052 
1936	 0.289674824269723 
1937	 0.287648977625048 
1938	 0.285837831081167 
1939	 0.284435309871773 
1940	 0.283365242935173 
1941	 0.282607574851264 
1942	 0.282215654208711 
1943	 0.282083957515062 
1944	 0.282229874925259 
1945	 0.282693949548073 
1946	 0.283512193368581 
1947	 0.28457803597826 
1948	 0.286049301372865 
1949	 0.287941070660252 
1950	 0.290074755928008 
1951	 0.292581311321483 
1952	 0.295345646458618 
1953	 0.298384199589688 
1954	 0.301706164746013 
1955	 0.305433175577773 
1956	 0.309135064543067 
1957	 0.312924367978059 
1958	 0.31668642303621 
1959	 0.319997535028458 
1960	 0.323120516104707 
1961	 0.325920618246355 
1962	 0.328378300206707 
1963	 0.330571507281165 
1964	 0.33247307094574 
1965	 0.334116580184818 
1966	 0.335447435127243 
1967	 0.336602252737579 
1968	 0.337505435937899 
1969	 0.338372905666029 
1970	 0.339169512664479 
1971	 0.339947061157847 
1972	 0.340835079594924 
1973	 0.341777400900269 
1974	 0.342827533428752 
1975	 0.344009594267252 
1976	 0.345224744544811 
1977	 0.346486569492064 
1978	 0.34786712782228 
1979	 0.349320536554775 
1980	 0.350839519205637 
1981	 0.352568334764704 
1982	 0.35427265242674 
1983	 0.356132547972434 
1984	 0.35811566324943 
1985	 0.360076211453661 
1986	 0.362291824052758 
1987	 0.364691407095536 
1988	 0.367119089171023 
1989	 0.369989909437176 
1990	 0.373179170378069 
1991	 0.376571224279457 
1992	 0.380276871176003 
1993	 0.384301683429708 
1994	 0.388225092256781 
1995	 0.392491047233333 
1996	 0.396811983511162 
1997	 0.401146872832081 
1998	 0.405645742874607 
1999	 0.410419757261753 
2000	 0.414896748518935 
2001	 0.419579120148307 
2002	 0.423787624036546 
2003	 0.427707734940271 
2004	 0.431530255003294 
2005	 0.435026405147486 
2006	 0.438488851435982 
2007	 0.441952526823794 
2008	 0.445119615994906 
2009	 0.448108228663915 
2010	 0.45098400054265 
2011	 0.453447016496009 
2012	 0.455813818129697 
2013	 0.458038006536134 
2014	 0.460034055714338 
2015	 0.461981729825172 
2016	 0.4638445835955 
2017	 0.465539221780236 
2018	 0.46713901658156 
2019	 0.468567613416331 
2020	 0.469791071699307 
2021	 0.470948386358569 
2022	 0.471991043176346 
2023	 0.472853852194384 
2024	 0.473664437759426 
2025	 0.474371096138753 
2026	 0.474987740115081 
2027	 0.475496258808417 
2028	 0.475933963547099 
2029	 0.476250429728756 
2030	 0.476551741607125 
2031	 0.476751447733125 
2032	 0.47696174878883 
2033	 0.477126354701773 
2034	 0.477297814932275 
2035	 0.477446138269333 
2036	 0.477604328303768 
2037	 0.477738487424031 
2038	 0.477914084130804 
2039	 0.478113822310106 
2040	 0.478313210033078 
2041	 0.478572649013757 
2042	 0.478885627393441 
2043	 0.479201618086294 
2044	 0.47956755764488 
2045	 0.479918424814397 
2046	 0.480283436539516 
2047	 0.480646122607617 
2048	 0.481024404857832 
2049	 0.481374776321046 
2050	 0.48172484697382 
2051	 0.482046018960503 
2052	 0.482364504682859 
2053	 0.482655612938762 
2054	 0.482932427308797 
2055	 0.483188004983431 
2056	 0.483455060351897 
2057	 0.483698512824517 
2058	 0.483959820486282 
2059	 0.48423540905195 
2060	 0.48450703590706 
2061	 0.484774783586174 
2062	 0.485050572110269 
2063	 0.485340240590842 
2064	 0.485618763952927 
2065	 0.485888039212933 
2066	 0.486159324980086 
2067	 0.48646496525587 
2068	 0.486752214424989 
2069	 0.487065609693544 
2070	 0.487432199915341 
2071	 0.487733490387568 
2072	 0.488026167264333 
2073	 0.488288558691268 
2074	 0.488517609611974 
2075	 0.488726054783971 
2076	 0.488933645608971 
2077	 0.489077386499422 
2078	 0.489183428034268 
2079	 0.489244879410374 
2080	 0.489236552758617 
2081	 0.489222419707404 
2082	 0.489182369591503 
2083	 0.489123643176114 
2084	 0.489012225461322 
2085	 0.488870143943525 
2086	 0.488675711429448 
2087	 0.488417706500448 
2088	 0.488141477836583 
2089	 0.487835300713033 
2090	 0.487482975375322 
2091	 0.487088840378178 
2092	 0.486661573964418 
2093	 0.486173706180469 
2094	 0.485689904684977 
2095	 0.485159625181335 
2096	 0.484650032439877 
2097	 0.48415779230033 
2098	 0.483638854819289 
2099	 0.483102117766001 
2100	 0.482553943582634 
2101	 0.481934976776622 
2102	 0.481259189558908 
2103	 0.480564194306784 
2104	 0.479800277124959 
2105	 0.479069582027703 
2106	 0.478323183593517 
2107	 0.477579534998872 
2108	 0.476876712556387 
2109	 0.47609736922823 
2110	 0.475273691707867 
2111	 0.474444761596908 
2112	 0.473546086117661 
2113	 0.472681546948473 
2114	 0.471838721877844 
2115	 0.470972362175206 
2116	 0.470094566747253 
2117	 0.469237786415275 
2118	 0.468339410500347 
2119	 0.467414988511404 
2120	 0.466502398943308 
2121	 0.465555295507811 
2122	 0.464655353483168 
2123	 0.463773347384543 
2124	 0.46289614979285 
2125	 0.462064823076431 
2126	 0.461192793737797 
2127	 0.460301824923472 
2128	 0.45942191298317 
2129	 0.458504004580784 
2130	 0.457630723384538 
2131	 0.456810575885165 
2132	 0.455954367558922 
2133	 0.4550936365825 
2134	 0.454252620776179 
2135	 0.453355299617324 
2136	 0.452501695237392 
2137	 0.451642776413101 
2138	 0.450798509913305 
2139	 0.449943980321818 
2140	 0.449089895387679 
2141	 0.448228414057325 
2142	 0.447394992620559 
2143	 0.446489865548252 
2144	 0.445550714125123 
2145	 0.444606561005312 
2146	 0.443585699008836 
2147	 0.442619665770543 
2148	 0.44169940100859 
2149	 0.440732976079449 
2150	 0.439790804037397 
2151	 0.438791282094929 
2152	 0.437717039158252 
2153	 0.436670270109324 
2154	 0.435603549023694 
2155	 0.434501593196228 
2156	 0.43345024747092 
2157	 0.432421975701276 
2158	 0.431385470932877 
2159	 0.43038019483519 
2160	 0.429329721812825 
2161	 0.428242089671544 
2162	 0.427203885606208 
2163	 0.42612310921082 
2164	 0.425138888696397 
2165	 0.424231435796362 
2166	 0.423321096830651 
2167	 0.422460528926147 
2168	 0.421608035210675 
2169	 0.420730984210142 
2170	 0.419936505702357 
2171	 0.419175086074362 
2172	 0.418475025809551 
2173	 0.417836354022508 
2174	 0.417264784395226 
2175	 0.416726762941405 
2176	 0.416251391931136 
2177	 0.41581457367143 
2178	 0.415435750614783 
2179	 0.415084245710599 
2180	 0.414770584957928 
2181	 0.414496560627822 
2182	 0.414283172005033 
2183	 0.414056258050899 
2184	 0.413871880013667 
2185	 0.413670943042651 
2186	 0.41346969934467 
2187	 0.413266458159725 
2188	 0.413081832795224 
2189	 0.412862032397349 
2190	 0.412656452795975 
2191	 0.412381217432234 
2192	 0.412088678289106 
2193	 0.411718478733518 
2194	 0.411265226140217 
2195	 0.410786787830406 
2196	 0.410253720103621 
2197	 0.409668191120924 
2198	 0.409081007435092 
2199	 0.408469507925621 
2200	 0.40782864078815 
2201	 0.407170991829514 
2202	 0.406452548907529 
2203	 0.405667632927776 
2204	 0.404922787063714 
2205	 0.40410781856012 
2206	 0.403403898560673 
2207	 0.402752880970167 
2208	 0.402125378900593 
2209	 0.401537178256593 
2210	 0.401003357663778 
2211	 0.400470467496733 
2212	 0.400065622194789 
2213	 0.39973766333581 
2214	 0.399495754674735 
2215	 0.399360131875649 
2216	 0.399290376072103 
2217	 0.39927400027755 
2218	 0.399378297227567 
2219	 0.399595830133994 
2220	 0.399884184165459 
2221	 0.40026977733956 
2222	 0.400771648809389 
2223	 0.401298653523332 
2224	 0.40187123355405 
2225	 0.402414648877306 
2226	 0.402907983020833 
2227	 0.403334173046745 
2228	 0.403724718265381 
2229	 0.403978146962264 
2230	 0.404191938971183 
2231	 0.404206780037454 
2232	 0.404101041544885 
2233	 0.403798041361905 
2234	 0.403347976320866 
2235	 0.4026889956624 
2236	 0.401810938974538 
2237	 0.400802941507576 
2238	 0.399587924069674 
2239	 0.398258979526517 
2240	 0.396795554030709 
2241	 0.39516540623272 
2242	 0.393421090888305 
2243	 0.391448537600681 
2244	 0.389221050551954 
2245	 0.386926196651011 
2246	 0.384309140348422 
2247	 0.381813296158053 
2248	 0.379306763133469 
2249	 0.376772914898884 
2250	 0.374235068075168 
2251	 0.371751997281137 
2252	 0.369081100995002 
2253	 0.366477049250309 
2254	 0.363868564031857 
2255	 0.361258613207087 
2256	 0.358835107729567 
2257	 0.356380508680452 
2258	 0.353958412158137 
2259	 0.351645570742515 
2260	 0.349167363240897 
2261	 0.346605806531886 
2262	 0.344110906876559 
2263	 0.34144443988846 
2264	 0.339084002935628 
2265	 0.336844072029598 
2266	 0.334740093825084 
2267	 0.332820552070565 
2268	 0.331007027966807 
2269	 0.329261313669863 
2270	 0.327773634425831 
2271	 0.326478685282838 
2272	 0.325339245295881 
2273	 0.324496301831954 
2274	 0.32362990876822 
2275	 0.322964046742571 
2276	 0.322191243178769 
2277	 0.321462959756048 
2278	 0.32065917265849 
2279	 0.319803412090117 
2280	 0.318887983141115 
2281	 0.317961296458959 
2282	 0.316912398576672 
2283	 0.315797316463373 
2284	 0.314573439839786 
2285	 0.313153153296847 
2286	 0.311735700476733 
2287	 0.31018329557647 
2288	 0.308521996634016 
2289	 0.306938836044636 
2290	 0.305221526679356 
2291	 0.303544037841698 
2292	 0.301917491358432 
2293	 0.300145137118437 
2294	 0.298481919377755 
2295	 0.296937128318402 
2296	 0.295464044310275 
2297	 0.29428517981714 
2298	 0.293350121959021 
2299	 0.292610656698118 
2300	 0.292058918978748 
2301	 0.291802825835044 
2302	 0.291799292519632 
2303	 0.292058071225919 
2304	 0.292635932198291 
2305	 0.293385775544699 
2306	 0.294409661150613 
2307	 0.295594851743581 
2308	 0.296965769471375 
2309	 0.298592509419205 
2310	 0.300538146830961 
2311	 0.302494541099538 
2312	 0.304797879439952 
2313	 0.306899045041242 
2314	 0.30904631339166 
2315	 0.311052385060906 
2316	 0.313000954188704 
2317	 0.31477400391086 
2318	 0.316504326685853 
2319	 0.317914486376323 
2320	 0.319117512328454 
2321	 0.32009960096788 
2322	 0.320767115643297 
2323	 0.321302230771971 
2324	 0.321635449517054 
2325	 0.321801946772846 
2326	 0.321776449310564 
2327	 0.321573093194353 
2328	 0.32113688941644 
2329	 0.320591385540982 
2330	 0.319905479606915 
2331	 0.318984007013747 
2332	 0.317961689278498 
2333	 0.316807592712891 
2334	 0.315379598845399 
2335	 0.313868877861916 
2336	 0.312205746572131 
2337	 0.310444553136605 
2338	 0.308770727621979 
2339	 0.306987007714043 
2340	 0.305244684494483 
2341	 0.303573822218365 
2342	 0.301888972439299 
2343	 0.300484729407453 
2344	 0.299360211613337 
2345	 0.29851125031283 
2346	 0.298011637910077 
2347	 0.297829276312676 
2348	 0.297885863209482 
2349	 0.298269714022082 
2350	 0.298918943654667 
2351	 0.299723935952539 
2352	 0.300629543664153 
2353	 0.301584054555508 
2354	 0.302434838655204 
2355	 0.303181693953917 
2356	 0.303858730743164 
2357	 0.304339249090528 
2358	 0.304715291227718 
2359	 0.304859000188994 
2360	 0.304726882140931 
2361	 0.304382964608037 
2362	 0.303875299025272 
2363	 0.30332968469998 
2364	 0.302775035966815 
2365	 0.302213843810435 
2366	 0.301587904155749 
2367	 0.300894002903261 
2368	 0.300188989749751 
2369	 0.299447470722295 
2370	 0.298719391385517 
2371	 0.297993153433224 
2372	 0.297261641810194 
2373	 0.296504661768946 
2374	 0.295619643017111 
2375	 0.294807560093633 
2376	 0.294003016021526 
2377	 0.293085633103421 
2378	 0.292307230353435 
2379	 0.291444173794284 
2380	 0.290467437998773 
2381	 0.289602628910214 
2382	 0.288624489874099 
2383	 0.287566784799856 
2384	 0.286494737216529 
2385	 0.285324576470434 
2386	 0.284252303796957 
2387	 0.283192661736628 
2388	 0.282150463729852 
2389	 0.281236520959126 
2390	 0.280134042831601 
2391	 0.278957155101675 
2392	 0.27775546057398 
2393	 0.276380290002402 
2394	 0.27514810205213 
2395	 0.273961692230013 
2396	 0.272750685131412 
2397	 0.271635618616625 
2398	 0.27043410514604 
2399	 0.269134682280364 
2400	 0.267932325537941 
2401	 0.266755142943719 
2402	 0.265492984689121 
2403	 0.264329689344226 
2404	 0.263175218892851 
2405	 0.261983244401616 
2406	 0.260876070630508 
2407	 0.259840163072704 
2408	 0.258819524759921 
2409	 0.257852889854546 
2410	 0.256988874780388 
2411	 0.256119668033479 
2412	 0.255242356356905 
2413	 0.25440856705943 
2414	 0.253524698777287 
2415	 0.252753790824986 
2416	 0.251977363057047 
2417	 0.251194784970418 
2418	 0.250636874577094 
2419	 0.250026868490718 
2420	 0.249440426252448 
2421	 0.24894659057838 
2422	 0.248347827409368 
2423	 0.247837039982792 
2424	 0.24748487024365 
2425	 0.247154118617977 
2426	 0.246809766597659 
2427	 0.246444956976811 
2428	 0.246031959486357 
2429	 0.245627050189814 
2430	 0.245307363672576 
2431	 0.244920343540803 
2432	 0.244419038019896 
2433	 0.243964860461803 
2434	 0.243573188963705 
2435	 0.243202273552037 
2436	 0.242953241934516 
2437	 0.24273510488813 
2438	 0.242366323269386 
2439	 0.242103926379262 
2440	 0.241818411125376 
2441	 0.241432296132628 
2442	 0.241271409474084 
2443	 0.241031970713856 
2444	 0.240801559653602 
2445	 0.240628955541691 
2446	 0.240249370351933 
2447	 0.240045573153433 
2448	 0.239838033052254 
2449	 0.239481236854797 
2450	 0.239276007602344 
2451	 0.238893841867305 
2452	 0.238351362896333 
2453	 0.237911440379501 
2454	 0.237411945730932 
2455	 0.236886541647264 
2456	 0.236365062840811 
2457	 0.235862211596785 
2458	 0.235358338024494 
2459	 0.234686479862605 
2460	 0.234060083181934 
2461	 0.233601385634093 
2462	 0.233092755778836 
2463	 0.232473597049409 
2464	 0.231906916616876 
2465	 0.231204765611437 
2466	 0.230375355080966 
2467	 0.229767012384371 
2468	 0.229117911838552 
2469	 0.228526692819828 
2470	 0.2280706334299 
2471	 0.227509339236963 
2472	 0.227056755794744 
2473	 0.226600400649925 
2474	 0.226113098569511 
2475	 0.225732953908734 
2476	 0.225229924475399 
2477	 0.224708591098594 
2478	 0.224299340686989 
2479	 0.223982020691799 
2480	 0.223938965724055 
2481	 0.223781462666518 
2482	 0.223526108239429 
2483	 0.223453512522591 
2484	 0.223494985460377 
2485	 0.223539592920252 
2486	 0.223590536889115 
2487	 0.223638861040615 
2488	 0.223483770880921 
2489	 0.223335266669928 
2490	 0.22339828717477 
2491	 0.223510335701366 
2492	 0.223793757109705 
2493	 0.224077297026794 
2494	 0.22422786459836 
2495	 0.224257645297881 
2496	 0.224215546397669 
2497	 0.224360884286817 
2498	 0.224571997038696 
2499	 0.224721583795857 
2500	 0.225016095448215 
