Wavelength	spectrum00003.asd
350	 0.061274809938443 
351	 5.87506083999839E-02 
352	 5.72811938865204E-02 
353	 0.0578877404284 
354	 5.66225889625306E-02 
355	 0.055631060305611 
356	 5.56708662851302E-02 
357	 5.62213364449876E-02 
358	 5.38856511019564E-02 
359	 5.17374865364981E-02 
360	 0.05049994359143 
361	 4.96672944798087E-02 
362	 5.02568498003367E-02 
363	 4.92496519862352E-02 
364	 4.68791000664501E-02 
365	 4.79959061651696E-02 
366	 4.79203493103956E-02 
367	 4.72251787380589E-02 
368	 0.047352957349526 
369	 4.84383592923538E-02 
370	 4.85057670324555E-02 
371	 4.78285861454995E-02 
372	 4.78137976144792E-02 
373	 4.72055304317667E-02 
374	 4.65256642507205E-02 
375	 0.046283827279802 
376	 4.67068979318644E-02 
377	 4.71418554227865E-02 
378	 4.69668998619833E-02 
379	 4.60022891906655E-02 
380	 0.04528650294572 
381	 4.51606969540957E-02 
382	 4.50626026192802E-02 
383	 4.42025542970463E-02 
384	 0.045324702827628 
385	 4.57005945108049E-02 
386	 4.45683082597796E-02 
387	 4.50398058883756E-02 
388	 4.49147954687525E-02 
389	 4.44428552797372E-02 
390	 4.42352612656292E-02 
391	 4.36683293087992E-02 
392	 4.34542411209463E-02 
393	 4.37231445595352E-02 
394	 4.41496515874618E-02 
395	 4.42177155580948E-02 
396	 4.41923892636901E-02 
397	 4.41735657063662E-02 
398	 4.37877399778822E-02 
399	 4.33840040214283E-02 
400	 4.32461990860365E-02 
401	 4.34117408998286E-02 
402	 4.30354006661844E-02 
403	 4.28998652507782E-02 
404	 0.043078001711656 
405	 0.043087309299423 
406	 4.30636251414232E-02 
407	 4.28269041250268E-02 
408	 4.24385655015353E-02 
409	 4.25310564057207E-02 
410	 4.23287247823751E-02 
411	 4.20820078817843E-02 
412	 4.22435239751707E-02 
413	 4.25460399358187E-02 
414	 4.25063167862872E-02 
415	 4.22051789329552E-02 
416	 4.22058576882735E-02 
417	 4.22666416123082E-02 
418	 4.24537417111151E-02 
419	 0.042666311140126 
420	 4.22422878129557E-02 
421	 4.20784838168778E-02 
422	 4.23388642209791E-02 
423	 4.27766094448955E-02 
424	 4.27319205596476E-02 
425	 4.28737461083799E-02 
426	 4.32709202999542E-02 
427	 4.32038148857271E-02 
428	 4.32892596630947E-02 
429	 4.35996601225278E-02 
430	 4.39813900401634E-02 
431	 4.39552404089935E-02 
432	 4.42641618305995E-02 
433	 4.47371734601377E-02 
434	 4.47823653211728E-02 
435	 4.51149615420402E-02 
436	 0.045451813543428 
437	 4.56302144478715E-02 
438	 4.58410205899604E-02 
439	 4.61512357595287E-02 
440	 4.65072139840098E-02 
441	 4.68327581747153E-02 
442	 4.71496780064859E-02 
443	 4.74883804404434E-02 
444	 4.77930893165217E-02 
445	 4.79604208578638E-02 
446	 4.82557345137305E-02 
447	 4.84515721371831E-02 
448	 4.84664585327676E-02 
449	 4.87103790043604E-02 
450	 4.90255612470693E-02 
451	 4.92958606960222E-02 
452	 4.94357043935164E-02 
453	 4.95022841109409E-02 
454	 4.96043434809597E-02 
455	 4.96951509663491E-02 
456	 4.95644643213021E-02 
457	 4.97152220021089E-02 
458	 4.98180623067472E-02 
459	 4.96395544041397E-02 
460	 4.98132990289666E-02 
461	 4.99768137166504E-02 
462	 4.99655842245949E-02 
463	 4.97771777696698E-02 
464	 4.97393722332552E-02 
465	 4.98766605425446E-02 
466	 5.00712223554884E-02 
467	 5.00483990193157E-02 
468	 5.00875514540384E-02 
469	 0.050195646149332 
470	 5.02953899533534E-02 
471	 5.03054500532077E-02 
472	 5.03962980470443E-02 
473	 5.05651338242055E-02 
474	 5.06654325429818E-02 
475	 5.06709288068382E-02 
476	 5.06824609324589E-02 
477	 5.07638862218343E-02 
478	 5.08443010955223E-02 
479	 5.09921200543284E-02 
480	 5.11721790774225E-02 
481	 5.13208890908821E-02 
482	 0.051465877066787 
483	 5.16816934020549E-02 
484	 5.19603333049828E-02 
485	 5.21979401425502E-02 
486	 5.24149480216947E-02 
487	 5.26016360956573E-02 
488	 5.27842148593078E-02 
489	 5.31188024680403E-02 
490	 0.053435708707883 
491	 5.37146160560008E-02 
492	 5.40276556423723E-02 
493	 5.43957285014324E-02 
494	 5.47652891278761E-02 
495	 5.51410348274593E-02 
496	 5.56454864178536E-02 
497	 5.61076695232942E-02 
498	 5.65770983159866E-02 
499	 5.71300942198833E-02 
500	 5.76333974800978E-02 
501	 5.81534893570286E-02 
502	 5.87250760323724E-02 
503	 0.059343615799622 
504	 5.99426142384035E-02 
505	 6.05326637275559E-02 
506	 6.11457172001972E-02 
507	 0.06182409252267 
508	 6.25482081678273E-02 
509	 6.33153921476887E-02 
510	 6.41205930424149E-02 
511	 6.48985764114028E-02 
512	 6.57094206166776E-02 
513	 6.65979440752976E-02 
514	 6.75807894935832E-02 
515	 6.84404795406881E-02 
516	 6.93103183725097E-02 
517	 0.070340819763394 
518	 7.13926552853354E-02 
519	 7.25144298229404E-02 
520	 7.37031384141791E-02 
521	 7.49206260902867E-02 
522	 7.61965250053477E-02 
523	 7.74901911282049E-02 
524	 7.87941076127542E-02 
525	 8.01889730205805E-02 
526	 8.16180768706233E-02 
527	 8.31254553881192E-02 
528	 0.084764242506559 
529	 8.64368001573898E-02 
530	 8.81191112374895E-02 
531	 8.98611453071903E-02 
532	 9.17769618797707E-02 
533	 9.36918265782969E-02 
534	 9.56735618020269E-02 
535	 9.77809716701046E-02 
536	 0.099888632424011 
537	 0.102131366232887 
538	 0.10448620408923 
539	 0.106849818664267 
540	 0.10926313417658 
541	 0.111745197371296 
542	 0.11429211111141 
543	 0.116861868285721 
544	 0.119474362267089 
545	 0.122113072233524 
546	 0.124779341098564 
547	 0.127605273604956 
548	 0.130497911822114 
549	 0.133426794976893 
550	 0.136420981722509 
551	 0.139415941983686 
552	 0.142497070884346 
553	 0.145698261646037 
554	 0.14884865580545 
555	 0.152025121188153 
556	 0.155233390911349 
557	 0.158442000523288 
558	 0.161608491722208 
559	 0.164742461734613 
560	 0.167838967056395 
561	 0.170864191669887 
562	 0.173793839762783 
563	 0.176529384020303 
564	 0.179023374599617 
565	 0.181472408984172 
566	 0.183898196113336 
567	 0.186270427009633 
568	 0.188539992574645 
569	 0.190968115116675 
570	 0.19349434989735 
571	 0.195999442087274 
572	 0.198367847000905 
573	 0.20057651227345 
574	 0.202589032899605 
575	 0.204371969267037 
576	 0.205885868397934 
577	 0.207137561758517 
578	 0.20821868042915 
579	 0.209304368221543 
580	 0.210435013367449 
581	 0.211652057196241 
582	 0.212948752020915 
583	 0.214205199323045 
584	 0.215417781016956 
585	 0.216570719055988 
586	 0.217635599752202 
587	 0.218503071432337 
588	 0.219254312352094 
589	 0.219954944338163 
590	 0.220596451915916 
591	 0.221254619182425 
592	 0.221915355012374 
593	 0.222545597023485 
594	 0.223189845844201 
595	 0.22371210033463 
596	 0.224062676157634 
597	 0.224279371489213 
598	 0.224462849048468 
599	 0.224567303768388 
600	 0.224564444495061 
601	 0.224530345338336 
602	 0.224504626846647 
603	 0.224470461142355 
604	 0.224391557080668 
605	 0.224313005190986 
606	 0.224221129620742 
607	 0.224085571883735 
608	 0.223862784880325 
609	 0.223615325856746 
610	 0.223354176210855 
611	 0.223078410680963 
612	 0.222793058323802 
613	 0.222526446922134 
614	 0.222249872041453 
615	 0.221910338550057 
616	 0.221616931680547 
617	 0.22134459189788 
618	 0.221060424541895 
619	 0.220747762820251 
620	 0.220463622182255 
621	 0.220165318613092 
622	 0.219811363769361 
623	 0.219536320681917 
624	 0.21925563997783 
625	 0.218949079135961 
626	 0.218663821377949 
627	 0.218385587415703 
628	 0.218127685977278 
629	 0.217893639127522 
630	 0.217655048844889 
631	 0.217409374236527 
632	 0.217164025262295 
633	 0.216935159764019 
634	 0.216752731120601 
635	 0.216569391892369 
636	 0.216371303753055 
637	 0.21619495119095 
638	 0.216031075933228 
639	 0.215906057533441 
640	 0.215821774056649 
641	 0.215673245370875 
642	 0.215553522765317 
643	 0.215507527524271 
644	 0.215526749899712 
645	 0.215422271541023 
646	 0.215333609241219 
647	 0.215342975802454 
648	 0.215372989158902 
649	 0.215392232044015 
650	 0.215407904053068 
651	 0.215442982294063 
652	 0.215513717166556 
653	 0.215619671020636 
654	 0.21572824467793 
655	 0.215793035048779 
656	 0.215943508754484 
657	 0.216123639073265 
658	 0.216287620543021 
659	 0.216475914706461 
660	 0.216698428995879 
661	 0.21692352961262 
662	 0.217122143564289 
663	 0.217375204105324 
664	 0.217656251324761 
665	 0.217951464080939 
666	 0.218266307043995 
667	 0.218603158835443 
668	 0.218957696720898 
669	 0.21932305944182 
670	 0.2196851586625 
671	 0.22010951638076 
672	 0.220571479388478 
673	 0.221010932623151 
674	 0.221434933995594 
675	 0.221930621460838 
676	 0.222493046309429 
677	 0.223001460241286 
678	 0.223532068595459 
679	 0.224084061531524 
680	 0.224655285804817 
681	 0.225302330030849 
682	 0.225916985802185 
683	 0.226525319458282 
684	 0.227215578267818 
685	 0.227911497607821 
686	 0.228617186445439 
687	 0.229355471116779 
688	 0.23016516622357 
689	 0.230882212508229 
690	 0.23160298596919 
691	 0.23244246976312 
692	 0.233327848607503 
693	 0.234168210289717 
694	 0.234992258777322 
695	 0.235896560740234 
696	 0.236832153895703 
697	 0.237782229252348 
698	 0.23873601353656 
699	 0.239689128752206 
700	 0.240631525161696 
701	 0.241620279567219 
702	 0.242698103286252 
703	 0.243787778384469 
704	 0.244836834745376 
705	 0.245858353453802 
706	 0.246912998066001 
707	 0.248026847472934 
708	 0.249150016981483 
709	 0.250261554124156 
710	 0.251405157633842 
711	 0.252579747995522 
712	 0.25376306993702 
713	 0.254940447119518 
714	 0.256162798405359 
715	 0.257375726239513 
716	 0.258553332516341 
717	 0.259703004373168 
718	 0.260933183308827 
719	 0.262173221930378 
720	 0.263386356147357 
721	 0.264639342068577 
722	 0.265830007949758 
723	 0.267017612744773 
724	 0.268277025175305 
725	 0.269551061482029 
726	 0.270795796814361 
727	 0.271993568292936 
728	 0.273151537651168 
729	 0.274303489201076 
730	 0.27546951297392 
731	 0.276649353285915 
732	 0.277817698684239 
733	 0.278959540705164 
734	 0.280070976408044 
735	 0.281162021107069 
736	 0.282273208554036 
737	 0.283323740587179 
738	 0.284331714198337 
739	 0.285364467810185 
740	 0.286283924007557 
741	 0.287159730850381 
742	 0.288042651562951 
743	 0.288916350645899 
744	 0.289800708046372 
745	 0.29060070891863 
746	 0.291256928356637 
747	 0.291912159029871 
748	 0.292621182838222 
749	 0.293329170380254 
750	 0.293931016629327 
751	 0.294507249412181 
752	 0.294991239296084 
753	 0.295396590868481 
754	 0.295853718638634 
755	 0.296300936972048 
756	 0.296639744525036 
757	 0.296839157565492 
758	 0.297077864934698 
759	 0.297279437349162 
760	 0.297440870587498 
761	 0.297582219494443 
762	 0.297653930023551 
763	 0.297673436846821 
764	 0.297655355342575 
765	 0.297604496124818 
766	 0.297505444703158 
767	 0.297365017951121 
768	 0.297183603109373 
769	 0.296933057997829 
770	 0.296663581559709 
771	 0.296380308909574 
772	 0.296065158895961 
773	 0.295683366959204 
774	 0.295260057143172 
775	 0.294794354735251 
776	 0.294267325313203 
777	 0.293734387501491 
778	 0.293219275379899 
779	 0.292684184506508 
780	 0.29199960192289 
781	 0.291361039446513 
782	 0.290706226365698 
783	 0.289949836528304 
784	 0.289197699899934 
785	 0.288454564464831 
786	 0.287714625535505 
787	 0.286957684011265 
788	 0.286122676470535 
789	 0.285245596047467 
790	 0.284361545029586 
791	 0.283490138495796 
792	 0.282641990998599 
793	 0.281764296578002 
794	 0.280835291645746 
795	 0.279942079206749 
796	 0.279016546337675 
797	 0.278070779709818 
798	 0.277129054282702 
799	 0.276120291473984 
800	 0.275115614720085 
801	 0.274152497786383 
802	 0.273229449917133 
803	 0.272294314994163 
804	 0.271327672621526 
805	 0.270338776683088 
806	 0.269369742222658 
807	 0.268395352527804 
808	 0.267402904619432 
809	 0.266388387262838 
810	 0.265361165101002 
811	 0.264354219996174 
812	 0.263370795772744 
813	 0.262400118208577 
814	 0.261453659665256 
815	 0.260481852023112 
816	 0.259488444605536 
817	 0.258522459047188 
818	 0.25752234512126 
819	 0.256544090973499 
820	 0.25560530527842 
821	 0.254635315623757 
822	 0.253645717853246 
823	 0.252695584321503 
824	 0.251820225446698 
825	 0.250950169064542 
826	 0.250014326840001 
827	 0.249045178560344 
828	 0.248124194742266 
829	 0.247286044344964 
830	 0.246420080806536 
831	 0.245524220701739 
832	 0.24468872247185 
833	 0.243827822029893 
834	 0.242977182260417 
835	 0.242154699212525 
836	 0.241323350160562 
837	 0.240530949856076 
838	 0.239740110406767 
839	 0.238916034127454 
840	 0.238077569984552 
841	 0.237350859047205 
842	 0.236674908130805 
843	 0.235931759261941 
844	 0.235153182235148 
845	 0.234397016938649 
846	 0.233690131903218 
847	 0.233027552103064 
848	 0.232378988699482 
849	 0.231722184605376 
850	 0.231062025215628 
851	 0.230433901730833 
852	 0.229788688244729 
853	 0.22918239605068 
854	 0.228636076275572 
855	 0.228056508212301 
856	 0.227443783680561 
857	 0.226836329447364 
858	 0.226276918756413 
859	 0.225770243978279 
860	 0.22521268838816 
861	 0.224647427206376 
862	 0.224169416937458 
863	 0.22367695693539 
864	 0.223189548600707 
865	 0.222707637370522 
866	 0.222213231403619 
867	 0.22173967003173 
868	 0.221328973175259 
869	 0.220954780438864 
870	 0.220504906081944 
871	 0.22007115838088 
872	 0.219674328923197 
873	 0.219307497600543 
874	 0.218937144570719 
875	 0.218606633524252 
876	 0.218282384239873 
877	 0.217936935869856 
878	 0.21765802747553 
879	 0.217349812776103 
880	 0.217004651096387 
881	 0.216667233239677 
882	 0.216393542137056 
883	 0.21611606131766 
884	 0.215817386067541 
885	 0.215527979022882 
886	 0.21527620814144 
887	 0.215092135293695 
888	 0.21493292583057 
889	 0.214687553031209 
890	 0.21446218245906 
891	 0.214270019913269 
892	 0.214095543102739 
893	 0.213905187240444 
894	 0.21373926061376 
895	 0.213604135049595 
896	 0.213490593538555 
897	 0.213379211504741 
898	 0.213231669052305 
899	 0.213092760977499 
900	 0.213024107172676 
901	 0.21303861621249 
902	 0.212995933496222 
903	 0.212897992270943 
904	 0.212817796532952 
905	 0.212752265540122 
906	 0.212716910227895 
907	 0.212709929492099 
908	 0.212714364768963 
909	 0.212705911645516 
910	 0.212723766381699 
911	 0.212748664160265 
912	 0.212712113237785 
913	 0.212749179284537 
914	 0.212806283183551 
915	 0.212857918591962 
916	 0.212953085117257 
917	 0.21301134367914 
918	 0.213043359202475 
919	 0.213083114037118 
920	 0.213167475987552 
921	 0.213240201373127 
922	 0.213322911962562 
923	 0.213440229673701 
924	 0.213571998398302 
925	 0.213714509013902 
926	 0.213826829761137 
927	 0.213893992315039 
928	 0.214012932620823 
929	 0.214193665593827 
930	 0.214406438731087 
931	 0.214595200590536 
932	 0.214686522092366 
933	 0.214780522646575 
934	 0.214927247482539 
935	 0.21512388770064 
936	 0.215275975119387 
937	 0.215518889809524 
938	 0.215793036686136 
939	 0.215945273448286 
940	 0.216220349496532 
941	 0.216452906433266 
942	 0.216620307536759 
943	 0.216846008466085 
944	 0.217127626576757 
945	 0.217359326891394 
946	 0.217555327850946 
947	 0.217847570989509 
948	 0.218068617763533 
949	 0.218338349269746 
950	 0.218659393767515 
951	 0.218856027524778 
952	 0.219111619028019 
953	 0.21936723901131 
954	 0.219607476707477 
955	 0.219936119116349 
956	 0.220259336247228 
957	 0.220582048868212 
958	 0.220929881132428 
959	 0.221324814469258 
960	 0.221622756215151 
961	 0.221918280900652 
962	 0.222303377364377 
963	 0.222744778414818 
964	 0.223076486834413 
965	 0.223402365822343 
966	 0.223805728090319 
967	 0.224147137991682 
968	 0.2246176509055 
969	 0.225092370523521 
970	 0.225467902499512 
971	 0.225930462172073 
972	 0.22638796747976 
973	 0.226728119879935 
974	 0.226974092870541 
975	 0.227531019113077 
976	 0.22797890995857 
977	 0.228444187009336 
978	 0.229051942282217 
979	 0.229358865018973 
980	 0.229816588411608 
981	 0.230323925329579 
982	 0.230697109550235 
983	 0.23111771563002 
984	 0.2316379757739 
985	 0.232215947780808 
986	 0.232794210378721 
987	 0.233423610014948 
988	 0.233912706712113 
989	 0.23433777846821 
990	 0.234812457653717 
991	 0.235187804665357 
992	 0.235766566598327 
993	 0.236396777239 
994	 0.236877998769503 
995	 0.237452924986367 
996	 0.238109490527314 
997	 0.238725867185663 
998	 0.239227729774474 
999	 0.239844539936289 
1000	 0.240384221406603 
1001	 0.234163773220958 
1002	 0.23474724142183 
1003	 0.235392256009401 
1004	 0.235962725216669 
1005	 0.236528144563589 
1006	 0.237108661232418 
1007	 0.237634168900088 
1008	 0.238221304951343 
1009	 0.23885602608255 
1010	 0.239489485271138 
1011	 0.240155228366221 
1012	 0.240782217171291 
1013	 0.241380292020309 
1014	 0.24203022122044 
1015	 0.24268943635156 
1016	 0.243328899107605 
1017	 0.24404940426413 
1018	 0.244748165573816 
1019	 0.245404029173292 
1020	 0.246116133016185 
1021	 0.246825478838755 
1022	 0.24754263844388 
1023	 0.248270492056486 
1024	 0.249009798817118 
1025	 0.249753416026263 
1026	 0.250495562247163 
1027	 0.251265864112162 
1028	 0.252058255502018 
1029	 0.252865035672184 
1030	 0.253651661804789 
1031	 0.254467047721272 
1032	 0.255291110113112 
1033	 0.256128172894588 
1034	 0.257024236691362 
1035	 0.257899438855113 
1036	 0.258781689905498 
1037	 0.259683376086194 
1038	 0.260566097244478 
1039	 0.261424996690484 
1040	 0.262326526977903 
1041	 0.263210069103306 
1042	 0.264151614210387 
1043	 0.265156358078299 
1044	 0.266160401490193 
1045	 0.267119771572659 
1046	 0.268097628707744 
1047	 0.269024053643662 
1048	 0.269950469727949 
1049	 0.270949070008243 
1050	 0.271952573693914 
1051	 0.273004974456852 
1052	 0.274056253897751 
1053	 0.275115574439722 
1054	 0.27621982296524 
1055	 0.277278833447001 
1056	 0.278294592141448 
1057	 0.279368936134787 
1058	 0.280447518152492 
1059	 0.281508096016029 
1060	 0.282675355286423 
1061	 0.283797501270262 
1062	 0.284943308959615 
1063	 0.28614794509871 
1064	 0.287272308905646 
1065	 0.28845330017419 
1066	 0.289642094018783 
1067	 0.290809190513187 
1068	 0.292045896115712 
1069	 0.293248012768236 
1070	 0.294508623423222 
1071	 0.295807068266954 
1072	 0.29712439203121 
1073	 0.298374636350738 
1074	 0.299701359957496 
1075	 0.300986800133778 
1076	 0.302228151017126 
1077	 0.303586144037605 
1078	 0.304916323051815 
1079	 0.306270583878715 
1080	 0.30768977345481 
1081	 0.309026449057943 
1082	 0.310388170355219 
1083	 0.311729084041916 
1084	 0.313056375995311 
1085	 0.314487747245233 
1086	 0.315906422597769 
1087	 0.317332726437787 
1088	 0.318825464198679 
1089	 0.320326789110391 
1090	 0.321732291432298 
1091	 0.323204484437098 
1092	 0.32465491175794 
1093	 0.326120343957237 
1094	 0.327722866294032 
1095	 0.32926787836755 
1096	 0.330847857979987 
1097	 0.33246095137636 
1098	 0.333970488273515 
1099	 0.33555567467016 
1100	 0.337148612389483 
1101	 0.338726962585815 
1102	 0.340408041974665 
1103	 0.34206279176334 
1104	 0.343710010859072 
1105	 0.345419982907783 
1106	 0.347180725557136 
1107	 0.348819020942699 
1108	 0.350516666099285 
1109	 0.352205851298021 
1110	 0.353833651473583 
1111	 0.355585042583212 
1112	 0.357311743043342 
1113	 0.35908285257031 
1114	 0.360933877770281 
1115	 0.36268260297552 
1116	 0.364482330858704 
1117	 0.366249374964586 
1118	 0.368031851039973 
1119	 0.369814684216114 
1120	 0.371630674096929 
1121	 0.373442543195212 
1122	 0.37532495294249 
1123	 0.37724058097421 
1124	 0.379031316929647 
1125	 0.380900040441774 
1126	 0.382749191836438 
1127	 0.38456311370095 
1128	 0.386486118025717 
1129	 0.388325832231131 
1130	 0.390224956634253 
1131	 0.392202299026451 
1132	 0.39405204501597 
1133	 0.395962949225858 
1134	 0.397841268172277 
1135	 0.399720200693601 
1136	 0.401570335397398 
1137	 0.403463849877714 
1138	 0.405383157480883 
1139	 0.407311164347232 
1140	 0.409288929757001 
1141	 0.41113054782998 
1142	 0.413028945708686 
1143	 0.41488470878659 
1144	 0.416703303918123 
1145	 0.418630079940174 
1146	 0.420477998824122 
1147	 0.422352287184172 
1148	 0.424246469230002 
1149	 0.426006837870774 
1150	 0.427839307585977 
1151	 0.429642779184364 
1152	 0.431454505144107 
1153	 0.433297464874103 
1154	 0.43510098025755 
1155	 0.436893657856555 
1156	 0.438672381767105 
1157	 0.440403598811242 
1158	 0.442102284229512 
1159	 0.443803965882664 
1160	 0.44546091935648 
1161	 0.447068457553456 
1162	 0.448776122932852 
1163	 0.450395087333525 
1164	 0.452029065382937 
1165	 0.453694284313209 
1166	 0.455233498020799 
1167	 0.456829337481237 
1168	 0.458406283277501 
1169	 0.459976077456497 
1170	 0.461550737313932 
1171	 0.463097362514384 
1172	 0.464616561848352 
1173	 0.46615669418494 
1174	 0.467680688033288 
1175	 0.469172858702962 
1176	 0.470678471867014 
1177	 0.472153297752419 
1178	 0.473563036141665 
1179	 0.475039926046214 
1180	 0.476453077688622 
1181	 0.477890592755989 
1182	 0.479373904341445 
1183	 0.480745998630045 
1184	 0.482164975804678 
1185	 0.483575770243311 
1186	 0.484982423699774 
1187	 0.486380399221137 
1188	 0.487779756041708 
1189	 0.489186844040279 
1190	 0.490585686214845 
1191	 0.491967433215604 
1192	 0.493328165975164 
1193	 0.494685032048318 
1194	 0.496033403645103 
1195	 0.497382196266122 
1196	 0.498709021269357 
1197	 0.500016708301331 
1198	 0.501332224230605 
1199	 0.502640795643816 
1200	 0.503871441432906 
1201	 0.505150517589483 
1202	 0.506405868090782 
1203	 0.507641533414567 
1204	 0.508945718307677 
1205	 0.510224940125552 
1206	 0.511487306991307 
1207	 0.512819926582346 
1208	 0.51416405969658 
1209	 0.515545015645826 
1210	 0.516978078617372 
1211	 0.518434096377086 
1212	 0.519924891890204 
1213	 0.521441938465469 
1214	 0.52299725859927 
1215	 0.524578591889005 
1216	 0.52620237570102 
1217	 0.527798805220621 
1218	 0.529419740366597 
1219	 0.531031529879466 
1220	 0.532603976245238 
1221	 0.534238500067854 
1222	 0.53580226561558 
1223	 0.537371850591212 
1224	 0.538906783613143 
1225	 0.540407163967935 
1226	 0.541866356040447 
1227	 0.543315380216302 
1228	 0.544708566394142 
1229	 0.546052325900861 
1230	 0.547365196919989 
1231	 0.548619299592098 
1232	 0.549891549114816 
1233	 0.551149516603392 
1234	 0.552361243512774 
1235	 0.553559722016427 
1236	 0.554738296120314 
1237	 0.555867173631358 
1238	 0.556991812724147 
1239	 0.558105906285268 
1240	 0.559221355920751 
1241	 0.560329482862497 
1242	 0.5613400419856 
1243	 0.56235253466327 
1244	 0.563342125903557 
1245	 0.564309070061213 
1246	 0.565247602140065 
1247	 0.566163602657385 
1248	 0.567061240898658 
1249	 0.567937454375898 
1250	 0.568775152047723 
1251	 0.569605192681451 
1252	 0.570430128609971 
1253	 0.571227513812089 
1254	 0.572018154543176 
1255	 0.572766427273075 
1256	 0.573467801207566 
1257	 0.574174778585754 
1258	 0.574858457092885 
1259	 0.575524146791898 
1260	 0.576188523745697 
1261	 0.576835239853386 
1262	 0.577442625318844 
1263	 0.578060170941846 
1264	 0.578663530497909 
1265	 0.579262597849925 
1266	 0.579848022783951 
1267	 0.58041952826842 
1268	 0.580983872982172 
1269	 0.581538633445573 
1270	 0.582085743469551 
1271	 0.582627268846941 
1272	 0.583151849418147 
1273	 0.583664985687774 
1274	 0.584165465277082 
1275	 0.584649020875808 
1276	 0.585120807694036 
1277	 0.585581061885955 
1278	 0.586028001382544 
1279	 0.586462569215281 
1280	 0.586879870388062 
1281	 0.587277111590242 
1282	 0.58766801693641 
1283	 0.588048383216301 
1284	 0.588409554895185 
1285	 0.588756404695847 
1286	 0.58909328835944 
1287	 0.589413372604714 
1288	 0.589708134193261 
1289	 0.590007973999325 
1290	 0.590304799346969 
1291	 0.590583375610246 
1292	 0.590859805754944 
1293	 0.591105316827648 
1294	 0.591329213193571 
1295	 0.591538152582346 
1296	 0.591715734339433 
1297	 0.591901045392185 
1298	 0.592067029654684 
1299	 0.592248785164838 
1300	 0.592444416262374 
1301	 0.592623176683644 
1302	 0.592800759557613 
1303	 0.592973049679482 
1304	 0.593139410831935 
1305	 0.593292666161371 
1306	 0.593450675589128 
1307	 0.593585010330625 
1308	 0.593671841887042 
1309	 0.593790577260315 
1310	 0.593902402325838 
1311	 0.594008478465138 
1312	 0.594114115807447 
1313	 0.594233770989562 
1314	 0.594328984266447 
1315	 0.594419293398163 
1316	 0.594479089427138 
1317	 0.594513965397245 
1318	 0.594556407520915 
1319	 0.594578180399868 
1320	 0.594604108068156 
1321	 0.594646094933437 
1322	 0.594660988308598 
1323	 0.594655052406769 
1324	 0.59464799086969 
1325	 0.594627783656971 
1326	 0.594609766768 
1327	 0.594608347164248 
1328	 0.594567833444213 
1329	 0.594517248471382 
1330	 0.594441440077524 
1331	 0.594324911671661 
1332	 0.5942062749288 
1333	 0.594086700667077 
1334	 0.593935613019874 
1335	 0.593779814069843 
1336	 0.593612650236844 
1337	 0.593431632570916 
1338	 0.593234874841979 
1339	 0.593033361208303 
1340	 0.592834133913204 
1341	 0.592590576985208 
1342	 0.592332380204441 
1343	 0.592041217645095 
1344	 0.591725119873669 
1345	 0.591364185390982 
1346	 0.590969437075495 
1347	 0.590553832920073 
1348	 0.590094202973342 
1349	 0.589621075817584 
1350	 0.589135779311615 
1351	 0.588620129143705 
1352	 0.588065340413774 
1353	 0.587505947167061 
1354	 0.586903457021634 
1355	 0.586336654267984 
1356	 0.585758631640809 
1357	 0.585211691771175 
1358	 0.58468460400244 
1359	 0.584182882818254 
1360	 0.583703341420336 
1361	 0.583244910915037 
1362	 0.582807542825167 
1363	 0.582407226000433 
1364	 0.58200091512271 
1365	 0.581615622516117 
1366	 0.581216656023349 
1367	 0.580827461650828 
1368	 0.580414042501742 
1369	 0.579997905306375 
1370	 0.579554087250521 
1371	 0.579113918074465 
1372	 0.57860618712257 
1373	 0.578067545797234 
1374	 0.577484372038519 
1375	 0.57684294678467 
1376	 0.576177155871972 
1377	 0.575479297072152 
1378	 0.574743624624037 
1379	 0.573934673871983 
1380	 0.573161989963287 
1381	 0.572345798179505 
1382	 0.571588134453352 
1383	 0.570859337034318 
1384	 0.570155005504337 
1385	 0.569515072690359 
1386	 0.568842235407155 
1387	 0.568214626118459 
1388	 0.567524515801953 
1389	 0.566818406780025 
1390	 0.566050545917398 
1391	 0.565243526890093 
1392	 0.564352639487503 
1393	 0.563440868536318 
1394	 0.56250234922204 
1395	 0.561585578125662 
1396	 0.560642157286935 
1397	 0.559771439564544 
1398	 0.558929589995541 
1399	 0.558101832214737 
1400	 0.557349721256676 
1401	 0.55649666294338 
1402	 0.555687024014222 
1403	 0.554677832505321 
1404	 0.553616939762668 
1405	 0.552361132726934 
1406	 0.550977493283126 
1407	 0.549402551385497 
1408	 0.547612956912783 
1409	 0.545770873039787 
1410	 0.543717863940839 
1411	 0.541699807966391 
1412	 0.539536078275819 
1413	 0.537548428134893 
1414	 0.535492315241759 
1415	 0.533677860583713 
1416	 0.531979349839873 
1417	 0.530483283540422 
1418	 0.529193990805602 
1419	 0.52801540823269 
1420	 0.527077623438912 
1421	 0.526156461379524 
1422	 0.525428009667196 
1423	 0.524589976962804 
1424	 0.523803297758906 
1425	 0.5229153154861 
1426	 0.521964400519148 
1427	 0.520865938634633 
1428	 0.519584396425325 
1429	 0.518290383803197 
1430	 0.516846197440923 
1431	 0.515243598356228 
1432	 0.513606909994541 
1433	 0.511854603578136 
1434	 0.51013054271902 
1435	 0.508316599779383 
1436	 0.506567620978053 
1437	 0.504823275338978 
1438	 0.503142503276247 
1439	 0.501445410876495 
1440	 0.499872275349014 
1441	 0.498321119903093 
1442	 0.496955688323198 
1443	 0.495617454418596 
1444	 0.494599195467451 
1445	 0.493708777808285 
1446	 0.493200194565371 
1447	 0.492918367630139 
1448	 0.493048892343526 
1449	 0.49360668207142 
1450	 0.494353708158153 
1451	 0.495586421592791 
1452	 0.496757084974272 
1453	 0.498227223814597 
1454	 0.499495633026813 
1455	 0.500807938108997 
1456	 0.501964441418545 
1457	 0.502964657175293 
1458	 0.503946113574545 
1459	 0.504755391466908 
1460	 0.505675958509757 
1461	 0.506581949528747 
1462	 0.507543997113318 
1463	 0.508601809653752 
1464	 0.50965546507426 
1465	 0.510732865361157 
1466	 0.511856281514108 
1467	 0.512880817075785 
1468	 0.513879132122457 
1469	 0.514779645076891 
1470	 0.515535491896241 
1471	 0.516255282558221 
1472	 0.516904043520483 
1473	 0.517485506650669 
1474	 0.51799653129306 
1475	 0.518429504642206 
1476	 0.518802819004657 
1477	 0.519069164433605 
1478	 0.519239909177854 
1479	 0.519336598967594 
1480	 0.519342077643222 
1481	 0.519279461397153 
1482	 0.519115530101663 
1483	 0.51893691061748 
1484	 0.518659117071271 
1485	 0.518430363648249 
1486	 0.518155068652888 
1487	 0.517966866071969 
1488	 0.517778632156481 
1489	 0.51769684178548 
1490	 0.517660139359179 
1491	 0.517746575994548 
1492	 0.517912757389003 
1493	 0.518201434351362 
1494	 0.518629497930944 
1495	 0.519105741594261 
1496	 0.519704342837144 
1497	 0.520318010185924 
1498	 0.521024405226482 
1499	 0.521702336174906 
1500	 0.522426342312175 
1501	 0.523114313350084 
1502	 0.523813200644851 
1503	 0.524447219598212 
1504	 0.525067182185165 
1505	 0.525619986680615 
1506	 0.526111134832068 
1507	 0.526555986458892 
1508	 0.526943462908475 
1509	 0.527294066502969 
1510	 0.527589498847964 
1511	 0.527851972214191 
1512	 0.52806427955515 
1513	 0.52826104355552 
1514	 0.528415015244135 
1515	 0.528562572143797 
1516	 0.528676313034289 
1517	 0.528805577195848 
1518	 0.528929873292315 
1519	 0.529055754874294 
1520	 0.529195826502269 
1521	 0.529331096596127 
1522	 0.529453072801398 
1523	 0.529563887796789 
1524	 0.52965737059727 
1525	 0.529742962587124 
1526	 0.529794713283 
1527	 0.529821522034763 
1528	 0.529839804470907 
1529	 0.529832483955709 
1530	 0.529821687627589 
1531	 0.529794397320571 
1532	 0.529783526162853 
1533	 0.529754489880733 
1534	 0.529767893135053 
1535	 0.529796962385615 
1536	 0.529859161085064 
1537	 0.529928352852627 
1538	 0.530074516496393 
1539	 0.530267975951675 
1540	 0.530500770573284 
1541	 0.530780548798806 
1542	 0.53112453725958 
1543	 0.531507175333304 
1544	 0.531956734831195 
1545	 0.532485542103732 
1546	 0.533047722059733 
1547	 0.533662045533368 
1548	 0.534309404855442 
1549	 0.535019414333629 
1550	 0.535731461656371 
1551	 0.536481272557492 
1552	 0.537223306159412 
1553	 0.537984111890801 
1554	 0.538738779350632 
1555	 0.539502622104858 
1556	 0.540249820297465 
1557	 0.540995712133494 
1558	 0.541730719177217 
1559	 0.54246731293783 
1560	 0.543164582400947 
1561	 0.543858853065712 
1562	 0.544500967130882 
1563	 0.545100798247625 
1564	 0.545668687652142 
1565	 0.546193257296038 
1566	 0.5467019165329 
1567	 0.547172993493658 
1568	 0.547633978186906 
1569	 0.548060445090836 
1570	 0.548504546882121 
1571	 0.54894460135055 
1572	 0.549375535793546 
1573	 0.549823589627826 
1574	 0.550237066999591 
1575	 0.55063160566735 
1576	 0.551001769182117 
1577	 0.551335064519466 
1578	 0.551679956911494 
1579	 0.552004851184058 
1580	 0.552337061387677 
1581	 0.552687697395366 
1582	 0.553013944175525 
1583	 0.553317064041857 
1584	 0.553632692489972 
1585	 0.553947467497257 
1586	 0.55425396138361 
1587	 0.554560484721066 
1588	 0.554867211841148 
1589	 0.55516189134407 
1590	 0.555462744026488 
1591	 0.555781183463035 
1592	 0.556079613873923 
1593	 0.556355037287038 
1594	 0.55664972038878 
1595	 0.556932383458916 
1596	 0.557240027229019 
1597	 0.557584440370177 
1598	 0.557909217796536 
1599	 0.558244334506264 
1600	 0.558563635316229 
1601	 0.558866073750301 
1602	 0.559168857544932 
1603	 0.559466081366167 
1604	 0.559758131379197 
1605	 0.560053048684981 
1606	 0.560329146968882 
1607	 0.56059988605944 
1608	 0.560851761358848 
1609	 0.561081647804153 
1610	 0.561305159732176 
1611	 0.56152750991753 
1612	 0.561715204414728 
1613	 0.561872265297794 
1614	 0.562029215080966 
1615	 0.562158847873617 
1616	 0.562290822182161 
1617	 0.562428676760774 
1618	 0.56255256061855 
1619	 0.562671613693508 
1620	 0.562766707345843 
1621	 0.562834395918447 
1622	 0.56291353091237 
1623	 0.562980123015125 
1624	 0.563046346669445 
1625	 0.563135468359713 
1626	 0.563191400410469 
1627	 0.563220470691174 
1628	 0.563247523860709 
1629	 0.563245506919598 
1630	 0.563262783306094 
1631	 0.563292803678538 
1632	 0.563310759912285 
1633	 0.56333901090267 
1634	 0.563349024394942 
1635	 0.563341962168172 
1636	 0.563329805426337 
1637	 0.563309192003181 
1638	 0.563278671206707 
1639	 0.563241553197048 
1640	 0.563191206174664 
1641	 0.563129207788858 
1642	 0.56305838858403 
1643	 0.562973605182842 
1644	 0.562882692546894 
1645	 0.562792924986943 
1646	 0.562678052322637 
1647	 0.562551034713583 
1648	 0.56240313148968 
1649	 0.562234547773852 
1650	 0.562041004510752 
1651	 0.561819167670945 
1652	 0.561595433188258 
1653	 0.56137156603604 
1654	 0.561101492058055 
1655	 0.560826121098725 
1656	 0.560487722030385 
1657	 0.560081060039444 
1658	 0.559657938613788 
1659	 0.559191900438315 
1660	 0.558717682548599 
1661	 0.558228047446884 
1662	 0.557701279020145 
1663	 0.557141858673193 
1664	 0.55656063040835 
1665	 0.555980494821677 
1666	 0.555309069597337 
1667	 0.554593768774177 
1668	 0.553830637373172 
1669	 0.552994104656829 
1670	 0.552106849824398 
1671	 0.551181043282954 
1672	 0.550187594712813 
1673	 0.549117998710159 
1674	 0.547997115174405 
1675	 0.546832925790069 
1676	 0.545623226073146 
1677	 0.544352302976121 
1678	 0.543036023390389 
1679	 0.541666575052838 
1680	 0.540232997049041 
1681	 0.53875423727465 
1682	 0.537185722302854 
1683	 0.535555796059372 
1684	 0.533875983763921 
1685	 0.532093897317718 
1686	 0.530307227637521 
1687	 0.528440584025627 
1688	 0.526603286356516 
1689	 0.524770176167545 
1690	 0.522888491398063 
1691	 0.521015492030358 
1692	 0.519126162379443 
1693	 0.517194386204017 
1694	 0.515248367935323 
1695	 0.513293325307226 
1696	 0.511284017469416 
1697	 0.509235818977431 
1698	 0.507137308524317 
1699	 0.505000250275906 
1700	 0.502886616506381 
1701	 0.500721494293745 
1702	 0.498607360661282 
1703	 0.496471397944888 
1704	 0.494432554051304 
1705	 0.492410150504156 
1706	 0.490460628602563 
1707	 0.488724600635042 
1708	 0.487004268410573 
1709	 0.485356629136316 
1710	 0.483805380210011 
1711	 0.48221172343628 
1712	 0.480686373910769 
1713	 0.479149531204138 
1714	 0.477572039580966 
1715	 0.476086740855542 
1716	 0.474567772470613 
1717	 0.473080002415267 
1718	 0.471657875460465 
1719	 0.470202866671948 
1720	 0.468840424525461 
1721	 0.467541387588358 
1722	 0.466289886849077 
1723	 0.465227801515769 
1724	 0.464277594633119 
1725	 0.463452380594031 
1726	 0.462832449990826 
1727	 0.462381350881068 
1728	 0.462131869485913 
1729	 0.462099782230562 
1730	 0.462273337980327 
1731	 0.462585609665728 
1732	 0.463063371631146 
1733	 0.463614212363467 
1734	 0.464217258352482 
1735	 0.464858229742175 
1736	 0.465419761360369 
1737	 0.465930547473712 
1738	 0.466374704263634 
1739	 0.466688988066274 
1740	 0.466918466063903 
1741	 0.467019821247846 
1742	 0.466952759359174 
1743	 0.46686663998904 
1744	 0.46665259143993 
1745	 0.466459850409517 
1746	 0.466219365630071 
1747	 0.46602988981722 
1748	 0.465814535582538 
1749	 0.465686033459527 
1750	 0.465600191669011 
1751	 0.465576208987032 
1752	 0.465605447909197 
1753	 0.465732205503662 
1754	 0.465913601420161 
1755	 0.466201842283114 
1756	 0.466586453694122 
1757	 0.467015593754779 
1758	 0.467601472072994 
1759	 0.468291986251644 
1760	 0.469101618914815 
1761	 0.470033687457921 
1762	 0.471003010020867 
1763	 0.472071469532289 
1764	 0.473170722314564 
1765	 0.474350242228366 
1766	 0.475670221163736 
1767	 0.476954553589036 
1768	 0.478288692289213 
1769	 0.479623165314978 
1770	 0.480845364964313 
1771	 0.482084366453859 
1772	 0.483261740673242 
1773	 0.484355921545194 
1774	 0.485459349557883 
1775	 0.486464293388512 
1776	 0.48739512241712 
1777	 0.488287634436454 
1778	 0.489086962440527 
1779	 0.489883349796469 
1780	 0.490667835411781 
1781	 0.491404696396222 
1782	 0.492137399974135 
1783	 0.492798254088272 
1784	 0.493437499804916 
1785	 0.49407454095091 
1786	 0.494712846599819 
1787	 0.495378543470988 
1788	 0.495990042760875 
1789	 0.496582924163091 
1790	 0.497134671272542 
1791	 0.497636904018601 
1792	 0.498156653514645 
1793	 0.498642185643619 
1794	 0.499124473568678 
1795	 0.499599401798991 
1796	 0.500041178824813 
1797	 0.50053792451272 
1798	 0.501036804832588 
1799	 0.501512983734277 
1800	 0.501984062995501 
1801	 0.515838034206021 
1802	 0.516779774640123 
1803	 0.517630793356948 
1804	 0.518369063226544 
1805	 0.51910114697228 
1806	 0.519761308032236 
1807	 0.520369179488246 
1808	 0.520921618090834 
1809	 0.521392598108919 
1810	 0.521865304496426 
1811	 0.522284790740093 
1812	 0.522701935291104 
1813	 0.523101918720224 
1814	 0.523508600646614 
1815	 0.523856719641992 
1816	 0.52420516735688 
1817	 0.524570502372973 
1818	 0.524923296069304 
1819	 0.525287730843807 
1820	 0.525665552638874 
1821	 0.52605425623832 
1822	 0.526447279295671 
1823	 0.526853792535136 
1824	 0.527247182982399 
1825	 0.527655266794553 
1826	 0.528053413795683 
1827	 0.528448612371844 
1828	 0.528810721005655 
1829	 0.529175137028581 
1830	 0.529512715556256 
1831	 0.529809459128546 
1832	 0.530117837447508 
1833	 0.530399476994523 
1834	 0.530681941164808 
1835	 0.530962885189942 
1836	 0.531206620154595 
1837	 0.531480762616418 
1838	 0.531769444684966 
1839	 0.532055710704391 
1840	 0.532346922642414 
1841	 0.532645189658778 
1842	 0.532963399354166 
1843	 0.533260257323157 
1844	 0.533550781398274 
1845	 0.533807640756614 
1846	 0.534013986210362 
1847	 0.534176822615099 
1848	 0.534294413226513 
1849	 0.534382280082874 
1850	 0.534400480287759 
1851	 0.534374587273184 
1852	 0.53427695045783 
1853	 0.534120310249831 
1854	 0.533909339208154 
1855	 0.533630729070989 
1856	 0.533319532189666 
1857	 0.532927532510684 
1858	 0.532434977041822 
1859	 0.531891112833446 
1860	 0.531283512401273 
1861	 0.530575553340759 
1862	 0.529787737722176 
1863	 0.528976389300751 
1864	 0.52798962235661 
1865	 0.526944513676886 
1866	 0.525795423067812 
1867	 0.524478718108892 
1868	 0.523115344646829 
1869	 0.521679277516583 
1870	 0.520237148478026 
1871	 0.518751064986694 
1872	 0.517277300755661 
1873	 0.515791846523353 
1874	 0.514331741660434 
1875	 0.512847584329208 
1876	 0.511184097166405 
1877	 0.509537018613939 
1878	 0.507771828880206 
1879	 0.505839357800386 
1880	 0.503959793603677 
1881	 0.50189817519357 
1882	 0.499685589546234 
1883	 0.497389118456163 
1884	 0.494976374766966 
1885	 0.492307976889767 
1886	 0.489662187988197 
1887	 0.486848807964667 
1888	 0.483893061007947 
1889	 0.48108446670168 
1890	 0.478113862088385 
1891	 0.475128423387095 
1892	 0.472185797665136 
1893	 0.469104196173985 
1894	 0.465872329874227 
1895	 0.462736500033683 
1896	 0.459521309895627 
1897	 0.4562119048545 
1898	 0.453161324549579 
1899	 0.45005662571411 
1900	 0.446996764727721 
1901	 0.444068408568002 
1902	 0.440983582220282 
1903	 0.438052107730668 
1904	 0.435184677420089 
1905	 0.432343539889152 
1906	 0.429565996721253 
1907	 0.42708760924004 
1908	 0.424542385128831 
1909	 0.422064679723105 
1910	 0.419725229564779 
1911	 0.417233251871907 
1912	 0.414858572783946 
1913	 0.412495361120598 
1914	 0.410056228387769 
1915	 0.40775883998332 
1916	 0.405587772199373 
1917	 0.403353142495413 
1918	 0.401174053401654 
1919	 0.399064615422655 
1920	 0.396798034758013 
1921	 0.394625360228404 
1922	 0.392421880544092 
1923	 0.390169360374987 
1924	 0.388096890211574 
1925	 0.385932460657006 
1926	 0.38381569187096 
1927	 0.381755838601919 
1928	 0.379696701666721 
1929	 0.377577124790806 
1930	 0.375617314073797 
1931	 0.373722419470422 
1932	 0.371895572026634 
1933	 0.370333177155965 
1934	 0.36886098678694 
1935	 0.36750885725371 
1936	 0.366373373718642 
1937	 0.365373108366977 
1938	 0.364493416394864 
1939	 0.363822651551349 
1940	 0.363333946470397 
1941	 0.363004887336637 
1942	 0.362851619759693 
1943	 0.362833058431367 
1944	 0.362947221871239 
1945	 0.363226709690716 
1946	 0.363681838335417 
1947	 0.364245318682305 
1948	 0.364999289498019 
1949	 0.365942190417236 
1950	 0.36701761280994 
1951	 0.368274903810899 
1952	 0.369659123060721 
1953	 0.371179921743003 
1954	 0.372854865696915 
1955	 0.37471346221418 
1956	 0.376569689408102 
1957	 0.378489330362271 
1958	 0.380384478245547 
1959	 0.382061348665054 
1960	 0.383639407141754 
1961	 0.385058205402111 
1962	 0.386306998739196 
1963	 0.387420324316135 
1964	 0.388385957397347 
1965	 0.38922966332984 
1966	 0.389916310322655 
1967	 0.39051583229401 
1968	 0.391002473883924 
1969	 0.391449648814248 
1970	 0.391834258336831 
1971	 0.392216554175841 
1972	 0.392645998993237 
1973	 0.393094604470578 
1974	 0.393611641433961 
1975	 0.394204798904384 
1976	 0.394811714703238 
1977	 0.395450795903994 
1978	 0.396142792775006 
1979	 0.396865418021506 
1980	 0.397629435513821 
1981	 0.398503962062307 
1982	 0.399364033257615 
1983	 0.400308484332574 
1984	 0.401316494394707 
1985	 0.402304983434264 
1986	 0.403433068599843 
1987	 0.404652724003108 
1988	 0.405901057562708 
1989	 0.407349189947777 
1990	 0.408955269465507 
1991	 0.410648335941503 
1992	 0.412479446881195 
1993	 0.414464630800853 
1994	 0.416417278550021 
1995	 0.418532966681665 
1996	 0.420687853871278 
1997	 0.422864575878832 
1998	 0.425107017640031 
1999	 0.427479765097659 
2000	 0.429708738015182 
2001	 0.432040039276248 
2002	 0.43412701148167 
2003	 0.436070973468136 
2004	 0.437954783702432 
2005	 0.439664510431958 
2006	 0.441358689702741 
2007	 0.443042584566641 
2008	 0.444588472859955 
2009	 0.446056150129656 
2010	 0.447444433189101 
2011	 0.448640065505059 
2012	 0.449788863994617 
2013	 0.450857488358252 
2014	 0.451803298578401 
2015	 0.452735205356951 
2016	 0.453631970291678 
2017	 0.454430260484601 
2018	 0.455182157321076 
2019	 0.45583427576574 
2020	 0.456372405212088 
2021	 0.456869761547922 
2022	 0.457292229606798 
2023	 0.45761665124949 
2024	 0.457887658512003 
2025	 0.458088468113008 
2026	 0.458222138507194 
2027	 0.458279533558737 
2028	 0.458287787429897 
2029	 0.458223468881858 
2030	 0.458111185850973 
2031	 0.457925194035719 
2032	 0.457720513293272 
2033	 0.457452634050582 
2034	 0.457180272519877 
2035	 0.456881420846568 
2036	 0.456557408584191 
2037	 0.456231116353345 
2038	 0.455890848526032 
2039	 0.455556616736583 
2040	 0.455226946343106 
2041	 0.45488079887783 
2042	 0.454502888752746 
2043	 0.454174072139809 
2044	 0.453843986744572 
2045	 0.453544173419714 
2046	 0.453279218416823 
2047	 0.453033557177232 
2048	 0.452799198288535 
2049	 0.452591169107512 
2050	 0.452403524109564 
2051	 0.452251309252437 
2052	 0.452132650798565 
2053	 0.452058465901196 
2054	 0.45203910572298 
2055	 0.45207305379924 
2056	 0.452160129938287 
2057	 0.452294393544709 
2058	 0.452483525010546 
2059	 0.452735795207127 
2060	 0.453032225824569 
2061	 0.453379044230911 
2062	 0.453770225833657 
2063	 0.454236960351172 
2064	 0.45471047783278 
2065	 0.455205414437766 
2066	 0.455752486981625 
2067	 0.456342444185391 
2068	 0.456926671050362 
2069	 0.457517436728214 
2070	 0.458160067336943 
2071	 0.458735822131052 
2072	 0.459292023336925 
2073	 0.459819933867072 
2074	 0.46032341131362 
2075	 0.460803318923852 
2076	 0.461265350233041 
2077	 0.461683715226074 
2078	 0.462086238210533 
2079	 0.462426554293882 
2080	 0.462715624730176 
2081	 0.462970108856962 
2082	 0.463171876679328 
2083	 0.463334979123842 
2084	 0.46349271311762 
2085	 0.463601703599776 
2086	 0.463657628028053 
2087	 0.463672685474528 
2088	 0.463648226705525 
2089	 0.463548670893141 
2090	 0.46345266073571 
2091	 0.463347631275015 
2092	 0.463192890528911 
2093	 0.462996935051801 
2094	 0.462786383130197 
2095	 0.46252431609311 
2096	 0.46226359575337 
2097	 0.462001418990417 
2098	 0.461713241485142 
2099	 0.461398947383026 
2100	 0.461062843819662 
2101	 0.460694576270648 
2102	 0.460300068426984 
2103	 0.459868129668443 
2104	 0.459381517486636 
2105	 0.458917201718952 
2106	 0.458431141032198 
2107	 0.457942435626664 
2108	 0.457498632726652 
2109	 0.456964470371264 
2110	 0.456363310055053 
2111	 0.455767864297423 
2112	 0.455103512250269 
2113	 0.454471971420274 
2114	 0.453879015875053 
2115	 0.453240001485669 
2116	 0.452573385472289 
2117	 0.45192455791604 
2118	 0.451226832965451 
2119	 0.450491076220239 
2120	 0.449754993209663 
2121	 0.448987624498501 
2122	 0.448235132920142 
2123	 0.447465706273615 
2124	 0.44671535897008 
2125	 0.4459921350862 
2126	 0.445237320001982 
2127	 0.444469218521869 
2128	 0.443715482585928 
2129	 0.44293461288147 
2130	 0.442181708557713 
2131	 0.44147008104937 
2132	 0.44073049333256 
2133	 0.439991336246779 
2134	 0.439254149560584 
2135	 0.438446418335636 
2136	 0.437676709264416 
2137	 0.43688183525772 
2138	 0.436054052027042 
2139	 0.435253727647291 
2140	 0.434474741267774 
2141	 0.433661436133337 
2142	 0.432852265622649 
2143	 0.432011743687325 
2144	 0.431138678744392 
2145	 0.430269970253673 
2146	 0.429375281914304 
2147	 0.428495316625731 
2148	 0.427622606525344 
2149	 0.42673765246256 
2150	 0.425868836062386 
2151	 0.424969297938824 
2152	 0.424046143318246 
2153	 0.423125511725821 
2154	 0.422156254620944 
2155	 0.421151667771756 
2156	 0.420187128660621 
2157	 0.419217416985411 
2158	 0.418241399295677 
2159	 0.417291906553335 
2160	 0.41631721989996 
2161	 0.415282570964823 
2162	 0.414335902811601 
2163	 0.413402123417732 
2164	 0.412524812492342 
2165	 0.41171847189275 
2166	 0.410909178107258 
2167	 0.410135368054497 
2168	 0.409372328240453 
2169	 0.40859924658807 
2170	 0.407888118096822 
2171	 0.407206049937098 
2172	 0.406568731535973 
2173	 0.405988422606572 
2174	 0.405430379604248 
2175	 0.40492445216426 
2176	 0.404459380683436 
2177	 0.404040099042029 
2178	 0.403683711980231 
2179	 0.403334270748247 
2180	 0.403018444478477 
2181	 0.402723112704794 
2182	 0.402460211715537 
2183	 0.402198324612295 
2184	 0.401963720215382 
2185	 0.401731264153378 
2186	 0.401513088214898 
2187	 0.401289192590422 
2188	 0.401084992050246 
2189	 0.400855613612439 
2190	 0.400657055432425 
2191	 0.400365545932772 
2192	 0.400045972055302 
2193	 0.399660478763544 
2194	 0.399169755104596 
2195	 0.398678321369388 
2196	 0.398152581394091 
2197	 0.39759508382355 
2198	 0.397020484289227 
2199	 0.396399628165968 
2200	 0.395764424149541 
2201	 0.395108360224462 
2202	 0.394393876109566 
2203	 0.39361233424516 
2204	 0.392894350056401 
2205	 0.392103350000368 
2206	 0.391444661120133 
2207	 0.390850053006757 
2208	 0.390326703389064 
2209	 0.389874547284269 
2210	 0.389485453968566 
2211	 0.389176839895271 
2212	 0.388920917420422 
2213	 0.388753578814027 
2214	 0.388581902796988 
2215	 0.388466776800817 
2216	 0.388359730620145 
2217	 0.38828152490037 
2218	 0.388192541513913 
2219	 0.388128030625457 
2220	 0.388057509002071 
2221	 0.387961018225008 
2222	 0.387894637187264 
2223	 0.387855741056973 
2224	 0.387784018199624 
2225	 0.387701149887994 
2226	 0.387557588182419 
2227	 0.387282342165493 
2228	 0.386934014799934 
2229	 0.386463197027349 
2230	 0.385861956744883 
2231	 0.385177579325481 
2232	 0.384414045213643 
2233	 0.383501657969643 
2234	 0.382512568335703 
2235	 0.381302558280145 
2236	 0.379906526860547 
2237	 0.378401917293058 
2238	 0.376674465710072 
2239	 0.374909902800293 
2240	 0.373069917012504 
2241	 0.371083915517131 
2242	 0.369015470959575 
2243	 0.366772367704056 
2244	 0.364296493887689 
2245	 0.361835677740847 
2246	 0.35912877941389 
2247	 0.356583810696056 
2248	 0.354090124282439 
2249	 0.35161597171726 
2250	 0.349165240547708 
2251	 0.346868590051116 
2252	 0.344432196498634 
2253	 0.34211461444991 
2254	 0.339847021119209 
2255	 0.33756088211925 
2256	 0.335480154281012 
2257	 0.333378715253616 
2258	 0.331261873800686 
2259	 0.329252494457686 
2260	 0.32702158418927 
2261	 0.324644846870643 
2262	 0.322351648905051 
2263	 0.319897213543834 
2264	 0.317650291174626 
2265	 0.315481632487838 
2266	 0.313416785409536 
2267	 0.311421264119356 
2268	 0.30959853489224 
2269	 0.307862178837913 
2270	 0.30637610063766 
2271	 0.305081777980364 
2272	 0.30394504921098 
2273	 0.303100920283587 
2274	 0.302245509237693 
2275	 0.301602261382907 
2276	 0.30084428896651 
2277	 0.300154569253834 
2278	 0.299344176169747 
2279	 0.298456914274213 
2280	 0.29750580535748 
2281	 0.296503058980368 
2282	 0.295395344089896 
2283	 0.294239923605812 
2284	 0.292949016968346 
2285	 0.291435100310929 
2286	 0.289925637411906 
2287	 0.288251480472224 
2288	 0.286460051614631 
2289	 0.284754374179798 
2290	 0.282913907407727 
2291	 0.281098929881414 
2292	 0.279285860708433 
2293	 0.277299145669757 
2294	 0.275357714999432 
2295	 0.27341556755335 
2296	 0.271522735971914 
2297	 0.269878881024795 
2298	 0.268397859299374 
2299	 0.267091722231927 
2300	 0.265972885360857 
2301	 0.265035907941278 
2302	 0.264232842638224 
2303	 0.263756970038017 
2304	 0.263507262715797 
2305	 0.263541353510925 
2306	 0.26389390046498 
2307	 0.264470098179973 
2308	 0.265272450804707 
2309	 0.266432495864056 
2310	 0.267964944457622 
2311	 0.269649421364979 
2312	 0.271779609949846 
2313	 0.273831827004077 
2314	 0.276080333511621 
2315	 0.27826188667754 
2316	 0.280542608071826 
2317	 0.282644280306864 
2318	 0.284829182835679 
2319	 0.286624941178292 
2320	 0.288225924613326 
2321	 0.289576468849418 
2322	 0.290580894451317 
2323	 0.291444892060948 
2324	 0.292099329073035 
2325	 0.292560544120381 
2326	 0.292806611054241 
2327	 0.292855431773017 
2328	 0.292646975248678 
2329	 0.292326286801529 
2330	 0.291818485035963 
2331	 0.291130611122524 
2332	 0.290370323598142 
2333	 0.289397853961362 
2334	 0.288144347675686 
2335	 0.286787480076876 
2336	 0.285237190967349 
2337	 0.283555873664672 
2338	 0.281956070347128 
2339	 0.280195469603712 
2340	 0.278417675385656 
2341	 0.276717394198085 
2342	 0.274969705246987 
2343	 0.273459779075002 
2344	 0.272199349336936 
2345	 0.271143695842214 
2346	 0.270449621334833 
2347	 0.270150893708559 
2348	 0.270170847001462 
2349	 0.270601613203955 
2350	 0.271339972625631 
2351	 0.272360646153383 
2352	 0.273600423406959 
2353	 0.27494791454799 
2354	 0.276321199129336 
2355	 0.277676960081949 
2356	 0.278913797653245 
2357	 0.279976034790985 
2358	 0.280888168464329 
2359	 0.281522078399544 
2360	 0.281969178222411 
2361	 0.282200399008386 
2362	 0.282289866098349 
2363	 0.282273797944871 
2364	 0.282129783939665 
2365	 0.281931941372306 
2366	 0.281677865988063 
2367	 0.281442944728297 
2368	 0.28118781044351 
2369	 0.280928556973988 
2370	 0.280704542163123 
2371	 0.280453395466553 
2372	 0.280197990682095 
2373	 0.279919227120811 
2374	 0.279613987416791 
2375	 0.279272361252726 
2376	 0.278922271155251 
2377	 0.278622829573826 
2378	 0.278267265141297 
2379	 0.277870807817653 
2380	 0.277509635485897 
2381	 0.277044532325947 
2382	 0.276601811397652 
2383	 0.276161388143151 
2384	 0.275767446768149 
2385	 0.275377749252526 
2386	 0.275009517032531 
2387	 0.274674601423012 
2388	 0.274283787094034 
2389	 0.273894375442559 
2390	 0.2734273911951 
2391	 0.272940145767964 
2392	 0.272465043484838 
2393	 0.271861755054475 
2394	 0.271418450407918 
2395	 0.271036639605388 
2396	 0.270668889553277 
2397	 0.270471395684226 
2398	 0.270092700184026 
2399	 0.269621777669824 
2400	 0.269214581707867 
2401	 0.268727062292071 
2402	 0.268277851095479 
2403	 0.267914941472652 
2404	 0.267571175538309 
2405	 0.267213290352548 
2406	 0.266849535178638 
2407	 0.266583540812301 
2408	 0.266359788652076 
2409	 0.266032461906742 
2410	 0.265796282613129 
2411	 0.265642505361329 
2412	 0.265419184732361 
2413	 0.26530525055535 
2414	 0.265232504581274 
2415	 0.265108334453372 
2416	 0.265042749941778 
2417	 0.264871861728419 
2418	 0.264639994462575 
2419	 0.26449195884281 
2420	 0.264289693534982 
2421	 0.264117438116113 
2422	 0.264030165172632 
2423	 0.263971962334711 
2424	 0.263952779251508 
2425	 0.263856662117241 
2426	 0.26373468736372 
2427	 0.26364254865617 
2428	 0.263508988882299 
2429	 0.263445169264098 
2430	 0.263403725288835 
2431	 0.26321794626341 
2432	 0.263038346473871 
2433	 0.262935510755616 
2434	 0.262881128688647 
2435	 0.262852637314985 
2436	 0.262767588862571 
2437	 0.262674751236255 
2438	 0.262547583548874 
2439	 0.262388073944128 
2440	 0.262262338478645 
2441	 0.262192630180183 
2442	 0.262122273970757 
2443	 0.261985341923596 
2444	 0.261824727443786 
2445	 0.261578977631975 
2446	 0.261268131210124 
2447	 0.261092103284288 
2448	 0.260945926612257 
2449	 0.26073432999949 
2450	 0.260548137352343 
2451	 0.260265085383268 
2452	 0.25991885060332 
2453	 0.25944884332419 
2454	 0.258980634218881 
2455	 0.258703629963721 
2456	 0.258324837615263 
2457	 0.258070496275139 
2458	 0.257909727333466 
2459	 0.257459178491217 
2460	 0.256992409728386 
2461	 0.256653440000409 
2462	 0.256376693509765 
2463	 0.256141843808674 
2464	 0.255968202363081 
2465	 0.255717501379025 
2466	 0.255329050452822 
2467	 0.254974889970998 
2468	 0.25453158190481 
2469	 0.254145401208103 
2470	 0.253918095950184 
2471	 0.253600010912148 
2472	 0.253415765768528 
2473	 0.25333494866675 
2474	 0.253052515584408 
2475	 0.252774805110584 
2476	 0.252655703482775 
2477	 0.252639974452104 
2478	 0.252583162456458 
2479	 0.252551074113102 
2480	 0.252392879390139 
2481	 0.252385951334134 
2482	 0.2524870320275 
2483	 0.252552192372804 
2484	 0.252787408617997 
2485	 0.252730186204898 
2486	 0.252760344639032 
2487	 0.252799143455471 
2488	 0.252862873701501 
2489	 0.253189574287047 
2490	 0.25338807565752 
2491	 0.25337927057361 
2492	 0.253282030511736 
2493	 0.253414737930631 
2494	 0.253739598005089 
2495	 0.254141926825917 
2496	 0.254549729565775 
2497	 0.254617103535894 
2498	 0.254799422789738 
2499	 0.255170567772808 
2500	 0.255440920196832 
