Wavelength	spectrum00016.asd
350	 7.28125829476774E-02 
351	 6.98410385151062E-02 
352	 6.67402667125853E-02 
353	 6.45163052183784E-02 
354	 6.43279893154461E-02 
355	 6.29248597271827E-02 
356	 6.05002356581952E-02 
357	 5.80862290007649E-02 
358	 5.63960363693232E-02 
359	 5.60163004901336E-02 
360	 5.59054761478615E-02 
361	 5.45792462784635E-02 
362	 5.42618513602645E-02 
363	 5.37286880520719E-02 
364	 5.22739368892002E-02 
365	 5.02543587615283E-02 
366	 5.03483766375024E-02 
367	 5.05131185046557E-02 
368	 4.89327056274253E-02 
369	 0.048424394832248 
370	 0.048007753054408 
371	 0.047522709544703 
372	 4.72453585615292E-02 
373	 4.68181424501102E-02 
374	 4.67981005814746E-02 
375	 4.69792074613683E-02 
376	 4.59485989894953E-02 
377	 4.56041027298429E-02 
378	 4.50724403122458E-02 
379	 4.36346669927017E-02 
380	 4.35964088706496E-02 
381	 4.42857339973849E-02 
382	 4.46476704432178E-02 
383	 4.37386632165307E-02 
384	 4.35037331726201E-02 
385	 4.38170541813125E-02 
386	 4.39170560283756E-02 
387	 4.24720277203824E-02 
388	 4.15301808911134E-02 
389	 4.14388253651053E-02 
390	 4.17273272111928E-02 
391	 0.040897852433972 
392	 4.06423257453326E-02 
393	 4.08600277938993E-02 
394	 4.03390353665395E-02 
395	 0.039862502275603 
396	 3.97777632702164E-02 
397	 3.99052037531103E-02 
398	 3.92888841527178E-02 
399	 3.88984663257805E-02 
400	 3.84696794280134E-02 
401	 3.76250098314421E-02 
402	 0.036985096145028 
403	 3.69035280405164E-02 
404	 3.69162397372744E-02 
405	 0.036114652738456 
406	 3.60249698053416E-02 
407	 3.60627469038323E-02 
408	 3.58187071896629E-02 
409	 3.58824937621097E-02 
410	 3.54634532253757E-02 
411	 3.50014720769963E-02 
412	 3.50964990489871E-02 
413	 0.035071463162213 
414	 3.46389933283651E-02 
415	 3.40297211319447E-02 
416	 3.38740644561575E-02 
417	 0.033879792224137 
418	 3.37316952400234E-02 
419	 3.33717037319893E-02 
420	 0.033343128602722 
421	 3.32340839701987E-02 
422	 3.30890419302424E-02 
423	 3.30784537015338E-02 
424	 3.29153125959905E-02 
425	 3.26379222904058E-02 
426	 3.23823049199149E-02 
427	 3.23565805100457E-02 
428	 3.21908127267813E-02 
429	 3.20725294137526E-02 
430	 3.21434166668615E-02 
431	 3.20161440153488E-02 
432	 3.19124291258907E-02 
433	 0.031853600683973 
434	 3.17547320755327E-02 
435	 0.031673825784053 
436	 3.16610712222546E-02 
437	 3.16588600694496E-02 
438	 3.14284968342215E-02 
439	 3.14941306410541E-02 
440	 3.15775054245172E-02 
441	 3.13641228328281E-02 
442	 3.14481963265823E-02 
443	 3.14420710350996E-02 
444	 3.13661457735628E-02 
445	 3.15474316229514E-02 
446	 3.14375766008187E-02 
447	 0.03126729445427 
448	 3.12467950463556E-02 
449	 0.031272254702896 
450	 3.12189742172354E-02 
451	 3.11830270993866E-02 
452	 3.12873235841339E-02 
453	 3.12047270882447E-02 
454	 3.12581662965817E-02 
455	 3.14589468510588E-02 
456	 3.14346888062293E-02 
457	 3.14693790333315E-02 
458	 0.031435323003317 
459	 3.12742026385424E-02 
460	 3.14094932212778E-02 
461	 3.14992387642693E-02 
462	 3.14772165781098E-02 
463	 3.14399141774779E-02 
464	 3.14122704966026E-02 
465	 3.14866210803799E-02 
466	 3.16123514171892E-02 
467	 3.15068186610292E-02 
468	 3.15458180782512E-02 
469	 3.16122700209631E-02 
470	 3.15423783196284E-02 
471	 3.16251766803972E-02 
472	 3.16440235593665E-02 
473	 3.16228871250421E-02 
474	 3.17636691596418E-02 
475	 3.17450126987988E-02 
476	 3.17091283660232E-02 
477	 3.17638927545907E-02 
478	 3.17689919567969E-02 
479	 0.031794102926063 
480	 3.18490800168376E-02 
481	 3.19231851583194E-02 
482	 3.20182964185086E-02 
483	 3.21517151004206E-02 
484	 0.032288008373474 
485	 3.23346381187946E-02 
486	 3.25320755224799E-02 
487	 3.26746916893699E-02 
488	 3.26284823441712E-02 
489	 0.032804099525523 
490	 3.30037268611007E-02 
491	 3.31964464497719E-02 
492	 3.34310663478091E-02 
493	 3.34965570007291E-02 
494	 3.36819995298786E-02 
495	 3.40639917225303E-02 
496	 0.034269784736144 
497	 3.45256210054916E-02 
498	 3.48523729103186E-02 
499	 3.52105551257565E-02 
500	 3.55805510029756E-02 
501	 3.59640374313801E-02 
502	 3.64095841283332E-02 
503	 3.69938235440454E-02 
504	 3.75412749393018E-02 
505	 3.80842564187803E-02 
506	 3.87084317965404E-02 
507	 3.95532820941821E-02 
508	 4.03126499984186E-02 
509	 4.10197764269294E-02 
510	 4.18505403417773E-02 
511	 4.27839930251457E-02 
512	 4.37744308943049E-02 
513	 4.48185643580425E-02 
514	 4.59779622647559E-02 
515	 4.70807362918357E-02 
516	 0.048233506381415 
517	 4.95459118364969E-02 
518	 5.08676366912363E-02 
519	 5.22496462709491E-02 
520	 0.053722813452235 
521	 5.52901564910205E-02 
522	 5.68430725780016E-02 
523	 5.83913117909963E-02 
524	 5.99765944386135E-02 
525	 6.16756298563268E-02 
526	 6.33852711439945E-02 
527	 0.06514511468563 
528	 6.70196122435147E-02 
529	 6.89075873705349E-02 
530	 7.07940472480294E-02 
531	 7.27193600433163E-02 
532	 7.47684828394827E-02 
533	 7.67809474544207E-02 
534	 0.078795719045664 
535	 8.08617019816562E-02 
536	 8.29308239575286E-02 
537	 8.50177702759761E-02 
538	 8.71388665610535E-02 
539	 8.93036886680349E-02 
540	 0.091452864906693 
541	 9.35949029769278E-02 
542	 9.57403938861226E-02 
543	 9.78831315932936E-02 
544	 0.100057432923691 
545	 0.102197986829193 
546	 0.104258080587346 
547	 0.106413401968282 
548	 0.108623513409878 
549	 0.110854802376136 
550	 0.113088462045699 
551	 0.115360484308686 
552	 0.117673273764941 
553	 0.120009407658721 
554	 0.122311226974661 
555	 0.124647394368238 
556	 0.127006894907794 
557	 0.129346380073562 
558	 0.131700910282128 
559	 0.134041357875546 
560	 0.136352464935291 
561	 0.138646161775396 
562	 0.140841635776597 
563	 0.142902265854665 
564	 0.144838534987846 
565	 0.146770812687515 
566	 0.148677439857686 
567	 0.15054766519801 
568	 0.152391911639034 
569	 0.154380917007355 
570	 0.156482761816629 
571	 0.158623837485957 
572	 0.16072307648741 
573	 0.162808225440839 
574	 0.164794772530712 
575	 0.16658410268591 
576	 0.168244043338495 
577	 0.169717439121202 
578	 0.171068073945827 
579	 0.172496570771612 
580	 0.174030170568686 
581	 0.175691061020565 
582	 0.177473114894387 
583	 0.179311231743318 
584	 0.181222528108484 
585	 0.183200453190132 
586	 0.185207523516783 
587	 0.187055349469831 
588	 0.188812189658333 
589	 0.190564421159206 
590	 0.192358120385724 
591	 0.194231008485303 
592	 0.196131912053549 
593	 0.198001997555822 
594	 0.199902748788625 
595	 0.201723802470474 
596	 0.203441714604513 
597	 0.205112256557971 
598	 0.206769130961135 
599	 0.208413694735215 
600	 0.210055905171231 
601	 0.211736264189275 
602	 0.213450346629987 
603	 0.215180673317961 
604	 0.216909625644828 
605	 0.218692900343142 
606	 0.220465336108356 
607	 0.222187537667446 
608	 0.223860928822336 
609	 0.225507297170302 
610	 0.227136398935279 
611	 0.228761799535922 
612	 0.230414191849368 
613	 0.232039812233874 
614	 0.233650522371118 
615	 0.23529567129283 
616	 0.236907178071053 
617	 0.238484644688266 
618	 0.240057899857367 
619	 0.241701791327658 
620	 0.243319723562915 
621	 0.244884168904232 
622	 0.246407514361727 
623	 0.247967832878514 
624	 0.24951958603661 
625	 0.251031523918453 
626	 0.252497173119738 
627	 0.253977971373234 
628	 0.255484406722749 
629	 0.256988410524838 
630	 0.25838803172795 
631	 0.259762390025624 
632	 0.261159244467519 
633	 0.262589836443249 
634	 0.263936395855169 
635	 0.265247923748268 
636	 0.266544839285655 
637	 0.267789299794812 
638	 0.269013359023593 
639	 0.270252722260769 
640	 0.271499402812577 
641	 0.272596490859045 
642	 0.273720093956017 
643	 0.274911320623762 
644	 0.276105492556482 
645	 0.277123360154676 
646	 0.278093672059345 
647	 0.279121809797739 
648	 0.280210259754205 
649	 0.28124818432743 
650	 0.282240738063067 
651	 0.283233929261761 
652	 0.284266696574719 
653	 0.285264668200347 
654	 0.286241900836729 
655	 0.287281830589498 
656	 0.288369736710888 
657	 0.289449440551446 
658	 0.290505694677594 
659	 0.291623603164612 
660	 0.292813167355831 
661	 0.293995571531753 
662	 0.295098343039946 
663	 0.296291460032008 
664	 0.297561125849912 
665	 0.298838238772478 
666	 0.300019848389216 
667	 0.301287220165899 
668	 0.302617981853538 
669	 0.303955723984241 
670	 0.305267572883417 
671	 0.306672072803234 
672	 0.308099378036381 
673	 0.309428143702197 
674	 0.310818602082246 
675	 0.312268577022041 
676	 0.313731044089008 
677	 0.315124362298109 
678	 0.316539190916536 
679	 0.3179461737306 
680	 0.319326501826261 
681	 0.320787221586196 
682	 0.32225393680567 
683	 0.323679165858432 
684	 0.325049124911578 
685	 0.326454755378603 
686	 0.327940579923178 
687	 0.329453474840602 
688	 0.330817688901048 
689	 0.332131299430097 
690	 0.3334874253966 
691	 0.334933616247129 
692	 0.336368115118975 
693	 0.337745047945726 
694	 0.339061009737253 
695	 0.340356400509585 
696	 0.341794166806548 
697	 0.343222460660933 
698	 0.344559062702968 
699	 0.345896868883338 
700	 0.347166960551072 
701	 0.348421568808524 
702	 0.34972688131182 
703	 0.351068483486936 
704	 0.352378525603274 
705	 0.353641199186907 
706	 0.354881516991133 
707	 0.356096118467949 
708	 0.357375515306514 
709	 0.358713779149899 
710	 0.35992779406315 
711	 0.361145984354512 
712	 0.362336141062751 
713	 0.363467455716973 
714	 0.364700378453511 
715	 0.365960776763917 
716	 0.367156292450862 
717	 0.368215031701741 
718	 0.369368470429186 
719	 0.37059106585343 
720	 0.371804224125974 
721	 0.372906401261974 
722	 0.373961406213451 
723	 0.37503777223701 
724	 0.376182615928302 
725	 0.377363100869002 
726	 0.378526801889641 
727	 0.379605476369481 
728	 0.380549256537854 
729	 0.381568638990237 
730	 0.382639381443586 
731	 0.383714112597816 
732	 0.384767187485828 
733	 0.385817051359834 
734	 0.38685174369923 
735	 0.387872862665292 
736	 0.388967109373429 
737	 0.389984948573756 
738	 0.390930439879831 
739	 0.391903680892662 
740	 0.392845340590691 
741	 0.393765188335289 
742	 0.394688105786375 
743	 0.395650174051151 
744	 0.396602154085802 
745	 0.397511878203627 
746	 0.398366896908044 
747	 0.399179587686846 
748	 0.400102125549126 
749	 0.401077983788785 
750	 0.401947419203814 
751	 0.402820038939344 
752	 0.403613528471504 
753	 0.404359791044216 
754	 0.405253771229627 
755	 0.406141562071152 
756	 0.406951290230031 
757	 0.407688721570597 
758	 0.408517472715012 
759	 0.409313087915057 
760	 0.410084936790015 
761	 0.410893996784135 
762	 0.411705705205155 
763	 0.412484120395476 
764	 0.413223266245201 
765	 0.413954472035237 
766	 0.414786183004025 
767	 0.415607474324921 
768	 0.416337537667502 
769	 0.417064235529356 
770	 0.4177835309904 
771	 0.41852076158785 
772	 0.419291517884171 
773	 0.420031668392508 
774	 0.420754392301133 
775	 0.42146762803304 
776	 0.422171419375937 
777	 0.422830417939677 
778	 0.423573590968767 
779	 0.424388430187981 
780	 0.424985139944102 
781	 0.425662436061524 
782	 0.426344111162676 
783	 0.426923690266075 
784	 0.427569329573688 
785	 0.428278141452637 
786	 0.428993077384386 
787	 0.42963962449571 
788	 0.430278004025524 
789	 0.430899872776262 
790	 0.431517372569881 
791	 0.432171388620339 
792	 0.432853370667689 
793	 0.433484425066964 
794	 0.434045586122731 
795	 0.434701591273017 
796	 0.435298209708166 
797	 0.435862786342737 
798	 0.436459556854707 
799	 0.436977412347157 
800	 0.437561162554228 
801	 0.438230382842899 
802	 0.438895781197702 
803	 0.439523413541147 
804	 0.440077573985276 
805	 0.440582389476351 
806	 0.441142370032527 
807	 0.441740523722893 
808	 0.442355223704236 
809	 0.442938170043044 
810	 0.443362244557459 
811	 0.443853530648751 
812	 0.444431074244129 
813	 0.445014013898416 
814	 0.445573070324537 
815	 0.446104852242299 
816	 0.446615068060686 
817	 0.447113021417001 
818	 0.447568905273531 
819	 0.448077624859613 
820	 0.448666374419845 
821	 0.449226992156464 
822	 0.449643129220135 
823	 0.450046065650215 
824	 0.450577230049054 
825	 0.451200698567196 
826	 0.451670719977871 
827	 0.452050235762203 
828	 0.452526360089394 
829	 0.453049852461999 
830	 0.453514687072368 
831	 0.453936992846626 
832	 0.454430859650421 
833	 0.454890970250839 
834	 0.455372852942426 
835	 0.455880710546091 
836	 0.456309350459629 
837	 0.456739116108709 
838	 0.45712295237684 
839	 0.457444972455972 
840	 0.457849765477179 
841	 0.458376574077647 
842	 0.458904834059559 
843	 0.459289695660221 
844	 0.459640391890966 
845	 0.459960760056723 
846	 0.460322977985396 
847	 0.460823413292964 
848	 0.461331356369766 
849	 0.461773639752603 
850	 0.462150262735354 
851	 0.462538213116186 
852	 0.462877049871291 
853	 0.463270832706316 
854	 0.463763157981038 
855	 0.464210875568852 
856	 0.464559357912176 
857	 0.464877689114666 
858	 0.465263652059341 
859	 0.465753593525639 
860	 0.466174905138547 
861	 0.466530461633026 
862	 0.466909764572432 
863	 0.46729350870735 
864	 0.467638595237724 
865	 0.467945513020641 
866	 0.468257599607328 
867	 0.468608966954194 
868	 0.469041670649558 
869	 0.469491814732861 
870	 0.469767724562657 
871	 0.470063099081859 
872	 0.47041493012084 
873	 0.470806981200584 
874	 0.471189032134454 
875	 0.471573948509904 
876	 0.471935917227183 
877	 0.472277889807079 
878	 0.472747786550542 
879	 0.473121024123615 
880	 0.473389598242057 
881	 0.473663188202435 
882	 0.474022312350105 
883	 0.474345708335042 
884	 0.474598759680894 
885	 0.474832273825888 
886	 0.475101701299499 
887	 0.475442238561706 
888	 0.475801070297526 
889	 0.476043605628802 
890	 0.476271263407086 
891	 0.476515830384423 
892	 0.476790155863441 
893	 0.477095355393381 
894	 0.477375387891603 
895	 0.47768475049011 
896	 0.478036375669989 
897	 0.478264388036401 
898	 0.478435946121265 
899	 0.478635609386029 
900	 0.478915083936328 
901	 0.479170422597942 
902	 0.47947403353258 
903	 0.479739438256704 
904	 0.479865095842086 
905	 0.480099510404749 
906	 0.480383601091352 
907	 0.480653942161392 
908	 0.480872684231888 
909	 0.481115643334669 
910	 0.481382178362916 
911	 0.481669155493726 
912	 0.481971829766203 
913	 0.482200959931445 
914	 0.482426664537287 
915	 0.482705150196008 
916	 0.483033644870434 
917	 0.483374651301964 
918	 0.483631908629571 
919	 0.483799148112254 
920	 0.484044381866333 
921	 0.484342089074018 
922	 0.484668544445229 
923	 0.484997445188012 
924	 0.485308743610103 
925	 0.485622003785664 
926	 0.485931087736446 
927	 0.486238829908083 
928	 0.48659712255123 
929	 0.487027635028108 
930	 0.487506181964321 
931	 0.487957594676889 
932	 0.488187093551821 
933	 0.488529491792385 
934	 0.489026543347367 
935	 0.489537626175061 
936	 0.489983297322548 
937	 0.490439209583302 
938	 0.490870157782964 
939	 0.491197785906516 
940	 0.491633291376566 
941	 0.492078532189787 
942	 0.492479865707995 
943	 0.49284944261571 
944	 0.493184946096038 
945	 0.493518489341067 
946	 0.493868412639141 
947	 0.494220400851908 
948	 0.494405548686015 
949	 0.494642205999683 
950	 0.495000691037251 
951	 0.495291668497377 
952	 0.495402244121803 
953	 0.495493577422378 
954	 0.495693475681304 
955	 0.495989021082189 
956	 0.496312543784234 
957	 0.49655891425029 
958	 0.496701090335583 
959	 0.496849333176015 
960	 0.497009063430308 
961	 0.497220819989075 
962	 0.497470554010728 
963	 0.497637278862636 
964	 0.497705043829638 
965	 0.497805472412315 
966	 0.498031914695564 
967	 0.498301282792136 
968	 0.49851546143755 
969	 0.498702851396417 
970	 0.498906507455234 
971	 0.499097871101799 
972	 0.499240994672275 
973	 0.499422840313381 
974	 0.499684154457798 
975	 0.499822139361462 
976	 0.50010970564173 
977	 0.500465863086743 
978	 0.500708488036868 
979	 0.500718010335677 
980	 0.500863185079919 
981	 0.501082549410501 
982	 0.501204779187023 
983	 0.501229010590757 
984	 0.501335209013754 
985	 0.501595706531664 
986	 0.501991830427757 
987	 0.502400334404647 
988	 0.502718535358891 
989	 0.502915773554378 
990	 0.503043371004559 
991	 0.503277311302294 
992	 0.503527545583865 
993	 0.503857502564745 
994	 0.504287324913295 
995	 0.504504887723394 
996	 0.504945798941667 
997	 0.505373666936676 
998	 0.505512804111694 
999	 0.505806708584297 
1000	 0.506111320770824 
1001	 0.491479428941675 
1002	 0.491821338695091 
1003	 0.49218655109857 
1004	 0.492522373001983 
1005	 0.492893864512004 
1006	 0.49321727351233 
1007	 0.493493534128578 
1008	 0.493784453355192 
1009	 0.494038123341973 
1010	 0.494351997776243 
1011	 0.494724583954287 
1012	 0.495033852966375 
1013	 0.495338742739776 
1014	 0.49565380045418 
1015	 0.49592626007395 
1016	 0.496200968093638 
1017	 0.496556040022099 
1018	 0.496918378073839 
1019	 0.497243678311625 
1020	 0.49754691244923 
1021	 0.497845160563616 
1022	 0.498114377798087 
1023	 0.498400281040875 
1024	 0.498683767783403 
1025	 0.498973868787892 
1026	 0.499262385814811 
1027	 0.499558140790151 
1028	 0.49985990074968 
1029	 0.500180253369786 
1030	 0.500489081006618 
1031	 0.500770080574892 
1032	 0.501051081839574 
1033	 0.501331009837169 
1034	 0.501595665286292 
1035	 0.501843006365354 
1036	 0.502103085151957 
1037	 0.502356622887632 
1038	 0.50262434947434 
1039	 0.50290277123365 
1040	 0.503187909724573 
1041	 0.503477584274228 
1042	 0.503765005239597 
1043	 0.504067424602081 
1044	 0.504356452512103 
1045	 0.504620044311598 
1046	 0.504895684886106 
1047	 0.50515023338725 
1048	 0.505382910668062 
1049	 0.505621988541925 
1050	 0.505896566026875 
1051	 0.506186946286064 
1052	 0.50648550940246 
1053	 0.506781259764383 
1054	 0.507094202338445 
1055	 0.507381237476803 
1056	 0.507669902770967 
1057	 0.507934794837653 
1058	 0.508176894355665 
1059	 0.508427721367489 
1060	 0.508682163371242 
1061	 0.508913701350159 
1062	 0.509156942167933 
1063	 0.509405180196383 
1064	 0.509652460331146 
1065	 0.509901307503139 
1066	 0.510174421350816 
1067	 0.510460073546241 
1068	 0.510726112644448 
1069	 0.51096760043059 
1070	 0.51120607511194 
1071	 0.51143127297723 
1072	 0.511663750033387 
1073	 0.511881130019282 
1074	 0.512136922754081 
1075	 0.512393048408589 
1076	 0.512598450096212 
1077	 0.512849626257309 
1078	 0.513079680953203 
1079	 0.513284907516844 
1080	 0.513527247733858 
1081	 0.513741172929197 
1082	 0.513918612983287 
1083	 0.514106445219177 
1084	 0.514331626058683 
1085	 0.514552569385721 
1086	 0.51476937090739 
1087	 0.514991317892396 
1088	 0.515254202300461 
1089	 0.515478633281844 
1090	 0.515667163358807 
1091	 0.515902718904123 
1092	 0.516102634958706 
1093	 0.516276980068535 
1094	 0.516476456205875 
1095	 0.516635875321641 
1096	 0.516764279898427 
1097	 0.5168657845273 
1098	 0.516951221113295 
1099	 0.517059890022802 
1100	 0.517190540908565 
1101	 0.517341780449896 
1102	 0.517504418384532 
1103	 0.517635698459576 
1104	 0.517753415050701 
1105	 0.517842928514239 
1106	 0.517943235124814 
1107	 0.518044456771258 
1108	 0.518139954755534 
1109	 0.518226432576786 
1110	 0.518293178173617 
1111	 0.518358127639839 
1112	 0.518425951180032 
1113	 0.518499600200247 
1114	 0.518559314560156 
1115	 0.518580829505545 
1116	 0.518607340963402 
1117	 0.518642910366255 
1118	 0.518663011622898 
1119	 0.518681010727727 
1120	 0.518696013959294 
1121	 0.51871709337481 
1122	 0.518688949357509 
1123	 0.518635558986976 
1124	 0.518585605213822 
1125	 0.51850184469401 
1126	 0.518419770029677 
1127	 0.518335005435059 
1128	 0.51823432324258 
1129	 0.518112577747817 
1130	 0.51794990323998 
1131	 0.517791883497012 
1132	 0.517626756849198 
1133	 0.517408074954191 
1134	 0.517181558483812 
1135	 0.516934948860773 
1136	 0.516665652804648 
1137	 0.516361281899826 
1138	 0.516043624415347 
1139	 0.515682547690715 
1140	 0.515275838873883 
1141	 0.514877051854155 
1142	 0.514413151375131 
1143	 0.51392781247984 
1144	 0.513386414458287 
1145	 0.512737585024156 
1146	 0.512111454328078 
1147	 0.51146123514949 
1148	 0.51076305044781 
1149	 0.51011572831205 
1150	 0.509421812987247 
1151	 0.50868246420639 
1152	 0.507934293280198 
1153	 0.507172559823185 
1154	 0.506382150893354 
1155	 0.505582390983565 
1156	 0.504728364856212 
1157	 0.50384704588231 
1158	 0.502940892990919 
1159	 0.501973429535367 
1160	 0.50101609604527 
1161	 0.500051573883552 
1162	 0.499017065429754 
1163	 0.498026991254587 
1164	 0.497004010461023 
1165	 0.495977552739303 
1166	 0.4950402340997 
1167	 0.494072590408518 
1168	 0.493114478727814 
1169	 0.492144272194931 
1170	 0.491165130202713 
1171	 0.490185903196974 
1172	 0.489200349454334 
1173	 0.488210538315896 
1174	 0.487228212191059 
1175	 0.486256694071748 
1176	 0.4852751269281 
1177	 0.484307837813441 
1178	 0.483373665417414 
1179	 0.482377161407937 
1180	 0.481441431535263 
1181	 0.480510642020919 
1182	 0.47956967667716 
1183	 0.478743016958266 
1184	 0.477903731641257 
1185	 0.47707733574306 
1186	 0.476308869650076 
1187	 0.475582886126192 
1188	 0.474877017627999 
1189	 0.474206712548448 
1190	 0.473571515563603 
1191	 0.472972323841342 
1192	 0.472401193566597 
1193	 0.471864126589821 
1194	 0.471355933506935 
1195	 0.470863583324805 
1196	 0.470410013936889 
1197	 0.470003157504526 
1198	 0.469607137269144 
1199	 0.469219570261663 
1200	 0.46890692213457 
1201	 0.468601830027674 
1202	 0.468346151864565 
1203	 0.468172684047734 
1204	 0.468059364793148 
1205	 0.468072660931561 
1206	 0.468147697435466 
1207	 0.468410968892029 
1208	 0.468796090393133 
1209	 0.46933583474122 
1210	 0.47002773754157 
1211	 0.47086002354091 
1212	 0.471856347370723 
1213	 0.472958664663753 
1214	 0.474220589092766 
1215	 0.475572733117729 
1216	 0.47706864755805 
1217	 0.478589857707391 
1218	 0.480226215844806 
1219	 0.481888825676351 
1220	 0.483548809611975 
1221	 0.485312757969353 
1222	 0.487008184522257 
1223	 0.488695606117278 
1224	 0.490329906591464 
1225	 0.491941323459905 
1226	 0.493450877397268 
1227	 0.494915823125049 
1228	 0.496302557086517 
1229	 0.497603500379707 
1230	 0.498852196871755 
1231	 0.500029972475659 
1232	 0.501179016044711 
1233	 0.502263520644743 
1234	 0.503300034621854 
1235	 0.504291261986998 
1236	 0.505249520310119 
1237	 0.506149663612614 
1238	 0.507024563307243 
1239	 0.507857620617152 
1240	 0.508686822213139 
1241	 0.509510409177183 
1242	 0.510234080716243 
1243	 0.510944328403025 
1244	 0.511625198879534 
1245	 0.512281404974171 
1246	 0.512899768060906 
1247	 0.513481793521038 
1248	 0.514045860623439 
1249	 0.514566371688901 
1250	 0.515023978532826 
1251	 0.515475369118202 
1252	 0.515920274093505 
1253	 0.516316141013159 
1254	 0.516670797781707 
1255	 0.51700650503879 
1256	 0.517287167476416 
1257	 0.517582314285605 
1258	 0.517871167461922 
1259	 0.518144927870178 
1260	 0.518410252752825 
1261	 0.518670265990616 
1262	 0.518907565160323 
1263	 0.519150726848994 
1264	 0.519395854184117 
1265	 0.519640555850645 
1266	 0.519893948590778 
1267	 0.520152364319291 
1268	 0.520406640951273 
1269	 0.520665784359185 
1270	 0.520922320036398 
1271	 0.521182136039171 
1272	 0.521426784163093 
1273	 0.52166479727184 
1274	 0.521902526345856 
1275	 0.522126609836067 
1276	 0.52235271103667 
1277	 0.522590007876856 
1278	 0.522808878744863 
1279	 0.523004535487231 
1280	 0.523213648907302 
1281	 0.523425688265508 
1282	 0.523629186368531 
1283	 0.523852816915065 
1284	 0.524043542519756 
1285	 0.524214698503695 
1286	 0.524359013729573 
1287	 0.52451637652973 
1288	 0.524651643128337 
1289	 0.524811640294846 
1290	 0.524995802205176 
1291	 0.525146676612653 
1292	 0.525301593145545 
1293	 0.525421231474049 
1294	 0.525506877725312 
1295	 0.525599009348049 
1296	 0.525676593482634 
1297	 0.525749575307023 
1298	 0.525824367703402 
1299	 0.525881585312395 
1300	 0.525920215592512 
1301	 0.525958544489313 
1302	 0.525993523437387 
1303	 0.52601503011273 
1304	 0.526044641133815 
1305	 0.526038937378173 
1306	 0.525996385936792 
1307	 0.525959314710604 
1308	 0.525917255892543 
1309	 0.525847897417904 
1310	 0.525772565047039 
1311	 0.525701724681816 
1312	 0.525596904398213 
1313	 0.525469006347185 
1314	 0.525319914041737 
1315	 0.525159449122285 
1316	 0.524964275943808 
1317	 0.524725567929542 
1318	 0.524501260147273 
1319	 0.524258683574414 
1320	 0.524019176059321 
1321	 0.52379624679764 
1322	 0.523537682704875 
1323	 0.523266774082764 
1324	 0.522972620475038 
1325	 0.522657654536125 
1326	 0.522321771529935 
1327	 0.52198188043628 
1328	 0.521595573012593 
1329	 0.521176680873802 
1330	 0.520732978553822 
1331	 0.52025159801223 
1332	 0.519749855547063 
1333	 0.519242424173382 
1334	 0.518679956998132 
1335	 0.518109904772409 
1336	 0.51752048637598 
1337	 0.516890613770918 
1338	 0.516240061847348 
1339	 0.515547959513631 
1340	 0.514824550511999 
1341	 0.514051367133327 
1342	 0.513238983366251 
1343	 0.51239013196017 
1344	 0.511503056622315 
1345	 0.51056711432747 
1346	 0.509597138252537 
1347	 0.508582946509556 
1348	 0.507512891964574 
1349	 0.506415925514458 
1350	 0.505267885042538 
1351	 0.504115151264369 
1352	 0.50292990557359 
1353	 0.501732439310184 
1354	 0.500498603523556 
1355	 0.499295586252021 
1356	 0.498091241967564 
1357	 0.496884758559286 
1358	 0.495691831960118 
1359	 0.494498997425202 
1360	 0.493307321047892 
1361	 0.492095298906779 
1362	 0.490897184480078 
1363	 0.489752098662386 
1364	 0.488550331463393 
1365	 0.487357638293709 
1366	 0.486096383965589 
1367	 0.48480912162448 
1368	 0.483457232558421 
1369	 0.482075604471433 
1370	 0.480595951794482 
1371	 0.479056763393912 
1372	 0.477450477819238 
1373	 0.475769804635393 
1374	 0.474016106360432 
1375	 0.472176912921385 
1376	 0.470296425962231 
1377	 0.468336430783327 
1378	 0.466327446001455 
1379	 0.464225381271473 
1380	 0.462167247487825 
1381	 0.460052516521315 
1382	 0.457976632707805 
1383	 0.455911038326475 
1384	 0.453893353754693 
1385	 0.451902865547515 
1386	 0.44993700202232 
1387	 0.448019141159259 
1388	 0.44614320027636 
1389	 0.444308921466069 
1390	 0.442469629979068 
1391	 0.4407098636567 
1392	 0.438865137896365 
1393	 0.437079948356376 
1394	 0.435203219594501 
1395	 0.4332628529902 
1396	 0.43131482594938 
1397	 0.429235435661655 
1398	 0.427088737509186 
1399	 0.424770428410326 
1400	 0.42233681666875 
1401	 0.419788015360649 
1402	 0.417082696164469 
1403	 0.414293981062273 
1404	 0.41138666627888 
1405	 0.408467923277403 
1406	 0.405427491257853 
1407	 0.40240180027648 
1408	 0.399312343632288 
1409	 0.396285636001305 
1410	 0.393225760499772 
1411	 0.390229818566923 
1412	 0.387247566633532 
1413	 0.384402245594544 
1414	 0.381601915887064 
1415	 0.378901136329542 
1416	 0.376302470872719 
1417	 0.37379863868579 
1418	 0.37135920217769 
1419	 0.369025923098345 
1420	 0.366811645840778 
1421	 0.364702086435181 
1422	 0.362693067347342 
1423	 0.360760258506342 
1424	 0.358981306046431 
1425	 0.357175685069555 
1426	 0.355515730406601 
1427	 0.353877946408895 
1428	 0.352250387371354 
1429	 0.350753917544595 
1430	 0.349186162597494 
1431	 0.347648928502641 
1432	 0.34600852242319 
1433	 0.344348413581583 
1434	 0.342597961036288 
1435	 0.340757308068173 
1436	 0.338884117066756 
1437	 0.336912288221613 
1438	 0.335041809494014 
1439	 0.333070043850936 
1440	 0.331339849446372 
1441	 0.329608807394772 
1442	 0.328250175010973 
1443	 0.32698793072934 
1444	 0.32621200629289 
1445	 0.325758723627979 
1446	 0.325708356293482 
1447	 0.326058689999668 
1448	 0.326744757750376 
1449	 0.327922835734308 
1450	 0.329209807571259 
1451	 0.330913873679296 
1452	 0.332590693901199 
1453	 0.334506965480166 
1454	 0.336296688617206 
1455	 0.338174561614582 
1456	 0.339921273331716 
1457	 0.341618545913973 
1458	 0.343204182943074 
1459	 0.344685416777509 
1460	 0.346105541075981 
1461	 0.347410452318443 
1462	 0.348666111865524 
1463	 0.34985354791287 
1464	 0.351004577647288 
1465	 0.352066453494502 
1466	 0.353141072672935 
1467	 0.354158063052585 
1468	 0.355161122182148 
1469	 0.356179238601238 
1470	 0.357123706324688 
1471	 0.358082641906502 
1472	 0.359038511099352 
1473	 0.359965751060834 
1474	 0.360889801455718 
1475	 0.361741118730202 
1476	 0.362581915426162 
1477	 0.363311858006432 
1478	 0.363972215496607 
1479	 0.364538655590618 
1480	 0.365016454780043 
1481	 0.365430130812287 
1482	 0.365739669004067 
1483	 0.366035739756762 
1484	 0.366243847667421 
1485	 0.366494789054528 
1486	 0.366671855608581 
1487	 0.366980064584775 
1488	 0.36728825681714 
1489	 0.3677565137299 
1490	 0.368317686570486 
1491	 0.369010852905406 
1492	 0.36981555229614 
1493	 0.370763218386881 
1494	 0.371868196173884 
1495	 0.373036299357294 
1496	 0.374359701347176 
1497	 0.375700412862376 
1498	 0.377154381135769 
1499	 0.378570477070999 
1500	 0.380047637498988 
1501	 0.381472220331907 
1502	 0.382907706371526 
1503	 0.384248061461206 
1504	 0.385556961604944 
1505	 0.386785962604459 
1506	 0.387936820010393 
1507	 0.389017058604791 
1508	 0.39004167375667 
1509	 0.39098071731443 
1510	 0.391818035879448 
1511	 0.392602725220278 
1512	 0.393307883871993 
1513	 0.393967482114341 
1514	 0.394578396193166 
1515	 0.395122661101852 
1516	 0.395591313994321 
1517	 0.396026058313303 
1518	 0.396399174171743 
1519	 0.396732501711426 
1520	 0.397029115959553 
1521	 0.397284739026588 
1522	 0.39747809255137 
1523	 0.397642155982004 
1524	 0.397785508578354 
1525	 0.397890394005279 
1526	 0.397990516287632 
1527	 0.398072504305682 
1528	 0.398137214296291 
1529	 0.398181216676983 
1530	 0.398218312233185 
1531	 0.398226822079166 
1532	 0.398267501098119 
1533	 0.398294560755784 
1534	 0.398378255723511 
1535	 0.398478340620797 
1536	 0.398641798924059 
1537	 0.398839396814529 
1538	 0.399107754439687 
1539	 0.399428924618853 
1540	 0.399817902729299 
1541	 0.400259967993814 
1542	 0.40079139058923 
1543	 0.401413395907639 
1544	 0.402058055571008 
1545	 0.402779535072539 
1546	 0.403519977139211 
1547	 0.404301256703721 
1548	 0.405094146302181 
1549	 0.405930833061637 
1550	 0.406772371155835 
1551	 0.407633354793536 
1552	 0.408486019026045 
1553	 0.409366634894131 
1554	 0.410219111353968 
1555	 0.411064120515973 
1556	 0.411883542514066 
1557	 0.412690455257463 
1558	 0.413479429555744 
1559	 0.414235654122123 
1560	 0.414996037209807 
1561	 0.415749963004776 
1562	 0.416496004602785 
1563	 0.417244592914919 
1564	 0.417961582641131 
1565	 0.418659127973012 
1566	 0.419347522054577 
1567	 0.420015419313785 
1568	 0.420668794625892 
1569	 0.421299993068493 
1570	 0.421943954085753 
1571	 0.422589799212305 
1572	 0.423207212566128 
1573	 0.423829516273828 
1574	 0.424423870817673 
1575	 0.424972337810552 
1576	 0.425531588896717 
1577	 0.426080646925423 
1578	 0.426637712256702 
1579	 0.427200856926062 
1580	 0.427745906618079 
1581	 0.428299172048128 
1582	 0.428825142215058 
1583	 0.429316057283337 
1584	 0.429817818023574 
1585	 0.430306362969735 
1586	 0.430804157068366 
1587	 0.43130804406575 
1588	 0.431808034999643 
1589	 0.432309318298643 
1590	 0.432809082337485 
1591	 0.433298267729267 
1592	 0.433804743212261 
1593	 0.434333132664561 
1594	 0.434838413822224 
1595	 0.435345345581474 
1596	 0.435840833279276 
1597	 0.436304862484708 
1598	 0.436788116017975 
1599	 0.437284414822804 
1600	 0.437771741284575 
1601	 0.438258266330216 
1602	 0.438746282861575 
1603	 0.439242238314846 
1604	 0.439714746875662 
1605	 0.440190171354141 
1606	 0.440638279337127 
1607	 0.441050527344812 
1608	 0.441465342197404 
1609	 0.4418807988351 
1610	 0.442267010364397 
1611	 0.442647592997906 
1612	 0.442991643863957 
1613	 0.443295924020474 
1614	 0.443587026338331 
1615	 0.443848499607394 
1616	 0.444103917991198 
1617	 0.444341975519916 
1618	 0.444573105244368 
1619	 0.444800048770781 
1620	 0.445003200405572 
1621	 0.445199012547771 
1622	 0.445364544421791 
1623	 0.445500280027813 
1624	 0.445621563181744 
1625	 0.445712965483167 
1626	 0.4457987727058 
1627	 0.445869853276319 
1628	 0.44593328622982 
1629	 0.445986177324268 
1630	 0.446029548183381 
1631	 0.446051472080848 
1632	 0.446084584253518 
1633	 0.44611538204255 
1634	 0.446147100776112 
1635	 0.446200936371013 
1636	 0.446222824390556 
1637	 0.446245916144297 
1638	 0.446227062616854 
1639	 0.446175528345682 
1640	 0.446101697746231 
1641	 0.44599913188503 
1642	 0.445864086752082 
1643	 0.44570781337751 
1644	 0.445515221999113 
1645	 0.445274950257202 
1646	 0.445024991347915 
1647	 0.444745645498879 
1648	 0.444447463567067 
1649	 0.444130605258762 
1650	 0.443794148322103 
1651	 0.443442640904892 
1652	 0.443064767405766 
1653	 0.44268063508034 
1654	 0.442242670044251 
1655	 0.441761221079009 
1656	 0.441245990090558 
1657	 0.44071356545849 
1658	 0.440095767561342 
1659	 0.439433845235752 
1660	 0.438704249728399 
1661	 0.437900566663572 
1662	 0.437020486121219 
1663	 0.436077418117029 
1664	 0.435049699251484 
1665	 0.433951961783792 
1666	 0.432738679534376 
1667	 0.43144276328939 
1668	 0.430055176919743 
1669	 0.42856283965726 
1670	 0.426967336404475 
1671	 0.425268280131767 
1672	 0.423471394832369 
1673	 0.421572735308432 
1674	 0.419554294816786 
1675	 0.417424890932269 
1676	 0.415259455606885 
1677	 0.412994230984718 
1678	 0.410651927914031 
1679	 0.408245271473269 
1680	 0.405728595869243 
1681	 0.403112433139613 
1682	 0.400383164531764 
1683	 0.397567419320055 
1684	 0.394697103736514 
1685	 0.391707847717988 
1686	 0.388658877028551 
1687	 0.385505780615418 
1688	 0.382331828199278 
1689	 0.379087296256798 
1690	 0.375790771829748 
1691	 0.372485509649558 
1692	 0.36916739663774 
1693	 0.365798552014819 
1694	 0.362378507002562 
1695	 0.35892534914962 
1696	 0.355387828692901 
1697	 0.351756507291009 
1698	 0.348081718932281 
1699	 0.344345357429214 
1700	 0.340724537350837 
1701	 0.337040930909384 
1702	 0.333514959028322 
1703	 0.330028824086267 
1704	 0.326741167314334 
1705	 0.323540626430991 
1706	 0.320488934142101 
1707	 0.317825320023026 
1708	 0.315228463088062 
1709	 0.312769247443034 
1710	 0.310520333747402 
1711	 0.30822828828645 
1712	 0.306086124080774 
1713	 0.303997416092114 
1714	 0.301913956656803 
1715	 0.300028684937235 
1716	 0.298114657770631 
1717	 0.296285488074565 
1718	 0.294583504070936 
1719	 0.292867330644987 
1720	 0.291335836851167 
1721	 0.289927874896793 
1722	 0.288621293099462 
1723	 0.287599163900029 
1724	 0.286771456392188 
1725	 0.28617728769513 
1726	 0.285922589808762 
1727	 0.285909709248928 
1728	 0.286135730974764 
1729	 0.286664385547617 
1730	 0.28746053318527 
1731	 0.288398175318811 
1732	 0.28953084271863 
1733	 0.290684601281904 
1734	 0.291846061499416 
1735	 0.293063458677494 
1736	 0.294147269836774 
1737	 0.295112391810361 
1738	 0.295876338940881 
1739	 0.296407430757657 
1740	 0.29672759357113 
1741	 0.296883313452264 
1742	 0.296788006801792 
1743	 0.296618208078913 
1744	 0.296261697167026 
1745	 0.295867028522518 
1746	 0.295310732338407 
1747	 0.294848436908947 
1748	 0.294307340738103 
1749	 0.293926606984277 
1750	 0.293598155317158 
1751	 0.293412492806996 
1752	 0.293325365066068 
1753	 0.293397317119442 
1754	 0.293588577836089 
1755	 0.293977431183548 
1756	 0.294519773230773 
1757	 0.295226568603283 
1758	 0.296179536380855 
1759	 0.297239153585792 
1760	 0.298511599046042 
1761	 0.300027687889141 
1762	 0.301591997630937 
1763	 0.303356791460709 
1764	 0.30523045964884 
1765	 0.307147612198904 
1766	 0.309272376285351 
1767	 0.311385649314142 
1768	 0.313530802219049 
1769	 0.315698781698073 
1770	 0.317654027580311 
1771	 0.319565116545503 
1772	 0.32139008085679 
1773	 0.323077042920827 
1774	 0.324772348459775 
1775	 0.326343293012212 
1776	 0.32786912341756 
1777	 0.329326032677223 
1778	 0.330599497594857 
1779	 0.331834150875509 
1780	 0.332967761614495 
1781	 0.334008345745192 
1782	 0.335070611009186 
1783	 0.336055788912921 
1784	 0.337007448225064 
1785	 0.337916845698046 
1786	 0.338770413344038 
1787	 0.339592271487208 
1788	 0.340370457816018 
1789	 0.341086448737527 
1790	 0.341809639582389 
1791	 0.342524498579237 
1792	 0.343198539721907 
1793	 0.34381043899871 
1794	 0.344439862588089 
1795	 0.34503548837886 
1796	 0.345599572467604 
1797	 0.346233243019213 
1798	 0.346822148276679 
1799	 0.347398007116987 
1800	 0.348027036763832 
1801	 0.357190953167561 
1802	 0.358214440589141 
1803	 0.359146838616647 
1804	 0.359989519285335 
1805	 0.360852069913757 
1806	 0.361617868638805 
1807	 0.36230769387873 
1808	 0.362980003312023 
1809	 0.363591657834718 
1810	 0.364190569891773 
1811	 0.364742201057747 
1812	 0.365301840350734 
1813	 0.365836908375543 
1814	 0.366379094343572 
1815	 0.366906731152318 
1816	 0.367455138971023 
1817	 0.368005743725418 
1818	 0.368550649442887 
1819	 0.369108787100217 
1820	 0.369676840838915 
1821	 0.370251625650346 
1822	 0.370828376373434 
1823	 0.371438626401563 
1824	 0.372015347815117 
1825	 0.372609013208863 
1826	 0.373174969621692 
1827	 0.373721759470695 
1828	 0.374245237521657 
1829	 0.374763457876409 
1830	 0.375255139891761 
1831	 0.375710725310844 
1832	 0.376187217110757 
1833	 0.376609292407936 
1834	 0.377023388343933 
1835	 0.377445548720828 
1836	 0.377835716744378 
1837	 0.37825170081701 
1838	 0.378671568745894 
1839	 0.379110211246532 
1840	 0.379576347646857 
1841	 0.380022655161267 
1842	 0.380483619759412 
1843	 0.380937936550738 
1844	 0.381364172582369 
1845	 0.381722628900823 
1846	 0.382060257192312 
1847	 0.382347842955618 
1848	 0.382565392714081 
1849	 0.382742143637671 
1850	 0.382839972699149 
1851	 0.382880006578296 
1852	 0.382830485409027 
1853	 0.382704503197706 
1854	 0.382500535736301 
1855	 0.382208890013832 
1856	 0.381864713868002 
1857	 0.381424683457301 
1858	 0.380873497154757 
1859	 0.380239269228596 
1860	 0.379523564279185 
1861	 0.378667202948346 
1862	 0.377701338857461 
1863	 0.37667291736186 
1864	 0.375459722159534 
1865	 0.374173592283539 
1866	 0.372771046375901 
1867	 0.371152453485648 
1868	 0.369465286839094 
1869	 0.367647823669733 
1870	 0.365754834935894 
1871	 0.363780321420704 
1872	 0.361756321677043 
1873	 0.359657242535482 
1874	 0.357510820195436 
1875	 0.355297603041723 
1876	 0.352815677069016 
1877	 0.350320726742467 
1878	 0.347607495445572 
1879	 0.344648091787253 
1880	 0.341747698005153 
1881	 0.338567582080617 
1882	 0.33514286799094 
1883	 0.331610734774751 
1884	 0.327897097573482 
1885	 0.323729374239345 
1886	 0.31954176071779 
1887	 0.315075019993392 
1888	 0.310339104977905 
1889	 0.30584013563206 
1890	 0.301083253849209 
1891	 0.296303984858721 
1892	 0.291596597223503 
1893	 0.286702869236633 
1894	 0.281570423104217 
1895	 0.276650167915292 
1896	 0.271645932920348 
1897	 0.266566265617422 
1898	 0.261930328598567 
1899	 0.257204319613655 
1900	 0.252592761796773 
1901	 0.248236851640151 
1902	 0.243665587061044 
1903	 0.239343496339602 
1904	 0.235147750957176 
1905	 0.231028918554374 
1906	 0.227009319277909 
1907	 0.223429874750579 
1908	 0.219849795150561 
1909	 0.216418065140276 
1910	 0.21318566184536 
1911	 0.209834071229471 
1912	 0.206680748453491 
1913	 0.203579154226131 
1914	 0.200460157229815 
1915	 0.197532633672283 
1916	 0.194806831562818 
1917	 0.192022454218303 
1918	 0.189331548418581 
1919	 0.186742018187345 
1920	 0.183988684806001 
1921	 0.181358416992127 
1922	 0.178703732519259 
1923	 0.175998842381112 
1924	 0.173527929913002 
1925	 0.170992771964782 
1926	 0.168519044145928 
1927	 0.16614505280405 
1928	 0.163754576428154 
1929	 0.161303463347155 
1930	 0.159022399164286 
1931	 0.156825540281405 
1932	 0.154717541776618 
1933	 0.152928507959778 
1934	 0.151249117690954 
1935	 0.149708803651486 
1936	 0.148430326844454 
1937	 0.14733058703171 
1938	 0.146390850042153 
1939	 0.145704965774077 
1940	 0.145242452159793 
1941	 0.144988457250665 
1942	 0.144954316888888 
1943	 0.145076903625635 
1944	 0.145378687456172 
1945	 0.145892296437411 
1946	 0.146638918805816 
1947	 0.147541142106778 
1948	 0.148709395021965 
1949	 0.150132871584843 
1950	 0.151706359285385 
1951	 0.153499361286224 
1952	 0.155476418176238 
1953	 0.1576316672676 
1954	 0.15997243571905 
1955	 0.162581152080802 
1956	 0.165172633035335 
1957	 0.167832505376178 
1958	 0.170484800116394 
1959	 0.172847356961154 
1960	 0.175113305763144 
1961	 0.177188144735056 
1962	 0.179046401575676 
1963	 0.180768826253535 
1964	 0.182349366466305 
1965	 0.183743806246287 
1966	 0.184950715979728 
1967	 0.186048017757265 
1968	 0.186953693698093 
1969	 0.187857886540699 
1970	 0.188712725092104 
1971	 0.189558176376163 
1972	 0.190502349602497 
1973	 0.191452116389213 
1974	 0.192474741786981 
1975	 0.193586518669009 
1976	 0.19471325163343 
1977	 0.195872332424666 
1978	 0.197086700651851 
1979	 0.198338410322413 
1980	 0.199621939951017 
1981	 0.201031714084415 
1982	 0.20241631715201 
1983	 0.203902301404441 
1984	 0.205464535044992 
1985	 0.206984207083179 
1986	 0.208627523552159 
1987	 0.210375579045011 
1988	 0.212123481889191 
1989	 0.21413207620421 
1990	 0.216323766613152 
1991	 0.218625211195117 
1992	 0.221119140193717 
1993	 0.223767645195032 
1994	 0.226325763739025 
1995	 0.22906218947554 
1996	 0.231788181565637 
1997	 0.234492716620194 
1998	 0.237276352395355 
1999	 0.240196667009323 
2000	 0.242913287033699 
2001	 0.245726800595823 
2002	 0.248233868736596 
2003	 0.25054452800459 
2004	 0.252769318719466 
2005	 0.254771125890496 
2006	 0.256734608342015 
2007	 0.258662448213297 
2008	 0.260404254145917 
2009	 0.262028622724157 
2010	 0.263575822998074 
2011	 0.264888635029882 
2012	 0.266113713475624 
2013	 0.267239331632444 
2014	 0.268220454334119 
2015	 0.269153011448225 
2016	 0.270015709176821 
2017	 0.270758369078845 
2018	 0.271414283246573 
2019	 0.271969737074859 
2020	 0.272393043013079 
2021	 0.272756676011909 
2022	 0.273036507131579 
2023	 0.273220469675867 
2024	 0.273353018281465 
2025	 0.273413320580374 
2026	 0.273420025274168 
2027	 0.273358896421363 
2028	 0.273263071853852 
2029	 0.273091118600642 
2030	 0.272905989247432 
2031	 0.272677894448203 
2032	 0.272437402228975 
2033	 0.272141119408023 
2034	 0.271873425789789 
2035	 0.271610862423618 
2036	 0.271319346741475 
2037	 0.271049799848513 
2038	 0.27079519380774 
2039	 0.270544024015153 
2040	 0.270288716558702 
2041	 0.270061613818631 
2042	 0.269851496647795 
2043	 0.269654377030483 
2044	 0.269468854595444 
2045	 0.269304975642911 
2046	 0.269164193635879 
2047	 0.269026661836645 
2048	 0.268924379632552 
2049	 0.268801844208816 
2050	 0.268675770276306 
2051	 0.268548637691361 
2052	 0.268414619173183 
2053	 0.268265624046743 
2054	 0.268127064708305 
2055	 0.267985849905027 
2056	 0.26785527922851 
2057	 0.267738256867193 
2058	 0.267602439353472 
2059	 0.267465129942719 
2060	 0.267328403179673 
2061	 0.267165078533371 
2062	 0.267033331636826 
2063	 0.266921840032494 
2064	 0.266808129709716 
2065	 0.266701527505022 
2066	 0.266606399714 
2067	 0.266519875415352 
2068	 0.266437535039896 
2069	 0.266344092996879 
2070	 0.266254120611963 
2071	 0.266161980946755 
2072	 0.266060526343532 
2073	 0.265958204410918 
2074	 0.26587769650732 
2075	 0.265759126134487 
2076	 0.265609840161703 
2077	 0.265467688799146 
2078	 0.265315994300679 
2079	 0.265149530647867 
2080	 0.264987393218925 
2081	 0.26480476381609 
2082	 0.264605274109141 
2083	 0.264388706203655 
2084	 0.26414274266822 
2085	 0.263882531808565 
2086	 0.263607364542151 
2087	 0.26329443363717 
2088	 0.262999628341831 
2089	 0.262709653032004 
2090	 0.262399205724438 
2091	 0.262083840121437 
2092	 0.261757497030419 
2093	 0.261422264724984 
2094	 0.261067611494173 
2095	 0.260697348265212 
2096	 0.26031880581666 
2097	 0.259937653879904 
2098	 0.259519462877717 
2099	 0.259083909712314 
2100	 0.258632403797265 
2101	 0.258149263857084 
2102	 0.257627830409446 
2103	 0.257096020748985 
2104	 0.256537107938192 
2105	 0.255977803350505 
2106	 0.25539860962243 
2107	 0.254812561303768 
2108	 0.254249896911146 
2109	 0.253617286480248 
2110	 0.252935753813615 
2111	 0.252254650924525 
2112	 0.251515667512416 
2113	 0.250795834446456 
2114	 0.250109798473151 
2115	 0.249366758350347 
2116	 0.248576419846596 
2117	 0.247810145109322 
2118	 0.247013362314511 
2119	 0.246177171126469 
2120	 0.245364176165622 
2121	 0.244534164009195 
2122	 0.243748100391429 
2123	 0.242973861274185 
2124	 0.242205983476591 
2125	 0.241485575402057 
2126	 0.240735394251375 
2127	 0.239950401316584 
2128	 0.23921572517 
2129	 0.238477501331321 
2130	 0.237785502596819 
2131	 0.237163479676103 
2132	 0.236513088455736 
2133	 0.235868532136394 
2134	 0.235251403862579 
2135	 0.234581501004729 
2136	 0.233944870164658 
2137	 0.233330312835273 
2138	 0.232719265376303 
2139	 0.232155003250038 
2140	 0.231638221164133 
2141	 0.231110122197718 
2142	 0.230608005682179 
2143	 0.230107420574624 
2144	 0.229595456496387 
2145	 0.229123243563253 
2146	 0.228666587874362 
2147	 0.228244297643005 
2148	 0.227860600899738 
2149	 0.227483752158487 
2150	 0.227156257243778 
2151	 0.226804661873324 
2152	 0.226434540452847 
2153	 0.226094620049661 
2154	 0.225765766927044 
2155	 0.22542488193727 
2156	 0.225118965447223 
2157	 0.224844447676811 
2158	 0.224569334273651 
2159	 0.224313903773024 
2160	 0.224041959579211 
2161	 0.223772046300148 
2162	 0.223509944148668 
2163	 0.223236814490827 
2164	 0.222977824579024 
2165	 0.222739094609354 
2166	 0.222493661145525 
2167	 0.222244380827616 
2168	 0.222007546263662 
2169	 0.221766044943099 
2170	 0.221546616989286 
2171	 0.221329399973393 
2172	 0.22114265267375 
2173	 0.220976571945836 
2174	 0.220841060872272 
2175	 0.220728056586162 
2176	 0.220623944541496 
2177	 0.220525707663251 
2178	 0.22043759389293 
2179	 0.220366146503334 
2180	 0.220302997834285 
2181	 0.22025447374156 
2182	 0.220236949437807 
2183	 0.220200151128716 
2184	 0.220175631253889 
2185	 0.220127697794012 
2186	 0.220062043363366 
2187	 0.219998194823551 
2188	 0.219910739415834 
2189	 0.219847467004195 
2190	 0.219827133172662 
2191	 0.219747569472256 
2192	 0.219654049205613 
2193	 0.219543450645354 
2194	 0.21939173271202 
2195	 0.219227979453487 
2196	 0.219049172877206 
2197	 0.21886246617135 
2198	 0.218682285245514 
2199	 0.218465729868849 
2200	 0.218258726557144 
2201	 0.218079098110709 
2202	 0.217831570824336 
2203	 0.217542653158226 
2204	 0.217257846203012 
2205	 0.21693787254882 
2206	 0.216625895104236 
2207	 0.216308875319471 
2208	 0.215992185386577 
2209	 0.215663667957188 
2210	 0.215344083753901 
2211	 0.215012443006365 
2212	 0.214719877881112 
2213	 0.214424938702276 
2214	 0.214179828730078 
2215	 0.213973839750042 
2216	 0.2137962863357 
2217	 0.213645519937364 
2218	 0.21353917150443 
2219	 0.213468758708739 
2220	 0.213442989235109 
2221	 0.213470210359742 
2222	 0.21352997425442 
2223	 0.213619430032515 
2224	 0.213710931974369 
2225	 0.213777150579699 
2226	 0.213800304313598 
2227	 0.21374687578637 
2228	 0.213663764057404 
2229	 0.213448475477052 
2230	 0.213150525435816 
2231	 0.21274454838537 
2232	 0.212231185964353 
2233	 0.211618613280651 
2234	 0.210942528223637 
2235	 0.210081233939318 
2236	 0.209088666627315 
2237	 0.207953125688166 
2238	 0.206617105978664 
2239	 0.205222388752452 
2240	 0.203707968131092 
2241	 0.202091951892013 
2242	 0.200444331684878 
2243	 0.198562231306614 
2244	 0.196466645495348 
2245	 0.194324689733651 
2246	 0.191917586323376 
2247	 0.189574579990254 
2248	 0.187261674871235 
2249	 0.184830890136708 
2250	 0.182333568411377 
2251	 0.179827529025655 
2252	 0.177084220733604 
2253	 0.174402200913538 
2254	 0.171646448992686 
2255	 0.168831843146501 
2256	 0.166241026176828 
2257	 0.163590071008052 
2258	 0.161044075227277 
2259	 0.158631177001646 
2260	 0.156158744086854 
2261	 0.15366806130493 
2262	 0.15129299991901 
2263	 0.148896431925456 
2264	 0.146683163906849 
2265	 0.144615640593694 
2266	 0.142576121326197 
2267	 0.140685819243086 
2268	 0.138765592054163 
2269	 0.13686757511031 
2270	 0.135029454014825 
2271	 0.133174930661745 
2272	 0.131456401383954 
2273	 0.129872809830084 
2274	 0.128269630095591 
2275	 0.12681383016703 
2276	 0.125244639240992 
2277	 0.12363448969614 
2278	 0.122012294401273 
2279	 0.120303723536668 
2280	 0.118637681001683 
2281	 0.117027075852263 
2282	 0.115329541261088 
2283	 0.113618075648621 
2284	 0.11188638704298 
2285	 0.109971503736164 
2286	 0.10807644887957 
2287	 0.106070493037054 
2288	 0.104008488402979 
2289	 0.102081695490874 
2290	 0.100029619412947 
2291	 9.80362195633831E-02 
2292	 9.60913763303889E-02 
2293	 9.39993944447584E-02 
2294	 9.20187821736794E-02 
2295	 9.00870303162492E-02 
2296	 8.82330303311224E-02 
2297	 8.66491044331551E-02 
2298	 8.52441990309287E-02 
2299	 0.084044955122794 
2300	 0.083061873700656 
2301	 8.23040341558412E-02 
2302	 8.17228021476641E-02 
2303	 0.081465024550029 
2304	 8.14964662365085E-02 
2305	 8.17716704392328E-02 
2306	 8.23695812433157E-02 
2307	 8.31434198407083E-02 
2308	 0.08415843279223 
2309	 8.53979668815245E-02 
2310	 8.69567044936015E-02 
2311	 8.85482449590255E-02 
2312	 9.04625678412697E-02 
2313	 9.22486465052003E-02 
2314	 9.41212522948685E-02 
2315	 9.58859352001262E-02 
2316	 0.097637629120095 
2317	 9.92425360190128E-02 
2318	 0.100852251202299 
2319	 0.102166203250646 
2320	 0.103334058900321 
2321	 0.104258123076467 
2322	 0.1048647072658 
2323	 0.105363779432028 
2324	 0.105647205066544 
2325	 0.105815378261409 
2326	 0.105854143276521 
2327	 0.105699588021644 
2328	 0.105344564307919 
2329	 0.104866899125806 
2330	 0.104215625732882 
2331	 0.103386223046382 
2332	 0.102474755981907 
2333	 0.101429441642048 
2334	 0.100193659037212 
2335	 9.89152662511932E-02 
2336	 0.097544227927412 
2337	 9.60856283037458E-02 
2338	 9.46775226252852E-02 
2339	 9.31957013943625E-02 
2340	 9.17271524782873E-02 
2341	 9.03844310338221E-02 
2342	 8.91151689531701E-02 
2343	 8.80340574049427E-02 
2344	 8.71392391534236E-02 
2345	 8.64855611058053E-02 
2346	 8.61628332710215E-02 
2347	 8.61294268688175E-02 
2348	 0.086343957876428 
2349	 8.69378648481142E-02 
2350	 8.78070698281181E-02 
2351	 8.88411085934247E-02 
2352	 9.00125505034508E-02 
2353	 9.12270113656387E-02 
2354	 9.23241193910471E-02 
2355	 9.33429808735378E-02 
2356	 9.43339365598087E-02 
2357	 9.51726457805417E-02 
2358	 9.59053808794413E-02 
2359	 9.64673670487702E-02 
2360	 9.68027426843331E-02 
2361	 9.69338666412058E-02 
2362	 9.69670332372809E-02 
2363	 9.68792029021048E-02 
2364	 9.66811737162565E-02 
2365	 9.64716741267083E-02 
2366	 9.62130246785024E-02 
2367	 9.60039219185539E-02 
2368	 9.58769325051474E-02 
2369	 9.57063644845945E-02 
2370	 0.095492764782226 
2371	 9.52772502045871E-02 
2372	 9.50421881030074E-02 
2373	 0.094786900630477 
2374	 9.45402410804339E-02 
2375	 9.42956125661639E-02 
2376	 9.40176153949144E-02 
2377	 9.38157690436016E-02 
2378	 0.09372265028262 
2379	 9.35226685484422E-02 
2380	 9.32422645453702E-02 
2381	 9.30278131276292E-02 
2382	 9.28024514698916E-02 
2383	 9.25210159056276E-02 
2384	 9.22864204715305E-02 
2385	 9.20981610423861E-02 
2386	 9.18974870770089E-02 
2387	 9.17162069721397E-02 
2388	 9.14804403286115E-02 
2389	 9.12232989265644E-02 
2390	 9.10214938620081E-02 
2391	 9.08090471072001E-02 
2392	 9.05460515753249E-02 
2393	 9.03127692891691E-02 
2394	 9.00913205423769E-02 
2395	 8.98075591152132E-02 
2396	 8.94808017084159E-02 
2397	 8.92179103055429E-02 
2398	 8.88850088362592E-02 
2399	 8.84007663657142E-02 
2400	 8.80578586459029E-02 
2401	 8.77703048081693E-02 
2402	 8.74617534723654E-02 
2403	 8.72236118713313E-02 
2404	 8.69589308658533E-02 
2405	 8.67638309975893E-02 
2406	 8.64926306650473E-02 
2407	 8.61010668928901E-02 
2408	 8.57674548533966E-02 
2409	 8.53781100534515E-02 
2410	 8.50280470590473E-02 
2411	 0.084782420396322 
2412	 8.45534783445032E-02 
2413	 8.43340850831993E-02 
2414	 8.40705464631236E-02 
2415	 8.38164529913596E-02 
2416	 8.34636153119305E-02 
2417	 8.30990231786931E-02 
2418	 8.29237091773189E-02 
2419	 8.27434580007278E-02 
2420	 8.25773835283022E-02 
2421	 8.24614543804518E-02 
2422	 8.22348861384917E-02 
2423	 8.20172043391287E-02 
2424	 8.17983192515091E-02 
2425	 8.15649567078309E-02 
2426	 8.14638654410201E-02 
2427	 8.12987865813875E-02 
2428	 0.081155048467276 
2429	 8.10925233235755E-02 
2430	 8.08360287210234E-02 
2431	 8.05712548156739E-02 
2432	 8.04170861821527E-02 
2433	 8.02001174080125E-02 
2434	 8.00067850588424E-02 
2435	 7.99204045964509E-02 
2436	 0.079776322729828 
2437	 7.95680168622607E-02 
2438	 7.93120888668011E-02 
2439	 7.90135886840081E-02 
2440	 7.86925434248798E-02 
2441	 7.83343592172393E-02 
2442	 7.81221157227464E-02 
2443	 7.79997282200531E-02 
2444	 7.78088267943246E-02 
2445	 7.75579481486614E-02 
2446	 7.73509984522725E-02 
2447	 0.077137546883825 
2448	 7.68865906938878E-02 
2449	 7.67012069380621E-02 
2450	 0.076438037630493 
2451	 7.60745998826645E-02 
2452	 7.57135394973826E-02 
2453	 7.54320500273418E-02 
2454	 7.51987796813729E-02 
2455	 7.48922726652168E-02 
2456	 7.44383304282793E-02 
2457	 7.39957631280929E-02 
2458	 7.36540821251729E-02 
2459	 0.07324874021277 
2460	 7.29325100070776E-02 
2461	 7.26433216059865E-02 
2462	 7.21929338292912E-02 
2463	 7.18322531608331E-02 
2464	 7.16266794015061E-02 
2465	 7.14090997961404E-02 
2466	 0.071153117090253 
2467	 0.070868507416543 
2468	 7.04961054200749E-02 
2469	 0.070061796957157 
2470	 6.98245112267655E-02 
2471	 6.97308459473502E-02 
2472	 6.95958760235871E-02 
2473	 6.95454330921725E-02 
2474	 6.93751796494093E-02 
2475	 6.90925721399365E-02 
2476	 6.89346363689374E-02 
2477	 6.89242863226625E-02 
2478	 6.90121074293056E-02 
2479	 6.90687097130028E-02 
2480	 6.90924406200482E-02 
2481	 6.90140199654332E-02 
2482	 6.88386227931738E-02 
2483	 6.86840849207875E-02 
2484	 6.86702785289171E-02 
2485	 6.85898569661458E-02 
2486	 6.85664953734516E-02 
2487	 6.87538192209382E-02 
2488	 6.87704205405923E-02 
2489	 6.87556585361645E-02 
2490	 6.87962007333027E-02 
2491	 6.88194882828072E-02 
2492	 6.88112525091323E-02 
2493	 6.89761177455924E-02 
2494	 6.94074790382982E-02 
2495	 6.97123238609226E-02 
2496	 6.99229714218503E-02 
2497	 7.02557412883883E-02 
2498	 7.03380258703804E-02 
2499	 7.03212857425686E-02 
2500	 0.070640094373402 
