Wavelength	spectrum00025.asd
350	 0.372233835566963 
351	 0.368911062478172 
352	 0.367493515023003 
353	 0.369160024721828 
354	 0.370567161973336 
355	 0.373715593159256 
356	 0.374994874387579 
357	 0.372298678000758 
358	 0.370089641012907 
359	 0.374419167206495 
360	 0.381417239561758 
361	 0.382893162919971 
362	 0.380513816400428 
363	 0.380376785860426 
364	 0.383878102827799 
365	 0.385926227045862 
366	 0.387426705545013 
367	 0.390500887120608 
368	 0.395217505074386 
369	 0.393407815576726 
370	 0.396163410335155 
371	 0.401521396745958 
372	 0.400979234783287 
373	 0.401068475711077 
374	 0.403286556884764 
375	 0.407306195752062 
376	 0.411117837781743 
377	 0.412060447374438 
378	 0.414095567523744 
379	 0.419817967141798 
380	 0.420597563900039 
381	 0.422993096720648 
382	 0.427194061128964 
383	 0.429595578699948 
384	 0.431449831523417 
385	 0.432145394212594 
386	 0.43284400250055 
387	 0.437727110624068 
388	 0.43950465481269 
389	 0.43996607538427 
390	 0.442194595101668 
391	 0.444046576835085 
392	 0.446704867387963 
393	 0.449541134781412 
394	 0.451050762018412 
395	 0.454019713841056 
396	 0.456391322185221 
397	 0.457464954569523 
398	 0.459689410114197 
399	 0.462586474553233 
400	 0.464912873510322 
401	 0.465934330940637 
402	 0.467911166778185 
403	 0.470495646403351 
404	 0.473214475684863 
405	 0.47558525370685 
406	 0.477220513620295 
407	 0.478787546515643 
408	 0.480853109621644 
409	 0.483575526785862 
410	 0.486178819079228 
411	 0.488161578813875 
412	 0.489505942142132 
413	 0.4918939982015 
414	 0.493658704114927 
415	 0.495014428972123 
416	 0.49785663425258 
417	 0.500179011836204 
418	 0.501918253077075 
419	 0.503597519717775 
420	 0.506335540871771 
421	 0.508458035014836 
422	 0.510041024791581 
423	 0.511799859895722 
424	 0.513330930847795 
425	 0.51519597622804 
426	 0.517447437911613 
427	 0.519512973442108 
428	 0.521410299701406 
429	 0.523302858440331 
430	 0.525271297196706 
431	 0.527000547780477 
432	 0.5288172286249 
433	 0.530781424295103 
434	 0.532752979250591 
435	 0.534192484104239 
436	 0.535861845150999 
437	 0.537988819675015 
438	 0.539757559653471 
439	 0.541617683420207 
440	 0.543352485224207 
441	 0.544844873807196 
442	 0.547212876373162 
443	 0.549340247407171 
444	 0.550900753220332 
445	 0.552297157210855 
446	 0.55381222769724 
447	 0.555738466527012 
448	 0.55802054313957 
449	 0.559919799077081 
450	 0.561536196633908 
451	 0.563119552128185 
452	 0.564944942853542 
453	 0.56692168921918 
454	 0.568772247943888 
455	 0.570350015757008 
456	 0.57168778091092 
457	 0.573023835615505 
458	 0.574682299365172 
459	 0.576694035672221 
460	 0.578225332390376 
461	 0.57979096419158 
462	 0.581497531837341 
463	 0.583176269823325 
464	 0.584427750483385 
465	 0.585455039706876 
466	 0.586735553994856 
467	 0.589108527349434 
468	 0.590542670218732 
469	 0.591558534138777 
470	 0.593150619786159 
471	 0.594813993392921 
472	 0.596296618221652 
473	 0.597567409052587 
474	 0.598779796596408 
475	 0.600047534025234 
476	 0.60127731807452 
477	 0.602448635652189 
478	 0.603768367799083 
479	 0.605335887383339 
480	 0.606859962376346 
481	 0.607986295279174 
482	 0.609016304760241 
483	 0.610419205363461 
484	 0.611969153132451 
485	 0.612667894118383 
486	 0.613699132477753 
487	 0.615100907883388 
488	 0.616596777620524 
489	 0.617838400755921 
490	 0.61913697856196 
491	 0.620428733741305 
492	 0.621456283638119 
493	 0.622320761419206 
494	 0.623532062851961 
495	 0.625092708273178 
496	 0.626091335601672 
497	 0.627197985453928 
498	 0.628198772268205 
499	 0.628840698344913 
500	 0.629932282359422 
501	 0.631003752498439 
502	 0.632002725047922 
503	 0.633263137997756 
504	 0.634332862533889 
505	 0.635164388688902 
506	 0.635946168627593 
507	 0.637315565917469 
508	 0.638135286321143 
509	 0.638756223906337 
510	 0.640025667285193 
511	 0.641194486174699 
512	 0.64194531976434 
513	 0.642507561676379 
514	 0.643754543237367 
515	 0.644598328533648 
516	 0.645331331875086 
517	 0.646394531595902 
518	 0.647462318340588 
519	 0.648358620868686 
520	 0.64919369537262 
521	 0.650223232028855 
522	 0.650859305303611 
523	 0.651512098761891 
524	 0.652473661997748 
525	 0.653599388097784 
526	 0.654195631486922 
527	 0.654686445857155 
528	 0.655724580399671 
529	 0.656756974520886 
530	 0.65718377691588 
531	 0.657412544438985 
532	 0.658845281292513 
533	 0.659628635688888 
534	 0.660284607502306 
535	 0.661371688981695 
536	 0.661941202720022 
537	 0.662774360914673 
538	 0.663799660636249 
539	 0.664497795638251 
540	 0.665014311480123 
541	 0.665421391500311 
542	 0.665879765513833 
543	 0.66671454257693 
544	 0.667486362604523 
545	 0.668190579502221 
546	 0.668900421559981 
547	 0.669380472093946 
548	 0.669867974061036 
549	 0.67035960282861 
550	 0.670659754820923 
551	 0.671519007097548 
552	 0.672428846564544 
553	 0.672992952084927 
554	 0.673707151157349 
555	 0.674302454473935 
556	 0.674941360424743 
557	 0.675848956464388 
558	 0.676061729543532 
559	 0.676718881406114 
560	 0.678013745674631 
561	 0.678559612270259 
562	 0.678939159428825 
563	 0.679546648167039 
564	 0.680589921231935 
565	 0.681758429167467 
566	 0.682788574200888 
567	 0.683298792889657 
568	 0.682935726493597 
569	 0.682657285830104 
570	 0.682535863694856 
571	 0.682699481857891 
572	 0.683783422055943 
573	 0.685009189170221 
574	 0.686014773970157 
575	 0.686684479669529 
576	 0.68738879580736 
577	 0.6876895625042 
578	 0.687708609379953 
579	 0.688245151120963 
580	 0.688613359294736 
581	 0.688657566303776 
582	 0.68846989621359 
583	 0.688475603022594 
584	 0.688468268091548 
585	 0.688626509916086 
586	 0.689288109640673 
587	 0.69008858312463 
588	 0.690874374842394 
589	 0.691487809207404 
590	 0.69169263573982 
591	 0.692040998193056 
592	 0.692587481658879 
593	 0.693213578862559 
594	 0.69384322616573 
595	 0.694388973318617 
596	 0.694845379841938 
597	 0.695292479203569 
598	 0.696179278659167 
599	 0.696706658246406 
600	 0.696567213735386 
601	 0.697197000033091 
602	 0.69774584340069 
603	 0.698083628929122 
604	 0.69835624601699 
605	 0.698404588265637 
606	 0.698585177981608 
607	 0.698984101705675 
608	 0.69930453357378 
609	 0.700106013580479 
610	 0.700660075393261 
611	 0.700499718807818 
612	 0.701091571410094 
613	 0.701799228491599 
614	 0.702155762746092 
615	 0.701952968756348 
616	 0.70228843002226 
617	 0.702856206364652 
618	 0.703336476353956 
619	 0.703759707960291 
620	 0.703848414379913 
621	 0.704034480817795 
622	 0.704753995658396 
623	 0.705280557524924 
624	 0.705560112989373 
625	 0.705648626774883 
626	 0.70569662093803 
627	 0.706140603224504 
628	 0.706643553581836 
629	 0.706925518355737 
630	 0.707212383048553 
631	 0.7077515716305 
632	 0.708203288075706 
633	 0.708113822441628 
634	 0.708264300748573 
635	 0.708684503788585 
636	 0.709114957336093 
637	 0.709035485579307 
638	 0.709637170670401 
639	 0.710256116996043 
640	 0.710246790220784 
641	 0.710591955526708 
642	 0.710972441653256 
643	 0.711149174967919 
644	 0.711063147534326 
645	 0.71187736446372 
646	 0.712502920344627 
647	 0.712467335880167 
648	 0.712781395566739 
649	 0.712500561905736 
650	 0.712542168205292 
651	 0.713668073256663 
652	 0.713524504591333 
653	 0.713573370033773 
654	 0.714163908018984 
655	 0.714637673037458 
656	 0.714737487922844 
657	 0.715023921277364 
658	 0.715614164310921 
659	 0.715309993514202 
660	 0.715645279171505 
661	 0.716086156162889 
662	 0.715735151340439 
663	 0.716260508313796 
664	 0.716434012538537 
665	 0.716251123741486 
666	 0.717024831857387 
667	 0.717441664256229 
668	 0.717657428045461 
669	 0.717916597585628 
670	 0.717866532990111 
671	 0.718067103883027 
672	 0.718366745402476 
673	 0.71839016254079 
674	 0.718680918975359 
675	 0.719005183229381 
676	 0.71927987180993 
677	 0.719676200777823 
678	 0.719572732469212 
679	 0.719656015171083 
680	 0.720322906618351 
681	 0.72007315181651 
682	 0.720403770770263 
683	 0.720872549102592 
684	 0.720285782838449 
685	 0.720698893755491 
686	 0.7212697777282 
687	 0.721552795491 
688	 0.722104251874765 
689	 0.721846553537858 
690	 0.72157733873358 
691	 0.722078707228928 
692	 0.72230823092479 
693	 0.722396124184121 
694	 0.72254977167592 
695	 0.722943069834054 
696	 0.722917590052536 
697	 0.723038456082149 
698	 0.723409726682602 
699	 0.723170488227626 
700	 0.7234078722939 
701	 0.723891909159617 
702	 0.724133574359106 
703	 0.724171692868217 
704	 0.724514434528394 
705	 0.724802061957 
706	 0.724289016729203 
707	 0.724947433953598 
708	 0.725371889505955 
709	 0.724870290695727 
710	 0.724626390463621 
711	 0.725407430948889 
712	 0.726056349608788 
713	 0.725523743583235 
714	 0.725769898741999 
715	 0.725946002694732 
716	 0.725960846717039 
717	 0.72628060394253 
718	 0.726821604683703 
719	 0.726950777323115 
720	 0.726483833504284 
721	 0.726036274071602 
722	 0.726818548148402 
723	 0.727565694494056 
724	 0.726995901046032 
725	 0.727043551681033 
726	 0.727133092684648 
727	 0.72714157543902 
728	 0.727319245258652 
729	 0.728080385553014 
730	 0.72817801035434 
731	 0.727477658052647 
732	 0.728000967845659 
733	 0.728091419688235 
734	 0.727998423889427 
735	 0.728328346050439 
736	 0.72900238722255 
737	 0.728807380956175 
738	 0.728121796103657 
739	 0.728253101116049 
740	 0.728419081441161 
741	 0.728396488637239 
742	 0.72843473551734 
743	 0.729396430563103 
744	 0.729688998397392 
745	 0.729407083866531 
746	 0.729125179300126 
747	 0.729241310189489 
748	 0.729898603536838 
749	 0.730332338807683 
750	 0.729632978276799 
751	 0.730187202636278 
752	 0.730309344488302 
753	 0.729610344304726 
754	 0.729864275065634 
755	 0.730223686693418 
756	 0.73029716971067 
757	 0.730099937372776 
758	 0.730546850207441 
759	 0.730837861260882 
760	 0.730683102581508 
761	 0.730260808594305 
762	 0.730956045968692 
763	 0.731421928107924 
764	 0.731264591207864 
765	 0.731316970823277 
766	 0.731313183399329 
767	 0.731535749275187 
768	 0.731992894927782 
769	 0.731839537266093 
770	 0.731800332839349 
771	 0.731768401962936 
772	 0.731508619307697 
773	 0.731629462674373 
774	 0.73227911642084 
775	 0.732890315661272 
776	 0.732523995740272 
777	 0.732790955738052 
778	 0.732881037635114 
779	 0.732399825384878 
780	 0.732231503019112 
781	 0.73235066389977 
782	 0.732647028534511 
783	 0.732997014227446 
784	 0.733476106284758 
785	 0.733620590582554 
786	 0.733506086701995 
787	 0.733539525125171 
788	 0.734011398153901 
789	 0.734140885926636 
790	 0.733857164061587 
791	 0.734004179548381 
792	 0.733738359667954 
793	 0.733749584961862 
794	 0.734366873084952 
795	 0.734305633208585 
796	 0.734190180538227 
797	 0.734140816058873 
798	 0.734106587584821 
799	 0.734063370742004 
800	 0.733875499346017 
801	 0.733735656991084 
802	 0.734064536478885 
803	 0.73501580943246 
804	 0.735284013581338 
805	 0.734596348671046 
806	 0.734462545817564 
807	 0.734713063940581 
808	 0.734800797846879 
809	 0.734454136343186 
810	 0.734554981341391 
811	 0.734857761369034 
812	 0.735260600977805 
813	 0.735662668159121 
814	 0.735742353105798 
815	 0.735605210083459 
816	 0.735389271712073 
817	 0.735241708081462 
818	 0.735406670448653 
819	 0.735615767160447 
820	 0.735644070560134 
821	 0.735483076963927 
822	 0.735277853848191 
823	 0.73523028632323 
824	 0.735434670527971 
825	 0.73564287223236 
826	 0.73597784966337 
827	 0.736196879687836 
828	 0.736015984802358 
829	 0.735878822923582 
830	 0.735728749624597 
831	 0.735817046393418 
832	 0.736547360050833 
833	 0.736814514474427 
834	 0.736465689847104 
835	 0.735931739802496 
836	 0.736242809687849 
837	 0.736177020048141 
838	 0.735952906535315 
839	 0.736003729611675 
840	 0.736314836101531 
841	 0.736728968684354 
842	 0.736680602323794 
843	 0.735947531843 
844	 0.736699142739035 
845	 0.737017227882989 
846	 0.736713999399988 
847	 0.736858701358132 
848	 0.736332926853051 
849	 0.736257826262586 
850	 0.736771804762843 
851	 0.736554297562782 
852	 0.736498196080093 
853	 0.736769789582246 
854	 0.737087306182606 
855	 0.736506671397706 
856	 0.736538846283499 
857	 0.736722429952634 
858	 0.736428451105886 
859	 0.736799837797789 
860	 0.737525990085732 
861	 0.738158221037652 
862	 0.738257845926957 
863	 0.737893925079111 
864	 0.737407362787748 
865	 0.736912424534524 
866	 0.736392484820358 
867	 0.736922188068756 
868	 0.737522004406672 
869	 0.737487909935694 
870	 0.736953710474251 
871	 0.737002765261831 
872	 0.737111945985627 
873	 0.736835768643682 
874	 0.736696249557249 
875	 0.73732578670211 
876	 0.737898059900176 
877	 0.737499076318461 
878	 0.736573885579975 
879	 0.736672715445408 
880	 0.737572551103489 
881	 0.738033401540165 
882	 0.736820782175143 
883	 0.736233232265234 
884	 0.736919614734304 
885	 0.737921810839773 
886	 0.737918328084127 
887	 0.737497601606769 
888	 0.736980341393123 
889	 0.736156165024909 
890	 0.736307711291503 
891	 0.7368170580722 
892	 0.737008540853581 
893	 0.736771743867733 
894	 0.736349476605002 
895	 0.736115575214085 
896	 0.736174358977577 
897	 0.735846036927704 
898	 0.736059072828046 
899	 0.736570817943696 
900	 0.736752304221325 
901	 0.736179593180493 
902	 0.735835997840388 
903	 0.735835686896697 
904	 0.73588544949569 
905	 0.736339537489401 
906	 0.736048860213872 
907	 0.735301812719874 
908	 0.73533363305483 
909	 0.735768303563552 
910	 0.735768791514417 
911	 0.735270412161929 
912	 0.735020865136852 
913	 0.73514869338448 
914	 0.734974369161158 
915	 0.734546990446059 
916	 0.734997053460287 
917	 0.735511359051497 
918	 0.735566532870184 
919	 0.735150906174047 
920	 0.735040978769206 
921	 0.734865262425246 
922	 0.734563182269084 
923	 0.734307006597744 
924	 0.73466518602108 
925	 0.734957321428004 
926	 0.735240269884494 
927	 0.735577589977049 
928	 0.735146793685476 
929	 0.735272029046703 
930	 0.735388870460789 
931	 0.734674148863598 
932	 0.734781549660885 
933	 0.735776081026965 
934	 0.736595022017206 
935	 0.736078846433894 
936	 0.735863577433987 
937	 0.735738740968885 
938	 0.735715868911781 
939	 0.73602860048604 
940	 0.736972362902564 
941	 0.737958476985222 
942	 0.738337330395259 
943	 0.737707463519487 
944	 0.737175806373829 
945	 0.736823483443493 
946	 0.73694243934132 
947	 0.737953934950725 
948	 0.737999421027024 
949	 0.737468653152919 
950	 0.736979654916803 
951	 0.736907125732963 
952	 0.736864319623601 
953	 0.737004588201782 
954	 0.737392010379688 
955	 0.737819557170925 
956	 0.737922087071427 
957	 0.737544354938652 
958	 0.73683628030227 
959	 0.736321414972229 
960	 0.736697335990006 
961	 0.737197165966842 
962	 0.737325444436481 
963	 0.737878698447633 
964	 0.737419154824918 
965	 0.736976313797722 
966	 0.737173589342241 
967	 0.736248209210066 
968	 0.735908525293135 
969	 0.73593845923217 
970	 0.736065912962672 
971	 0.737402465124667 
972	 0.737365968051494 
973	 0.736188261007326 
974	 0.735084459761594 
975	 0.735190346825832 
976	 0.73509207835356 
977	 0.735302963553547 
978	 0.736070009163508 
979	 0.734980654772281 
980	 0.733372499224108 
981	 0.732964776780217 
982	 0.734351081160175 
983	 0.734409327136759 
984	 0.733551676847133 
985	 0.733424209800326 
986	 0.734904107942655 
987	 0.734887359045197 
988	 0.73420090438441 
989	 0.733496555137746 
990	 0.733375093120762 
991	 0.734442818451515 
992	 0.734199398668179 
993	 0.733594313142749 
994	 0.734155424644365 
995	 0.734661975946622 
996	 0.734848747385925 
997	 0.734925449477971 
998	 0.735182174672424 
999	 0.735396168403364 
1000	 0.735974421569404 
1001	 0.732033166896329 
1002	 0.73210200623324 
1003	 0.732101476252244 
1004	 0.732251862118873 
1005	 0.732388503178142 
1006	 0.732506768003144 
1007	 0.732844677327454 
1008	 0.732883476306966 
1009	 0.732659570829489 
1010	 0.732624016762091 
1011	 0.732527698361413 
1012	 0.732498687503208 
1013	 0.732606223798103 
1014	 0.732627782135355 
1015	 0.732576305759513 
1016	 0.73260729951913 
1017	 0.732667421766267 
1018	 0.732746737238611 
1019	 0.732908865751615 
1020	 0.733073291147193 
1021	 0.73316334393981 
1022	 0.733221305177574 
1023	 0.733242441084803 
1024	 0.733192604522932 
1025	 0.733162891425125 
1026	 0.733076887354413 
1027	 0.733074408192867 
1028	 0.733077712907815 
1029	 0.733177146235235 
1030	 0.733296933987704 
1031	 0.733305660452157 
1032	 0.733212091423394 
1033	 0.733186572061357 
1034	 0.733197063416175 
1035	 0.733213039470411 
1036	 0.733220745656956 
1037	 0.733249469462639 
1038	 0.733281119139393 
1039	 0.733321338705694 
1040	 0.733347811546851 
1041	 0.733420017960914 
1042	 0.733422546989117 
1043	 0.733331707046064 
1044	 0.733300248647152 
1045	 0.733291969853394 
1046	 0.733328242782822 
1047	 0.733496687803021 
1048	 0.733531032686361 
1049	 0.733361543437287 
1050	 0.733327710404276 
1051	 0.733255323489822 
1052	 0.733049629498779 
1053	 0.733045980868689 
1054	 0.733269311233103 
1055	 0.733314582296123 
1056	 0.733381108238295 
1057	 0.733461878300316 
1058	 0.733516919661896 
1059	 0.733483572662505 
1060	 0.733475091546397 
1061	 0.733487503149993 
1062	 0.733550951665431 
1063	 0.7336013452094 
1064	 0.733644333032781 
1065	 0.733595953809319 
1066	 0.733583889009663 
1067	 0.733753456138935 
1068	 0.733956726740792 
1069	 0.734207342355997 
1070	 0.734392066680964 
1071	 0.734540131415 
1072	 0.734585984518301 
1073	 0.734707382063924 
1074	 0.73487005757179 
1075	 0.735023167730072 
1076	 0.735151996149211 
1077	 0.735243609931994 
1078	 0.735355246476874 
1079	 0.735498857090399 
1080	 0.735638280097152 
1081	 0.735798567058437 
1082	 0.735924951965682 
1083	 0.736090507411482 
1084	 0.736333217783029 
1085	 0.736591340741453 
1086	 0.736804142467046 
1087	 0.737052298580917 
1088	 0.73721353857545 
1089	 0.737270022835394 
1090	 0.737299282057367 
1091	 0.737360944790204 
1092	 0.737425709373712 
1093	 0.737452739946187 
1094	 0.737501413262894 
1095	 0.73754216686993 
1096	 0.737535887762488 
1097	 0.737605587965671 
1098	 0.737639349913434 
1099	 0.737581280046321 
1100	 0.737557427077684 
1101	 0.737501870834568 
1102	 0.737514305696279 
1103	 0.737544061692341 
1104	 0.737628443657845 
1105	 0.737669616058902 
1106	 0.737678554573714 
1107	 0.737615704564582 
1108	 0.737593037180171 
1109	 0.737639823188894 
1110	 0.737679416454881 
1111	 0.737683418024753 
1112	 0.737618896545643 
1113	 0.737474889477392 
1114	 0.737344176206811 
1115	 0.73727805866276 
1116	 0.73717169704382 
1117	 0.737000866474408 
1118	 0.73683664647017 
1119	 0.736628997074896 
1120	 0.736444162818562 
1121	 0.736258806399887 
1122	 0.736111701521158 
1123	 0.735905053634222 
1124	 0.735669202206396 
1125	 0.735458818182369 
1126	 0.735271361377203 
1127	 0.734996980678365 
1128	 0.734634550442094 
1129	 0.734241713427686 
1130	 0.7337387411327 
1131	 0.733320301778114 
1132	 0.733090693734166 
1133	 0.732771606047476 
1134	 0.732393345375216 
1135	 0.731990334450837 
1136	 0.731498271809917 
1137	 0.731029153480901 
1138	 0.730557883961763 
1139	 0.730073232653467 
1140	 0.72958090079569 
1141	 0.729098244190111 
1142	 0.728552378252504 
1143	 0.728068503581845 
1144	 0.7275651778273 
1145	 0.727028710216122 
1146	 0.726531331317311 
1147	 0.725990324743976 
1148	 0.725419027511283 
1149	 0.724831892381487 
1150	 0.724161086041166 
1151	 0.723535941626588 
1152	 0.722934911018602 
1153	 0.722350284653962 
1154	 0.721736166679536 
1155	 0.721201088591966 
1156	 0.720529254705862 
1157	 0.719746733871503 
1158	 0.719028269722603 
1159	 0.718262966255473 
1160	 0.717524346739668 
1161	 0.716825463579306 
1162	 0.716119729591942 
1163	 0.715449163357214 
1164	 0.714697922866792 
1165	 0.713957307409409 
1166	 0.713261098453708 
1167	 0.712534922277197 
1168	 0.71187899144185 
1169	 0.711225794341705 
1170	 0.710618364246883 
1171	 0.709973879908431 
1172	 0.709355917848233 
1173	 0.708663455200858 
1174	 0.707956629060268 
1175	 0.707202121180948 
1176	 0.706354266765055 
1177	 0.705552312339824 
1178	 0.704759572057785 
1179	 0.703897796586076 
1180	 0.703100973077018 
1181	 0.702323419747357 
1182	 0.701575567991291 
1183	 0.700888734822829 
1184	 0.700156729472434 
1185	 0.699449532255529 
1186	 0.698728388971811 
1187	 0.697934409777209 
1188	 0.69724832703166 
1189	 0.696613847225911 
1190	 0.696002131891947 
1191	 0.695430132051868 
1192	 0.694902299222898 
1193	 0.694395153846319 
1194	 0.693934484509013 
1195	 0.693540767649711 
1196	 0.693157529459171 
1197	 0.692805929681866 
1198	 0.692472266437357 
1199	 0.692160499525404 
1200	 0.691872983902927 
1201	 0.691604531618151 
1202	 0.691405592681044 
1203	 0.691256276217213 
1204	 0.691132800948233 
1205	 0.691036421927493 
1206	 0.690948356593928 
1207	 0.69095700242065 
1208	 0.690963397126029 
1209	 0.691136416885561 
1210	 0.691397490716101 
1211	 0.69181331475202 
1212	 0.692382187506689 
1213	 0.693026359227036 
1214	 0.693769300373711 
1215	 0.694657944266374 
1216	 0.695714855029618 
1217	 0.696773957932852 
1218	 0.697953753845 
1219	 0.699165052175459 
1220	 0.70040372949086 
1221	 0.701763898632711 
1222	 0.703143083234519 
1223	 0.704503172599281 
1224	 0.705726638857637 
1225	 0.706841758689731 
1226	 0.707930252859709 
1227	 0.708933879069608 
1228	 0.70993452540884 
1229	 0.710910449048862 
1230	 0.711839279868793 
1231	 0.71273705634549 
1232	 0.713583975012726 
1233	 0.714391961920432 
1234	 0.715136487824593 
1235	 0.715832252406377 
1236	 0.716468176731996 
1237	 0.71701099248293 
1238	 0.717556040857265 
1239	 0.718038167320998 
1240	 0.718555839112746 
1241	 0.71904420800346 
1242	 0.719462285580541 
1243	 0.719832180061268 
1244	 0.720114259612298 
1245	 0.720460408987947 
1246	 0.720797451807006 
1247	 0.721112227384881 
1248	 0.721455760861798 
1249	 0.72174676960064 
1250	 0.72197022394383 
1251	 0.722221271456569 
1252	 0.722488415935087 
1253	 0.722720746741189 
1254	 0.722919208371424 
1255	 0.723128235384088 
1256	 0.723341553968478 
1257	 0.723528645660442 
1258	 0.72374313886524 
1259	 0.723888281131616 
1260	 0.723983327337491 
1261	 0.724045202349 
1262	 0.724038059568043 
1263	 0.724026245575316 
1264	 0.724028770623569 
1265	 0.724005129034619 
1266	 0.724024625464166 
1267	 0.724076009512373 
1268	 0.72410690188105 
1269	 0.724154599700063 
1270	 0.724171936085227 
1271	 0.724170119253999 
1272	 0.724171099055001 
1273	 0.724134939151204 
1274	 0.724152375713488 
1275	 0.72419520744817 
1276	 0.724239274072549 
1277	 0.724352387061999 
1278	 0.724387995264131 
1279	 0.72435676323955 
1280	 0.724371148827035 
1281	 0.724380289877893 
1282	 0.724378916703226 
1283	 0.724356469713474 
1284	 0.724397771627524 
1285	 0.724463722005091 
1286	 0.724507309758335 
1287	 0.724649119796898 
1288	 0.724917260079508 
1289	 0.725067841233087 
1290	 0.725203653260241 
1291	 0.725346677990262 
1292	 0.725457534921497 
1293	 0.725575433300622 
1294	 0.72570756507952 
1295	 0.725837796044821 
1296	 0.725949020233122 
1297	 0.726065345689369 
1298	 0.726221653364002 
1299	 0.726324800500735 
1300	 0.726392198917306 
1301	 0.726455997387467 
1302	 0.726465946376347 
1303	 0.726526534572325 
1304	 0.726632123160693 
1305	 0.726693334809945 
1306	 0.726762170988384 
1307	 0.72681698682424 
1308	 0.726802054461092 
1309	 0.726836718303734 
1310	 0.726866160935063 
1311	 0.726895953707077 
1312	 0.726971441966945 
1313	 0.727081026635588 
1314	 0.727155411217488 
1315	 0.727276285347827 
1316	 0.727315082722212 
1317	 0.727301149821457 
1318	 0.72727984984238 
1319	 0.727239082835681 
1320	 0.727164501973648 
1321	 0.727050342700987 
1322	 0.726939179540786 
1323	 0.726818835187663 
1324	 0.726664086610644 
1325	 0.726502846432082 
1326	 0.726309212959784 
1327	 0.726049937911866 
1328	 0.725819945655067 
1329	 0.725576176700014 
1330	 0.725352356260771 
1331	 0.725194649617969 
1332	 0.724961361291023 
1333	 0.724725173508265 
1334	 0.724411513626972 
1335	 0.724125939964774 
1336	 0.723814641423937 
1337	 0.723447409080615 
1338	 0.723080130626088 
1339	 0.72266791678697 
1340	 0.72216351235315 
1341	 0.72171016797695 
1342	 0.721289007573265 
1343	 0.720810843407923 
1344	 0.720315366706935 
1345	 0.719789109542733 
1346	 0.719230860915719 
1347	 0.718650884331313 
1348	 0.718074017310299 
1349	 0.717418907595906 
1350	 0.716723838789055 
1351	 0.715979929269407 
1352	 0.715147051001216 
1353	 0.7143261751286 
1354	 0.713435015300202 
1355	 0.712613184819838 
1356	 0.711788609224807 
1357	 0.711014939472665 
1358	 0.710313334920341 
1359	 0.709599797352742 
1360	 0.708916425649809 
1361	 0.708232943933131 
1362	 0.707515928047688 
1363	 0.706826736156657 
1364	 0.706071762079683 
1365	 0.705306962421867 
1366	 0.704470834171012 
1367	 0.703573511155423 
1368	 0.702676721417203 
1369	 0.701740686958053 
1370	 0.700792067579769 
1371	 0.699844966504043 
1372	 0.698849542163238 
1373	 0.697813610549795 
1374	 0.696762832200264 
1375	 0.695650289420797 
1376	 0.69457860441989 
1377	 0.693518038911185 
1378	 0.692415359835165 
1379	 0.691299753936674 
1380	 0.690189318382601 
1381	 0.689024645694338 
1382	 0.687904306615752 
1383	 0.68680185400678 
1384	 0.685732371433478 
1385	 0.684660020713719 
1386	 0.683661175429785 
1387	 0.682713335703528 
1388	 0.68181597625799 
1389	 0.680932406338548 
1390	 0.680158627804385 
1391	 0.679468791712858 
1392	 0.678838014385077 
1393	 0.67829711889127 
1394	 0.677744721516326 
1395	 0.6771251805697 
1396	 0.676500713962648 
1397	 0.675783655465686 
1398	 0.67505925088539 
1399	 0.674142372902972 
1400	 0.673147097465194 
1401	 0.671972988261927 
1402	 0.670608943157217 
1403	 0.669192690925795 
1404	 0.667653841254182 
1405	 0.666057096428083 
1406	 0.664338470716062 
1407	 0.662636746050384 
1408	 0.660803435229008 
1409	 0.659097628563473 
1410	 0.65740451021778 
1411	 0.655781333832408 
1412	 0.654185584112786 
1413	 0.652721101310766 
1414	 0.651360181596508 
1415	 0.650025207212345 
1416	 0.648826435649141 
1417	 0.647588796912219 
1418	 0.646525470599689 
1419	 0.645160404087567 
1420	 0.64373686324603 
1421	 0.642122010183507 
1422	 0.640222762283276 
1423	 0.63825366778103 
1424	 0.636180482592714 
1425	 0.633943301129602 
1426	 0.631724645061171 
1427	 0.629425804042229 
1428	 0.627171692181958 
1429	 0.6251096442914 
1430	 0.623092602381928 
1431	 0.621143946818345 
1432	 0.619254724762206 
1433	 0.617444851133 
1434	 0.615715328797575 
1435	 0.614028329272614 
1436	 0.612448761669985 
1437	 0.610984806264914 
1438	 0.609592261590126 
1439	 0.60827514634339 
1440	 0.60702428700969 
1441	 0.605825599607105 
1442	 0.604773869315441 
1443	 0.60371890984586 
1444	 0.602973582163695 
1445	 0.602337498888547 
1446	 0.602085091038861 
1447	 0.601979930234301 
1448	 0.602419679824792 
1449	 0.603280044687852 
1450	 0.604486850219628 
1451	 0.606233772036244 
1452	 0.608132725765748 
1453	 0.610481521903684 
1454	 0.612769185232372 
1455	 0.615332744666015 
1456	 0.617779753218107 
1457	 0.620315368174127 
1458	 0.622675497021167 
1459	 0.62498868176306 
1460	 0.627172312711875 
1461	 0.629224304520307 
1462	 0.631136468480711 
1463	 0.632941150164708 
1464	 0.634623861246669 
1465	 0.636152515022082 
1466	 0.637599225933942 
1467	 0.638836827899208 
1468	 0.639955574953233 
1469	 0.640889452734089 
1470	 0.641666699782311 
1471	 0.64243964398371 
1472	 0.643117175429161 
1473	 0.643782818826762 
1474	 0.644371177875821 
1475	 0.64501418286791 
1476	 0.645649617042012 
1477	 0.646269892905934 
1478	 0.646944829154508 
1479	 0.647478122631814 
1480	 0.64796508282221 
1481	 0.648347816274726 
1482	 0.648594171839568 
1483	 0.648888587401963 
1484	 0.649096923806675 
1485	 0.64937630194929 
1486	 0.649676247113854 
1487	 0.650004832047841 
1488	 0.650354963584905 
1489	 0.6507246089368 
1490	 0.651165950619192 
1491	 0.6515300730288 
1492	 0.651887145300441 
1493	 0.652208901557726 
1494	 0.652468902047427 
1495	 0.652744008852203 
1496	 0.653017017485863 
1497	 0.653269815024744 
1498	 0.65347761613574 
1499	 0.6537351370506 
1500	 0.654019317222736 
1501	 0.654276860213519 
1502	 0.654584401159155 
1503	 0.654824206624208 
1504	 0.655012080116845 
1505	 0.655179475286204 
1506	 0.655295550518303 
1507	 0.655423219349811 
1508	 0.655483358873744 
1509	 0.65562943445133 
1510	 0.655844539157882 
1511	 0.656032745830908 
1512	 0.656276921393311 
1513	 0.65648275591357 
1514	 0.65664737468564 
1515	 0.656813145173642 
1516	 0.656953720789185 
1517	 0.657120851037235 
1518	 0.657277539979716 
1519	 0.657462544293168 
1520	 0.657683663773292 
1521	 0.657912666559398 
1522	 0.658157516016628 
1523	 0.658411179374582 
1524	 0.658630047961521 
1525	 0.658868868950093 
1526	 0.658996594364271 
1527	 0.659061892518567 
1528	 0.659120624441979 
1529	 0.659105818424983 
1530	 0.659124029323239 
1531	 0.659125858160429 
1532	 0.659182367784294 
1533	 0.659249856315423 
1534	 0.659329349878369 
1535	 0.659441203443972 
1536	 0.659577505454909 
1537	 0.65972805479731 
1538	 0.659866185636405 
1539	 0.66004774658376 
1540	 0.660192282376629 
1541	 0.660306514019322 
1542	 0.660413862696996 
1543	 0.660525956890924 
1544	 0.660618159819672 
1545	 0.660706285476613 
1546	 0.660724562437124 
1547	 0.660726241419528 
1548	 0.660670822726686 
1549	 0.660501192056012 
1550	 0.660413569550724 
1551	 0.660331220105746 
1552	 0.660257392135411 
1553	 0.660172328380205 
1554	 0.660172522711469 
1555	 0.660228448327002 
1556	 0.660257445117451 
1557	 0.660377543074146 
1558	 0.66039748741368 
1559	 0.660331861630697 
1560	 0.660303836649389 
1561	 0.660256401757481 
1562	 0.660227333162659 
1563	 0.66018852646861 
1564	 0.660196073283474 
1565	 0.660228091399932 
1566	 0.660272511885421 
1567	 0.660388388753989 
1568	 0.66043240462701 
1569	 0.660430911884388 
1570	 0.660464314412249 
1571	 0.660480586719248 
1572	 0.660508249457939 
1573	 0.660593018645071 
1574	 0.660613765800721 
1575	 0.660563527507412 
1576	 0.660575429184069 
1577	 0.66056535796441 
1578	 0.660615864373571 
1579	 0.66075748137756 
1580	 0.660847295767982 
1581	 0.660953160244882 
1582	 0.661030135050155 
1583	 0.661076551008543 
1584	 0.661119374141997 
1585	 0.661142449444714 
1586	 0.661174758188083 
1587	 0.661180654307634 
1588	 0.661225374418873 
1589	 0.661305995322516 
1590	 0.661369995087013 
1591	 0.661458049855379 
1592	 0.661521723651984 
1593	 0.661554481311866 
1594	 0.661604748752451 
1595	 0.66164859866933 
1596	 0.66170704927614 
1597	 0.661837394233236 
1598	 0.661861038080152 
1599	 0.661801683266707 
1600	 0.661791640483434 
1601	 0.661706820414285 
1602	 0.661691397179073 
1603	 0.661769880669441 
1604	 0.661814064766057 
1605	 0.661825793447865 
1606	 0.661896176680894 
1607	 0.662028783982969 
1608	 0.662116270719586 
1609	 0.662241236700878 
1610	 0.66231523547976 
1611	 0.66235010363259 
1612	 0.662340995439041 
1613	 0.662286531618962 
1614	 0.662231370798648 
1615	 0.662137588194386 
1616	 0.662030074426789 
1617	 0.661929851612371 
1618	 0.661790043108116 
1619	 0.661589979801655 
1620	 0.661408570229121 
1621	 0.66123358319299 
1622	 0.661033967584593 
1623	 0.660805074145272 
1624	 0.660597095732607 
1625	 0.660365790434165 
1626	 0.660161858615283 
1627	 0.660042092550535 
1628	 0.65983329129126 
1629	 0.659560345588273 
1630	 0.65931804006846 
1631	 0.659015148802266 
1632	 0.658766053628047 
1633	 0.658596716406248 
1634	 0.658379971254165 
1635	 0.658134412231811 
1636	 0.657921693360742 
1637	 0.657717974750934 
1638	 0.657506827533358 
1639	 0.657339159838362 
1640	 0.65711740958975 
1641	 0.65686285218312 
1642	 0.656582276615413 
1643	 0.656259059629167 
1644	 0.655943100133584 
1645	 0.655596444235422 
1646	 0.655270593095502 
1647	 0.654952741144335 
1648	 0.654636270926923 
1649	 0.654367135756315 
1650	 0.654019569137972 
1651	 0.653676587505981 
1652	 0.653240632121093 
1653	 0.652723984026178 
1654	 0.652161421390621 
1655	 0.651507776612616 
1656	 0.650847381044365 
1657	 0.650144415822873 
1658	 0.649407735334601 
1659	 0.648672993999599 
1660	 0.64786220383721 
1661	 0.647018471377072 
1662	 0.64608617775415 
1663	 0.645075926512642 
1664	 0.643988928264346 
1665	 0.642803259254791 
1666	 0.641568775387009 
1667	 0.640252984577583 
1668	 0.638935279555623 
1669	 0.637619500448598 
1670	 0.636181772443817 
1671	 0.634672733391602 
1672	 0.633092623979176 
1673	 0.631403029389589 
1674	 0.629678465020644 
1675	 0.627884699536083 
1676	 0.626111156835501 
1677	 0.624295318820398 
1678	 0.622479345739928 
1679	 0.620707377387202 
1680	 0.618815000054847 
1681	 0.61687138499818 
1682	 0.614814645339756 
1683	 0.612655431333234 
1684	 0.610493905493736 
1685	 0.60825747702249 
1686	 0.605995928961583 
1687	 0.603647518025346 
1688	 0.601368508595222 
1689	 0.599085786905087 
1690	 0.596785550236222 
1691	 0.594569158131801 
1692	 0.592261795362703 
1693	 0.58991338914158 
1694	 0.587506252040496 
1695	 0.585033854297667 
1696	 0.582518488093583 
1697	 0.579906640115087 
1698	 0.577309446230433 
1699	 0.574666331186256 
1700	 0.5721511589789 
1701	 0.569621581613624 
1702	 0.567274604914896 
1703	 0.56504156287812 
1704	 0.562881854614899 
1705	 0.560818095536787 
1706	 0.55883070774072 
1707	 0.557034597576777 
1708	 0.55523162709274 
1709	 0.553514898622548 
1710	 0.551880637793418 
1711	 0.550225091262763 
1712	 0.548738535502805 
1713	 0.547340762902787 
1714	 0.545956576440916 
1715	 0.544773617152614 
1716	 0.54366096828336 
1717	 0.542610727410726 
1718	 0.541717096210167 
1719	 0.54081113951904 
1720	 0.53998218602688 
1721	 0.539307562022807 
1722	 0.53867245716607 
1723	 0.538164642771773 
1724	 0.537754817564268 
1725	 0.537424188721625 
1726	 0.537323913026744 
1727	 0.537441673546394 
1728	 0.537749597760443 
1729	 0.538375575801665 
1730	 0.539259321486114 
1731	 0.540243068838818 
1732	 0.541568362398209 
1733	 0.542975863002238 
1734	 0.544345022800882 
1735	 0.545838112153071 
1736	 0.547125547878594 
1737	 0.54823821898799 
1738	 0.549188249094956 
1739	 0.549904135006532 
1740	 0.550336300498494 
1741	 0.550770970360395 
1742	 0.551060659966471 
1743	 0.551300879264854 
1744	 0.55155550397271 
1745	 0.551582100513297 
1746	 0.551431563260387 
1747	 0.551186260835284 
1748	 0.55074580368166 
1749	 0.550312424703582 
1750	 0.549736433896115 
1751	 0.549272918706752 
1752	 0.548705634565663 
1753	 0.54843868803584 
1754	 0.548331123772953 
1755	 0.548355160479249 
1756	 0.548625837460712 
1757	 0.548876249421694 
1758	 0.549212577236444 
1759	 0.549655568584963 
1760	 0.550174765262736 
1761	 0.550863610040611 
1762	 0.551623726885741 
1763	 0.552541985317788 
1764	 0.553656585630757 
1765	 0.554868839991393 
1766	 0.556294291829965 
1767	 0.557831521941433 
1768	 0.559418263939908 
1769	 0.561072112191125 
1770	 0.5626204252996 
1771	 0.564127796619725 
1772	 0.565567021207804 
1773	 0.566874032561712 
1774	 0.568149366776557 
1775	 0.569260979455144 
1776	 0.570270521320528 
1777	 0.571238379961339 
1778	 0.572054452850618 
1779	 0.572863959549722 
1780	 0.573645554538447 
1781	 0.574269467324076 
1782	 0.574856595316938 
1783	 0.575334515486621 
1784	 0.575623705703128 
1785	 0.575835598326643 
1786	 0.576107363944815 
1787	 0.576368491976914 
1788	 0.576609783601376 
1789	 0.576894512474293 
1790	 0.577067384781033 
1791	 0.577102673659858 
1792	 0.577223840330353 
1793	 0.577346351683372 
1794	 0.577465509640179 
1795	 0.577581433819849 
1796	 0.577597695941616 
1797	 0.577593504217311 
1798	 0.577481687215114 
1799	 0.577343495590531 
1800	 0.577216248285082 
1801	 0.58090055610473 
1802	 0.581070933598647 
1803	 0.5812283708386 
1804	 0.581415978074394 
1805	 0.581655256835161 
1806	 0.581818647873858 
1807	 0.581949236089106 
1808	 0.58208107560214 
1809	 0.582198295057411 
1810	 0.582295245425825 
1811	 0.58238077398595 
1812	 0.582460734160569 
1813	 0.582500069604773 
1814	 0.582548659833041 
1815	 0.582632627780693 
1816	 0.582761031081213 
1817	 0.582890410429464 
1818	 0.583025943729347 
1819	 0.583197554407985 
1820	 0.583398477613236 
1821	 0.583604713378072 
1822	 0.583865035778123 
1823	 0.584113622510545 
1824	 0.584289816195535 
1825	 0.584475711135454 
1826	 0.584608551326988 
1827	 0.584653333591354 
1828	 0.584789487142263 
1829	 0.584902246027378 
1830	 0.585073323517505 
1831	 0.585275659614859 
1832	 0.585548357867116 
1833	 0.585849439983485 
1834	 0.586088815170146 
1835	 0.586354270012722 
1836	 0.586631660625957 
1837	 0.586894770998569 
1838	 0.587138335419558 
1839	 0.5874297173626 
1840	 0.587723623038427 
1841	 0.588031553783335 
1842	 0.588375679420284 
1843	 0.588716741118421 
1844	 0.589025351794267 
1845	 0.589377539248097 
1846	 0.589719002647499 
1847	 0.589933084429002 
1848	 0.590076599050487 
1849	 0.590146833607464 
1850	 0.590191109336666 
1851	 0.590098392090127 
1852	 0.590094308737614 
1853	 0.590173552434866 
1854	 0.590164490179325 
1855	 0.590195426156767 
1856	 0.590235846864754 
1857	 0.590269392457738 
1858	 0.590311183937646 
1859	 0.590312376889615 
1860	 0.590315657912982 
1861	 0.590302500781987 
1862	 0.59028685525029 
1863	 0.590153080497843 
1864	 0.59006259785785 
1865	 0.589959077467712 
1866	 0.589693297739609 
1867	 0.589411010283337 
1868	 0.589045803071967 
1869	 0.588544189507406 
1870	 0.588082989314346 
1871	 0.587581354726534 
1872	 0.587115307061047 
1873	 0.5866873739479 
1874	 0.586215996986038 
1875	 0.585732224845942 
1876	 0.585155195501879 
1877	 0.584515873278088 
1878	 0.583794503568065 
1879	 0.582893854696484 
1880	 0.581956898938725 
1881	 0.580919646139153 
1882	 0.579740861840071 
1883	 0.57853104822149 
1884	 0.577372462326489 
1885	 0.576021973637292 
1886	 0.57458455025317 
1887	 0.573080301948728 
1888	 0.571367116650747 
1889	 0.569649209132236 
1890	 0.567938849396669 
1891	 0.566258476666897 
1892	 0.564572353664642 
1893	 0.562804866644894 
1894	 0.560980057370173 
1895	 0.559221386252887 
1896	 0.557321300088 
1897	 0.55533360637369 
1898	 0.553494312871241 
1899	 0.551539579516543 
1900	 0.549660247846566 
1901	 0.547962346110723 
1902	 0.546264726786665 
1903	 0.544723428545185 
1904	 0.543284010657836 
1905	 0.541946679927414 
1906	 0.540703632415832 
1907	 0.539559794143332 
1908	 0.538460218647601 
1909	 0.537413402577443 
1910	 0.536353957390084 
1911	 0.535254626735819 
1912	 0.534214965953343 
1913	 0.533199701637478 
1914	 0.532132932093423 
1915	 0.531172852742102 
1916	 0.530312177344519 
1917	 0.529452338266565 
1918	 0.528612402650512 
1919	 0.527929748067313 
1920	 0.527263375975065 
1921	 0.526668628633347 
1922	 0.52605369317317 
1923	 0.525411245696773 
1924	 0.524795629100991 
1925	 0.524111993944071 
1926	 0.523458212989607 
1927	 0.522807764574408 
1928	 0.522170059414052 
1929	 0.521505793058615 
1930	 0.520917029757482 
1931	 0.520381654274908 
1932	 0.51996048935235 
1933	 0.519594471711457 
1934	 0.519321067842758 
1935	 0.519170009979808 
1936	 0.519043228808892 
1937	 0.518965654230052 
1938	 0.518969290486451 
1939	 0.519014306838535 
1940	 0.51909323406259 
1941	 0.519242938847128 
1942	 0.519381466397352 
1943	 0.51956099134216 
1944	 0.519758473252382 
1945	 0.519868242613634 
1946	 0.520014675467868 
1947	 0.520145175160291 
1948	 0.520197822650719 
1949	 0.520283334704764 
1950	 0.520398098804429 
1951	 0.5205594706467 
1952	 0.520688083130489 
1953	 0.520823950994925 
1954	 0.520932841373172 
1955	 0.521095573600392 
1956	 0.521294879717334 
1957	 0.521496232493377 
1958	 0.521850192557867 
1959	 0.522241951312149 
1960	 0.522562207294153 
1961	 0.522857783850395 
1962	 0.523197304415936 
1963	 0.523441077683906 
1964	 0.523554532839982 
1965	 0.523737862425439 
1966	 0.523932658276531 
1967	 0.524096338000609 
1968	 0.524301618962759 
1969	 0.5245396384233 
1970	 0.52473424099833 
1971	 0.52494695670241 
1972	 0.525116757938129 
1973	 0.5252168156363 
1974	 0.525351448961602 
1975	 0.525491224351457 
1976	 0.525628357830696 
1977	 0.525761488160368 
1978	 0.525900118248203 
1979	 0.52606453539535 
1980	 0.526189404282637 
1981	 0.526234806968279 
1982	 0.526299961836583 
1983	 0.526409975377833 
1984	 0.52636830658653 
1985	 0.526319465978191 
1986	 0.526354335192956 
1987	 0.526300630914566 
1988	 0.526177846923479 
1989	 0.526046117264164 
1990	 0.52586019332233 
1991	 0.525696737936085 
1992	 0.52551075794913 
1993	 0.525315884283682 
1994	 0.525136992132086 
1995	 0.525000631599881 
1996	 0.524907762050633 
1997	 0.524884868117635 
1998	 0.524852080291936 
1999	 0.524914147647758 
2000	 0.524893527052542 
2001	 0.524832026205292 
2002	 0.524758920603488 
2003	 0.52466579809695 
2004	 0.524588512319157 
2005	 0.524450728503041 
2006	 0.52438902376027 
2007	 0.52438846934492 
2008	 0.524392405807918 
2009	 0.524347641127521 
2010	 0.524335070841846 
2011	 0.524283285197559 
2012	 0.524169570991905 
2013	 0.524142244357111 
2014	 0.524186230943424 
2015	 0.524183342744775 
2016	 0.524248538676805 
2017	 0.524205782397623 
2018	 0.524096383261685 
2019	 0.523966794548005 
2020	 0.523767462423094 
2021	 0.523564562559353 
2022	 0.523387019903877 
2023	 0.523183103183034 
2024	 0.522971667575035 
2025	 0.522751730531804 
2026	 0.522548690063945 
2027	 0.522337739642091 
2028	 0.522135689887375 
2029	 0.521959305911185 
2030	 0.521765550133751 
2031	 0.521571131343993 
2032	 0.52136257637339 
2033	 0.521144753832714 
2034	 0.520916895283624 
2035	 0.520674802717564 
2036	 0.520415636500535 
2037	 0.52015514838786 
2038	 0.519926771693071 
2039	 0.51970914467133 
2040	 0.519494047677607 
2041	 0.519306267720544 
2042	 0.519160967746703 
2043	 0.518995731657903 
2044	 0.518838078241128 
2045	 0.518680890098926 
2046	 0.518518995838866 
2047	 0.518356038706602 
2048	 0.518190151760192 
2049	 0.518042709281114 
2050	 0.517912266687611 
2051	 0.517749887408597 
2052	 0.517616560236417 
2053	 0.517538612966486 
2054	 0.517454293815856 
2055	 0.517361850972869 
2056	 0.517327353168592 
2057	 0.517337069330855 
2058	 0.517339363265108 
2059	 0.517412530358063 
2060	 0.517427906525037 
2061	 0.517434217692757 
2062	 0.517391371841988 
2063	 0.517284159015711 
2064	 0.517196054451863 
2065	 0.517057109065107 
2066	 0.516962178991783 
2067	 0.516919014459748 
2068	 0.516940542004578 
2069	 0.516978411873068 
2070	 0.517088873694841 
2071	 0.51717719102705 
2072	 0.51729317095105 
2073	 0.51736140695246 
2074	 0.517465925154404 
2075	 0.517471248387385 
2076	 0.517433285200442 
2077	 0.517334399778091 
2078	 0.517132417063294 
2079	 0.516934855125666 
2080	 0.516633837854152 
2081	 0.516424572759145 
2082	 0.516247831810185 
2083	 0.51609413122201 
2084	 0.515948724798662 
2085	 0.515845734736175 
2086	 0.515724317953992 
2087	 0.515571237385603 
2088	 0.515478223192554 
2089	 0.515434305376832 
2090	 0.515361072750173 
2091	 0.515266548731041 
2092	 0.515241046134775 
2093	 0.515257429741309 
2094	 0.515255907211276 
2095	 0.515362985461527 
2096	 0.515352808151204 
2097	 0.515294254978071 
2098	 0.515168908129957 
2099	 0.514986903884042 
2100	 0.514716678630017 
2101	 0.514477115729746 
2102	 0.51420759158956 
2103	 0.513910054443357 
2104	 0.513574617932205 
2105	 0.513298249537319 
2106	 0.513013002373875 
2107	 0.512721182754158 
2108	 0.512493969160182 
2109	 0.512198038953458 
2110	 0.511835527556572 
2111	 0.511484408655895 
2112	 0.511120580836667 
2113	 0.51076978527233 
2114	 0.510425150318422 
2115	 0.510060683788822 
2116	 0.509719024202366 
2117	 0.509310414872853 
2118	 0.508921301320758 
2119	 0.50851065279944 
2120	 0.508094025458251 
2121	 0.507666745305707 
2122	 0.507259642650053 
2123	 0.506809019815263 
2124	 0.506445161823156 
2125	 0.506126460962183 
2126	 0.505841472340653 
2127	 0.505558766037628 
2128	 0.505388708709725 
2129	 0.505307185688174 
2130	 0.505246791234694 
2131	 0.505341305005102 
2132	 0.505350940263227 
2133	 0.50542211922815 
2134	 0.505348648258872 
2135	 0.50516381856478 
2136	 0.504920060174874 
2137	 0.504620470372827 
2138	 0.504158366560056 
2139	 0.503806158007739 
2140	 0.503424075684131 
2141	 0.503143602972468 
2142	 0.502874416107657 
2143	 0.502724343418163 
2144	 0.502688737565902 
2145	 0.502666148975308 
2146	 0.502756234490235 
2147	 0.502797372696848 
2148	 0.502948051667529 
2149	 0.502917478144392 
2150	 0.502745472251252 
2151	 0.502616902952015 
2152	 0.502375897331378 
2153	 0.50217306022692 
2154	 0.502046470874617 
2155	 0.502023347585572 
2156	 0.501970735548322 
2157	 0.501974669796243 
2158	 0.501869086393207 
2159	 0.50174592702132 
2160	 0.501609124506029 
2161	 0.501422736507028 
2162	 0.501199496898434 
2163	 0.500951347252356 
2164	 0.50069977936947 
2165	 0.500384466753328 
2166	 0.500104017307198 
2167	 0.499875448468499 
2168	 0.49958952152321 
2169	 0.499261750852544 
2170	 0.498922325284907 
2171	 0.498535316116974 
2172	 0.4981893727456 
2173	 0.497837132692401 
2174	 0.497500791705588 
2175	 0.497203183556541 
2176	 0.49699484328114 
2177	 0.496800540209389 
2178	 0.496663041836583 
2179	 0.496525650326049 
2180	 0.496416051307735 
2181	 0.496313234715619 
2182	 0.496234900464795 
2183	 0.496135341871092 
2184	 0.496081148753379 
2185	 0.495946714909172 
2186	 0.495777654696422 
2187	 0.49558292127189 
2188	 0.495316216686112 
2189	 0.495076837893184 
2190	 0.494848662592006 
2191	 0.494576586990895 
2192	 0.494305769669139 
2193	 0.493992382178902 
2194	 0.493547340717552 
2195	 0.493211400795069 
2196	 0.492913592696074 
2197	 0.492609012913188 
2198	 0.492373516614471 
2199	 0.4923089893597 
2200	 0.492155401103118 
2201	 0.492013264039606 
2202	 0.491889166445384 
2203	 0.491805193682229 
2204	 0.491617515073296 
2205	 0.49141958229273 
2206	 0.491174297462697 
2207	 0.490853069169431 
2208	 0.490496374309691 
2209	 0.490106502627431 
2210	 0.489713001271323 
2211	 0.489200228622432 
2212	 0.488821662257889 
2213	 0.48854232851404 
2214	 0.488211722536541 
2215	 0.487977260520273 
2216	 0.48760024539496 
2217	 0.48715966610421 
2218	 0.486652714862514 
2219	 0.486014822679546 
2220	 0.485394174213581 
2221	 0.484751620728356 
2222	 0.48404459490648 
2223	 0.483346750084325 
2224	 0.482681769149375 
2225	 0.482041501365042 
2226	 0.481341851336199 
2227	 0.480505910118864 
2228	 0.479621804125913 
2229	 0.478637149724475 
2230	 0.477480371132349 
2231	 0.476364458193989 
2232	 0.47522535446996 
2233	 0.474014451381035 
2234	 0.472837677708412 
2235	 0.471406103668434 
2236	 0.469863348145728 
2237	 0.468182077827338 
2238	 0.466200939013767 
2239	 0.464301108500134 
2240	 0.462357500323441 
2241	 0.460364348568319 
2242	 0.458400244006803 
2243	 0.456288664004603 
2244	 0.454102926470646 
2245	 0.451791679697785 
2246	 0.449256163160414 
2247	 0.446760779761043 
2248	 0.444214092747023 
2249	 0.441610891881012 
2250	 0.438913589433107 
2251	 0.436384679907342 
2252	 0.433556803800822 
2253	 0.43078061352817 
2254	 0.428175036990632 
2255	 0.425522236689139 
2256	 0.423100254996467 
2257	 0.420703297688979 
2258	 0.418324851872288 
2259	 0.415965459982534 
2260	 0.413639323204152 
2261	 0.411364318938688 
2262	 0.409133974032607 
2263	 0.406856565580286 
2264	 0.404772220661209 
2265	 0.402809760527101 
2266	 0.400882084677966 
2267	 0.399134408511231 
2268	 0.397311324954814 
2269	 0.395507943122702 
2270	 0.393707369186985 
2271	 0.39181586346971 
2272	 0.390090047402521 
2273	 0.388474083020569 
2274	 0.386832771082805 
2275	 0.385363729483312 
2276	 0.383760431657658 
2277	 0.382065353399021 
2278	 0.380392012709106 
2279	 0.378673554127442 
2280	 0.376933635975445 
2281	 0.375267640283094 
2282	 0.37344197854981 
2283	 0.371529664918552 
2284	 0.369581732809903 
2285	 0.367342626333036 
2286	 0.365132347287863 
2287	 0.362836382021568 
2288	 0.36043456536133 
2289	 0.35831663113179 
2290	 0.355922625685982 
2291	 0.353408110092479 
2292	 0.350943272442286 
2293	 0.348195291426605 
2294	 0.345537356406384 
2295	 0.342958130116682 
2296	 0.340368905377805 
2297	 0.338083048878398 
2298	 0.335960344990035 
2299	 0.334010876749201 
2300	 0.332304521598561 
2301	 0.330740532140665 
2302	 0.329268984596548 
2303	 0.328136532042601 
2304	 0.327220199758873 
2305	 0.326638386083332 
2306	 0.32641550329457 
2307	 0.326337520004273 
2308	 0.326594276760011 
2309	 0.326904826806046 
2310	 0.327361683637081 
2311	 0.328017552061568 
2312	 0.328921096227548 
2313	 0.329899733460912 
2314	 0.331129287402799 
2315	 0.332272937011719 
2316	 0.333530843113347 
2317	 0.334637609229795 
2318	 0.335850581938513 
2319	 0.336709789946954 
2320	 0.337346561193683 
2321	 0.337841815101058 
2322	 0.338011423776982 
2323	 0.338182930256135 
2324	 0.338144888774045 
2325	 0.338254429892552 
2326	 0.338397934501503 
2327	 0.338503835778438 
2328	 0.338770442069817 
2329	 0.338836739395798 
2330	 0.338766309846036 
2331	 0.338554378120816 
2332	 0.338400556793737 
2333	 0.338129936279275 
2334	 0.33774845914559 
2335	 0.337252180044938 
2336	 0.336572861213228 
2337	 0.335943701138199 
2338	 0.335455240741474 
2339	 0.33499886227435 
2340	 0.334570288396029 
2341	 0.334187525474884 
2342	 0.333668919676167 
2343	 0.332994588416638 
2344	 0.332560384143911 
2345	 0.332406717685318 
2346	 0.332523040340443 
2347	 0.333183107055839 
2348	 0.333988488062941 
2349	 0.334917102787154 
2350	 0.336222983871856 
2351	 0.337699062627831 
2352	 0.339414340256776 
2353	 0.341283834993263 
2354	 0.342885306029699 
2355	 0.34429818052493 
2356	 0.34554426082165 
2357	 0.34657886905299 
2358	 0.347658175654784 
2359	 0.348686993449191 
2360	 0.349570923389354 
2361	 0.350328711286834 
2362	 0.350880578622656 
2363	 0.351237863060048 
2364	 0.351531125152336 
2365	 0.35165817682856 
2366	 0.351700274695662 
2367	 0.351699871409545 
2368	 0.351554717470369 
2369	 0.351454915885029 
2370	 0.351441493521698 
2371	 0.351490341631932 
2372	 0.351608319799202 
2373	 0.351824345304931 
2374	 0.352009071755117 
2375	 0.352065757405408 
2376	 0.352175680809164 
2377	 0.352367380188032 
2378	 0.352503706693027 
2379	 0.352803515175076 
2380	 0.353177761159784 
2381	 0.353221149726834 
2382	 0.35322851747182 
2383	 0.353014433597645 
2384	 0.353090160862552 
2385	 0.353116953266251 
2386	 0.353364565209361 
2387	 0.353999369129314 
2388	 0.354271247783249 
2389	 0.354501853863529 
2390	 0.35475332590208 
2391	 0.354848627046142 
2392	 0.355022671401066 
2393	 0.355249687824387 
2394	 0.35531861436176 
2395	 0.355340441179829 
2396	 0.355341299581936 
2397	 0.355204947015225 
2398	 0.355239298410933 
2399	 0.355312300194739 
2400	 0.35532790617066 
2401	 0.355375643125707 
2402	 0.355495819215645 
2403	 0.355721098281142 
2404	 0.355796887748743 
2405	 0.355871531796377 
2406	 0.355590902533976 
2407	 0.355021659981015 
2408	 0.35494265771246 
2409	 0.355060339561144 
2410	 0.355242302075988 
2411	 0.355468559589228 
2412	 0.355558334239076 
2413	 0.355446394421522 
2414	 0.355060846138884 
2415	 0.354873267299066 
2416	 0.354691979129739 
2417	 0.35428299718837 
2418	 0.354053739899832 
2419	 0.35395633244182 
2420	 0.353963838296032 
2421	 0.353990601131891 
2422	 0.354015275818559 
2423	 0.354119790974774 
2424	 0.353997984385192 
2425	 0.353698759969807 
2426	 0.353447408282043 
2427	 0.353270314254758 
2428	 0.353448706242916 
2429	 0.353987111636535 
2430	 0.354163632910748 
2431	 0.354154355059205 
2432	 0.354105868522842 
2433	 0.353479783183799 
2434	 0.353066384631562 
2435	 0.353048667693283 
2436	 0.352814637047725 
2437	 0.352435051704693 
2438	 0.352150383586787 
2439	 0.351919569233438 
2440	 0.351369674451021 
2441	 0.35113914232133 
2442	 0.351203424096756 
2443	 0.350616737536044 
2444	 0.350089924977117 
2445	 0.349942671133621 
2446	 0.349448968362983 
2447	 0.349002460033428 
2448	 0.348981102515159 
2449	 0.348823707708375 
2450	 0.348607352386777 
2451	 0.348704707181086 
2452	 0.348797239090342 
2453	 0.348598032717085 
2454	 0.348401878795646 
2455	 0.34834359725516 
2456	 0.347808072924024 
2457	 0.347131492202488 
2458	 0.346774482044082 
2459	 0.346280034117709 
2460	 0.346136819369519 
2461	 0.34633307116059 
2462	 0.346149103352964 
2463	 0.346006513836529 
2464	 0.345858055057605 
2465	 0.345176413165367 
2466	 0.344508043051922 
2467	 0.343912328655091 
2468	 0.343180434435167 
2469	 0.343015147755808 
2470	 0.342918204682677 
2471	 0.342926148766418 
2472	 0.343691443539318 
2473	 0.344113821679733 
2474	 0.344511283165219 
2475	 0.344777214868315 
2476	 0.344362746824065 
2477	 0.344054178908062 
2478	 0.343621899364594 
2479	 0.343792203213245 
2480	 0.34428669161142 
2481	 0.344109856427061 
2482	 0.343768883732169 
2483	 0.342814112119833 
2484	 0.342197917565739 
2485	 0.341891148836375 
2486	 0.343049008489893 
2487	 0.344482563717318 
2488	 0.345175937945862 
2489	 0.34610283704715 
2490	 0.346178513704721 
2491	 0.345641041056173 
2492	 0.34622355660683 
2493	 0.347122277269332 
2494	 0.347847516651919 
2495	 0.348782998492981 
2496	 0.349798066430669 
2497	 0.350407849520459 
2498	 0.350204715275652 
2499	 0.349877522758971 
2500	 0.349157445817608 
