Wavelength	spectrum00016.asd
350	 8.20211804425033E-02 
351	 7.41625019753369E-02 
352	 6.39608918186706E-02 
353	 6.03233923847464E-02 
354	 6.30578170874151E-02 
355	 0.0615333377004 
356	 5.92612110525544E-02 
357	 5.97463721811893E-02 
358	 5.63417323358286E-02 
359	 5.56000840590833E-02 
360	 5.59735151095546E-02 
361	 5.27111729895134E-02 
362	 5.02872423368694E-02 
363	 4.98566813261415E-02 
364	 5.05771747351015E-02 
365	 4.96226054747948E-02 
366	 4.61596533279167E-02 
367	 4.43547483413825E-02 
368	 4.67009370080482E-02 
369	 4.65381835422093E-02 
370	 4.57604912938999E-02 
371	 4.54231353076571E-02 
372	 4.58567119048745E-02 
373	 0.045479010707949 
374	 4.43733031558096E-02 
375	 4.34159042258758E-02 
376	 4.43096687728441E-02 
377	 4.40664677810199E-02 
378	 4.47402314054322E-02 
379	 4.72615156959744E-02 
380	 4.36562068493924E-02 
381	 4.33607718948978E-02 
382	 4.61166423978429E-02 
383	 4.59372785348351E-02 
384	 4.46771824219506E-02 
385	 4.41660580299098E-02 
386	 4.46683299659186E-02 
387	 4.41072618534475E-02 
388	 4.33661519458875E-02 
389	 4.33073917176589E-02 
390	 4.41444478473056E-02 
391	 4.37356655975627E-02 
392	 4.35120501087444E-02 
393	 4.36872484037633E-02 
394	 4.36076126137611E-02 
395	 4.29155375307788E-02 
396	 4.30756035795928E-02 
397	 4.43283909059098E-02 
398	 4.45588598235679E-02 
399	 4.53530592004364E-02 
400	 4.62405344711374E-02 
401	 4.64066538198014E-02 
402	 4.60561485751301E-02 
403	 4.56765630871436E-02 
404	 0.045911243613828 
405	 4.73167082778021E-02 
406	 4.82043650940112E-02 
407	 4.84799065666525E-02 
408	 0.048464371962005 
409	 4.86437155109242E-02 
410	 4.96197911925842E-02 
411	 5.09034525973769E-02 
412	 5.17259665035232E-02 
413	 5.20114254637499E-02 
414	 5.23490176969864E-02 
415	 5.33585045565246E-02 
416	 5.55229206370587E-02 
417	 5.64978703793629E-02 
418	 5.72034929601274E-02 
419	 0.05853221675509 
420	 5.99662614034635E-02 
421	 6.08351874327221E-02 
422	 6.18171440169131E-02 
423	 6.37795257840572E-02 
424	 6.48475222582768E-02 
425	 6.62700667487646E-02 
426	 6.84113157959522E-02 
427	 7.03794774185284E-02 
428	 0.072379609416799 
429	 7.42402101259908E-02 
430	 0.075986801045845 
431	 7.84612407213439E-02 
432	 8.07578895736109E-02 
433	 8.27944787884054E-02 
434	 8.49644294789176E-02 
435	 8.73037452424625E-02 
436	 8.98336313206045E-02 
437	 9.25074188200661E-02 
438	 9.51961898003759E-02 
439	 0.097812581924799 
440	 0.100550480284588 
441	 0.103576476200867 
442	 0.106638021160004 
443	 0.109518350296909 
444	 0.112321797106192 
445	 0.115402302450744 
446	 0.118767488683598 
447	 0.122133275871374 
448	 0.12540136999411 
449	 0.129019171854585 
450	 0.132448060417156 
451	 0.135896397200397 
452	 0.139725373260435 
453	 0.143389522226422 
454	 0.146975866994436 
455	 0.150630520061235 
456	 0.154520058001351 
457	 0.158421648400497 
458	 0.162372357524018 
459	 0.166405679683114 
460	 0.170343456544468 
461	 0.174384357813451 
462	 0.178536904098891 
463	 0.182717562723538 
464	 0.186956302998372 
465	 0.191237981174303 
466	 0.195532805414649 
467	 0.199778723216275 
468	 0.204180060417893 
469	 0.208551030723351 
470	 0.212741333919092 
471	 0.217240660468386 
472	 0.221803602567404 
473	 0.226351329563658 
474	 0.230967406553456 
475	 0.235728951170356 
476	 0.240507830794213 
477	 0.245202271845701 
478	 0.249783039050843 
479	 0.254614083672153 
480	 0.259581023337248 
481	 0.264431706746077 
482	 0.269383640719918 
483	 0.274383872265486 
484	 0.27934393692455 
485	 0.284159013713546 
486	 0.289250065508889 
487	 0.294403025988757 
488	 0.299405971922093 
489	 0.304583595428635 
490	 0.309676189498441 
491	 0.314792919638997 
492	 0.320205073032886 
493	 0.325418631594769 
494	 0.330596551158508 
495	 0.335803661539713 
496	 0.340777175243677 
497	 0.346021723776785 
498	 0.35133763585803 
499	 0.356437806856766 
500	 0.3617936012954 
501	 0.367134606395527 
502	 0.372303611501935 
503	 0.377286843375402 
504	 0.382257557350717 
505	 0.387373722682589 
506	 0.39263151712525 
507	 0.397691616585468 
508	 0.40264842044426 
509	 0.407578906440783 
510	 0.412509905416287 
511	 0.417146145302063 
512	 0.421827352569562 
513	 0.426704983141654 
514	 0.431644006141654 
515	 0.436071893589682 
516	 0.440317589930922 
517	 0.444781530650313 
518	 0.449194472370002 
519	 0.453471928768728 
520	 0.457611041039039 
521	 0.461661925317929 
522	 0.465662402030736 
523	 0.469660445882966 
524	 0.473622812278314 
525	 0.477387651140555 
526	 0.480880468338778 
527	 0.484310166467715 
528	 0.487914379881065 
529	 0.491464681733803 
530	 0.494695297209934 
531	 0.497673894639708 
532	 0.500798739919664 
533	 0.503654402944285 
534	 0.506390102269688 
535	 0.509185517247934 
536	 0.511945785074923 
537	 0.514632334444659 
538	 0.517194247512999 
539	 0.519586457977725 
540	 0.521820121851762 
541	 0.523988462161135 
542	 0.526090421980798 
543	 0.527945018524355 
544	 0.529986108249942 
545	 0.53193856962065 
546	 0.533462660678814 
547	 0.534995427099134 
548	 0.536485621210298 
549	 0.538011857878043 
550	 0.539758702059155 
551	 0.541435342479375 
552	 0.542973241692644 
553	 0.544349555439544 
554	 0.545528318244573 
555	 0.546478865277396 
556	 0.547229177201061 
557	 0.547885107117777 
558	 0.548821993412419 
559	 0.549909583060593 
560	 0.550995261497749 
561	 0.551976781445312 
562	 0.552995080058051 
563	 0.553492074370643 
564	 0.553121209430339 
565	 0.553005755366959 
566	 0.552705163992536 
567	 0.552025313423269 
568	 0.551075789738611 
569	 0.550904194833895 
570	 0.551984978705669 
571	 0.554287471442641 
572	 0.557043477550639 
573	 0.560466274691138 
574	 0.564215302575746 
575	 0.567473234000334 
576	 0.568116797815554 
577	 0.566706842353488 
578	 0.564209950316534 
579	 0.561780922908386 
580	 0.560180111994388 
581	 0.559757187798045 
582	 0.560603824334726 
583	 0.562776489180543 
584	 0.564795310677868 
585	 0.566580021290754 
586	 0.568803714717947 
587	 0.570296680299002 
588	 0.571175942763033 
589	 0.57180578316862 
590	 0.572582086306588 
591	 0.57468711902754 
592	 0.577321824552188 
593	 0.579219059222756 
594	 0.580375076202576 
595	 0.580738994894745 
596	 0.580062449835686 
597	 0.578017971216577 
598	 0.575771017145482 
599	 0.574492184613127 
600	 0.574667254142647 
601	 0.575422969024638 
602	 0.576264581688267 
603	 0.577396004634584 
604	 0.579188993336996 
605	 0.580676250758297 
606	 0.581688135577407 
607	 0.58240116949719 
608	 0.583311445671322 
609	 0.583990149950233 
610	 0.584486069203289 
611	 0.584978572609748 
612	 0.585668035937627 
613	 0.58631511721108 
614	 0.58686152895234 
615	 0.587372008596293 
616	 0.587783149858754 
617	 0.588246845402641 
618	 0.588790948530505 
619	 0.589175733391863 
620	 0.589587705340031 
621	 0.590126264778377 
622	 0.590771438684417 
623	 0.591088568127711 
624	 0.591479344490665 
625	 0.592013231158302 
626	 0.592428037902118 
627	 0.592963787075772 
628	 0.593420609366669 
629	 0.593718605595595 
630	 0.59430416877287 
631	 0.594671379528218 
632	 0.594978681451769 
633	 0.595592452854185 
634	 0.596092630967398 
635	 0.596605560098051 
636	 0.597114795209421 
637	 0.597375080712183 
638	 0.597696387255555 
639	 0.598133967687617 
640	 0.598632316316777 
641	 0.599004820699814 
642	 0.59942132307872 
643	 0.59985488888262 
644	 0.600195786218951 
645	 0.600796304616538 
646	 0.601314803826596 
647	 0.601557821255681 
648	 0.601685024827348 
649	 0.602240765451818 
650	 0.602929016479879 
651	 0.603326534994878 
652	 0.6037605628971 
653	 0.603951958684213 
654	 0.604107355497533 
655	 0.604764797472888 
656	 0.605225602071273 
657	 0.60555235813378 
658	 0.605862201140583 
659	 0.606087365532173 
660	 0.606553942610781 
661	 0.607025505379854 
662	 0.607188265583163 
663	 0.607569421115304 
664	 0.60801721666714 
665	 0.60836055579049 
666	 0.608476861782913 
667	 0.608905806480893 
668	 0.60945214111082 
669	 0.609837048933179 
670	 0.609953864297849 
671	 0.610102864242555 
672	 0.610438333598708 
673	 0.610968910214022 
674	 0.611293135896143 
675	 0.611589112839345 
676	 0.611889523853412 
677	 0.611997071503737 
678	 0.61251705442813 
679	 0.613110441212096 
680	 0.613375071278686 
681	 0.613387954381934 
682	 0.613710588525951 
683	 0.614171703296283 
684	 0.614269888101187 
685	 0.61443991735969 
686	 0.614920760543081 
687	 0.615544265347554 
688	 0.615620974921189 
689	 0.615704499410631 
690	 0.615941965565657 
691	 0.616296221389132 
692	 0.616481520312994 
693	 0.616727264317547 
694	 0.617121166620212 
695	 0.617606776166294 
696	 0.617761520790315 
697	 0.617839293464353 
698	 0.618044004537682 
699	 0.618359701719158 
700	 0.618845058265445 
701	 0.619311906024677 
702	 0.61955083951743 
703	 0.619511184459738 
704	 0.619699446990231 
705	 0.620122671443993 
706	 0.620443180829401 
707	 0.620779258211511 
708	 0.620891932094332 
709	 0.620870600972603 
710	 0.621423245183224 
711	 0.621806560166869 
712	 0.621919262184433 
713	 0.621965476422686 
714	 0.622524637294335 
715	 0.62299320825681 
716	 0.623210796422547 
717	 0.623362030793707 
718	 0.62339938707335 
719	 0.623528746054917 
720	 0.623800542412952 
721	 0.623949888231064 
722	 0.624286551012753 
723	 0.624596551461051 
724	 0.624675184398218 
725	 0.625021394241364 
726	 0.625172317661379 
727	 0.625168122380383 
728	 0.625386019382649 
729	 0.625603635030684 
730	 0.625827406223581 
731	 0.626078277066372 
732	 0.626359052874365 
733	 0.626582907191285 
734	 0.626623758496012 
735	 0.626475698592746 
736	 0.626540964680387 
737	 0.626942534737913 
738	 0.627421651488274 
739	 0.627536829028698 
740	 0.627682642919682 
741	 0.627731602094719 
742	 0.627693692094274 
743	 0.627864032939291 
744	 0.628307972025672 
745	 0.62864918716169 
746	 0.628598320314508 
747	 0.628546626539439 
748	 0.62871759412335 
749	 0.629058750485149 
750	 0.629360349827968 
751	 0.629706653103777 
752	 0.629729849299326 
753	 0.629441097250046 
754	 0.629374966467455 
755	 0.629954092878843 
756	 0.630474995059144 
757	 0.630367205071818 
758	 0.630183924255125 
759	 0.630388110444333 
760	 0.630734234630961 
761	 0.630745703534915 
762	 0.630978148839942 
763	 0.631205265818487 
764	 0.63125861271352 
765	 0.631121318521169 
766	 0.631302430250445 
767	 0.631568920246488 
768	 0.631679851645639 
769	 0.631719158820468 
770	 0.631844085044611 
771	 0.631924196425079 
772	 0.631832055990343 
773	 0.63201920971882 
774	 0.632222573826164 
775	 0.632450433584573 
776	 0.632891474850202 
777	 0.632831300001744 
778	 0.632760783300875 
779	 0.632972208600443 
780	 0.633117354642918 
781	 0.633326350831928 
782	 0.633490223407506 
783	 0.633496492650341 
784	 0.633433735716833 
785	 0.633340116957046 
786	 0.633249457464398 
787	 0.633278473911577 
788	 0.634263073655837 
789	 0.634689609363413 
790	 0.634206184112743 
791	 0.634071217719471 
792	 0.634183751530914 
793	 0.634436436001302 
794	 0.634664034292246 
795	 0.634634610222564 
796	 0.634580508032274 
797	 0.634602919244171 
798	 0.634691709977994 
799	 0.634537447762396 
800	 0.634604269961324 
801	 0.634939677806807 
802	 0.635214136012351 
803	 0.63503302324827 
804	 0.63494660883808 
805	 0.635192960132516 
806	 0.635353312184984 
807	 0.635237731520373 
808	 0.635023937540715 
809	 0.634983203683809 
810	 0.635376679626756 
811	 0.63542986655034 
812	 0.635327717265962 
813	 0.635578605585275 
814	 0.63578825465872 
815	 0.635845120488263 
816	 0.635780782076836 
817	 0.635727612109958 
818	 0.635510140536477 
819	 0.63552480007645 
820	 0.635877229770921 
821	 0.636083435488412 
822	 0.635925878923541 
823	 0.635807287355311 
824	 0.636046834287782 
825	 0.6361332358721 
826	 0.636222448327821 
827	 0.636451028120142 
828	 0.636781009110445 
829	 0.63621378523491 
830	 0.636089061279915 
831	 0.636514783928909 
832	 0.636481152512924 
833	 0.636635908992742 
834	 0.63677705720668 
835	 0.636827671926495 
836	 0.637073611881544 
837	 0.637221149546058 
838	 0.637260167873826 
839	 0.637219756918418 
840	 0.636990475146609 
841	 0.636970031560943 
842	 0.637093486537564 
843	 0.637145005023706 
844	 0.637227139773716 
845	 0.637480051349026 
846	 0.637468865073383 
847	 0.63659499952516 
848	 0.63651092435032 
849	 0.636896482256988 
850	 0.63721244286403 
851	 0.637007491530386 
852	 0.636716040737568 
853	 0.636583216700058 
854	 0.636713101636563 
855	 0.637037700720925 
856	 0.636978260670921 
857	 0.636762698034304 
858	 0.636741986666104 
859	 0.636643583471162 
860	 0.636628421576556 
861	 0.636745693964907 
862	 0.636905483720664 
863	 0.63662634851359 
864	 0.63633245654038 
865	 0.636291488193775 
866	 0.636539196079168 
867	 0.636923679374639 
868	 0.637140594824884 
869	 0.637024684246282 
870	 0.636641385802194 
871	 0.636359509396519 
872	 0.636563001811784 
873	 0.637068110953556 
874	 0.636458936200632 
875	 0.636665220698454 
876	 0.637071324883381 
877	 0.636781164838261 
878	 0.636917516624 
879	 0.637305341646827 
880	 0.637519471186475 
881	 0.637199290469726 
882	 0.637013424771159 
883	 0.636823323728844 
884	 0.636785440447218 
885	 0.637159658292617 
886	 0.636904142065114 
887	 0.636683263429661 
888	 0.636726381922893 
889	 0.63656807511324 
890	 0.636660305562471 
891	 0.636869294013701 
892	 0.636992879712419 
893	 0.63690790906577 
894	 0.636790690036663 
895	 0.636613222589273 
896	 0.636406299628334 
897	 0.636492185905604 
898	 0.636583537078183 
899	 0.636468881472794 
900	 0.636101799592107 
901	 0.635895826339225 
902	 0.635721714907804 
903	 0.635679105165174 
904	 0.635874424054839 
905	 0.635865954429622 
906	 0.635867367234384 
907	 0.63569241889611 
908	 0.635023802837318 
909	 0.634908014600762 
910	 0.634914329880911 
911	 0.634752716546623 
912	 0.634466575674538 
913	 0.63432361734427 
914	 0.634395904770831 
915	 0.634449433781091 
916	 0.63394891784535 
917	 0.633589242049885 
918	 0.633460124523792 
919	 0.633535012457665 
920	 0.633816019051461 
921	 0.634431180482973 
922	 0.634671282122713 
923	 0.634152772236583 
924	 0.633788232244552 
925	 0.633675491176182 
926	 0.633922048536922 
927	 0.63428683841361 
928	 0.633494112804311 
929	 0.63316536455398 
930	 0.633453595421801 
931	 0.633913373294376 
932	 0.634686414228107 
933	 0.634926693678986 
934	 0.634659617501603 
935	 0.634437171241923 
936	 0.634555500297199 
937	 0.634858359471387 
938	 0.635088823438988 
939	 0.635078628349355 
940	 0.63557275477188 
941	 0.635639580306926 
942	 0.635269503790151 
943	 0.635309247189384 
944	 0.635683287936057 
945	 0.635864423599665 
946	 0.635829480848467 
947	 0.636079691525411 
948	 0.636048430843532 
949	 0.636239822049731 
950	 0.636647294707968 
951	 0.636515566714921 
952	 0.636497984594154 
953	 0.63650324570261 
954	 0.636381701055766 
955	 0.63611076314819 
956	 0.636015941742829 
957	 0.636210734778189 
958	 0.636436935933284 
959	 0.635961461110396 
960	 0.635604094944293 
961	 0.635384661927169 
962	 0.635097229357945 
963	 0.63448934244351 
964	 0.634622828976349 
965	 0.634897297062175 
966	 0.63476136593799 
967	 0.634819658088739 
968	 0.634652876505402 
969	 0.634493172257327 
970	 0.634540098707083 
971	 0.634467322252952 
972	 0.634163124669177 
973	 0.633871977486631 
974	 0.633735269820204 
975	 0.633251536052954 
976	 0.633095642336661 
977	 0.633222823616043 
978	 0.633334181290204 
979	 0.633159178176236 
980	 0.633053551793084 
981	 0.632775666373633 
982	 0.632157503530654 
983	 0.631795493126781 
984	 0.632533480560096 
985	 0.633301447042883 
986	 0.632951335124598 
987	 0.632492378181973 
988	 0.63234775796097 
989	 0.632305785715809 
990	 0.632102581571641 
991	 0.632310739324562 
992	 0.631909812723011 
993	 0.631482983221903 
994	 0.631730134837126 
995	 0.631616445865078 
996	 0.631806289478894 
997	 0.632141961568385 
998	 0.632245742193941 
999	 0.632072643700598 
1000	 0.63168782564407 
1001	 0.642528083897635 
1002	 0.642464607634408 
1003	 0.642525396641773 
1004	 0.642620628245014 
1005	 0.642760306171156 
1006	 0.642862746736441 
1007	 0.643075642418998 
1008	 0.643121124331916 
1009	 0.643034580882773 
1010	 0.643036935895166 
1011	 0.642922945402019 
1012	 0.643001148576047 
1013	 0.643263129860228 
1014	 0.643427455513569 
1015	 0.643655936983753 
1016	 0.643857814513193 
1017	 0.643925522555044 
1018	 0.643955079971965 
1019	 0.643916653830338 
1020	 0.643937791091625 
1021	 0.644007810626074 
1022	 0.64412610451599 
1023	 0.644162831813454 
1024	 0.644302374686574 
1025	 0.644262199566017 
1026	 0.644084213093072 
1027	 0.643947626082168 
1028	 0.643752314209317 
1029	 0.643503399173105 
1030	 0.643400814701646 
1031	 0.643277428942972 
1032	 0.64314049550213 
1033	 0.642988698657919 
1034	 0.642785466919733 
1035	 0.642579892147156 
1036	 0.642327623783171 
1037	 0.64202734199139 
1038	 0.641740257580528 
1039	 0.641432592010057 
1040	 0.641111337217158 
1041	 0.640817372965721 
1042	 0.640504595723493 
1043	 0.640154319501184 
1044	 0.639784438526014 
1045	 0.639487994218245 
1046	 0.639168396325938 
1047	 0.638822912829078 
1048	 0.638431608824123 
1049	 0.638084572491433 
1050	 0.637748742177556 
1051	 0.637415261364843 
1052	 0.637166680000014 
1053	 0.636875013028597 
1054	 0.636469953638724 
1055	 0.636222858087899 
1056	 0.636041486314914 
1057	 0.635893386640734 
1058	 0.635830999834954 
1059	 0.635790899618473 
1060	 0.635671600315985 
1061	 0.635652288985291 
1062	 0.635682947641728 
1063	 0.635736611960057 
1064	 0.635989002310403 
1065	 0.636264428141502 
1066	 0.636489476217526 
1067	 0.636852056381907 
1068	 0.637267277699002 
1069	 0.637650309114928 
1070	 0.638133788305001 
1071	 0.638703585495638 
1072	 0.63933230330754 
1073	 0.63997307205805 
1074	 0.640694602733352 
1075	 0.641367584752201 
1076	 0.642014571588501 
1077	 0.642715425283963 
1078	 0.643362638682382 
1079	 0.644101441518958 
1080	 0.644934727353137 
1081	 0.645698038814438 
1082	 0.646526390321403 
1083	 0.647438393087269 
1084	 0.648325983237518 
1085	 0.649209884110906 
1086	 0.65006119077169 
1087	 0.65092384796629 
1088	 0.651699734386718 
1089	 0.652387365854473 
1090	 0.653037577480904 
1091	 0.653620465839075 
1092	 0.654152420080397 
1093	 0.654745498862399 
1094	 0.655342873956783 
1095	 0.65586033184196 
1096	 0.656329242988919 
1097	 0.65670184626941 
1098	 0.657010522493999 
1099	 0.65734795830591 
1100	 0.65770428004046 
1101	 0.658026395368689 
1102	 0.658247965622017 
1103	 0.658350447555606 
1104	 0.658359433031389 
1105	 0.658241775639742 
1106	 0.658042219471531 
1107	 0.657820795616083 
1108	 0.65753902725729 
1109	 0.657241654780634 
1110	 0.656876911566887 
1111	 0.656445768047779 
1112	 0.656075391514751 
1113	 0.655575358352938 
1114	 0.654999182096163 
1115	 0.654512526557913 
1116	 0.653913313451964 
1117	 0.65331728770016 
1118	 0.652755921681507 
1119	 0.652243192053119 
1120	 0.651646247131345 
1121	 0.651024017416135 
1122	 0.65042587223941 
1123	 0.649758878992451 
1124	 0.649072375443874 
1125	 0.648391583341667 
1126	 0.647683572417818 
1127	 0.64691078823106 
1128	 0.646155628733881 
1129	 0.645446325514535 
1130	 0.644718658227349 
1131	 0.644036044204198 
1132	 0.643412505129459 
1133	 0.642795068177844 
1134	 0.642155490222106 
1135	 0.641504269392299 
1136	 0.640836860118912 
1137	 0.64021526079233 
1138	 0.639572531335637 
1139	 0.63897634359193 
1140	 0.638435902719997 
1141	 0.637906518704572 
1142	 0.63736432556846 
1143	 0.636819933663934 
1144	 0.636252279064914 
1145	 0.635690298005519 
1146	 0.635115057425876 
1147	 0.634512540159397 
1148	 0.633946235027113 
1149	 0.633395099106451 
1150	 0.632870852705768 
1151	 0.632416869431679 
1152	 0.631928493723589 
1153	 0.631476199915945 
1154	 0.63096324165121 
1155	 0.630385418818444 
1156	 0.629851665037199 
1157	 0.629322720902347 
1158	 0.628803989255445 
1159	 0.628325279001383 
1160	 0.627806473199245 
1161	 0.627233844866445 
1162	 0.626627863012307 
1163	 0.626064212800805 
1164	 0.625494154804651 
1165	 0.624933131276834 
1166	 0.624439921035128 
1167	 0.623865673580277 
1168	 0.623291894560167 
1169	 0.622775715501405 
1170	 0.622294628342511 
1171	 0.621795412204015 
1172	 0.621362774851593 
1173	 0.620847969680093 
1174	 0.620288585208593 
1175	 0.619742090232404 
1176	 0.619170985280223 
1177	 0.618588425669406 
1178	 0.618014615147856 
1179	 0.617389780738658 
1180	 0.616760358777928 
1181	 0.616135879568799 
1182	 0.615548902661509 
1183	 0.614983434422038 
1184	 0.614422971312894 
1185	 0.61390875477521 
1186	 0.613403098817862 
1187	 0.612905091472014 
1188	 0.612441598949372 
1189	 0.612008269324505 
1190	 0.611586694793217 
1191	 0.611160617129966 
1192	 0.61081981890195 
1193	 0.610532455563846 
1194	 0.610257370168746 
1195	 0.610058872645317 
1196	 0.609834601255717 
1197	 0.609608296672413 
1198	 0.609386845071469 
1199	 0.609143026606463 
1200	 0.608983832595877 
1201	 0.608837167124125 
1202	 0.608676626822673 
1203	 0.608597812372814 
1204	 0.608546231945627 
1205	 0.608564994888209 
1206	 0.608634241985305 
1207	 0.608772719681453 
1208	 0.608966041181128 
1209	 0.609228057202317 
1210	 0.609504087856336 
1211	 0.609940281247031 
1212	 0.610517437407471 
1213	 0.61113084505557 
1214	 0.611831737777592 
1215	 0.612629487423919 
1216	 0.613509878363746 
1217	 0.614420202054795 
1218	 0.615450435610883 
1219	 0.616505843875447 
1220	 0.617515261981899 
1221	 0.618607389714252 
1222	 0.619658402221975 
1223	 0.62073488258472 
1224	 0.621800014074739 
1225	 0.622888381247891 
1226	 0.623875152803129 
1227	 0.62484560043616 
1228	 0.625756168668434 
1229	 0.626584448091933 
1230	 0.627399415093053 
1231	 0.628204139577521 
1232	 0.628944465540772 
1233	 0.629610702447376 
1234	 0.630265813283205 
1235	 0.630883948851771 
1236	 0.631472462904058 
1237	 0.632027042037756 
1238	 0.632569231830455 
1239	 0.633110828899295 
1240	 0.633587377183063 
1241	 0.633995616665231 
1242	 0.63439025120262 
1243	 0.63477691595469 
1244	 0.635104790794406 
1245	 0.635449959570589 
1246	 0.635823429365414 
1247	 0.636140292910402 
1248	 0.636407406786278 
1249	 0.636683748198032 
1250	 0.636968648841007 
1251	 0.637196324056214 
1252	 0.637423984842082 
1253	 0.637568081807419 
1254	 0.637660711344192 
1255	 0.637694233904136 
1256	 0.637653405646513 
1257	 0.637577318447132 
1258	 0.6374065714758 
1259	 0.637267637215186 
1260	 0.637108839522713 
1261	 0.636943924113082 
1262	 0.63679304835635 
1263	 0.636624183607512 
1264	 0.636439172054333 
1265	 0.636204047971753 
1266	 0.636056929794321 
1267	 0.63592733359688 
1268	 0.635823201544776 
1269	 0.635789131159601 
1270	 0.635707785893154 
1271	 0.635635061849316 
1272	 0.635523124204483 
1273	 0.635370141992881 
1274	 0.635252629835187 
1275	 0.635106638258512 
1276	 0.635004273248722 
1277	 0.634931369343245 
1278	 0.634882206945589 
1279	 0.634877932185392 
1280	 0.634847892337489 
1281	 0.634780889370869 
1282	 0.634798864996731 
1283	 0.634827531430238 
1284	 0.634903522274204 
1285	 0.635033704276866 
1286	 0.635250520539283 
1287	 0.635476219277384 
1288	 0.63571430766563 
1289	 0.636025289190654 
1290	 0.636402422233951 
1291	 0.636805748151546 
1292	 0.637262478910902 
1293	 0.637728401273761 
1294	 0.63818300147094 
1295	 0.638766482501265 
1296	 0.639416728292069 
1297	 0.640110598031026 
1298	 0.640910078439668 
1299	 0.641729792131992 
1300	 0.642600514682371 
1301	 0.643463886137188 
1302	 0.644420021519282 
1303	 0.645298162039651 
1304	 0.646118367778406 
1305	 0.64694942547776 
1306	 0.647741986659526 
1307	 0.648554227815672 
1308	 0.649367858642833 
1309	 0.650204666827841 
1310	 0.651003069487661 
1311	 0.65181328080178 
1312	 0.652546926924755 
1313	 0.653271430983539 
1314	 0.653867940095368 
1315	 0.654394490331512 
1316	 0.654840394540619 
1317	 0.655161311583358 
1318	 0.655490828588469 
1319	 0.655785702085334 
1320	 0.656014497889996 
1321	 0.656231125621564 
1322	 0.656333564869214 
1323	 0.65635618856109 
1324	 0.656304608915855 
1325	 0.656138454353616 
1326	 0.655966426518431 
1327	 0.655763302795117 
1328	 0.655487512241838 
1329	 0.655214075524032 
1330	 0.654817323449751 
1331	 0.654313740556397 
1332	 0.653755501592792 
1333	 0.653130559953201 
1334	 0.652415953484588 
1335	 0.651662713760488 
1336	 0.650861159202032 
1337	 0.64999662634664 
1338	 0.64907201861963 
1339	 0.648105101017823 
1340	 0.647090681331749 
1341	 0.646032877424898 
1342	 0.644912383045268 
1343	 0.643791141425888 
1344	 0.642652963664217 
1345	 0.641460731537369 
1346	 0.640240961505303 
1347	 0.638996858754149 
1348	 0.637699306722004 
1349	 0.63639973228351 
1350	 0.635030305592665 
1351	 0.633753222691293 
1352	 0.632483136656596 
1353	 0.631251623875084 
1354	 0.630094222432036 
1355	 0.628941406917314 
1356	 0.627809705090589 
1357	 0.626671463376576 
1358	 0.625538549167473 
1359	 0.624424636209414 
1360	 0.62330337014301 
1361	 0.62219127551053 
1362	 0.621123339785143 
1363	 0.620167385312222 
1364	 0.619224116867108 
1365	 0.618343668788655 
1366	 0.617458554853262 
1367	 0.616595933089529 
1368	 0.615763763925071 
1369	 0.614979857211294 
1370	 0.614143964225532 
1371	 0.613316734002034 
1372	 0.612483501189686 
1373	 0.611637190498732 
1374	 0.610751135231694 
1375	 0.609882231389708 
1376	 0.608933599224094 
1377	 0.60788827688533 
1378	 0.606864561459678 
1379	 0.605775454754696 
1380	 0.604760589994196 
1381	 0.603733827904286 
1382	 0.602780657140281 
1383	 0.601881980832339 
1384	 0.601024681037219 
1385	 0.60020847844388 
1386	 0.599452891199446 
1387	 0.598740410650446 
1388	 0.598094397028924 
1389	 0.597504593440949 
1390	 0.596975025730658 
1391	 0.59652683564018 
1392	 0.596100273508019 
1393	 0.595724430525197 
1394	 0.595377590169759 
1395	 0.59497848020563 
1396	 0.594600212687204 
1397	 0.594123958613864 
1398	 0.593636442463144 
1399	 0.592996703476229 
1400	 0.592264100559964 
1401	 0.591451798857129 
1402	 0.590548587229096 
1403	 0.589528805141532 
1404	 0.588391921273228 
1405	 0.587248480731439 
1406	 0.585960775774236 
1407	 0.58474206091208 
1408	 0.583492440289403 
1409	 0.582317568218282 
1410	 0.581120806757292 
1411	 0.580044047800904 
1412	 0.579022347197265 
1413	 0.578126804681174 
1414	 0.577337315137304 
1415	 0.576611151878406 
1416	 0.576017184104273 
1417	 0.575437640444587 
1418	 0.574952515068619 
1419	 0.574430077802661 
1420	 0.573937744040694 
1421	 0.573432500134644 
1422	 0.572880969324821 
1423	 0.572370029185745 
1424	 0.571883545326193 
1425	 0.571391419629209 
1426	 0.570973623203134 
1427	 0.570577935246425 
1428	 0.570184824847837 
1429	 0.569871453042284 
1430	 0.569527178264779 
1431	 0.569170540782116 
1432	 0.568871711337198 
1433	 0.568595302380217 
1434	 0.568347496267759 
1435	 0.568131765724884 
1436	 0.567954944883975 
1437	 0.567798862917179 
1438	 0.567692686342721 
1439	 0.567624444425041 
1440	 0.567614151065293 
1441	 0.567664808901566 
1442	 0.567719809291048 
1443	 0.567835852559693 
1444	 0.567938946502438 
1445	 0.568053471116553 
1446	 0.568157942422626 
1447	 0.568250326837493 
1448	 0.568383258354329 
1449	 0.568512821288587 
1450	 0.568681122651473 
1451	 0.568888768461176 
1452	 0.569125656344179 
1453	 0.569398050508095 
1454	 0.569671121143558 
1455	 0.570005433072973 
1456	 0.57028984476056 
1457	 0.570535733797927 
1458	 0.570807448056451 
1459	 0.571072911049406 
1460	 0.57134166246631 
1461	 0.571639054701135 
1462	 0.57191084172905 
1463	 0.572176245000363 
1464	 0.572422562866377 
1465	 0.572651445272887 
1466	 0.572863792657199 
1467	 0.573072012980948 
1468	 0.573286026709397 
1469	 0.5735090761638 
1470	 0.573728620552367 
1471	 0.573955810623171 
1472	 0.574188894625416 
1473	 0.574402762157333 
1474	 0.574626225201055 
1475	 0.574819281412372 
1476	 0.574984634153706 
1477	 0.575161148983914 
1478	 0.575311422511627 
1479	 0.575501466569704 
1480	 0.575706596300606 
1481	 0.575917549656483 
1482	 0.576180581578469 
1483	 0.57636787199126 
1484	 0.576531472978698 
1485	 0.576677165212315 
1486	 0.576773739938735 
1487	 0.576879355179198 
1488	 0.57695698765432 
1489	 0.577079367659847 
1490	 0.577195569004299 
1491	 0.577352655696934 
1492	 0.577570421383936 
1493	 0.577760582516043 
1494	 0.577994299748341 
1495	 0.57814912963201 
1496	 0.578261081856852 
1497	 0.578370126868217 
1498	 0.578402597629222 
1499	 0.578489676860192 
1500	 0.578621906565432 
1501	 0.578718162144766 
1502	 0.578800340171098 
1503	 0.578900408169548 
1504	 0.578992892433726 
1505	 0.579082965378935 
1506	 0.579210277067459 
1507	 0.579299042833363 
1508	 0.579337567331538 
1509	 0.579404571183969 
1510	 0.579465184432489 
1511	 0.579537548039935 
1512	 0.579618933178664 
1513	 0.579719527525131 
1514	 0.579844145813319 
1515	 0.579957841451261 
1516	 0.580101504077358 
1517	 0.580215952716436 
1518	 0.580292025569629 
1519	 0.58038183319695 
1520	 0.580470482124132 
1521	 0.580553756939012 
1522	 0.580629678350868 
1523	 0.580723094527556 
1524	 0.580780214309259 
1525	 0.580817031937717 
1526	 0.580846617586734 
1527	 0.580862863948286 
1528	 0.580866093591597 
1529	 0.580858757044747 
1530	 0.580835232009514 
1531	 0.580789260119953 
1532	 0.580754898016445 
1533	 0.580687314129498 
1534	 0.580700801596591 
1535	 0.580747477659745 
1536	 0.580804505049162 
1537	 0.580918809114501 
1538	 0.581000972185638 
1539	 0.581082036917579 
1540	 0.581149798001683 
1541	 0.581232048643447 
1542	 0.581263150119438 
1543	 0.581265356837732 
1544	 0.581250167249396 
1545	 0.581194842837058 
1546	 0.581152334051011 
1547	 0.581100995273739 
1548	 0.581042431756023 
1549	 0.580965033171701 
1550	 0.580918054329925 
1551	 0.580894370868336 
1552	 0.580828393583003 
1553	 0.580780246395294 
1554	 0.58068082243851 
1555	 0.580504451671396 
1556	 0.580381621392155 
1557	 0.580243854126208 
1558	 0.580155096804444 
1559	 0.580099883923556 
1560	 0.580056967223799 
1561	 0.580044875397209 
1562	 0.580039014551527 
1563	 0.580062014826776 
1564	 0.580063156380237 
1565	 0.580078443281703 
1566	 0.580067128598044 
1567	 0.580034352695436 
1568	 0.579996636217245 
1569	 0.579923319518743 
1570	 0.57989459902249 
1571	 0.579863791638826 
1572	 0.579868978081693 
1573	 0.579925843826589 
1574	 0.579967851605765 
1575	 0.580019737565394 
1576	 0.580076258336267 
1577	 0.580151573800078 
1578	 0.580199765923098 
1579	 0.580249647097451 
1580	 0.580278544664592 
1581	 0.580283563479541 
1582	 0.580277251062382 
1583	 0.58022369784421 
1584	 0.580231202756218 
1585	 0.580273379468535 
1586	 0.580285948684487 
1587	 0.580332841047253 
1588	 0.580351573320408 
1589	 0.580324781036444 
1590	 0.580307136213978 
1591	 0.580284155758577 
1592	 0.580278276002606 
1593	 0.580269774183483 
1594	 0.580268681666346 
1595	 0.580297417031633 
1596	 0.580307062234623 
1597	 0.580313563539643 
1598	 0.580301371758585 
1599	 0.58026726688428 
1600	 0.580247321348574 
1601	 0.580207375620878 
1602	 0.580192171875126 
1603	 0.580203442858827 
1604	 0.580209609225693 
1605	 0.580247653249629 
1606	 0.580240372106542 
1607	 0.580217918178745 
1608	 0.58017358359197 
1609	 0.580096331882998 
1610	 0.580003725151505 
1611	 0.579883509585914 
1612	 0.579770613572139 
1613	 0.579631310842207 
1614	 0.579510197596297 
1615	 0.57940081574392 
1616	 0.579292130592115 
1617	 0.579191003984399 
1618	 0.579090223581245 
1619	 0.579008035311456 
1620	 0.578900901281028 
1621	 0.578779610377746 
1622	 0.578653031046412 
1623	 0.578532016472275 
1624	 0.578363469755075 
1625	 0.578164459872802 
1626	 0.577964723679275 
1627	 0.577728375840963 
1628	 0.577491425582746 
1629	 0.577277387412927 
1630	 0.577013872585974 
1631	 0.576688353294506 
1632	 0.576391423184039 
1633	 0.576075451956565 
1634	 0.575778545521706 
1635	 0.575521398161715 
1636	 0.575237145463086 
1637	 0.574899186387655 
1638	 0.574636138828235 
1639	 0.574422996845413 
1640	 0.574182834471533 
1641	 0.57401245610273 
1642	 0.573772359711449 
1643	 0.573441339522785 
1644	 0.573161586939475 
1645	 0.572904287208464 
1646	 0.572615415797318 
1647	 0.572367445095043 
1648	 0.572035894376491 
1649	 0.571620203795531 
1650	 0.571215093956311 
1651	 0.570783341227609 
1652	 0.570329537327305 
1653	 0.569861389446763 
1654	 0.569382100299753 
1655	 0.568869845322715 
1656	 0.568353734163708 
1657	 0.567911360343659 
1658	 0.567299362669375 
1659	 0.566583866386854 
1660	 0.56585669232979 
1661	 0.565030916833651 
1662	 0.564172001357628 
1663	 0.563331448724635 
1664	 0.562360549125859 
1665	 0.561284938746964 
1666	 0.560135859410814 
1667	 0.55889202085407 
1668	 0.557620011755829 
1669	 0.55628612960847 
1670	 0.554892370882827 
1671	 0.553435393649993 
1672	 0.551920044259914 
1673	 0.550348618712683 
1674	 0.548709001195048 
1675	 0.547048146976747 
1676	 0.545285702166858 
1677	 0.543405965733312 
1678	 0.541502648143563 
1679	 0.539492507190324 
1680	 0.537499812992575 
1681	 0.535487645787766 
1682	 0.533451833288824 
1683	 0.53141676847887 
1684	 0.529356035526771 
1685	 0.527284528433593 
1686	 0.525144145144146 
1687	 0.522936398734145 
1688	 0.520702852936413 
1689	 0.518426267240658 
1690	 0.516092482923214 
1691	 0.513710231768158 
1692	 0.511372161542435 
1693	 0.509027800105068 
1694	 0.50663369378428 
1695	 0.504235817296404 
1696	 0.501779759899766 
1697	 0.499258618796385 
1698	 0.496683158463568 
1699	 0.494078872697441 
1700	 0.491512421007714 
1701	 0.488832484617778 
1702	 0.486335389943177 
1703	 0.483888303548956 
1704	 0.481583871107572 
1705	 0.479392731023878 
1706	 0.477211519830881 
1707	 0.475263088199609 
1708	 0.473433737558085 
1709	 0.471734772375053 
1710	 0.470241706891868 
1711	 0.468787642981591 
1712	 0.467441458021787 
1713	 0.466161564179102 
1714	 0.464932439724939 
1715	 0.463873934352221 
1716	 0.462782955137167 
1717	 0.461700678825363 
1718	 0.460666469717066 
1719	 0.459654768994885 
1720	 0.458808642207536 
1721	 0.458048403170969 
1722	 0.457388595856267 
1723	 0.456904042029793 
1724	 0.456478821985139 
1725	 0.456192118065206 
1726	 0.456109846860139 
1727	 0.456173940183903 
1728	 0.456421648381284 
1729	 0.456882942510733 
1730	 0.45758034764964 
1731	 0.45845385800383 
1732	 0.45953115319384 
1733	 0.460714589352121 
1734	 0.461976567087237 
1735	 0.463264502336009 
1736	 0.464446686021675 
1737	 0.465568700608773 
1738	 0.466534922850988 
1739	 0.467315555720447 
1740	 0.467993459900825 
1741	 0.468453642243429 
1742	 0.468696473782555 
1743	 0.468815430735869 
1744	 0.46870520001962 
1745	 0.468520546046682 
1746	 0.46816341101288 
1747	 0.467830093551266 
1748	 0.467378096415363 
1749	 0.467026997672252 
1750	 0.466681303973795 
1751	 0.466387314014111 
1752	 0.466123739904633 
1753	 0.46592069640566 
1754	 0.465745661094081 
1755	 0.465703165826834 
1756	 0.465746524538099 
1757	 0.465864804526779 
1758	 0.466099676627868 
1759	 0.466446856876181 
1760	 0.46694086666543 
1761	 0.467629226825379 
1762	 0.46839051508122 
1763	 0.469339461012987 
1764	 0.470428426172699 
1765	 0.471654733783368 
1766	 0.473082608262293 
1767	 0.474501398715157 
1768	 0.475944772967599 
1769	 0.477425447552891 
1770	 0.478824459388006 
1771	 0.480217848784878 
1772	 0.481559592132617 
1773	 0.482789051941969 
1774	 0.483942247220345 
1775	 0.484952021115916 
1776	 0.485896129743158 
1777	 0.486768190529038 
1778	 0.487495412880448 
1779	 0.488190302250909 
1780	 0.48880763111691 
1781	 0.489317406673044 
1782	 0.489800894718783 
1783	 0.490196734590978 
1784	 0.490530677877959 
1785	 0.490749079809944 
1786	 0.491020395323537 
1787	 0.491289226826132 
1788	 0.491536895947425 
1789	 0.4918178907316 
1790	 0.492024433572817 
1791	 0.492181334455704 
1792	 0.492305634130587 
1793	 0.492377098447755 
1794	 0.492429000205946 
1795	 0.492463624905835 
1796	 0.492486734166185 
1797	 0.492556530316057 
1798	 0.492638031509223 
1799	 0.492692689199998 
1800	 0.492734365102204 
1801	 0.490634769354471 
1802	 0.490972266364874 
1803	 0.491250753439446 
1804	 0.491471235107818 
1805	 0.491708147525754 
1806	 0.491935298813373 
1807	 0.49213546918064 
1808	 0.492345594008497 
1809	 0.492592904707272 
1810	 0.492767742173053 
1811	 0.492872620576352 
1812	 0.493026384236958 
1813	 0.493150330416671 
1814	 0.493323163637339 
1815	 0.493487982287181 
1816	 0.493643893246974 
1817	 0.493829624084527 
1818	 0.494009160593109 
1819	 0.494195322427134 
1820	 0.494385254623455 
1821	 0.494633738120991 
1822	 0.494918487983058 
1823	 0.495173728873564 
1824	 0.495491581844527 
1825	 0.495818834556956 
1826	 0.496098297356092 
1827	 0.49635120019562 
1828	 0.496582967927544 
1829	 0.496787734388943 
1830	 0.496993703593854 
1831	 0.497161099660703 
1832	 0.497352114050222 
1833	 0.497575832657992 
1834	 0.497800273222365 
1835	 0.498028625054796 
1836	 0.498268465310081 
1837	 0.498520031831699 
1838	 0.498762738027502 
1839	 0.499040866988426 
1840	 0.49935785174514 
1841	 0.499663330182377 
1842	 0.49999708656468 
1843	 0.500296183890314 
1844	 0.500588191361588 
1845	 0.500859544934204 
1846	 0.501073527729242 
1847	 0.501317340607507 
1848	 0.501535782337697 
1849	 0.501725235409341 
1850	 0.501923657564238 
1851	 0.502107453511218 
1852	 0.502304292520238 
1853	 0.502558784311262 
1854	 0.502777193492318 
1855	 0.503025881259619 
1856	 0.503265544224876 
1857	 0.503400716398324 
1858	 0.503513056191079 
1859	 0.503562878958821 
1860	 0.5035402677065 
1861	 0.503483312158095 
1862	 0.503371625618515 
1863	 0.503252606338809 
1864	 0.503074651841287 
1865	 0.502867214834575 
1866	 0.502618946097881 
1867	 0.502270164209156 
1868	 0.501910383813671 
1869	 0.501553117777428 
1870	 0.501187484494101 
1871	 0.500796033164453 
1872	 0.500446709989955 
1873	 0.500126771724188 
1874	 0.499782711716427 
1875	 0.499451766121027 
1876	 0.499071489551689 
1877	 0.498610603863965 
1878	 0.498042006020494 
1879	 0.497387707233623 
1880	 0.49668545982774 
1881	 0.495842864054921 
1882	 0.494883329887676 
1883	 0.493868810884131 
1884	 0.492707282902773 
1885	 0.491347877599709 
1886	 0.489964150623938 
1887	 0.488404090176825 
1888	 0.486675967377053 
1889	 0.485026085044571 
1890	 0.483258452742298 
1891	 0.481460421397837 
1892	 0.479678723448883 
1893	 0.477828405801849 
1894	 0.475871343864427 
1895	 0.473988778181821 
1896	 0.47210652533245 
1897	 0.470234890312039 
1898	 0.468539334169895 
1899	 0.466857076906346 
1900	 0.465216406378307 
1901	 0.463684492325617 
1902	 0.462150366848551 
1903	 0.460724764671112 
1904	 0.459366871351069 
1905	 0.45807472893685 
1906	 0.456880427221876 
1907	 0.455782736339689 
1908	 0.454644778584121 
1909	 0.453593845713876 
1910	 0.452578703165248 
1911	 0.451584331220699 
1912	 0.450739062784669 
1913	 0.449922034541535 
1914	 0.449117405754226 
1915	 0.448405236642034 
1916	 0.447779349068089 
1917	 0.447164133239217 
1918	 0.446582492929935 
1919	 0.44609763580762 
1920	 0.445576425967443 
1921	 0.445049303260086 
1922	 0.444598091646832 
1923	 0.444143399195657 
1924	 0.44372479028826 
1925	 0.443337699960571 
1926	 0.442987470280562 
1927	 0.442631867851393 
1928	 0.44237902978721 
1929	 0.442182721437709 
1930	 0.442059771732985 
1931	 0.441993370981564 
1932	 0.442008142470366 
1933	 0.442065105815847 
1934	 0.442104804826264 
1935	 0.442159059041532 
1936	 0.44219316785751 
1937	 0.442263737801583 
1938	 0.442303799149024 
1939	 0.442439006376768 
1940	 0.442625960821502 
1941	 0.442894101340877 
1942	 0.443127367853945 
1943	 0.443387673631118 
1944	 0.443652248160222 
1945	 0.443820623273838 
1946	 0.444050266404531 
1947	 0.44429130187404 
1948	 0.444553361345628 
1949	 0.444915086231298 
1950	 0.445280091989568 
1951	 0.445714204158378 
1952	 0.446115538134332 
1953	 0.446528837635377 
1954	 0.446932148402065 
1955	 0.447333882817889 
1956	 0.44769031137961 
1957	 0.44808723420896 
1958	 0.448455053796014 
1959	 0.448746555042136 
1960	 0.449066891369489 
1961	 0.449390842700659 
1962	 0.449678309029838 
1963	 0.449991524686895 
1964	 0.450326662464727 
1965	 0.450668033010707 
1966	 0.450991704161285 
1967	 0.45139680206065 
1968	 0.45175579132359 
1969	 0.452145872672612 
1970	 0.452543801995415 
1971	 0.452882310204451 
1972	 0.45329431447244 
1973	 0.453704856462277 
1974	 0.454065532485273 
1975	 0.454428596357558 
1976	 0.454728919385801 
1977	 0.45494829402292 
1978	 0.455198376111829 
1979	 0.455429090251364 
1980	 0.455638596026798 
1981	 0.455902191678842 
1982	 0.456153459432463 
1983	 0.456355935025976 
1984	 0.456563332231282 
1985	 0.456787387340473 
1986	 0.456959106831656 
1987	 0.457129983584005 
1988	 0.457315755625246 
1989	 0.457482299015999 
1990	 0.457615250629225 
1991	 0.457748532732662 
1992	 0.457879737110992 
1993	 0.458005666267525 
1994	 0.458135286816528 
1995	 0.458217116368393 
1996	 0.458289241406173 
1997	 0.458338199812902 
1998	 0.458351564435438 
1999	 0.458277566927706 
2000	 0.458291019748873 
2001	 0.458329506231338 
2002	 0.458355137535065 
2003	 0.458418790990075 
2004	 0.458461759915536 
2005	 0.458492714796552 
2006	 0.458500262254042 
2007	 0.458535273433161 
2008	 0.458518016025348 
2009	 0.458388021511373 
2010	 0.458212925229029 
2011	 0.45797697685601 
2012	 0.457651813584642 
2013	 0.457341442395125 
2014	 0.457027865595378 
2015	 0.456653162578051 
2016	 0.456228051539152 
2017	 0.455811171917538 
2018	 0.455344649810611 
2019	 0.454887138359182 
2020	 0.454430053888253 
2021	 0.453962372443076 
2022	 0.453498808714108 
2023	 0.453043790365551 
2024	 0.452561576386232 
2025	 0.452076143635559 
2026	 0.451507746078298 
2027	 0.450848658818154 
2028	 0.45021576927789 
2029	 0.449524613839294 
2030	 0.448861662290962 
2031	 0.448192045556115 
2032	 0.447567866920682 
2033	 0.446969327717559 
2034	 0.446373100259158 
2035	 0.445798232161654 
2036	 0.445232073351154 
2037	 0.444683485810044 
2038	 0.444142485022626 
2039	 0.443648822458486 
2040	 0.443205278779163 
2041	 0.442761071350057 
2042	 0.442311914257665 
2043	 0.441941874809225 
2044	 0.441595984722764 
2045	 0.441322002374387 
2046	 0.44117938604103 
2047	 0.440964373422735 
2048	 0.440780587426647 
2049	 0.440563786598043 
2050	 0.440301231740142 
2051	 0.44004292452523 
2052	 0.43979630477169 
2053	 0.439561473049749 
2054	 0.439339643305933 
2055	 0.43912795815134 
2056	 0.438921353842398 
2057	 0.438725185542544 
2058	 0.438533132289875 
2059	 0.438347570479979 
2060	 0.438176729055706 
2061	 0.438002674888169 
2062	 0.43786474924996 
2063	 0.437748221713275 
2064	 0.437638467392579 
2065	 0.437543432355134 
2066	 0.43749462833331 
2067	 0.4374157456512 
2068	 0.437363341166894 
2069	 0.437266354231233 
2070	 0.437148372746164 
2071	 0.437030660458746 
2072	 0.436902204786105 
2073	 0.43674070905015 
2074	 0.436581526785919 
2075	 0.436382785966559 
2076	 0.436118956178859 
2077	 0.435886979483328 
2078	 0.435637529379484 
2079	 0.435405142571789 
2080	 0.435188885909803 
2081	 0.434970515207127 
2082	 0.434760993489779 
2083	 0.434555016117055 
2084	 0.434321478053087 
2085	 0.434065977983983 
2086	 0.433853532775252 
2087	 0.43365075806339 
2088	 0.433439371312128 
2089	 0.433278934298405 
2090	 0.433052462917949 
2091	 0.4327729314787 
2092	 0.432512483691366 
2093	 0.432215097252988 
2094	 0.43196399913175 
2095	 0.431728839991436 
2096	 0.431501059163026 
2097	 0.431308859704184 
2098	 0.431113644255275 
2099	 0.430883961071639 
2100	 0.430671593622822 
2101	 0.430433797508302 
2102	 0.430191382107687 
2103	 0.429910262957202 
2104	 0.429624341219308 
2105	 0.429276779792796 
2106	 0.428858330424102 
2107	 0.428456052693937 
2108	 0.428029002982596 
2109	 0.427596720407464 
2110	 0.427143991747417 
2111	 0.426716777912902 
2112	 0.426296454596189 
2113	 0.425848518217545 
2114	 0.425406378576636 
2115	 0.424955225082484 
2116	 0.424469750143205 
2117	 0.42398614177698 
2118	 0.423524569079803 
2119	 0.423071461481406 
2120	 0.422645424962943 
2121	 0.422224215296264 
2122	 0.421848849642167 
2123	 0.421529238331609 
2124	 0.42118050580458 
2125	 0.420847928185325 
2126	 0.420510790961024 
2127	 0.420162680525655 
2128	 0.41982050880459 
2129	 0.419469006989755 
2130	 0.419157725915719 
2131	 0.418850424771333 
2132	 0.418575673337208 
2133	 0.418341496350692 
2134	 0.418127012796802 
2135	 0.417925949279156 
2136	 0.417759401164796 
2137	 0.417576203823607 
2138	 0.417422047481656 
2139	 0.41722171688527 
2140	 0.416988638021554 
2141	 0.41677038278069 
2142	 0.416527446621761 
2143	 0.416334058348598 
2144	 0.416139943046629 
2145	 0.41600353781575 
2146	 0.415887891781098 
2147	 0.415836038260472 
2148	 0.41583410497402 
2149	 0.415883228316133 
2150	 0.416056918864694 
2151	 0.416162114533931 
2152	 0.416314627812802 
2153	 0.416410740474325 
2154	 0.416399941082161 
2155	 0.416310841349268 
2156	 0.416228440807 
2157	 0.416060098123679 
2158	 0.415951316808134 
2159	 0.415871652021223 
2160	 0.415758213700244 
2161	 0.415642815742536 
2162	 0.415499544396199 
2163	 0.415315932281041 
2164	 0.415152001487583 
2165	 0.414964739453853 
2166	 0.414812353303768 
2167	 0.414699184414142 
2168	 0.414556490541401 
2169	 0.414388042229081 
2170	 0.414262812504753 
2171	 0.414165746639006 
2172	 0.414045754142947 
2173	 0.413951931114935 
2174	 0.413839399650577 
2175	 0.413718642874286 
2176	 0.413576392024011 
2177	 0.413453312761204 
2178	 0.413351584965752 
2179	 0.413238745204602 
2180	 0.413097947721348 
2181	 0.413012738332138 
2182	 0.412962344465186 
2183	 0.412902548857359 
2184	 0.412870436734324 
2185	 0.412824111862671 
2186	 0.412778972136067 
2187	 0.412716283634729 
2188	 0.412666973062021 
2189	 0.412580856676317 
2190	 0.412470309504393 
2191	 0.412332724828856 
2192	 0.412181273092048 
2193	 0.411985249755314 
2194	 0.411730304057822 
2195	 0.411487112751332 
2196	 0.411188564795555 
2197	 0.410930166999108 
2198	 0.410721232552843 
2199	 0.410517131739884 
2200	 0.410321494061124 
2201	 0.410163478238866 
2202	 0.409980209047023 
2203	 0.409785352115189 
2204	 0.409606040239082 
2205	 0.409439424322785 
2206	 0.409256528481693 
2207	 0.409091719774812 
2208	 0.408868950083803 
2209	 0.408653851772399 
2210	 0.408342623678028 
2211	 0.407972669944093 
2212	 0.407550584025161 
2213	 0.406990633310106 
2214	 0.406518189565544 
2215	 0.406065496986542 
2216	 0.405572206851209 
2217	 0.40512640636201 
2218	 0.404607740434159 
2219	 0.404008958686197 
2220	 0.403406471178737 
2221	 0.402774490705942 
2222	 0.40213358568322 
2223	 0.401489732093038 
2224	 0.400746019786491 
2225	 0.400026657260121 
2226	 0.399265802570782 
2227	 0.398399020742893 
2228	 0.397481375198954 
2229	 0.396496113420305 
2230	 0.395387629824103 
2231	 0.394290935231209 
2232	 0.393189631792237 
2233	 0.391964532746435 
2234	 0.390761777422139 
2235	 0.389270032804093 
2236	 0.387587149268201 
2237	 0.385824820184388 
2238	 0.383781852641304 
2239	 0.381825301056646 
2240	 0.379881637082074 
2241	 0.377802537869365 
2242	 0.375726640491032 
2243	 0.373452823128426 
2244	 0.37098270462921 
2245	 0.368479323629607 
2246	 0.36576670493674 
2247	 0.363119984574388 
2248	 0.360475590867813 
2249	 0.357779779156764 
2250	 0.355091148465083 
2251	 0.352369042777082 
2252	 0.349376219037777 
2253	 0.346535502942264 
2254	 0.34370641081822 
2255	 0.340804666453087 
2256	 0.338204576329275 
2257	 0.3355713754232 
2258	 0.333001206251876 
2259	 0.330499691363711 
2260	 0.328028854271748 
2261	 0.325590906049293 
2262	 0.323232966126079 
2263	 0.32089677536518 
2264	 0.318682144306232 
2265	 0.316573722763617 
2266	 0.314472118719793 
2267	 0.31251239927417 
2268	 0.310461324196078 
2269	 0.308343119750765 
2270	 0.30635600816355 
2271	 0.304403747968779 
2272	 0.302469099748426 
2273	 0.300638843412243 
2274	 0.298783749462164 
2275	 0.296935233869095 
2276	 0.29507669530706 
2277	 0.293276037436668 
2278	 0.29138538758629 
2279	 0.289403523179287 
2280	 0.287431016209326 
2281	 0.285460097122173 
2282	 0.283428210446035 
2283	 0.281409224169447 
2284	 0.279304148457632 
2285	 0.276992877611287 
2286	 0.274728319877643 
2287	 0.272347553914883 
2288	 0.269881604309239 
2289	 0.267622245749177 
2290	 0.265230859137875 
2291	 0.262792124843517 
2292	 0.260438185469603 
2293	 0.257890088458899 
2294	 0.255376284073718 
2295	 0.253076848189204 
2296	 0.250846801878355 
2297	 0.248926765545167 
2298	 0.247224788719773 
2299	 0.24580282974223 
2300	 0.244622118457203 
2301	 0.243787830506804 
2302	 0.243271219699379 
2303	 0.243022326444576 
2304	 0.243116654096356 
2305	 0.24341886798057 
2306	 0.24397190605197 
2307	 0.244842954172137 
2308	 0.246041265176762 
2309	 0.247460252663237 
2310	 0.249266465019608 
2311	 0.251121217183145 
2312	 0.253300110364664 
2313	 0.255361238167053 
2314	 0.257568245698898 
2315	 0.259669278021547 
2316	 0.261808898840532 
2317	 0.263721711427859 
2318	 0.265641309954677 
2319	 0.267162729433459 
2320	 0.268386082413973 
2321	 0.269426807634248 
2322	 0.27013755455469 
2323	 0.270768297887564 
2324	 0.271268640994229 
2325	 0.271525475591031 
2326	 0.271551170590319 
2327	 0.271426017425382 
2328	 0.271036322487153 
2329	 0.270556062795572 
2330	 0.269964215818229 
2331	 0.269159103989712 
2332	 0.268237967093565 
2333	 0.267158576552633 
2334	 0.265771856193653 
2335	 0.264303200728679 
2336	 0.262764461446939 
2337	 0.261101861033517 
2338	 0.259596720790578 
2339	 0.258043970629503 
2340	 0.256508697038509 
2341	 0.255037075836027 
2342	 0.253495623204851 
2343	 0.252336832914998 
2344	 0.251384792964194 
2345	 0.25058591968287 
2346	 0.250303729527761 
2347	 0.250355812394636 
2348	 0.250607436613297 
2349	 0.251355631787526 
2350	 0.252476791720599 
2351	 0.253751993863036 
2352	 0.255257462298701 
2353	 0.256895108139799 
2354	 0.258292552751618 
2355	 0.259564226003945 
2356	 0.26080277657398 
2357	 0.261871056933209 
2358	 0.262924688787961 
2359	 0.263700381928009 
2360	 0.264195509317469 
2361	 0.264650055550392 
2362	 0.264934008478203 
2363	 0.265008856486016 
2364	 0.265052072393707 
2365	 0.264865184484616 
2366	 0.264523008225005 
2367	 0.264430709928737 
2368	 0.264471091154199 
2369	 0.264602759380494 
2370	 0.264736302551607 
2371	 0.264696332751958 
2372	 0.264534900762175 
2373	 0.264345702597802 
2374	 0.26419034098264 
2375	 0.264169370363014 
2376	 0.264293734897625 
2377	 0.264214878502558 
2378	 0.264049327208709 
2379	 0.264022085792966 
2380	 0.263817940476563 
2381	 0.263751086514296 
2382	 0.263813259061191 
2383	 0.264025817802175 
2384	 0.264145022268633 
2385	 0.264344144933179 
2386	 0.264514465478225 
2387	 0.264678749712488 
2388	 0.26485096104377 
2389	 0.265076276683501 
2390	 0.265193251737806 
2391	 0.265222563260519 
2392	 0.265216650035478 
2393	 0.265146167673407 
2394	 0.265152465245563 
2395	 0.265110442710695 
2396	 0.265219340751062 
2397	 0.265502701625969 
2398	 0.265556391381202 
2399	 0.265549517340734 
2400	 0.265576293475691 
2401	 0.265447810792837 
2402	 0.265592021679249 
2403	 0.265774789094045 
2404	 0.26586897875976 
2405	 0.265919283831362 
2406	 0.265880969203405 
2407	 0.26590877307101 
2408	 0.265927085842116 
2409	 0.266004990805926 
2410	 0.266171948502847 
2411	 0.266181727373983 
2412	 0.26617016846311 
2413	 0.266102090515634 
2414	 0.266027945393891 
2415	 0.265983499897998 
2416	 0.266083900757513 
2417	 0.266268716965159 
2418	 0.266106973313392 
2419	 0.266187024239531 
2420	 0.266414026044966 
2421	 0.266406251559278 
2422	 0.266777423821352 
2423	 0.266978160860418 
2424	 0.266836222486302 
2425	 0.266791172941239 
2426	 0.266485623921465 
2427	 0.266153509662758 
2428	 0.266067084380055 
2429	 0.266041343434013 
2430	 0.26604066276959 
2431	 0.266068006414562 
2432	 0.266075627772436 
2433	 0.265977410578342 
2434	 0.266003861134304 
2435	 0.266218649347269 
2436	 0.266176552664257 
2437	 0.266196254010463 
2438	 0.266276757085213 
2439	 0.265974498138083 
2440	 0.265652552221136 
2441	 0.26518361465742 
2442	 0.264517348078243 
2443	 0.264046302910725 
2444	 0.26376412101065 
2445	 0.263438220049473 
2446	 0.263086579309371 
2447	 0.262709504135561 
2448	 0.262183576089148 
2449	 0.261781320260098 
2450	 0.26160358472834 
2451	 0.261473867649051 
2452	 0.261240507810674 
2453	 0.261024435458794 
2454	 0.260806743364482 
2455	 0.260204788855441 
2456	 0.259549186557555 
2457	 0.258927637112751 
2458	 0.25797773235573 
2459	 0.257529109936807 
2460	 0.257628143182961 
2461	 0.257313165001531 
2462	 0.256895337776465 
2463	 0.256388140104981 
2464	 0.255639001192157 
2465	 0.255150370652847 
2466	 0.255271038456849 
2467	 0.255584420404008 
2468	 0.255277879886205 
2469	 0.255080290037327 
2470	 0.255168845483396 
2471	 0.25487915514183 
2472	 0.254627956283942 
2473	 0.254526106151604 
2474	 0.254196763514147 
2475	 0.253957930985178 
2476	 0.254367758610574 
2477	 0.25469492078551 
2478	 0.254685934748246 
2479	 0.25443445616222 
2480	 0.253927225866548 
2481	 0.253897964619748 
2482	 0.254079037316308 
2483	 0.254353223014702 
2484	 0.254256604974264 
2485	 0.254226181430544 
2486	 0.254393508775309 
2487	 0.254172058143615 
2488	 0.254042848954267 
2489	 0.25398393107663 
2490	 0.253639245044942 
2491	 0.25360259523109 
2492	 0.254225738287127 
2493	 0.254940069947138 
2494	 0.255636722481831 
2495	 0.25606058161248 
2496	 0.25636744229861 
2497	 0.256940049232657 
2498	 0.257289986527769 
2499	 0.257959074977726 
2500	 0.258721407791846 
