Wavelength	spectrum00023.asd
350	 0.333188133734545 
351	 0.332927745294203 
352	 0.332987415041427 
353	 0.333090784025514 
354	 0.333398163999907 
355	 0.33283942745921 
356	 0.3333999521761 
357	 0.335591962797373 
358	 0.333775932909306 
359	 0.332587161714058 
360	 0.333038205139186 
361	 0.334130915693415 
362	 0.335410948877976 
363	 0.336292709779628 
364	 0.336743208732397 
365	 0.337390312185358 
366	 0.338891500304189 
367	 0.340185284242829 
368	 0.340625065017163 
369	 0.34215261688131 
370	 0.34518051253187 
371	 0.348661863236165 
372	 0.350865347496097 
373	 0.352808985116967 
374	 0.355224003678957 
375	 0.357975201304214 
376	 0.359784830330613 
377	 0.36173399765581 
378	 0.364356757513712 
379	 0.367294629760474 
380	 0.367392062765418 
381	 0.370169401491437 
382	 0.374062289482839 
383	 0.374008995461485 
384	 0.375747963613516 
385	 0.378806621900458 
386	 0.382067785940193 
387	 0.384646648699572 
388	 0.386232944580459 
389	 0.387281619784519 
390	 0.388716897590001 
391	 0.392443859650061 
392	 0.395002953209014 
393	 0.396296947727876 
394	 0.398407945685652 
395	 0.400212978057655 
396	 0.40204803171241 
397	 0.404179698893705 
398	 0.406556173041443 
399	 0.407863174458899 
400	 0.410147728814349 
401	 0.414647704509391 
402	 0.415133263874918 
403	 0.415554730650803 
404	 0.417319865746625 
405	 0.419554546119148 
406	 0.421543886320565 
407	 0.423626458328017 
408	 0.425804556738483 
409	 0.427025520404405 
410	 0.428571917665574 
411	 0.430440985929505 
412	 0.432260299828431 
413	 0.434182143894035 
414	 0.435882662384389 
415	 0.437441551190411 
416	 0.43928280859293 
417	 0.441037313552691 
418	 0.442502662592135 
419	 0.443761079577282 
420	 0.445516108157124 
421	 0.446781117984322 
422	 0.447767188331721 
423	 0.449040202243885 
424	 0.449848378003443 
425	 0.451489972558781 
426	 0.453678981449947 
427	 0.454239513069537 
428	 0.455693758558701 
429	 0.4570576098631 
430	 0.457430353687994 
431	 0.458543640028129 
432	 0.459474726046934 
433	 0.460317247413389 
434	 0.461648528144118 
435	 0.46289637200847 
436	 0.464246957981958 
437	 0.465669728902595 
438	 0.466678608969905 
439	 0.467338450711274 
440	 0.468199136437508 
441	 0.469632118589538 
442	 0.470679083924245 
443	 0.471817430718719 
444	 0.472922108621345 
445	 0.47345446335806 
446	 0.474535107316457 
447	 0.47609727088142 
448	 0.477712735459155 
449	 0.478517388761583 
450	 0.480058654675531 
451	 0.481867195321918 
452	 0.482930996517687 
453	 0.484184752629656 
454	 0.485289579889608 
455	 0.486399184511631 
456	 0.488267732044718 
457	 0.489604719933939 
458	 0.490576381143006 
459	 0.491631297745697 
460	 0.492989517072402 
461	 0.494382681035787 
462	 0.495780697976533 
463	 0.497246737507849 
464	 0.498367248284201 
465	 0.499484758966649 
466	 0.500752981197896 
467	 0.501886157259308 
468	 0.503335007056799 
469	 0.504838226128721 
470	 0.506015585181168 
471	 0.506899782763738 
472	 0.507921107735795 
473	 0.509142111165026 
474	 0.510305608150721 
475	 0.511146133523931 
476	 0.512118518418094 
477	 0.513402867279416 
478	 0.514295555898727 
479	 0.515238034589606 
480	 0.51625512133145 
481	 0.517262868059307 
482	 0.518542085554819 
483	 0.519646267947681 
484	 0.520524471624172 
485	 0.521625813198012 
486	 0.522755848215695 
487	 0.523806009278111 
488	 0.524776727473701 
489	 0.525983279906207 
490	 0.527000819764257 
491	 0.527899460873037 
492	 0.529016611461951 
493	 0.530174898596641 
494	 0.531256597418392 
495	 0.532154239225074 
496	 0.532713744531264 
497	 0.533870120549971 
498	 0.535092302114323 
499	 0.535691031032059 
500	 0.536543429236458 
501	 0.537558713537585 
502	 0.538532629871416 
503	 0.53922721763374 
504	 0.540072781117769 
505	 0.541008264400217 
506	 0.541901667482335 
507	 0.542683827919766 
508	 0.543410886901235 
509	 0.544148092808446 
510	 0.544951475151795 
511	 0.545805573155547 
512	 0.546506837705808 
513	 0.547113650340022 
514	 0.548041099786424 
515	 0.548715875267884 
516	 0.549332909404806 
517	 0.550117135568029 
518	 0.550632408832111 
519	 0.55136513186766 
520	 0.55218299582199 
521	 0.552575071007663 
522	 0.553055279869215 
523	 0.553760878459365 
524	 0.554620050939505 
525	 0.555298668045702 
526	 0.555713494965067 
527	 0.556087224584352 
528	 0.556690362823631 
529	 0.55731271063168 
530	 0.557877865501079 
531	 0.558459604501562 
532	 0.559271983881871 
533	 0.560191620357719 
534	 0.561040517698895 
535	 0.56171210293436 
536	 0.56231777704319 
537	 0.562910423157185 
538	 0.563611141054515 
539	 0.564518192658757 
540	 0.565232761576545 
541	 0.565795627853849 
542	 0.566322620826119 
543	 0.566948939505949 
544	 0.567777828911606 
545	 0.568441536957247 
546	 0.56863713290414 
547	 0.569004526847867 
548	 0.569589891391813 
549	 0.570356609430919 
550	 0.571191622852042 
551	 0.571591551200309 
552	 0.57161761750355 
553	 0.571375704722591 
554	 0.570715945554599 
555	 0.5700673739209 
556	 0.569632223735781 
557	 0.569485139240892 
558	 0.569660361915447 
559	 0.570097586012319 
560	 0.570805839695161 
561	 0.57191487893159 
562	 0.573030625637651 
563	 0.573173194925837 
564	 0.571764529759374 
565	 0.570112999334681 
566	 0.568354657096733 
567	 0.566639139091787 
568	 0.565204318393312 
569	 0.565167153490383 
570	 0.566649296112389 
571	 0.569251835246847 
572	 0.572060084037754 
573	 0.574164414200664 
574	 0.575433829181001 
575	 0.575999653793876 
576	 0.57515908188798 
577	 0.573080059429468 
578	 0.570479336587412 
579	 0.568577313691943 
580	 0.56720767555865 
581	 0.567124668108289 
582	 0.568759514352846 
583	 0.571289047462746 
584	 0.573385806725272 
585	 0.575160314832382 
586	 0.577460736961115 
587	 0.578692216801949 
588	 0.579632328357762 
589	 0.580968896804148 
590	 0.582713561010094 
591	 0.585166570557491 
592	 0.587509383282822 
593	 0.588687292326345 
594	 0.588416410009332 
595	 0.586954593565733 
596	 0.584274935941187 
597	 0.580209990929534 
598	 0.576501023258495 
599	 0.574464510653761 
600	 0.574434837656876 
601	 0.574950402146122 
602	 0.575682683780652 
603	 0.577097019842737 
604	 0.579707974670962 
605	 0.581553931800832 
606	 0.582740556496279 
607	 0.583593839267886 
608	 0.584455775547658 
609	 0.585088902320817 
610	 0.585574276404121 
611	 0.586056112904358 
612	 0.586638685625119 
613	 0.587078981304515 
614	 0.587352947567676 
615	 0.587586262299801 
616	 0.587788552527557 
617	 0.587926358633499 
618	 0.588084072438288 
619	 0.588594649007222 
620	 0.588888046819483 
621	 0.589076230382492 
622	 0.589407915026887 
623	 0.589580324526186 
624	 0.589790869459027 
625	 0.590063448052653 
626	 0.590254670797078 
627	 0.59062024989981 
628	 0.590967282807327 
629	 0.591183843075097 
630	 0.591609990108116 
631	 0.591694394889474 
632	 0.591787309807019 
633	 0.592453012894829 
634	 0.592703971906249 
635	 0.592975083326283 
636	 0.593397267913358 
637	 0.593578573920168 
638	 0.59359826265356 
639	 0.593774475811671 
640	 0.594255110237519 
641	 0.594439722500814 
642	 0.594608492363982 
643	 0.594980980662243 
644	 0.59564049535677 
645	 0.595804046497083 
646	 0.595967529146176 
647	 0.596315375850438 
648	 0.596235578351784 
649	 0.596485517202491 
650	 0.596964496498278 
651	 0.597325640454798 
652	 0.597393683558846 
653	 0.597549323720346 
654	 0.597852235634015 
655	 0.598087313592552 
656	 0.598242453904338 
657	 0.598437520767644 
658	 0.598750606422007 
659	 0.599160218590467 
660	 0.599291912851088 
661	 0.599224665540685 
662	 0.599237606188801 
663	 0.599592729742744 
664	 0.599924895761749 
665	 0.600108095860772 
666	 0.600298150743201 
667	 0.600487191772837 
668	 0.600591650841791 
669	 0.600643105794546 
670	 0.60105042662733 
671	 0.601213399034106 
672	 0.601235566746204 
673	 0.601486653072481 
674	 0.601740055960054 
675	 0.601852724660592 
676	 0.601888848369888 
677	 0.602143424758354 
678	 0.602344874389504 
679	 0.602479033036764 
680	 0.602596597691236 
681	 0.602748552772196 
682	 0.602949272592919 
683	 0.603048863382971 
684	 0.60289794866519 
685	 0.60307541702584 
686	 0.603481208462125 
687	 0.603879889019441 
688	 0.603968918204259 
689	 0.603899769696302 
690	 0.603747440099723 
691	 0.603610189400488 
692	 0.603677880126719 
693	 0.60412648568535 
694	 0.604499969004871 
695	 0.604121245733016 
696	 0.604204779506373 
697	 0.60446424388043 
698	 0.60450641525358 
699	 0.604035485876645 
700	 0.604489801067379 
701	 0.605189774850081 
702	 0.605142107505847 
703	 0.604604134944316 
704	 0.604768930443759 
705	 0.605452949009967 
706	 0.605559116182805 
707	 0.605397339605773 
708	 0.605174138512416 
709	 0.605118018023565 
710	 0.605504039323013 
711	 0.606014104103063 
712	 0.606079050152853 
713	 0.605456333895391 
714	 0.605316636077631 
715	 0.605835222651282 
716	 0.60644157213244 
717	 0.606194692975917 
718	 0.606122427037488 
719	 0.606165697355596 
720	 0.606182795723243 
721	 0.606153117651278 
722	 0.606035348852616 
723	 0.605975619191228 
724	 0.606082820325951 
725	 0.606076363171491 
726	 0.606226959642357 
727	 0.606308258444782 
728	 0.605869003162792 
729	 0.606049653781553 
730	 0.606060362639041 
731	 0.605571663302613 
732	 0.605403122622769 
733	 0.605610926663296 
734	 0.605924008256305 
735	 0.605988592825014 
736	 0.605604185763817 
737	 0.605310433817176 
738	 0.605331059941684 
739	 0.605627493953354 
740	 0.606114102926316 
741	 0.60605464152161 
742	 0.605477753338453 
743	 0.605619372466069 
744	 0.606084245310888 
745	 0.606538291983314 
746	 0.606720798225896 
747	 0.606622370193926 
748	 0.606570298439508 
749	 0.606594097062632 
750	 0.606540242070526 
751	 0.60637579219015 
752	 0.606128391240463 
753	 0.605927301381231 
754	 0.606007225154193 
755	 0.606098126576895 
756	 0.606163646118678 
757	 0.606120784474367 
758	 0.605483132636062 
759	 0.605587108352305 
760	 0.605935677156066 
761	 0.60545952988119 
762	 0.605558857791848 
763	 0.605771432692797 
764	 0.605744133529739 
765	 0.605421198881179 
766	 0.605206875632411 
767	 0.60528619505516 
768	 0.605557730325954 
769	 0.605398356215804 
770	 0.605157816765882 
771	 0.60504765367854 
772	 0.605211786924725 
773	 0.605731304310577 
774	 0.605906161914237 
775	 0.60569453458386 
776	 0.605605098218533 
777	 0.605540390554429 
778	 0.605487817827681 
779	 0.605453444180673 
780	 0.605463760142916 
781	 0.605643196904164 
782	 0.605757560562655 
783	 0.605606016642674 
784	 0.605466997299544 
785	 0.605322950685439 
786	 0.605257550206808 
787	 0.605386860367129 
788	 0.6056861811078 
789	 0.605797805618598 
790	 0.605672991399852 
791	 0.605657205510677 
792	 0.605813545587148 
793	 0.605975874114006 
794	 0.605927535329321 
795	 0.605417563134467 
796	 0.605125119668617 
797	 0.605169950409833 
798	 0.605372308751194 
799	 0.605328649693379 
800	 0.605323420052356 
801	 0.605436454661625 
802	 0.605533479316544 
803	 0.605276398696897 
804	 0.604897349888774 
805	 0.604645641675701 
806	 0.604660987405688 
807	 0.604459493552378 
808	 0.604260406329869 
809	 0.604280740168868 
810	 0.604175827400577 
811	 0.604083454038181 
812	 0.604131305644409 
813	 0.604353782318234 
814	 0.604332628785785 
815	 0.604125511499138 
816	 0.603872892594282 
817	 0.603752945361841 
818	 0.6038433091732 
819	 0.603858828207535 
820	 0.603744200787515 
821	 0.603905018743124 
822	 0.604091496551005 
823	 0.60408030881307 
824	 0.603771255739219 
825	 0.603335003889263 
826	 0.60338345231645 
827	 0.603831379997121 
828	 0.604188365168536 
829	 0.60385636291232 
830	 0.603969623483382 
831	 0.604477044570093 
832	 0.60430984932703 
833	 0.604302053598024 
834	 0.604289801706024 
835	 0.604164555214488 
836	 0.604112837838943 
837	 0.604290561650479 
838	 0.604429102014343 
839	 0.604341616331337 
840	 0.604418551674662 
841	 0.604125821441256 
842	 0.603868584299278 
843	 0.604175434495231 
844	 0.60419853004641 
845	 0.604212950685229 
846	 0.604102189124209 
847	 0.603552171764933 
848	 0.603362198163988 
849	 0.603158596514776 
850	 0.602884546767575 
851	 0.603014374895852 
852	 0.602952503184575 
853	 0.602574838144329 
854	 0.601990800981653 
855	 0.601524788209687 
856	 0.601697962925554 
857	 0.601855259728292 
858	 0.60138675154562 
859	 0.601300967622332 
860	 0.601232476061798 
861	 0.601220644188691 
862	 0.601393983628673 
863	 0.601121553458769 
864	 0.600951896879113 
865	 0.601057643330585 
866	 0.601180318403017 
867	 0.60091772930426 
868	 0.600702008149664 
869	 0.600620382751797 
870	 0.600156261072533 
871	 0.600133427216121 
872	 0.600490884480817 
873	 0.600893095430224 
874	 0.600870230640358 
875	 0.601027018159401 
876	 0.600949134454233 
877	 0.600297232010608 
878	 0.600059137285939 
879	 0.600447137122603 
880	 0.600949890654012 
881	 0.600888044526459 
882	 0.600807773692495 
883	 0.600956403725614 
884	 0.601012313965088 
885	 0.600406952864867 
886	 0.600152103140576 
887	 0.60040401882797 
888	 0.600844604270515 
889	 0.600791052914566 
890	 0.600427941471831 
891	 0.6001255314833 
892	 0.600159153983009 
893	 0.600566282831768 
894	 0.600424828152154 
895	 0.600015167209831 
896	 0.599784442947295 
897	 0.599738049655866 
898	 0.599528178927169 
899	 0.599169853596219 
900	 0.598828834517544 
901	 0.59866732888672 
902	 0.598576216838905 
903	 0.598481879088461 
904	 0.598264847476776 
905	 0.59740447472178 
906	 0.597016202062237 
907	 0.597041171264192 
908	 0.596594842679328 
909	 0.595931058816136 
910	 0.595425684181637 
911	 0.595154336575306 
912	 0.594880505914907 
913	 0.594711678625875 
914	 0.594617711286788 
915	 0.594459510529056 
916	 0.594012144419327 
917	 0.593803191984636 
918	 0.593499569202182 
919	 0.593081196430983 
920	 0.593405004104482 
921	 0.593490236892804 
922	 0.593588908928711 
923	 0.593911586477166 
924	 0.593738014697497 
925	 0.593431528090585 
926	 0.593176732980973 
927	 0.592980945409049 
928	 0.592425880679937 
929	 0.592075434255295 
930	 0.592037539742612 
931	 0.592237457704458 
932	 0.592808882129159 
933	 0.593426060874349 
934	 0.593693962539651 
935	 0.593364028623197 
936	 0.592890232353697 
937	 0.592900283723049 
938	 0.593308164551646 
939	 0.59354413557217 
940	 0.593540474405329 
941	 0.593408743893918 
942	 0.593454128581886 
943	 0.593977143246898 
944	 0.59413915028474 
945	 0.593932636376008 
946	 0.593604396420596 
947	 0.593527122165822 
948	 0.59375331605846 
949	 0.594294361737011 
950	 0.594744778773835 
951	 0.594345178248365 
952	 0.594319161866976 
953	 0.594145587626501 
954	 0.593621699705356 
955	 0.593442305320085 
956	 0.593408466804814 
957	 0.593470236989657 
958	 0.593420015411184 
959	 0.592797432573993 
960	 0.592526851073284 
961	 0.592219677039962 
962	 0.591507399023829 
963	 0.590691427808641 
964	 0.590307795389646 
965	 0.590289562628554 
966	 0.5902714519887 
967	 0.589672965873456 
968	 0.589544816620656 
969	 0.589302565437905 
970	 0.588503857216592 
971	 0.588260297976462 
972	 0.587852498439548 
973	 0.587255451981467 
974	 0.586607768482155 
975	 0.585895914991906 
976	 0.585092143972686 
977	 0.584490112629658 
978	 0.584265880764764 
979	 0.583948803706192 
980	 0.583857534483205 
981	 0.583555972418575 
982	 0.582785354302824 
983	 0.582594913230419 
984	 0.582556115613875 
985	 0.582424447244338 
986	 0.582063408124776 
987	 0.581472992675469 
988	 0.581036506234494 
989	 0.58089377121702 
990	 0.581008079651298 
991	 0.581213058076086 
992	 0.581012573780715 
993	 0.580755420826487 
994	 0.580931550891629 
995	 0.581373950335738 
996	 0.581469148693205 
997	 0.581493477406309 
998	 0.581791590894486 
999	 0.581765850405453 
1000	 0.581424968955027 
1001	 0.617513720425546 
1002	 0.617600352491669 
1003	 0.617670117926912 
1004	 0.617736041823348 
1005	 0.617692333455485 
1006	 0.617788617743859 
1007	 0.617967484801155 
1008	 0.618118369503259 
1009	 0.618339054155172 
1010	 0.618508078166837 
1011	 0.618628562708015 
1012	 0.618797816280231 
1013	 0.618946187164212 
1014	 0.619117579683782 
1015	 0.619325041731688 
1016	 0.619572877378031 
1017	 0.619775006133005 
1018	 0.620018753043573 
1019	 0.620065748668319 
1020	 0.619967240953693 
1021	 0.619947542580651 
1022	 0.619889382394534 
1023	 0.619747118412548 
1024	 0.619685905933696 
1025	 0.619472687622619 
1026	 0.619024605727316 
1027	 0.618696847570524 
1028	 0.618415053010931 
1029	 0.618020896430617 
1030	 0.617665112410888 
1031	 0.617265096335622 
1032	 0.616724682510925 
1033	 0.616159102164084 
1034	 0.61548139291144 
1035	 0.614794417945223 
1036	 0.614155473719667 
1037	 0.613518007886368 
1038	 0.612832501032442 
1039	 0.612138301224046 
1040	 0.611500857368897 
1041	 0.610842983385458 
1042	 0.610193386120241 
1043	 0.609585547549504 
1044	 0.609014088674909 
1045	 0.608432960102676 
1046	 0.607770872820506 
1047	 0.607155224438037 
1048	 0.606596284967096 
1049	 0.606016614630059 
1050	 0.60548825277619 
1051	 0.605037394989584 
1052	 0.604607498073307 
1053	 0.604220508459156 
1054	 0.603824036433093 
1055	 0.603546158393595 
1056	 0.603275942262436 
1057	 0.60319504064184 
1058	 0.603278011889248 
1059	 0.603352681525231 
1060	 0.603445667412543 
1061	 0.603726708902011 
1062	 0.603983575722373 
1063	 0.604304664253122 
1064	 0.604805660781117 
1065	 0.605245986793644 
1066	 0.605707248065117 
1067	 0.606313764528023 
1068	 0.606976174725305 
1069	 0.607694314505051 
1070	 0.608501618095014 
1071	 0.609388912570963 
1072	 0.610305186225291 
1073	 0.611253048997458 
1074	 0.612273296910428 
1075	 0.613300018421252 
1076	 0.614349624575465 
1077	 0.615459683208983 
1078	 0.616596971485804 
1079	 0.617749763001852 
1080	 0.618907695927998 
1081	 0.620108995930837 
1082	 0.621278878637411 
1083	 0.622337545998234 
1084	 0.623429177929806 
1085	 0.624549779775005 
1086	 0.625626833090117 
1087	 0.626675969941872 
1088	 0.627859803862289 
1089	 0.628961804955817 
1090	 0.629858000130217 
1091	 0.630784191502884 
1092	 0.631620632155814 
1093	 0.632348444270042 
1094	 0.633075552842241 
1095	 0.633682664473557 
1096	 0.634202516945048 
1097	 0.634699054957978 
1098	 0.635110234844263 
1099	 0.635515021290516 
1100	 0.635888003911478 
1101	 0.636112321316789 
1102	 0.636269426696779 
1103	 0.636337001683337 
1104	 0.636319878559641 
1105	 0.636186197157413 
1106	 0.636010839365924 
1107	 0.635755971561003 
1108	 0.635441304466388 
1109	 0.635103007039115 
1110	 0.634670765275079 
1111	 0.634118970543957 
1112	 0.633526612470144 
1113	 0.632836951834567 
1114	 0.632047420886964 
1115	 0.631332726960164 
1116	 0.630564711128892 
1117	 0.629757248428439 
1118	 0.628931276720099 
1119	 0.628114051924215 
1120	 0.627208170180213 
1121	 0.626276440203683 
1122	 0.625240907136729 
1123	 0.624100902763752 
1124	 0.623041446116489 
1125	 0.621951400902272 
1126	 0.620897482460978 
1127	 0.619942088708467 
1128	 0.61892367901836 
1129	 0.617894587723542 
1130	 0.616858788717238 
1131	 0.61581089086798 
1132	 0.61480155470814 
1133	 0.613813437093583 
1134	 0.612867970012109 
1135	 0.611900772123604 
1136	 0.610905933463636 
1137	 0.609999126797449 
1138	 0.609112958684797 
1139	 0.608245765388589 
1140	 0.607429087184961 
1141	 0.606665547950745 
1142	 0.605894298343125 
1143	 0.605108862166865 
1144	 0.604332339701513 
1145	 0.603545192149336 
1146	 0.602723129862077 
1147	 0.601869261676869 
1148	 0.601038814340817 
1149	 0.600298625013483 
1150	 0.599612886453497 
1151	 0.599007493300864 
1152	 0.598369561702899 
1153	 0.597749616572806 
1154	 0.597148084411707 
1155	 0.59653023528859 
1156	 0.595930505061306 
1157	 0.595401718325942 
1158	 0.59485422583264 
1159	 0.594267737247832 
1160	 0.593740567580503 
1161	 0.593241564785248 
1162	 0.592656940625142 
1163	 0.592078419395725 
1164	 0.591476995371344 
1165	 0.590877586746887 
1166	 0.590336981414103 
1167	 0.589785012368052 
1168	 0.589256682300749 
1169	 0.588769507704567 
1170	 0.588293104181902 
1171	 0.587838960339256 
1172	 0.587460446420517 
1173	 0.587043401313365 
1174	 0.58662168756008 
1175	 0.586193292479081 
1176	 0.585776529807975 
1177	 0.585316775448994 
1178	 0.584805701434531 
1179	 0.584332646165985 
1180	 0.583860836592932 
1181	 0.583364136930142 
1182	 0.582936042661052 
1183	 0.582534091639788 
1184	 0.582124009767257 
1185	 0.581782776993603 
1186	 0.581422892036954 
1187	 0.581059188172736 
1188	 0.580723386029905 
1189	 0.580397110919417 
1190	 0.580090404802328 
1191	 0.579793201222808 
1192	 0.57955594737263 
1193	 0.579338141273006 
1194	 0.57917524085774 
1195	 0.579113157905807 
1196	 0.578998910441807 
1197	 0.578903492960198 
1198	 0.578779143568603 
1199	 0.57863827457345 
1200	 0.578553431035116 
1201	 0.578462989470861 
1202	 0.578425626817186 
1203	 0.578457294436468 
1204	 0.578481456158416 
1205	 0.578574084970138 
1206	 0.578735437771265 
1207	 0.578920356172354 
1208	 0.579098716068797 
1209	 0.5794067468327 
1210	 0.579793239611104 
1211	 0.580237947202941 
1212	 0.580791558700536 
1213	 0.581366971367981 
1214	 0.581955927241649 
1215	 0.582645195010094 
1216	 0.583390323437658 
1217	 0.584216126133764 
1218	 0.585140789342565 
1219	 0.586133668282235 
1220	 0.587161049836739 
1221	 0.588295634374518 
1222	 0.589340052835327 
1223	 0.590351025712727 
1224	 0.591309986632012 
1225	 0.592196337403049 
1226	 0.593066805913351 
1227	 0.593904244527637 
1228	 0.594726886369491 
1229	 0.595522380981735 
1230	 0.596287707784764 
1231	 0.597023853308164 
1232	 0.597754572724857 
1233	 0.59846679815088 
1234	 0.599135722882899 
1235	 0.599781315043405 
1236	 0.600412029874688 
1237	 0.601009385521653 
1238	 0.60158246268412 
1239	 0.602146680559547 
1240	 0.602692306038109 
1241	 0.603197375528069 
1242	 0.603618256923667 
1243	 0.604003782931732 
1244	 0.604339421509772 
1245	 0.604655100151188 
1246	 0.604920121430754 
1247	 0.605157041694121 
1248	 0.605385705509248 
1249	 0.605540841777827 
1250	 0.605633476109287 
1251	 0.605701067267981 
1252	 0.605731134337868 
1253	 0.605711041088517 
1254	 0.605670161642218 
1255	 0.605548344866844 
1256	 0.60536016564728 
1257	 0.605119964449455 
1258	 0.604776368884169 
1259	 0.60444839844315 
1260	 0.604089152738258 
1261	 0.603712370883439 
1262	 0.603314767326146 
1263	 0.602909229039526 
1264	 0.602519101446813 
1265	 0.602088299845371 
1266	 0.601742570452578 
1267	 0.601457898203828 
1268	 0.60114177870005 
1269	 0.600853775218244 
1270	 0.600548574189187 
1271	 0.600194528065257 
1272	 0.599923062068732 
1273	 0.599660393176999 
1274	 0.59947372040131 
1275	 0.599343712073722 
1276	 0.599263782770431 
1277	 0.599216248399724 
1278	 0.599260372276085 
1279	 0.599378335312046 
1280	 0.599548929552624 
1281	 0.599801531914754 
1282	 0.600104056449949 
1283	 0.600439036970996 
1284	 0.600857759480444 
1285	 0.601347779017442 
1286	 0.601911452425124 
1287	 0.602534305650244 
1288	 0.603219284057774 
1289	 0.604001091512763 
1290	 0.604865591275102 
1291	 0.605784179765502 
1292	 0.606794017178408 
1293	 0.607849479928655 
1294	 0.60893339030246 
1295	 0.610132260550974 
1296	 0.611484018187149 
1297	 0.612772583067928 
1298	 0.614129868642491 
1299	 0.615454749505894 
1300	 0.616746017102469 
1301	 0.618047366117979 
1302	 0.619346137447424 
1303	 0.620670051978737 
1304	 0.622020669152692 
1305	 0.623331642662011 
1306	 0.624700230616574 
1307	 0.625969796870919 
1308	 0.627173027108589 
1309	 0.628330588275206 
1310	 0.629371363745666 
1311	 0.630326642187189 
1312	 0.631214137568188 
1313	 0.632017344694295 
1314	 0.632720802067243 
1315	 0.633342283353131 
1316	 0.633892014284225 
1317	 0.634336375495268 
1318	 0.634721709355069 
1319	 0.635078767028268 
1320	 0.635291812719492 
1321	 0.635395639408159 
1322	 0.635416180794822 
1323	 0.635362490866383 
1324	 0.635170890987247 
1325	 0.634864272122486 
1326	 0.634479231204966 
1327	 0.633963379278512 
1328	 0.633393825850968 
1329	 0.632778230408652 
1330	 0.632067452469174 
1331	 0.631253346475796 
1332	 0.630397734782587 
1333	 0.629503264045067 
1334	 0.628494003858442 
1335	 0.627477959452586 
1336	 0.62644173542755 
1337	 0.625293708114547 
1338	 0.624095393712525 
1339	 0.622802805993598 
1340	 0.621411506635388 
1341	 0.619997134303999 
1342	 0.618493468834069 
1343	 0.617025069305037 
1344	 0.615554068919771 
1345	 0.614025076780227 
1346	 0.61248647944027 
1347	 0.610912720772774 
1348	 0.609274902369921 
1349	 0.607643727723227 
1350	 0.605962756337082 
1351	 0.604340937819905 
1352	 0.602732320594814 
1353	 0.601119996625952 
1354	 0.599515822211111 
1355	 0.597958992986443 
1356	 0.596363535012399 
1357	 0.594860652955733 
1358	 0.593443868604661 
1359	 0.592044499266781 
1360	 0.590685811416614 
1361	 0.589359988753409 
1362	 0.588050140967782 
1363	 0.586837917325225 
1364	 0.585684873014302 
1365	 0.584606363619985 
1366	 0.583554606250521 
1367	 0.582572003087026 
1368	 0.581586523499271 
1369	 0.580640716483712 
1370	 0.579672640659719 
1371	 0.578736766051833 
1372	 0.57775834808448 
1373	 0.576773732661624 
1374	 0.575737758739172 
1375	 0.574651400082895 
1376	 0.5735645008151 
1377	 0.572440565773093 
1378	 0.571305727078688 
1379	 0.57010322169459 
1380	 0.569003972924863 
1381	 0.567869748771745 
1382	 0.566866092701784 
1383	 0.565969983662859 
1384	 0.565127455820544 
1385	 0.564365810012975 
1386	 0.563653856757238 
1387	 0.563028905034323 
1388	 0.562425779952686 
1389	 0.561873042503508 
1390	 0.561343787797265 
1391	 0.560863585849125 
1392	 0.560369888509003 
1393	 0.559922278136869 
1394	 0.559472332384407 
1395	 0.55898077022684 
1396	 0.558486030006945 
1397	 0.557946708842642 
1398	 0.557394979138643 
1399	 0.556748961516459 
1400	 0.556089947936125 
1401	 0.555282245710619 
1402	 0.554376150986398 
1403	 0.553370149341629 
1404	 0.5522241029656 
1405	 0.551086713156599 
1406	 0.549851295594738 
1407	 0.548639227404828 
1408	 0.547364728029284 
1409	 0.546173040134401 
1410	 0.544976627204998 
1411	 0.543844276350894 
1412	 0.542771280603274 
1413	 0.541749584201853 
1414	 0.540806207960044 
1415	 0.539831414165569 
1416	 0.538935953315022 
1417	 0.537953827450255 
1418	 0.536979091800655 
1419	 0.535874334696753 
1420	 0.534745489283126 
1421	 0.533464564544076 
1422	 0.53203555282186 
1423	 0.53052269548741 
1424	 0.528914161725175 
1425	 0.52714355493864 
1426	 0.525401511088963 
1427	 0.52353608588397 
1428	 0.521593767107216 
1429	 0.519782671483347 
1430	 0.518001635256546 
1431	 0.516186492861073 
1432	 0.514566632080862 
1433	 0.513061186243202 
1434	 0.511637837250956 
1435	 0.510338792631069 
1436	 0.509065964119414 
1437	 0.507890772166179 
1438	 0.506726398239991 
1439	 0.505578219143416 
1440	 0.504536425023696 
1441	 0.503509409134891 
1442	 0.502650680125549 
1443	 0.501852319695126 
1444	 0.501282298528054 
1445	 0.500788641991705 
1446	 0.500640934089937 
1447	 0.500664883495947 
1448	 0.50107533043268 
1449	 0.501802810019261 
1450	 0.502842158188546 
1451	 0.504294218905579 
1452	 0.505893823220604 
1453	 0.507880094283131 
1454	 0.509846569675326 
1455	 0.512047331449774 
1456	 0.514170051193891 
1457	 0.516440809195996 
1458	 0.518516971439004 
1459	 0.520551448395389 
1460	 0.522442095898705 
1461	 0.524196979021253 
1462	 0.525808784538866 
1463	 0.527302360800789 
1464	 0.52866714620502 
1465	 0.529845695956309 
1466	 0.530968202167031 
1467	 0.531941742759384 
1468	 0.532848226283789 
1469	 0.533718170784285 
1470	 0.534438866837467 
1471	 0.535131818857425 
1472	 0.535769638720734 
1473	 0.536333228866763 
1474	 0.536809708803838 
1475	 0.537255770410736 
1476	 0.537634896128795 
1477	 0.538005639503384 
1478	 0.53831723902357 
1479	 0.538644628495589 
1480	 0.538963711059599 
1481	 0.539263127289303 
1482	 0.539540548834608 
1483	 0.539831060953938 
1484	 0.540116907240329 
1485	 0.540389954142679 
1486	 0.54066596510587 
1487	 0.540926570433852 
1488	 0.541181036607226 
1489	 0.541402258021164 
1490	 0.541599377334586 
1491	 0.541800689407504 
1492	 0.541993916175602 
1493	 0.542147464689358 
1494	 0.542303865178561 
1495	 0.542413948760555 
1496	 0.542432468326664 
1497	 0.542510629084645 
1498	 0.542594957116899 
1499	 0.542683809197611 
1500	 0.542800998109515 
1501	 0.542904572634585 
1502	 0.542998635993548 
1503	 0.543095478855339 
1504	 0.543198885687122 
1505	 0.543293308382308 
1506	 0.543399708095941 
1507	 0.543473826629728 
1508	 0.543535903711822 
1509	 0.543573336764905 
1510	 0.543557041885174 
1511	 0.54356677398388 
1512	 0.543557114538978 
1513	 0.543578596667479 
1514	 0.543625680116368 
1515	 0.543681094564862 
1516	 0.543770902197508 
1517	 0.543844585307655 
1518	 0.543914300708364 
1519	 0.543987761291033 
1520	 0.544064209465065 
1521	 0.5441324154925 
1522	 0.54417580609861 
1523	 0.54421655290278 
1524	 0.54424045587121 
1525	 0.544231926138836 
1526	 0.544236782606671 
1527	 0.544242403261416 
1528	 0.544252177343415 
1529	 0.544254018191027 
1530	 0.544267823368131 
1531	 0.544304603508892 
1532	 0.54430046555037 
1533	 0.54428256910266 
1534	 0.544257307432048 
1535	 0.544211621553706 
1536	 0.544162805380841 
1537	 0.544104736459941 
1538	 0.544055978885436 
1539	 0.54398558281789 
1540	 0.543957062588513 
1541	 0.543946728061519 
1542	 0.543957286362666 
1543	 0.54401517717427 
1544	 0.544019612483823 
1545	 0.544044198849599 
1546	 0.543996489141575 
1547	 0.543901676547287 
1548	 0.543777687437624 
1549	 0.543575657554652 
1550	 0.543442739405796 
1551	 0.543296729183211 
1552	 0.543186706027244 
1553	 0.543147414507638 
1554	 0.543047720168034 
1555	 0.542936811548449 
1556	 0.542807799700967 
1557	 0.542640309985225 
1558	 0.542499114024949 
1559	 0.542340140834917 
1560	 0.542222806520824 
1561	 0.542127182006917 
1562	 0.542048835383033 
1563	 0.541989544864313 
1564	 0.54195800964111 
1565	 0.542000757089126 
1566	 0.541948115626248 
1567	 0.541879143092945 
1568	 0.541789909774933 
1569	 0.541612311256395 
1570	 0.541484957771323 
1571	 0.541354788173177 
1572	 0.541279027786573 
1573	 0.541203340187428 
1574	 0.541198235320858 
1575	 0.541300604738105 
1576	 0.541350844582046 
1577	 0.54142586011756 
1578	 0.541479763512599 
1579	 0.541528423861149 
1580	 0.541538269765679 
1581	 0.541541972094015 
1582	 0.541507334273796 
1583	 0.541395026369867 
1584	 0.541325696747687 
1585	 0.541245215238308 
1586	 0.541190710868535 
1587	 0.541165562660873 
1588	 0.541135640824602 
1589	 0.541121376403038 
1590	 0.541096989322851 
1591	 0.541076129234731 
1592	 0.541044777777696 
1593	 0.541017422938756 
1594	 0.540963362300684 
1595	 0.540887146364761 
1596	 0.540808122393526 
1597	 0.540721318261398 
1598	 0.54061073991802 
1599	 0.540456818649511 
1600	 0.540350386922521 
1601	 0.540221072772787 
1602	 0.54014500233386 
1603	 0.54015251849519 
1604	 0.540126448150115 
1605	 0.54012043518814 
1606	 0.54008794795673 
1607	 0.540027029608054 
1608	 0.539976340368763 
1609	 0.539958000574932 
1610	 0.539868812504499 
1611	 0.53974278578819 
1612	 0.539603892985361 
1613	 0.539390759200804 
1614	 0.539207943646857 
1615	 0.539048039705093 
1616	 0.538869281463076 
1617	 0.538665177801928 
1618	 0.53848626784297 
1619	 0.538305487582303 
1620	 0.53814071330619 
1621	 0.537995770707164 
1622	 0.537861725854904 
1623	 0.537758520213619 
1624	 0.537628931948655 
1625	 0.537531254990477 
1626	 0.537366418799842 
1627	 0.537120586787603 
1628	 0.53691251770099 
1629	 0.536694034692394 
1630	 0.536471265369185 
1631	 0.536295358164718 
1632	 0.53605697939934 
1633	 0.535733484409867 
1634	 0.535462976833979 
1635	 0.535201442105009 
1636	 0.5349311514094 
1637	 0.534676428827964 
1638	 0.534431823294666 
1639	 0.534203237814573 
1640	 0.533929034319796 
1641	 0.533676830798406 
1642	 0.533362244992343 
1643	 0.532916325231321 
1644	 0.532570476798756 
1645	 0.532273717174903 
1646	 0.531948449084701 
1647	 0.531662334832915 
1648	 0.531351548291908 
1649	 0.531012914434061 
1650	 0.530649762918462 
1651	 0.53029358927936 
1652	 0.529911592239118 
1653	 0.529516438465215 
1654	 0.529051375436024 
1655	 0.528552918402941 
1656	 0.528007490511877 
1657	 0.527383386112419 
1658	 0.526738065497839 
1659	 0.526054634303792 
1660	 0.525374212755174 
1661	 0.524696934734353 
1662	 0.523937889316963 
1663	 0.523159949351937 
1664	 0.522296074542645 
1665	 0.521302384153086 
1666	 0.52033125742559 
1667	 0.519381984767267 
1668	 0.518334161503454 
1669	 0.517262241903828 
1670	 0.516082639621621 
1671	 0.514738907670559 
1672	 0.513439614597567 
1673	 0.512138963107273 
1674	 0.510753295409721 
1675	 0.509353076821672 
1676	 0.507893421151638 
1677	 0.506315818924234 
1678	 0.504769400894645 
1679	 0.503223822349126 
1680	 0.501624238561354 
1681	 0.500051418820608 
1682	 0.49830829609031 
1683	 0.496412789085643 
1684	 0.494601108390934 
1685	 0.492706817323894 
1686	 0.490845342887181 
1687	 0.489012909022264 
1688	 0.487209547048365 
1689	 0.485409014337298 
1690	 0.48357089711332 
1691	 0.481839080602207 
1692	 0.479971192572852 
1693	 0.478023004550645 
1694	 0.475988041164666 
1695	 0.473835021817363 
1696	 0.471693219308769 
1697	 0.469456906458704 
1698	 0.467260531138337 
1699	 0.465088872523263 
1700	 0.462947707369742 
1701	 0.460764257304686 
1702	 0.458696868198886 
1703	 0.456678304587985 
1704	 0.454719315868939 
1705	 0.452810178021864 
1706	 0.450959477526316 
1707	 0.449312492399359 
1708	 0.447796105528862 
1709	 0.446325510438457 
1710	 0.445014940180557 
1711	 0.443792975422828 
1712	 0.442677810625449 
1713	 0.441613633181592 
1714	 0.440550669757508 
1715	 0.439550002846899 
1716	 0.438492975892537 
1717	 0.437478867047634 
1718	 0.436555353659072 
1719	 0.435670454025316 
1720	 0.434943327049121 
1721	 0.434325332603924 
1722	 0.433751333378961 
1723	 0.433273555968572 
1724	 0.432847307332467 
1725	 0.432500523935707 
1726	 0.432338261465026 
1727	 0.432335369080773 
1728	 0.432434392465679 
1729	 0.432726303394726 
1730	 0.433193755452657 
1731	 0.433761231978795 
1732	 0.434540907796427 
1733	 0.435411056950938 
1734	 0.436384217447416 
1735	 0.437430484828752 
1736	 0.438412358476985 
1737	 0.439406284940785 
1738	 0.44029225430158 
1739	 0.440908562470105 
1740	 0.44137489208434 
1741	 0.441641052392394 
1742	 0.44162178763908 
1743	 0.441563428103552 
1744	 0.441313253654274 
1745	 0.441075917933741 
1746	 0.440766925858969 
1747	 0.440429535125868 
1748	 0.440046543585482 
1749	 0.439678097005377 
1750	 0.439223084294207 
1751	 0.438871812669306 
1752	 0.438574950233698 
1753	 0.438289453500236 
1754	 0.438011596716309 
1755	 0.437881946995695 
1756	 0.437793506220963 
1757	 0.437877604519304 
1758	 0.438055066660378 
1759	 0.438295322557063 
1760	 0.43865042146116 
1761	 0.439178836045266 
1762	 0.439768729441069 
1763	 0.440448691276224 
1764	 0.441224318630072 
1765	 0.442080596313482 
1766	 0.443088407987307 
1767	 0.444151015444271 
1768	 0.445237585059009 
1769	 0.446337610074539 
1770	 0.447381158854096 
1771	 0.44842016930422 
1772	 0.449444055779626 
1773	 0.450416683627132 
1774	 0.45129127557543 
1775	 0.452017902170858 
1776	 0.452698093871345 
1777	 0.453267848996845 
1778	 0.453742806738598 
1779	 0.454256451159288 
1780	 0.454711201983518 
1781	 0.45508212617791 
1782	 0.455456911547493 
1783	 0.455797338386346 
1784	 0.456061224042389 
1785	 0.456264055201592 
1786	 0.456434708531301 
1787	 0.456530409611118 
1788	 0.456601196518936 
1789	 0.456650661109567 
1790	 0.456692813310954 
1791	 0.456720049533991 
1792	 0.456633308574345 
1793	 0.456477766656683 
1794	 0.456249737544257 
1795	 0.456032645408022 
1796	 0.455890165903475 
1797	 0.455777426789028 
1798	 0.455696970059493 
1799	 0.455652215548232 
1800	 0.4556044336132 
1801	 0.441372232965726 
1802	 0.441718349765097 
1803	 0.441993480985141 
1804	 0.44217517035636 
1805	 0.442389864008029 
1806	 0.442591450052919 
1807	 0.442715297455458 
1808	 0.442946821830468 
1809	 0.443252029558412 
1810	 0.443497323351173 
1811	 0.443779569804046 
1812	 0.444019808434927 
1813	 0.444184870205661 
1814	 0.444431037029148 
1815	 0.444640465318792 
1816	 0.44479749229801 
1817	 0.44495612470188 
1818	 0.445059350304753 
1819	 0.445214628393439 
1820	 0.445398234029288 
1821	 0.445558941230672 
1822	 0.445739652055152 
1823	 0.445902669028885 
1824	 0.44599478339507 
1825	 0.446102396819166 
1826	 0.446224732380988 
1827	 0.446313646088641 
1828	 0.446469852857712 
1829	 0.446665359539309 
1830	 0.446860100386763 
1831	 0.447087183425305 
1832	 0.447323447581156 
1833	 0.447528755552646 
1834	 0.447768399923583 
1835	 0.447948683458139 
1836	 0.448067538791975 
1837	 0.448196613786341 
1838	 0.448272896751236 
1839	 0.448392536550766 
1840	 0.448512107950529 
1841	 0.44866399736888 
1842	 0.448830271914424 
1843	 0.449009532098986 
1844	 0.449231663063733 
1845	 0.449502613524488 
1846	 0.449823227066309 
1847	 0.450142327635945 
1848	 0.450421782190442 
1849	 0.45072054122903 
1850	 0.45092800032366 
1851	 0.45107437419297 
1852	 0.451228728367716 
1853	 0.451268044501272 
1854	 0.451322773952418 
1855	 0.451410127047069 
1856	 0.451424835306519 
1857	 0.451439579829078 
1858	 0.451512317535859 
1859	 0.451582491146754 
1860	 0.451645678985413 
1861	 0.451695426212683 
1862	 0.451799068719663 
1863	 0.451833898513572 
1864	 0.451775868411695 
1865	 0.451697672620797 
1866	 0.451473819947628 
1867	 0.451173222406529 
1868	 0.450768888470387 
1869	 0.45028200759241 
1870	 0.449834705231373 
1871	 0.449314008807052 
1872	 0.448906178961206 
1873	 0.448539623664566 
1874	 0.448236576797241 
1875	 0.44799050163393 
1876	 0.44768053819537 
1877	 0.447406963712481 
1878	 0.447092249003251 
1879	 0.446724296046795 
1880	 0.446362404951239 
1881	 0.445851206845486 
1882	 0.445250987606615 
1883	 0.444542571995664 
1884	 0.443672921933896 
1885	 0.442633495794631 
1886	 0.441498055091801 
1887	 0.440267214865227 
1888	 0.438955110970056 
1889	 0.437658300842753 
1890	 0.436269280422189 
1891	 0.434856924513428 
1892	 0.433463836294781 
1893	 0.432063321543718 
1894	 0.430618520350969 
1895	 0.429290666353439 
1896	 0.42792687822269 
1897	 0.426597219504998 
1898	 0.425372137616535 
1899	 0.424075484213569 
1900	 0.42287442427626 
1901	 0.421691251986727 
1902	 0.420444791685914 
1903	 0.419289642907799 
1904	 0.418153416888522 
1905	 0.417007949883145 
1906	 0.415935861446304 
1907	 0.415006841269368 
1908	 0.414090803460408 
1909	 0.413252951341257 
1910	 0.412480176903711 
1911	 0.411677949437303 
1912	 0.410931407450211 
1913	 0.410216871217905 
1914	 0.409469406527841 
1915	 0.408789929131382 
1916	 0.408156545532815 
1917	 0.407541404078179 
1918	 0.406935705070155 
1919	 0.406425248363879 
1920	 0.405924709359165 
1921	 0.405448791373485 
1922	 0.405039594077167 
1923	 0.404653965160169 
1924	 0.404295117137452 
1925	 0.403933731016094 
1926	 0.403610038329065 
1927	 0.403337453102909 
1928	 0.403049951035335 
1929	 0.402765918516606 
1930	 0.402513259521774 
1931	 0.402264497880107 
1932	 0.401976067209512 
1933	 0.401766486255508 
1934	 0.401600414278194 
1935	 0.40145883373986 
1936	 0.401389843404682 
1937	 0.401326570274145 
1938	 0.401283466399413 
1939	 0.40128756496144 
1940	 0.401330837267656 
1941	 0.401376407849564 
1942	 0.401495063827467 
1943	 0.4016159233025 
1944	 0.401732417547836 
1945	 0.401899783798895 
1946	 0.402077332693267 
1947	 0.402243327231449 
1948	 0.402446166222534 
1949	 0.402694810769197 
1950	 0.40293749864256 
1951	 0.40319264111354 
1952	 0.403460990474198 
1953	 0.403753338441206 
1954	 0.40402250462608 
1955	 0.404311892137848 
1956	 0.404605484697395 
1957	 0.404871504050291 
1958	 0.405101137991624 
1959	 0.405275426762273 
1960	 0.405432694173102 
1961	 0.405606311409317 
1962	 0.40576924345276 
1963	 0.405930833972923 
1964	 0.406087165150391 
1965	 0.406257473801293 
1966	 0.406425141577205 
1967	 0.406611916507464 
1968	 0.40677427388055 
1969	 0.406939172703276 
1970	 0.407055201824285 
1971	 0.407138201828996 
1972	 0.407266470711215 
1973	 0.407390548856577 
1974	 0.407483339303421 
1975	 0.40755499181426 
1976	 0.407633543298486 
1977	 0.407697136823694 
1978	 0.407758991997067 
1979	 0.407827128056264 
1980	 0.40790804970329 
1981	 0.40793896420829 
1982	 0.407906276892706 
1983	 0.407872760973248 
1984	 0.407809509894821 
1985	 0.40774555283814 
1986	 0.407672152020713 
1987	 0.407591853149035 
1988	 0.40749925882469 
1989	 0.407404142254016 
1990	 0.407304674116701 
1991	 0.407206671904458 
1992	 0.407086966265053 
1993	 0.407015968876321 
1994	 0.40693045530767 
1995	 0.406783500500878 
1996	 0.40666347659456 
1997	 0.406467379023379 
1998	 0.406305037806779 
1999	 0.40613850513539 
2000	 0.40598877246777 
2001	 0.405838818269643 
2002	 0.40571385042669 
2003	 0.405588408382587 
2004	 0.405493726101195 
2005	 0.405415152262464 
2006	 0.405363558892196 
2007	 0.405346648573456 
2008	 0.405373099463145 
2009	 0.405316868033105 
2010	 0.405280245527644 
2011	 0.405273518852436 
2012	 0.405129250753591 
2013	 0.405015600666229 
2014	 0.404920332623998 
2015	 0.404790316666112 
2016	 0.404596303204224 
2017	 0.404441428221046 
2018	 0.404305280313371 
2019	 0.404137407647574 
2020	 0.403929887452965 
2021	 0.403766619998863 
2022	 0.403641224412356 
2023	 0.403549540219088 
2024	 0.403460932669236 
2025	 0.403411955234152 
2026	 0.403293831176521 
2027	 0.403122433206019 
2028	 0.402935734518815 
2029	 0.402737309336367 
2030	 0.402499295738125 
2031	 0.402197453699995 
2032	 0.401929040735531 
2033	 0.401636250777214 
2034	 0.401365023398189 
2035	 0.40110137299828 
2036	 0.400860683212022 
2037	 0.400629497419922 
2038	 0.400391634146775 
2039	 0.400192799542863 
2040	 0.40001533090876 
2041	 0.399868431076468 
2042	 0.39975045435124 
2043	 0.399653974049449 
2044	 0.399605895408816 
2045	 0.399532523611062 
2046	 0.399486659020974 
2047	 0.399406704691213 
2048	 0.399309673268016 
2049	 0.399186526247785 
2050	 0.399018132955283 
2051	 0.398877360340826 
2052	 0.398710517963751 
2053	 0.398627196875744 
2054	 0.398562709243629 
2055	 0.398562319309138 
2056	 0.398522632971483 
2057	 0.39850914270434 
2058	 0.398461104387463 
2059	 0.398417754997654 
2060	 0.398319477606138 
2061	 0.398146429405295 
2062	 0.398031810253524 
2063	 0.39787999552853 
2064	 0.397780563555151 
2065	 0.39772605575023 
2066	 0.397727508989544 
2067	 0.397711116340625 
2068	 0.397660572382719 
2069	 0.397589301835095 
2070	 0.39749364118756 
2071	 0.397396838281116 
2072	 0.397272371461431 
2073	 0.397166480041978 
2074	 0.397065252033094 
2075	 0.39696122686774 
2076	 0.396874249408806 
2077	 0.396752378061686 
2078	 0.396578415713723 
2079	 0.396456574836855 
2080	 0.396349650854755 
2081	 0.396231931578872 
2082	 0.396100279483167 
2083	 0.396066022195515 
2084	 0.395980275706631 
2085	 0.395876954459464 
2086	 0.395776490563601 
2087	 0.395704557165839 
2088	 0.395575404964242 
2089	 0.395408908869405 
2090	 0.395239312070199 
2091	 0.395036771896951 
2092	 0.394846185632804 
2093	 0.394633773730346 
2094	 0.394454115066111 
2095	 0.394272707658845 
2096	 0.394125915079461 
2097	 0.39401122235469 
2098	 0.393909070041278 
2099	 0.393832804679426 
2100	 0.393759050639693 
2101	 0.393671942418765 
2102	 0.393618380207145 
2103	 0.393472758830363 
2104	 0.39328547822643 
2105	 0.393073149955202 
2106	 0.39278278570535 
2107	 0.392519333140412 
2108	 0.392238371324976 
2109	 0.391983496359023 
2110	 0.391744841593129 
2111	 0.391488494189248 
2112	 0.391276839649776 
2113	 0.390990718933461 
2114	 0.39062332858992 
2115	 0.390286714824135 
2116	 0.389944028595981 
2117	 0.389563519723839 
2118	 0.389208036640294 
2119	 0.388880136876077 
2120	 0.388534320304273 
2121	 0.388153912999017 
2122	 0.387828701926925 
2123	 0.387490832892025 
2124	 0.387246483173096 
2125	 0.387070783765096 
2126	 0.386905918019396 
2127	 0.386823634742067 
2128	 0.386714352102133 
2129	 0.386602753965593 
2130	 0.386500566959472 
2131	 0.386419730727881 
2132	 0.386331604363975 
2133	 0.38624776621671 
2134	 0.386166818662071 
2135	 0.386081722077468 
2136	 0.385940274483307 
2137	 0.385751540748283 
2138	 0.385503212282587 
2139	 0.38526721431373 
2140	 0.384964613684737 
2141	 0.384726997259178 
2142	 0.384498270587288 
2143	 0.384313777243408 
2144	 0.384158502587699 
2145	 0.384032340051111 
2146	 0.383938304501154 
2147	 0.383873372901043 
2148	 0.383849266543097 
2149	 0.383827862226675 
2150	 0.383879127136537 
2151	 0.383865090714349 
2152	 0.383830045231593 
2153	 0.383785254859904 
2154	 0.383675336042456 
2155	 0.383539031467758 
2156	 0.383429365250803 
2157	 0.383323960154827 
2158	 0.38316646300229 
2159	 0.382983755329369 
2160	 0.382831731912025 
2161	 0.38264527278405 
2162	 0.382492361407749 
2163	 0.382411858274062 
2164	 0.382258402496459 
2165	 0.382071691739441 
2166	 0.381871049672551 
2167	 0.381671535695176 
2168	 0.381408359764009 
2169	 0.381072344760664 
2170	 0.380765952835022 
2171	 0.380403230454809 
2172	 0.380086302995401 
2173	 0.379803760920502 
2174	 0.379526400805371 
2175	 0.379293579799358 
2176	 0.37905373268083 
2177	 0.378847438155091 
2178	 0.378675298635485 
2179	 0.378510269486166 
2180	 0.37836671222843 
2181	 0.378221413386859 
2182	 0.378118108902582 
2183	 0.377956769411526 
2184	 0.377771581353993 
2185	 0.37757261703499 
2186	 0.377334470087651 
2187	 0.377107066511443 
2188	 0.376852876097035 
2189	 0.376646454013614 
2190	 0.376464959444855 
2191	 0.376272784225518 
2192	 0.376131392075634 
2193	 0.375942906404264 
2194	 0.375742733954034 
2195	 0.375497105468771 
2196	 0.375189880580797 
2197	 0.374891681962695 
2198	 0.374621236317043 
2199	 0.374343116131398 
2200	 0.374114347142319 
2201	 0.373974494771138 
2202	 0.373734839006799 
2203	 0.373474246453497 
2204	 0.373203473324787 
2205	 0.372892664795762 
2206	 0.372582391416817 
2207	 0.372269417253122 
2208	 0.371936807157218 
2209	 0.371584911162004 
2210	 0.37121643584488 
2211	 0.370803037102745 
2212	 0.370452183940755 
2213	 0.370129328020437 
2214	 0.369783361925602 
2215	 0.369469237733435 
2216	 0.369131478518679 
2217	 0.368785298852268 
2218	 0.368389604296919 
2219	 0.368018866257496 
2220	 0.367565341781259 
2221	 0.367019810964641 
2222	 0.366433485650944 
2223	 0.365888441079494 
2224	 0.365308110854213 
2225	 0.364752694448411 
2226	 0.364229118607092 
2227	 0.363596818255349 
2228	 0.362929042506496 
2229	 0.362179269990704 
2230	 0.3613374940072 
2231	 0.360483553564191 
2232	 0.359601078703416 
2233	 0.358615281000292 
2234	 0.357629560792933 
2235	 0.356423798118501 
2236	 0.355036645586054 
2237	 0.353634066130612 
2238	 0.352007901211935 
2239	 0.350519773252838 
2240	 0.349107628779138 
2241	 0.347574546220845 
2242	 0.34610429997812 
2243	 0.344450166953369 
2244	 0.342626681301083 
2245	 0.340773607019812 
2246	 0.338704237280953 
2247	 0.336767081511533 
2248	 0.334883873516533 
2249	 0.33294314242651 
2250	 0.331031129931719 
2251	 0.329158631628527 
2252	 0.327014338002899 
2253	 0.324950810362807 
2254	 0.322901217126448 
2255	 0.320765444827024 
2256	 0.318815434835606 
2257	 0.316880237655916 
2258	 0.314937852984825 
2259	 0.313028809761193 
2260	 0.31111182578912 
2261	 0.309146914894378 
2262	 0.307306061582375 
2263	 0.305460430392619 
2264	 0.303796165527284 
2265	 0.302300551290975 
2266	 0.300769731917585 
2267	 0.299367061533016 
2268	 0.297919265025535 
2269	 0.296400362062207 
2270	 0.295025866909852 
2271	 0.293739949581353 
2272	 0.292457385457892 
2273	 0.291269572588868 
2274	 0.290054392653343 
2275	 0.2888757711818 
2276	 0.287636562462865 
2277	 0.2864559482056 
2278	 0.285133059264361 
2279	 0.283656490394554 
2280	 0.282208911300868 
2281	 0.280683191308622 
2282	 0.279153577870519 
2283	 0.277661355275662 
2284	 0.276117985619512 
2285	 0.274434110373527 
2286	 0.272775433641719 
2287	 0.270989552406812 
2288	 0.269197507033169 
2289	 0.267464326169416 
2290	 0.265580361564765 
2291	 0.263765156328983 
2292	 0.261885456475669 
2293	 0.259738393208872 
2294	 0.257630587564042 
2295	 0.255474999869399 
2296	 0.253265639989009 
2297	 0.251384991012103 
2298	 0.249702962054046 
2299	 0.248160354016457 
2300	 0.246833747412207 
2301	 0.245615118740256 
2302	 0.244487056093705 
2303	 0.243622507193102 
2304	 0.242964670835612 
2305	 0.242488360486234 
2306	 0.242235585454857 
2307	 0.242193814179429 
2308	 0.242405190839794 
2309	 0.24266785890259 
2310	 0.243115896114101 
2311	 0.2437055634248 
2312	 0.244454177312377 
2313	 0.245267060207457 
2314	 0.24638404985897 
2315	 0.247297716296359 
2316	 0.248214127787542 
2317	 0.248987118266929 
2318	 0.249664501790081 
2319	 0.250256674263942 
2320	 0.250714793058692 
2321	 0.251124855714016 
2322	 0.251502999173851 
2323	 0.251755705062679 
2324	 0.251849210838718 
2325	 0.251996920824217 
2326	 0.252125095425174 
2327	 0.252101674313474 
2328	 0.251982364559402 
2329	 0.251876617800118 
2330	 0.251670447816528 
2331	 0.251407272727471 
2332	 0.251209008541238 
2333	 0.25105183662378 
2334	 0.250786174080827 
2335	 0.250572271396947 
2336	 0.250276766405859 
2337	 0.249829577628446 
2338	 0.249352071452986 
2339	 0.248723651205668 
2340	 0.248109316190565 
2341	 0.247614134920311 
2342	 0.24715957434358 
2343	 0.246781986559132 
2344	 0.246588616693289 
2345	 0.246596588022292 
2346	 0.246809244480463 
2347	 0.247267587853883 
2348	 0.24783415070311 
2349	 0.248584953705729 
2350	 0.249404399041473 
2351	 0.250393464887757 
2352	 0.251678718635972 
2353	 0.253027630632575 
2354	 0.254325581310298 
2355	 0.255512028337924 
2356	 0.256606003986688 
2357	 0.257640044420305 
2358	 0.258621416692867 
2359	 0.259362187394561 
2360	 0.259851648325805 
2361	 0.260159783302316 
2362	 0.260345422166969 
2363	 0.260540958105721 
2364	 0.260648473756108 
2365	 0.260712932347833 
2366	 0.260872446257917 
2367	 0.260962486245732 
2368	 0.261033719441905 
2369	 0.261139154654218 
2370	 0.261005213112105 
2371	 0.260904897686377 
2372	 0.260993153774103 
2373	 0.261025159446025 
2374	 0.261154948993932 
2375	 0.261238654694469 
2376	 0.261198530446279 
2377	 0.261243461900402 
2378	 0.261349412201809 
2379	 0.261437295612101 
2380	 0.261366046935558 
2381	 0.261248089118917 
2382	 0.261189586554336 
2383	 0.260987105711025 
2384	 0.260986903289982 
2385	 0.261192737609806 
2386	 0.26132146593535 
2387	 0.261452929435166 
2388	 0.261610474639318 
2389	 0.261798194440876 
2390	 0.261973191517059 
2391	 0.262254235238133 
2392	 0.262330216457351 
2393	 0.262306808197661 
2394	 0.262220986992034 
2395	 0.261907936170641 
2396	 0.26177606377711 
2397	 0.261751609818756 
2398	 0.261688729682926 
2399	 0.261646632063849 
2400	 0.261569707042088 
2401	 0.261398832784666 
2402	 0.261311348527877 
2403	 0.261294466346029 
2404	 0.261306144327591 
2405	 0.261327233790424 
2406	 0.261258743317849 
2407	 0.261177877604876 
2408	 0.261069517997547 
2409	 0.260793018148315 
2410	 0.260543784322649 
2411	 0.260434677475463 
2412	 0.260202684589922 
2413	 0.260118853680781 
2414	 0.260044391138361 
2415	 0.259832991614197 
2416	 0.259782444317005 
2417	 0.259677264869501 
2418	 0.259675573857541 
2419	 0.259828851004112 
2420	 0.259947402395475 
2421	 0.259945523109083 
2422	 0.259711133076114 
2423	 0.259349517185819 
2424	 0.258911643023708 
2425	 0.258722612938562 
2426	 0.258610104481043 
2427	 0.258489905125795 
2428	 0.258426443451532 
2429	 0.258157630115723 
2430	 0.257969025086269 
2431	 0.257684143603596 
2432	 0.257331032537455 
2433	 0.257179482727298 
2434	 0.256924393262554 
2435	 0.256677833903691 
2436	 0.256710869438801 
2437	 0.256597479837876 
2438	 0.256329333823772 
2439	 0.256246860032454 
2440	 0.255910075918508 
2441	 0.25549095734866 
2442	 0.255573605754442 
2443	 0.255594591232868 
2444	 0.255359981875664 
2445	 0.255220897347303 
2446	 0.254505443538617 
2447	 0.253612707035149 
2448	 0.253115101428489 
2449	 0.252591225644631 
2450	 0.25247123416479 
2451	 0.252410685145353 
2452	 0.252080898107983 
2453	 0.251964321022599 
2454	 0.251768920098091 
2455	 0.251445354532994 
2456	 0.25131761206247 
2457	 0.251021057664451 
2458	 0.250190177940603 
2459	 0.249694930020939 
2460	 0.249729757930056 
2461	 0.249559298836165 
2462	 0.249722562372625 
2463	 0.249899436908964 
2464	 0.24961607503938 
2465	 0.249231979220282 
2466	 0.24871099026149 
2467	 0.248360268764875 
2468	 0.248037254035253 
2469	 0.247754071286255 
2470	 0.247904911750253 
2471	 0.248018164835223 
2472	 0.247819007332179 
2473	 0.247678294944212 
2474	 0.247411409884643 
2475	 0.2472697441975 
2476	 0.247141725132905 
2477	 0.24685273235092 
2478	 0.246918805713108 
2479	 0.247073752064484 
2480	 0.247489011432838 
2481	 0.247649380664246 
2482	 0.247634499641887 
2483	 0.247245213126067 
2484	 0.247136537293838 
2485	 0.247276563347265 
2486	 0.247637649270422 
2487	 0.247914786529254 
2488	 0.247983700869625 
2489	 0.247756648615647 
2490	 0.247684103982571 
2491	 0.247747280613339 
2492	 0.248175647608454 
2493	 0.248951391296973 
2494	 0.249139887011778 
2495	 0.249094543368707 
2496	 0.249169119282076 
2497	 0.249402626506808 
2498	 0.249207367207176 
2499	 0.249141176227695 
2500	 0.249562049970928 
