Wavelength	spectrum00010.asd
350	 5.11941580480513E-02 
351	 5.14605581313295E-02 
352	 0.050258879235161 
353	 4.74143209705434E-02 
354	 4.92177834076704E-02 
355	 0.045486732149804 
356	 4.20936359666104E-02 
357	 4.38501142627219E-02 
358	 4.22428887930914E-02 
359	 4.16171687048037E-02 
360	 4.25403103905044E-02 
361	 4.30715185752195E-02 
362	 3.75722288960365E-02 
363	 3.47507978351072E-02 
364	 3.68749739461798E-02 
365	 0.036415571440687 
366	 3.41285222218026E-02 
367	 3.34637830970391E-02 
368	 3.60393331628532E-02 
369	 3.53962035425624E-02 
370	 3.34471805886787E-02 
371	 3.23029952490026E-02 
372	 3.35994959345605E-02 
373	 3.34970813009428E-02 
374	 3.46088480992774E-02 
375	 3.62104164979171E-02 
376	 0.031845456256313 
377	 3.02202278829949E-02 
378	 3.19098829657131E-02 
379	 3.41844261133913E-02 
380	 3.12595113461646E-02 
381	 2.88642146447721E-02 
382	 2.93246568504872E-02 
383	 0.03196619076973 
384	 3.15739156311765E-02 
385	 2.95934961733778E-02 
386	 2.83230483164352E-02 
387	 3.00525963877949E-02 
388	 3.02762532385953E-02 
389	 3.02757997516934E-02 
390	 3.13437251663857E-02 
391	 0.028265884053468 
392	 2.76878687332791E-02 
393	 2.89276823998522E-02 
394	 2.69137414447321E-02 
395	 0.026550098305657 
396	 0.026598450540195 
397	 2.61074601175061E-02 
398	 2.58652157508826E-02 
399	 2.63135285218213E-02 
400	 2.68581860006187E-02 
401	 2.67647350213805E-02 
402	 0.026170093551497 
403	 2.49330111104248E-02 
404	 2.41683747791184E-02 
405	 2.55351947893758E-02 
406	 0.02519304475364 
407	 2.43519263391598E-02 
408	 0.02409482918042 
409	 2.37352930422955E-02 
410	 2.36860584743728E-02 
411	 0.023925160300565 
412	 0.024168519961543 
413	 2.36654313933276E-02 
414	 0.022695861976272 
415	 2.21718454054187E-02 
416	 2.33331359260318E-02 
417	 2.36271093135975E-02 
418	 2.32265433586991E-02 
419	 2.27825553033179E-02 
420	 2.28866787450409E-02 
421	 2.22137363405757E-02 
422	 2.15568808546211E-02 
423	 2.21392610763984E-02 
424	 2.19405346187584E-02 
425	 2.18614411018007E-02 
426	 2.20626248836068E-02 
427	 2.16290331857727E-02 
428	 0.021695681648944 
429	 2.18115683526364E-02 
430	 2.15159199308689E-02 
431	 2.13759474046318E-02 
432	 2.14238458622781E-02 
433	 2.15040877799958E-02 
434	 2.13862266454832E-02 
435	 0.021206238483955 
436	 2.11396268218329E-02 
437	 2.11913643118916E-02 
438	 2.11203573388102E-02 
439	 2.06789258007961E-02 
440	 2.04407685798953E-02 
441	 2.08748279363592E-02 
442	 2.10411390161116E-02 
443	 2.08670481325031E-02 
444	 2.05279868056043E-02 
445	 2.03581001362015E-02 
446	 2.02096283954218E-02 
447	 2.02829520099782E-02 
448	 2.06005284075394E-02 
449	 2.07161235808008E-02 
450	 0.020682757617326 
451	 2.04993674395596E-02 
452	 2.02269749429151E-02 
453	 2.02966965152714E-02 
454	 2.02155096650873E-02 
455	 2.00291823784966E-02 
456	 2.04216060121363E-02 
457	 0.020403791267312 
458	 2.02172004946732E-02 
459	 2.01978676222148E-02 
460	 2.00645982169563E-02 
461	 2.01484526998995E-02 
462	 2.03472013833856E-02 
463	 2.03377250786823E-02 
464	 2.01860026861702E-02 
465	 2.00987619696956E-02 
466	 2.01012788658325E-02 
467	 1.99011126762728E-02 
468	 2.00192319332325E-02 
469	 2.02100595671951E-02 
470	 2.01242869434218E-02 
471	 1.99813736111475E-02 
472	 1.99056385937794E-02 
473	 1.98932766136686E-02 
474	 1.98446193190898E-02 
475	 1.98553413050407E-02 
476	 1.98509244482923E-02 
477	 1.98154749939101E-02 
478	 1.99385465632236E-02 
479	 1.99695689430882E-02 
480	 1.99079009646651E-02 
481	 1.98470563890874E-02 
482	 1.97809623247172E-02 
483	 0.019706207694536 
484	 1.96497921825063E-02 
485	 1.96716757321147E-02 
486	 1.96850530373654E-02 
487	 1.96954116798135E-02 
488	 1.97294494978615E-02 
489	 1.98283204540804E-02 
490	 1.97919375211838E-02 
491	 1.96478857006652E-02 
492	 1.95621894676044E-02 
493	 0.019567918838038 
494	 1.96765387469481E-02 
495	 1.98182293441483E-02 
496	 1.98011238902632E-02 
497	 0.0197432408916 
498	 1.96387714336825E-02 
499	 1.95125575193112E-02 
500	 1.97028147664598E-02 
501	 1.97978739977188E-02 
502	 0.019722129557471 
503	 1.97113586125039E-02 
504	 1.95249493605743E-02 
505	 1.94085929960322E-02 
506	 1.95129442697581E-02 
507	 1.95832147858779E-02 
508	 1.95016243106859E-02 
509	 1.93994943193067E-02 
510	 1.94783630730301E-02 
511	 1.95157115749737E-02 
512	 1.95048198814155E-02 
513	 1.94766565141309E-02 
514	 1.94842905122623E-02 
515	 1.94668149750471E-02 
516	 1.94499959144808E-02 
517	 1.94435659555446E-02 
518	 1.93110449712311E-02 
519	 1.92136685717453E-02 
520	 1.92186788746679E-02 
521	 1.93076188067147E-02 
522	 1.93355754512797E-02 
523	 1.93309134586998E-02 
524	 0.019330356075157 
525	 1.93344893934504E-02 
526	 1.92953536939932E-02 
527	 1.92536916674896E-02 
528	 1.92781764048907E-02 
529	 1.94215060962414E-02 
530	 1.93917393088464E-02 
531	 1.92088392284977E-02 
532	 1.92325031374901E-02 
533	 1.92746826188287E-02 
534	 1.92949379791141E-02 
535	 1.92998973199052E-02 
536	 0.019362401545281 
537	 1.92914050644017E-02 
538	 1.91655952456877E-02 
539	 1.91856583566456E-02 
540	 1.91468621647834E-02 
541	 1.91339973530061E-02 
542	 1.91879957368678E-02 
543	 1.92328429068038E-02 
544	 1.92211426927317E-02 
545	 1.91599911810019E-02 
546	 1.90865070275662E-02 
547	 1.90540528338871E-02 
548	 0.019104644908746 
549	 1.91707790666427E-02 
550	 0.019101775041865 
551	 1.90507768763926E-02 
552	 1.90314751063148E-02 
553	 1.90401361391555E-02 
554	 1.91106713031624E-02 
555	 1.91244352536094E-02 
556	 0.019073501843654 
557	 1.90164970258712E-02 
558	 1.90568167045426E-02 
559	 1.90699911270761E-02 
560	 1.90179319850374E-02 
561	 1.90133736259201E-02 
562	 1.90125356326628E-02 
563	 0.019040570561628 
564	 1.90904606135357E-02 
565	 1.89603346932029E-02 
566	 1.89113266547895E-02 
567	 0.01894029740682 
568	 1.88562212550644E-02 
569	 1.88336142733817E-02 
570	 1.88567935951187E-02 
571	 1.89109863763146E-02 
572	 1.90517112179866E-02 
573	 1.92016073379866E-02 
574	 1.93413053022913E-02 
575	 1.94608745694253E-02 
576	 1.94644650515109E-02 
577	 1.94372769070461E-02 
578	 1.94168317189158E-02 
579	 1.93721573903504E-02 
580	 1.93049756298783E-02 
581	 1.92810224879932E-02 
582	 1.93583311767947E-02 
583	 1.95429062594021E-02 
584	 1.96826351486744E-02 
585	 1.97891340055332E-02 
586	 1.99615256060375E-02 
587	 2.00806752035676E-02 
588	 2.01847743875277E-02 
589	 2.03133335793216E-02 
590	 0.020468367118762 
591	 2.07665152440127E-02 
592	 2.10886634484306E-02 
593	 2.12859485317171E-02 
594	 0.02142759900809 
595	 2.16332700989469E-02 
596	 2.18957938780709E-02 
597	 2.21021867414612E-02 
598	 0.022300071752304 
599	 2.25169369004996E-02 
600	 2.27933039460569E-02 
601	 2.32128237019101E-02 
602	 2.36513770293286E-02 
603	 2.41041136642655E-02 
604	 2.46083102372473E-02 
605	 2.50951219085977E-02 
606	 2.56035537691266E-02 
607	 2.61599339071994E-02 
608	 2.67624031924309E-02 
609	 2.73604985358195E-02 
610	 2.79569321186562E-02 
611	 2.85790950226671E-02 
612	 0.029271346623722 
613	 3.00193461755513E-02 
614	 3.07798436308861E-02 
615	 3.15038650384114E-02 
616	 3.22360028274805E-02 
617	 3.30034297117054E-02 
618	 0.033827963300163 
619	 3.47380317893439E-02 
620	 3.56232578476516E-02 
621	 3.65068051189147E-02 
622	 3.74471603322349E-02 
623	 3.84337370108662E-02 
624	 3.94383428761329E-02 
625	 4.04463973993907E-02 
626	 4.14552933235426E-02 
627	 4.25024411839741E-02 
628	 4.35657613684053E-02 
629	 4.46404827119789E-02 
630	 4.58055149867398E-02 
631	 4.69568600997779E-02 
632	 4.81143135673514E-02 
633	 4.93366207809592E-02 
634	 5.05405367454578E-02 
635	 5.17763271366671E-02 
636	 5.30441860866038E-02 
637	 5.42661642237831E-02 
638	 5.55250928062161E-02 
639	 5.68004591946261E-02 
640	 5.80817306498798E-02 
641	 5.94860178963752E-02 
642	 6.08579867361791E-02 
643	 0.062196300661421 
644	 6.35851930245424E-02 
645	 6.48713380448539E-02 
646	 6.62577265438827E-02 
647	 6.77830458301801E-02 
648	 6.91487879674869E-02 
649	 7.05226672350895E-02 
650	 7.19572106152509E-02 
651	 7.34504061752303E-02 
652	 7.49206382131412E-02 
653	 7.63759906253928E-02 
654	 0.077827483669091 
655	 7.92900075413161E-02 
656	 8.08053806379688E-02 
657	 8.23059983590751E-02 
658	 0.083769752639591 
659	 8.53175172029447E-02 
660	 8.68237928874033E-02 
661	 8.82988928861577E-02 
662	 0.089800055868216 
663	 9.13433314904756E-02 
664	 0.092913910952912 
665	 9.44787342795227E-02 
666	 9.59945384462696E-02 
667	 9.75465133145676E-02 
668	 9.91344323352799E-02 
669	 0.100724982319843 
670	 0.102250996664286 
671	 0.103797026659011 
672	 0.105379639900119 
673	 0.106983864025558 
674	 0.10859017972631 
675	 0.110184367985761 
676	 0.111778519941524 
677	 0.113412614124933 
678	 0.115067082677619 
679	 0.116715110413786 
680	 0.118345801919572 
681	 0.120009276056052 
682	 0.121685915801221 
683	 0.123351480236002 
684	 0.124991968171327 
685	 0.126661854537267 
686	 0.128382587206315 
687	 0.13013478878104 
688	 0.131857976933938 
689	 0.133535143851701 
690	 0.135213362591035 
691	 0.136930883519638 
692	 0.13862155718884 
693	 0.14035102799371 
694	 0.14211965183191 
695	 0.143881411140769 
696	 0.145623109691663 
697	 0.147326549603564 
698	 0.149008040679848 
699	 0.15074041971391 
700	 0.152437896328552 
701	 0.154171465747622 
702	 0.155982537428497 
703	 0.157635017428386 
704	 0.159307889142176 
705	 0.161036050849791 
706	 0.162747586930452 
707	 0.164478169294935 
708	 0.166202940508018 
709	 0.167898495569519 
710	 0.169554496058595 
711	 0.171202820064642 
712	 0.172853232313938 
713	 0.174508825540483 
714	 0.176162594660659 
715	 0.177893346447062 
716	 0.179645353109767 
717	 0.181280158203246 
718	 0.182905613220028 
719	 0.184596507983509 
720	 0.186343240474394 
721	 0.188001786050639 
722	 0.189632461678049 
723	 0.191282609442257 
724	 0.192990452187245 
725	 0.194782605026688 
726	 0.196427096352014 
727	 0.19800584237177 
728	 0.199791801435459 
729	 0.201486503525283 
730	 0.203177695211598 
731	 0.204917922069016 
732	 0.206611875173743 
733	 0.208409719546685 
734	 0.210212221474586 
735	 0.211914410639051 
736	 0.213685453199179 
737	 0.215498667022883 
738	 0.217314653366365 
739	 0.219086853699058 
740	 0.22081353304479 
741	 0.222592640614591 
742	 0.224439628319664 
743	 0.226235562686013 
744	 0.228090421053136 
745	 0.22996976660541 
746	 0.231805606006607 
747	 0.2335545168074 
748	 0.235382316352815 
749	 0.237267564579946 
750	 0.239089118405806 
751	 0.240934229558578 
752	 0.242713262620137 
753	 0.244432975442264 
754	 0.246243054665669 
755	 0.248133997540029 
756	 0.250004410160091 
757	 0.251771001374432 
758	 0.253436731614782 
759	 0.255269941712563 
760	 0.257153707620167 
761	 0.258862793613086 
762	 0.260813763686891 
763	 0.262700320357629 
764	 0.264424947975758 
765	 0.266176853622875 
766	 0.267927361780728 
767	 0.269695491107436 
768	 0.271483830552686 
769	 0.273231797006104 
770	 0.275052034510316 
771	 0.27685104775499 
772	 0.278537586432945 
773	 0.280449802991317 
774	 0.282154836787676 
775	 0.28371428635241 
776	 0.285575341849304 
777	 0.28736018967115 
778	 0.289022668374196 
779	 0.290660214399138 
780	 0.292520371336067 
781	 0.294365885444593 
782	 0.29604698851905 
783	 0.297544434760089 
784	 0.299157764725801 
785	 0.300898839901888 
786	 0.302632046029684 
787	 0.304208693752297 
788	 0.306115347769739 
789	 0.307846017421787 
790	 0.309274863206971 
791	 0.310833219438776 
792	 0.312464570367354 
793	 0.314180578328367 
794	 0.315930481069315 
795	 0.317525880606847 
796	 0.318990111732076 
797	 0.3205329000808 
798	 0.322294171867346 
799	 0.323706739401751 
800	 0.325195025112129 
801	 0.326870523764854 
802	 0.32854566537477 
803	 0.329996744355512 
804	 0.331459365133003 
805	 0.333063638685022 
806	 0.334682448305085 
807	 0.336131020286685 
808	 0.337530865628189 
809	 0.339022405553391 
810	 0.34053271706589 
811	 0.342062536827105 
812	 0.343611599465598 
813	 0.345183427615421 
814	 0.346794835609942 
815	 0.348321581513342 
816	 0.349696021716011 
817	 0.350931515518247 
818	 0.352237249399959 
819	 0.353790167676192 
820	 0.355531378925906 
821	 0.35705830250161 
822	 0.358470947735236 
823	 0.359854376362655 
824	 0.361256466239467 
825	 0.362564765983197 
826	 0.364075959134615 
827	 0.365628397024411 
828	 0.366903317337966 
829	 0.368022843550104 
830	 0.36946501302337 
831	 0.371169818194178 
832	 0.372612455727962 
833	 0.373901521737884 
834	 0.3752439002818 
835	 0.376751305131204 
836	 0.37836202856412 
837	 0.379543363656673 
838	 0.380559903435938 
839	 0.381777636621328 
840	 0.383241658580905 
841	 0.384547150221363 
842	 0.38576653749985 
843	 0.387133920267309 
844	 0.38859030877522 
845	 0.389929962285625 
846	 0.391036247735707 
847	 0.391940231553566 
848	 0.393173218002614 
849	 0.394438631770124 
850	 0.395613171910051 
851	 0.396898261841907 
852	 0.397944070398717 
853	 0.399062138952347 
854	 0.400405928263096 
855	 0.40151834787863 
856	 0.402472212226416 
857	 0.403401941064856 
858	 0.404457047763665 
859	 0.405749451601872 
860	 0.406812637505706 
861	 0.40779469217592 
862	 0.409047242735417 
863	 0.410043403443975 
864	 0.411043009542162 
865	 0.412080408367196 
866	 0.412996591785367 
867	 0.414202487421925 
868	 0.415529653823081 
869	 0.416644009747653 
870	 0.417157510445823 
871	 0.418275600737829 
872	 0.419538754345346 
873	 0.420466618801347 
874	 0.421387728045615 
875	 0.422446261477576 
876	 0.423369730281071 
877	 0.424030206897717 
878	 0.425319526498675 
879	 0.426547364214213 
880	 0.427562951192219 
881	 0.428486381575525 
882	 0.429278359834153 
883	 0.430014626759489 
884	 0.430837895214755 
885	 0.431874532588667 
886	 0.432766063444964 
887	 0.433551796236464 
888	 0.434327197907157 
889	 0.435188029221644 
890	 0.43620776491161 
891	 0.437161865611813 
892	 0.437938824603374 
893	 0.438706810877984 
894	 0.439491266876773 
895	 0.440249899825603 
896	 0.440979709967615 
897	 0.441839442991765 
898	 0.442663502082405 
899	 0.443358385258372 
900	 0.443917083001022 
901	 0.444515847937507 
902	 0.445163643471688 
903	 0.445869575075074 
904	 0.446609184647252 
905	 0.447233411067735 
906	 0.447706231175032 
907	 0.448174197760559 
908	 0.448863058820656 
909	 0.449634609625806 
910	 0.450273653867251 
911	 0.450771524881716 
912	 0.451326958178561 
913	 0.451861046479578 
914	 0.452692920202057 
915	 0.453750875992429 
916	 0.454397327350951 
917	 0.454712213825645 
918	 0.455041438217989 
919	 0.45563687406126 
920	 0.456443942930173 
921	 0.457620204833352 
922	 0.458635938678339 
923	 0.459133247742668 
924	 0.459594683779215 
925	 0.460449145691587 
926	 0.461339002528629 
927	 0.461877003990353 
928	 0.462574082564984 
929	 0.463179068034768 
930	 0.463676868175662 
931	 0.464268029926513 
932	 0.465612039675421 
933	 0.466789879121229 
934	 0.467757829486895 
935	 0.468867272055756 
936	 0.469587130418206 
937	 0.47013824783924 
938	 0.470843830079555 
939	 0.471932319944658 
940	 0.472822092636574 
941	 0.473670765193931 
942	 0.474504578659132 
943	 0.475217624430283 
944	 0.476030963054821 
945	 0.476811652111563 
946	 0.477437770227725 
947	 0.47790795296029 
948	 0.478857427195367 
949	 0.479893098699963 
950	 0.480620066567214 
951	 0.480926127449095 
952	 0.481597491086027 
953	 0.48225724435825 
954	 0.482694986493968 
955	 0.483252688669668 
956	 0.483503328478859 
957	 0.483892202974781 
958	 0.484591038731976 
959	 0.485018844258627 
960	 0.485380917620272 
961	 0.485579787819512 
962	 0.485583717430225 
963	 0.485588452470397 
964	 0.486088049087913 
965	 0.486615069583207 
966	 0.486778284631448 
967	 0.486969343409775 
968	 0.487176322143589 
969	 0.487401903864816 
970	 0.487697528027983 
971	 0.488261484998581 
972	 0.488642625718851 
973	 0.488938123678367 
974	 0.489294759208593 
975	 0.489484424732 
976	 0.489653257661566 
977	 0.489929188966172 
978	 0.490317834706445 
979	 0.490510323460395 
980	 0.490534218290462 
981	 0.490627343269549 
982	 0.490973313146154 
983	 0.491310637509064 
984	 0.492048203921608 
985	 0.492702020018338 
986	 0.492861598260262 
987	 0.493451050071338 
988	 0.493757157194794 
989	 0.493922845998253 
990	 0.49420557904512 
991	 0.494110797680782 
992	 0.494361280911037 
993	 0.495126509133182 
994	 0.496080039785888 
995	 0.496109447194366 
996	 0.496246183099791 
997	 0.496770900064347 
998	 0.497530693603949 
999	 0.498061476327532 
1000	 0.498051402900301 
1001	 0.511393878616179 
1002	 0.51177449827138 
1003	 0.512335016385811 
1004	 0.512814547613913 
1005	 0.513292854495684 
1006	 0.513751081260205 
1007	 0.514224229116325 
1008	 0.514665624660726 
1009	 0.515109536418462 
1010	 0.515508769223344 
1011	 0.515841335580547 
1012	 0.516218239233082 
1013	 0.516541884565983 
1014	 0.516937465672554 
1015	 0.517362047484715 
1016	 0.517897561229179 
1017	 0.518405363042709 
1018	 0.51885643652703 
1019	 0.519296269902505 
1020	 0.519663744536806 
1021	 0.520075242105241 
1022	 0.520529330374415 
1023	 0.520877413702944 
1024	 0.521225723487498 
1025	 0.521482610172149 
1026	 0.521561745746745 
1027	 0.521758624702172 
1028	 0.521972219832867 
1029	 0.522199320744046 
1030	 0.52241649037978 
1031	 0.522647055116405 
1032	 0.522839358883435 
1033	 0.522980240421794 
1034	 0.523129753833126 
1035	 0.523251611539677 
1036	 0.523366965546837 
1037	 0.52347431661346 
1038	 0.523524712341868 
1039	 0.523522679181905 
1040	 0.523587081864751 
1041	 0.523612171776331 
1042	 0.523662439049106 
1043	 0.523796952385304 
1044	 0.523884252035364 
1045	 0.52389531205148 
1046	 0.52386753619208 
1047	 0.52388265915494 
1048	 0.523836140611721 
1049	 0.523662521509368 
1050	 0.523645703966812 
1051	 0.523570668232127 
1052	 0.523507745337154 
1053	 0.5235873566245 
1054	 0.52382286586155 
1055	 0.523958353208175 
1056	 0.524113563153033 
1057	 0.524348512358297 
1058	 0.524607027560872 
1059	 0.524834232978259 
1060	 0.525169318804717 
1061	 0.52553030016207 
1062	 0.525838080930251 
1063	 0.526356190056675 
1064	 0.526939529626464 
1065	 0.527501647693894 
1066	 0.528106724757388 
1067	 0.528668333791704 
1068	 0.529265279874774 
1069	 0.529919316490534 
1070	 0.530678839900757 
1071	 0.531530951912907 
1072	 0.532445724570496 
1073	 0.533304301997755 
1074	 0.534199126688333 
1075	 0.535093288614975 
1076	 0.535990466268332 
1077	 0.537031204481099 
1078	 0.538073916842491 
1079	 0.539069203324567 
1080	 0.540058204458251 
1081	 0.541043645500683 
1082	 0.542127634122461 
1083	 0.5432262880161 
1084	 0.544327337501705 
1085	 0.545433428771082 
1086	 0.546454869039239 
1087	 0.547397574038269 
1088	 0.548361487385095 
1089	 0.549342932685868 
1090	 0.550225993766193 
1091	 0.551129173774874 
1092	 0.55198222227799 
1093	 0.552752827459631 
1094	 0.553543963795693 
1095	 0.554246107816724 
1096	 0.554943802342019 
1097	 0.555544436168299 
1098	 0.555991472296709 
1099	 0.556466123380871 
1100	 0.55685304032791 
1101	 0.557181911664523 
1102	 0.557505973066468 
1103	 0.557735158818454 
1104	 0.55789763987863 
1105	 0.557972055795741 
1106	 0.557941298863174 
1107	 0.557845308179033 
1108	 0.557725017881946 
1109	 0.557572438109135 
1110	 0.557350852644658 
1111	 0.557122384402228 
1112	 0.556843850142007 
1113	 0.556388655770063 
1114	 0.555953067962881 
1115	 0.555522176137957 
1116	 0.554973630984051 
1117	 0.554418481666021 
1118	 0.553847400763851 
1119	 0.553258783210437 
1120	 0.552633363016323 
1121	 0.551982151526038 
1122	 0.551304903357262 
1123	 0.550618898714737 
1124	 0.549893565396211 
1125	 0.549148842457168 
1126	 0.548435053894696 
1127	 0.547682652912336 
1128	 0.546877895428041 
1129	 0.546042743301627 
1130	 0.545119034827244 
1131	 0.544192132794105 
1132	 0.543301640377801 
1133	 0.542401864169817 
1134	 0.541555251142117 
1135	 0.54068268702154 
1136	 0.539829628927218 
1137	 0.538910740659135 
1138	 0.537943478531889 
1139	 0.536988832453897 
1140	 0.53600168524233 
1141	 0.535047250294286 
1142	 0.534090022197094 
1143	 0.533148271099236 
1144	 0.532150562382787 
1145	 0.531037664918929 
1146	 0.529942502293155 
1147	 0.528792516385923 
1148	 0.527599161647103 
1149	 0.526538568837659 
1150	 0.525488839980259 
1151	 0.524430795954786 
1152	 0.52336909934279 
1153	 0.522362769513791 
1154	 0.521263979980708 
1155	 0.520080500426043 
1156	 0.518951506916634 
1157	 0.517826899908977 
1158	 0.516688211659872 
1159	 0.515559549045746 
1160	 0.514437125776662 
1161	 0.513223169612972 
1162	 0.51199584418449 
1163	 0.510822876306661 
1164	 0.509594171997405 
1165	 0.508404482271154 
1166	 0.507331663213343 
1167	 0.506293018088352 
1168	 0.505317100421843 
1169	 0.504322799992595 
1170	 0.503403128647972 
1171	 0.502390747314617 
1172	 0.501353823115773 
1173	 0.500250949669078 
1174	 0.499072389970246 
1175	 0.497947363489661 
1176	 0.496786313934744 
1177	 0.495648254075885 
1178	 0.494575366039942 
1179	 0.493420290060321 
1180	 0.49229905175557 
1181	 0.491079342187364 
1182	 0.489817474829855 
1183	 0.488703784800526 
1184	 0.487542568720297 
1185	 0.486460643052876 
1186	 0.485421221816223 
1187	 0.484422118054154 
1188	 0.48347447474491 
1189	 0.482546562668597 
1190	 0.481728442339367 
1191	 0.481021210541909 
1192	 0.480342035944955 
1193	 0.479731011765897 
1194	 0.479156469278149 
1195	 0.478621745426549 
1196	 0.478120633903941 
1197	 0.477667079326569 
1198	 0.477258642169579 
1199	 0.476856125665968 
1200	 0.476516283773688 
1201	 0.476182817726463 
1202	 0.475919603253527 
1203	 0.475759202232343 
1204	 0.475611655017669 
1205	 0.475602503882507 
1206	 0.475664794633473 
1207	 0.475911719328156 
1208	 0.476247654729908 
1209	 0.476792132861704 
1210	 0.477490480887006 
1211	 0.478380378356576 
1212	 0.479461700981005 
1213	 0.480706785626354 
1214	 0.482133891581648 
1215	 0.483741581187723 
1216	 0.48555601891543 
1217	 0.487453238574051 
1218	 0.489557912534298 
1219	 0.491721739397415 
1220	 0.493920876289485 
1221	 0.496295990783993 
1222	 0.498550462869507 
1223	 0.500862575198293 
1224	 0.503076106265883 
1225	 0.505218352929958 
1226	 0.507324321882156 
1227	 0.509439836535878 
1228	 0.511406625954323 
1229	 0.513336889562063 
1230	 0.515111973468603 
1231	 0.516723832907863 
1232	 0.518303209819366 
1233	 0.5197701654032 
1234	 0.52117579907025 
1235	 0.522511702731727 
1236	 0.523796436850658 
1237	 0.525003356101523 
1238	 0.526166493454424 
1239	 0.52728619885781 
1240	 0.528354704232195 
1241	 0.529361734935535 
1242	 0.53022759451855 
1243	 0.531059874343363 
1244	 0.531795576266624 
1245	 0.532528667002237 
1246	 0.533206248635974 
1247	 0.533873987444907 
1248	 0.534526260111826 
1249	 0.53512783174872 
1250	 0.535699908611644 
1251	 0.536211157085691 
1252	 0.536682164609607 
1253	 0.537097034871584 
1254	 0.537469346037177 
1255	 0.537767857451279 
1256	 0.537997927637746 
1257	 0.538181997877579 
1258	 0.538255470579134 
1259	 0.53835874868113 
1260	 0.538475247684651 
1261	 0.538522860000409 
1262	 0.538503479326584 
1263	 0.53851021309677 
1264	 0.538532462218691 
1265	 0.538495300464723 
1266	 0.538547169207324 
1267	 0.538686600961106 
1268	 0.538776198003716 
1269	 0.538875522099327 
1270	 0.538945834883241 
1271	 0.539006473482242 
1272	 0.539059672683002 
1273	 0.539076848588203 
1274	 0.539127605901845 
1275	 0.539189648636676 
1276	 0.539253346954248 
1277	 0.539315921733099 
1278	 0.53940442053163 
1279	 0.53950477183423 
1280	 0.539618176760104 
1281	 0.539724258143526 
1282	 0.539890793191661 
1283	 0.540060250824077 
1284	 0.540301161988847 
1285	 0.540601659343567 
1286	 0.540982818937376 
1287	 0.541364342614662 
1288	 0.541782948542378 
1289	 0.542250093889942 
1290	 0.542732986494565 
1291	 0.543301899635696 
1292	 0.543953111744227 
1293	 0.544615072920887 
1294	 0.545294804886743 
1295	 0.546082293400855 
1296	 0.546949028841255 
1297	 0.547830076141589 
1298	 0.548831464987769 
1299	 0.549779495266911 
1300	 0.550726629773077 
1301	 0.551656405905416 
1302	 0.5525867434934 
1303	 0.553501937340488 
1304	 0.554391912814022 
1305	 0.555276639513888 
1306	 0.556169541522544 
1307	 0.557027739452855 
1308	 0.557857425604799 
1309	 0.558683785226036 
1310	 0.559446128967488 
1311	 0.560184887213621 
1312	 0.560836946250085 
1313	 0.561437058010561 
1314	 0.561958716851668 
1315	 0.562416484719771 
1316	 0.562786555732703 
1317	 0.563067363107212 
1318	 0.563313243296149 
1319	 0.563521894012298 
1320	 0.563601194350741 
1321	 0.563628692967877 
1322	 0.563534823074154 
1323	 0.563296110878391 
1324	 0.563013530678702 
1325	 0.56267613045548 
1326	 0.562237764154648 
1327	 0.561737121336041 
1328	 0.561122137850151 
1329	 0.560426467308121 
1330	 0.559616609439369 
1331	 0.558676280366558 
1332	 0.557686552212359 
1333	 0.556619790470042 
1334	 0.555455508578219 
1335	 0.554292479909268 
1336	 0.553101684519065 
1337	 0.55183128002997 
1338	 0.550533427583607 
1339	 0.549138180643344 
1340	 0.547698840498418 
1341	 0.546121759878001 
1342	 0.544434252335797 
1343	 0.542718368692259 
1344	 0.540912031993012 
1345	 0.539056572982555 
1346	 0.537161433616112 
1347	 0.535226932242915 
1348	 0.533193132412277 
1349	 0.531187967243043 
1350	 0.529132691893629 
1351	 0.527137571547131 
1352	 0.525147636456274 
1353	 0.523182291342892 
1354	 0.52123533693251 
1355	 0.519343897588611 
1356	 0.51748801550882 
1357	 0.515637094252203 
1358	 0.513794286210493 
1359	 0.512015319870111 
1360	 0.51030544706179 
1361	 0.508537326551402 
1362	 0.506811417327974 
1363	 0.505221187464281 
1364	 0.503577293219461 
1365	 0.501938154199563 
1366	 0.50029921896272 
1367	 0.498683428933558 
1368	 0.497040796614866 
1369	 0.495415894905685 
1370	 0.493693677651581 
1371	 0.491922585803496 
1372	 0.490163180668383 
1373	 0.488353510227253 
1374	 0.486521363676273 
1375	 0.484710170721844 
1376	 0.482807927977729 
1377	 0.480817953292136 
1378	 0.4787992362546 
1379	 0.47670848974297 
1380	 0.474636518215904 
1381	 0.472529060271124 
1382	 0.470415192368392 
1383	 0.468262283180774 
1384	 0.466172582388109 
1385	 0.464071773616411 
1386	 0.462032950247252 
1387	 0.460033197942941 
1388	 0.458125347015725 
1389	 0.456265329628098 
1390	 0.454473510661804 
1391	 0.452830707107783 
1392	 0.451113699087804 
1393	 0.449540754969302 
1394	 0.447907835735301 
1395	 0.446189371003634 
1396	 0.444508357948734 
1397	 0.442610443236594 
1398	 0.440638013630701 
1399	 0.438392340666088 
1400	 0.436005448839166 
1401	 0.433345661047943 
1402	 0.430444375950701 
1403	 0.427322746602067 
1404	 0.42391933217437 
1405	 0.420482906352394 
1406	 0.416792700862562 
1407	 0.41314860851451 
1408	 0.409346740523546 
1409	 0.405713053845862 
1410	 0.401979942398634 
1411	 0.398524522200241 
1412	 0.395155655001506 
1413	 0.392104692269481 
1414	 0.389294315567393 
1415	 0.386650828774912 
1416	 0.384319604614086 
1417	 0.382033015694114 
1418	 0.379916944648306 
1419	 0.37782994551344 
1420	 0.375879218207117 
1421	 0.373933032549656 
1422	 0.371984746359255 
1423	 0.370130389506967 
1424	 0.368350521332335 
1425	 0.366555447582549 
1426	 0.364978776478644 
1427	 0.36348387451788 
1428	 0.362076251187794 
1429	 0.360873500219899 
1430	 0.359735922444835 
1431	 0.358688766522076 
1432	 0.357777853985818 
1433	 0.356997166476612 
1434	 0.356312012917437 
1435	 0.355746519658106 
1436	 0.355262806443994 
1437	 0.3548853286684 
1438	 0.354595296636993 
1439	 0.354407590468286 
1440	 0.354279755731466 
1441	 0.354244527752077 
1442	 0.354270827076669 
1443	 0.354365259629015 
1444	 0.35452599306373 
1445	 0.354785763914039 
1446	 0.355055949435583 
1447	 0.355396105576253 
1448	 0.355730218659037 
1449	 0.356085891962905 
1450	 0.356465241049627 
1451	 0.356851971434972 
1452	 0.35727730915195 
1453	 0.357759373395108 
1454	 0.358215406701497 
1455	 0.358694837407664 
1456	 0.359157783697165 
1457	 0.359603280061917 
1458	 0.360053945136778 
1459	 0.360501508256519 
1460	 0.36095329706554 
1461	 0.361392964190027 
1462	 0.361850456920241 
1463	 0.362304070826332 
1464	 0.362791027802423 
1465	 0.363302136539075 
1466	 0.363834233599773 
1467	 0.36437970261615 
1468	 0.364948049237525 
1469	 0.365516909093671 
1470	 0.366052285066786 
1471	 0.366592625850051 
1472	 0.367128158445115 
1473	 0.367656359928313 
1474	 0.368173136334721 
1475	 0.368702814592657 
1476	 0.36922724644326 
1477	 0.369766861255776 
1478	 0.370320745009564 
1479	 0.370860375590816 
1480	 0.371409567044719 
1481	 0.371936194579034 
1482	 0.372456160533915 
1483	 0.372955727350835 
1484	 0.373436566960778 
1485	 0.373913657540651 
1486	 0.37437624152715 
1487	 0.374828386609289 
1488	 0.37526560479285 
1489	 0.375710267887467 
1490	 0.376149583326999 
1491	 0.376583552535495 
1492	 0.377009821307354 
1493	 0.377454331536254 
1494	 0.377885554530005 
1495	 0.378344806667717 
1496	 0.378840907922955 
1497	 0.379323552237821 
1498	 0.37980992408016 
1499	 0.380300236198372 
1500	 0.380792019868715 
1501	 0.381286664873046 
1502	 0.381782221272173 
1503	 0.382284510940993 
1504	 0.382789127870781 
1505	 0.383299298723306 
1506	 0.383831237263521 
1507	 0.384345071104658 
1508	 0.384850668232449 
1509	 0.385356653984301 
1510	 0.385842323044843 
1511	 0.386343341138257 
1512	 0.386861466943993 
1513	 0.387369700488012 
1514	 0.387880202544633 
1515	 0.388390187167853 
1516	 0.388919251770333 
1517	 0.389406401334207 
1518	 0.389865716799109 
1519	 0.390323538471802 
1520	 0.390752327412545 
1521	 0.391173682619077 
1522	 0.391598863193728 
1523	 0.392020355915972 
1524	 0.392400978901976 
1525	 0.392746145689874 
1526	 0.393106057145938 
1527	 0.393441635766889 
1528	 0.3938032067054 
1529	 0.394180212545969 
1530	 0.394540657125915 
1531	 0.394902344498766 
1532	 0.395259923122147 
1533	 0.395611660407414 
1534	 0.395957658320292 
1535	 0.396309142678644 
1536	 0.396632847246105 
1537	 0.396928478000084 
1538	 0.39725013265363 
1539	 0.397562228251446 
1540	 0.397894534230399 
1541	 0.398281818068873 
1542	 0.398571185121514 
1543	 0.398838395902967 
1544	 0.399058291218078 
1545	 0.399196216678477 
1546	 0.399363213054963 
1547	 0.399522887890824 
1548	 0.399663552573817 
1549	 0.39979702949479 
1550	 0.399905475977353 
1551	 0.39999500905592 
1552	 0.400062122588179 
1553	 0.400120564676294 
1554	 0.40013148840011 
1555	 0.400085592941313 
1556	 0.400069723415481 
1557	 0.400014179670446 
1558	 0.400006628315197 
1559	 0.400014367482858 
1560	 0.400065422919839 
1561	 0.400152188470309 
1562	 0.400246012794572 
1563	 0.40039234805863 
1564	 0.400510940159278 
1565	 0.400619578962358 
1566	 0.400737602361764 
1567	 0.400849572765346 
1568	 0.400981862258333 
1569	 0.401131751599247 
1570	 0.401275932842839 
1571	 0.401389969902976 
1572	 0.401587431880218 
1573	 0.401803802063684 
1574	 0.402074225962518 
1575	 0.402472404435909 
1576	 0.40278728220441 
1577	 0.403084414792223 
1578	 0.403389949486524 
1579	 0.403684617184331 
1580	 0.403956992687689 
1581	 0.404245284697405 
1582	 0.404493150749349 
1583	 0.40466866885878 
1584	 0.404890102906172 
1585	 0.405116357026125 
1586	 0.405350261755125 
1587	 0.405610926047114 
1588	 0.405855587626958 
1589	 0.406078999615522 
1590	 0.406331704281545 
1591	 0.406606529793161 
1592	 0.406867438110236 
1593	 0.407137879098292 
1594	 0.407408997925148 
1595	 0.407670531815598 
1596	 0.407930254572915 
1597	 0.408210937021648 
1598	 0.408461191744064 
1599	 0.40868678630856 
1600	 0.408914390129453 
1601	 0.409109114382751 
1602	 0.409342390701395 
1603	 0.409596271010432 
1604	 0.4098442383606 
1605	 0.410136460042771 
1606	 0.410378796316309 
1607	 0.410615350024531 
1608	 0.410802328613845 
1609	 0.410948146742375 
1610	 0.411064286521582 
1611	 0.411128661694521 
1612	 0.411182418558962 
1613	 0.411189661839314 
1614	 0.411221910473826 
1615	 0.411241911278751 
1616	 0.411278352835944 
1617	 0.411356784706697 
1618	 0.411395190269118 
1619	 0.411448378395861 
1620	 0.411438048860039 
1621	 0.411372374951441 
1622	 0.411295153770062 
1623	 0.411177321308818 
1624	 0.411044312715257 
1625	 0.410880431079834 
1626	 0.410724044093188 
1627	 0.410531623970411 
1628	 0.410371530821215 
1629	 0.410242317502782 
1630	 0.410100604088149 
1631	 0.409963178564127 
1632	 0.409828566554637 
1633	 0.409704103965272 
1634	 0.409554361847809 
1635	 0.409392287656164 
1636	 0.409235574413795 
1637	 0.409063147330627 
1638	 0.408893275940967 
1639	 0.408752344190636 
1640	 0.408566515576332 
1641	 0.408393720396487 
1642	 0.408130761788772 
1643	 0.40783083444578 
1644	 0.407455157090427 
1645	 0.40697669789055 
1646	 0.406477098434881 
1647	 0.405910394031461 
1648	 0.405328717357296 
1649	 0.40472206606492 
1650	 0.40407653539871 
1651	 0.403389490378538 
1652	 0.402692475433114 
1653	 0.401961370723296 
1654	 0.401218173142128 
1655	 0.400464647513102 
1656	 0.399684425583846 
1657	 0.398928024835833 
1658	 0.398047997066299 
1659	 0.397109969377417 
1660	 0.396117472983567 
1661	 0.395053940002348 
1662	 0.393892933374515 
1663	 0.392673243965903 
1664	 0.391345275066253 
1665	 0.389897823990182 
1666	 0.388360412883953 
1667	 0.386772169054034 
1668	 0.385048349445682 
1669	 0.38322285032775 
1670	 0.381251763851852 
1671	 0.379124554483645 
1672	 0.376901077109702 
1673	 0.374572670980962 
1674	 0.37207963901352 
1675	 0.369471034754344 
1676	 0.366753172156255 
1677	 0.363855310124274 
1678	 0.360905923023913 
1679	 0.357837564838173 
1680	 0.354718775564096 
1681	 0.351498284486742 
1682	 0.348238081398207 
1683	 0.344929609574219 
1684	 0.34160326397774 
1685	 0.338219091828954 
1686	 0.334817030788791 
1687	 0.331327809387095 
1688	 0.327891556835065 
1689	 0.324448516065555 
1690	 0.3210138343808 
1691	 0.317613732463194 
1692	 0.314301452042601 
1693	 0.311025149467058 
1694	 0.307744000484563 
1695	 0.304535321776419 
1696	 0.301225161022377 
1697	 0.297882199919279 
1698	 0.294465363242931 
1699	 0.291006714368496 
1700	 0.28759793394758 
1701	 0.284105350940274 
1702	 0.280732293567312 
1703	 0.277337999774545 
1704	 0.274153339483395 
1705	 0.27103678044226 
1706	 0.268067988100234 
1707	 0.265480049880746 
1708	 0.263067901739311 
1709	 0.260768426795165 
1710	 0.258680883828376 
1711	 0.256624277858861 
1712	 0.25462690027629 
1713	 0.252725571046302 
1714	 0.25089537665637 
1715	 0.249232671596234 
1716	 0.247589418982549 
1717	 0.246027061773996 
1718	 0.24456198484641 
1719	 0.243122862442495 
1720	 0.241864342529346 
1721	 0.240713105216743 
1722	 0.239726621263546 
1723	 0.239001321655392 
1724	 0.238410006655517 
1725	 0.238074869975407 
1726	 0.238012415805643 
1727	 0.238182426571957 
1728	 0.238720071911367 
1729	 0.239619233843953 
1730	 0.240865803298131 
1731	 0.242399989608796 
1732	 0.244221574356211 
1733	 0.24616494283941 
1734	 0.248204091615886 
1735	 0.250307802282537 
1736	 0.252313271263541 
1737	 0.254237800891643 
1738	 0.256040461304978 
1739	 0.257460415130673 
1740	 0.258637812584747 
1741	 0.259548111817057 
1742	 0.260103987049817 
1743	 0.260521552007143 
1744	 0.260682369111973 
1745	 0.260696279554775 
1746	 0.260469942193274 
1747	 0.260191882626179 
1748	 0.259719247494062 
1749	 0.259308305848784 
1750	 0.258795526516045 
1751	 0.258370049797437 
1752	 0.257971132599585 
1753	 0.257612487278561 
1754	 0.25725343872094 
1755	 0.257070039726143 
1756	 0.25689784178074 
1757	 0.257003473321017 
1758	 0.257302470554732 
1759	 0.25775118373578 
1760	 0.258483226748279 
1761	 0.259461970119249 
1762	 0.260532697991458 
1763	 0.261844596376941 
1764	 0.263357822379839 
1765	 0.264987140090256 
1766	 0.266848855412592 
1767	 0.268823022676479 
1768	 0.270834026531325 
1769	 0.2728690643704 
1770	 0.274827144619955 
1771	 0.276749946736043 
1772	 0.278569832662541 
1773	 0.280295554545427 
1774	 0.282011862515723 
1775	 0.283584314084453 
1776	 0.28510578539307 
1777	 0.286529395427041 
1778	 0.287722033108971 
1779	 0.288808747810563 
1780	 0.289755589235652 
1781	 0.290543332996627 
1782	 0.291298898380722 
1783	 0.291998697279207 
1784	 0.292639243567068 
1785	 0.293230367814653 
1786	 0.293800436716202 
1787	 0.294338104945307 
1788	 0.29480263972915 
1789	 0.295258465271733 
1790	 0.295601272312334 
1791	 0.29580532349403 
1792	 0.296029196623522 
1793	 0.29617645585645 
1794	 0.296332398735894 
1795	 0.296496390816946 
1796	 0.296644595171105 
1797	 0.296870942130715 
1798	 0.29712053108516 
1799	 0.297359812799828 
1800	 0.297634929104779 
1801	 0.301429897386993 
1802	 0.30184660618102 
1803	 0.302235243854104 
1804	 0.302623616000172 
1805	 0.302974856818889 
1806	 0.303317025800508 
1807	 0.303601279509989 
1808	 0.303943262378395 
1809	 0.304320817700381 
1810	 0.304656692146442 
1811	 0.304989778610086 
1812	 0.305325599507904 
1813	 0.305625039559539 
1814	 0.305951144948281 
1815	 0.306298512898608 
1816	 0.306628306992709 
1817	 0.306986959000881 
1818	 0.307345692909368 
1819	 0.307720187570803 
1820	 0.308120599380879 
1821	 0.308526774913435 
1822	 0.308940558194086 
1823	 0.309369261454678 
1824	 0.30979021678996 
1825	 0.310225695678741 
1826	 0.310630229676799 
1827	 0.311018127436727 
1828	 0.311400280424201 
1829	 0.311751502467831 
1830	 0.312120487768029 
1831	 0.312487704804199 
1832	 0.3128715741403 
1833	 0.313211457748014 
1834	 0.313608912986196 
1835	 0.314029844424522 
1836	 0.314408554502282 
1837	 0.314817546204781 
1838	 0.315262695548166 
1839	 0.315686516391555 
1840	 0.316115221337485 
1841	 0.316527044224164 
1842	 0.316931595713442 
1843	 0.317339653524987 
1844	 0.317726998258121 
1845	 0.318086014984608 
1846	 0.318470410817194 
1847	 0.318860530817401 
1848	 0.319194789101626 
1849	 0.319527120750076 
1850	 0.319792706123865 
1851	 0.320024513774461 
1852	 0.320166798109211 
1853	 0.320297886316305 
1854	 0.320390405756144 
1855	 0.320396424380449 
1856	 0.32040521029774 
1857	 0.320361549572181 
1858	 0.320236496521918 
1859	 0.320059312671286 
1860	 0.319834602804344 
1861	 0.319541402305912 
1862	 0.319179187481363 
1863	 0.318773315856047 
1864	 0.318303072010879 
1865	 0.317785989043344 
1866	 0.317171723411695 
1867	 0.316424762833793 
1868	 0.315563650147632 
1869	 0.314579844508213 
1870	 0.313525385349735 
1871	 0.312355156083984 
1872	 0.311168429074691 
1873	 0.309941027728284 
1874	 0.308643111686779 
1875	 0.307292751170043 
1876	 0.305726970236508 
1877	 0.304106584944066 
1878	 0.302304980125521 
1879	 0.300261992024311 
1880	 0.298197898773093 
1881	 0.295871723321799 
1882	 0.293312924378521 
1883	 0.2906039004322 
1884	 0.287674175942806 
1885	 0.284318883174066 
1886	 0.280867296011044 
1887	 0.277125876784708 
1888	 0.273104189095987 
1889	 0.269228927340614 
1890	 0.265095617239885 
1891	 0.26091254589626 
1892	 0.25672823358924 
1893	 0.252370619313713 
1894	 0.247789407560734 
1895	 0.243323018195944 
1896	 0.238727275245318 
1897	 0.234132561850344 
1898	 0.229920942863852 
1899	 0.225665560031626 
1900	 0.221554978506807 
1901	 0.217666548350612 
1902	 0.213621261976718 
1903	 0.209827469446349 
1904	 0.206181149564463 
1905	 0.202642981416758 
1906	 0.199246254919567 
1907	 0.196273431345062 
1908	 0.193319331062092 
1909	 0.190541816886201 
1910	 0.18798158398175 
1911	 0.185353430231108 
1912	 0.182955911936622 
1913	 0.180710943511024 
1914	 0.178543146599557 
1915	 0.176593833943488 
1916	 0.174882916875544 
1917	 0.173216600118397 
1918	 0.171692912420355 
1919	 0.170360007021123 
1920	 0.169002990754856 
1921	 0.167764890753203 
1922	 0.166641955384031 
1923	 0.165566062869968 
1924	 0.164653400480353 
1925	 0.163866480245197 
1926	 0.163143124166661 
1927	 0.162496765520391 
1928	 0.161942563542021 
1929	 0.161478684776369 
1930	 0.161091084074466 
1931	 0.160819531635624 
1932	 0.160622124860892 
1933	 0.160476025667589 
1934	 0.160420469928341 
1935	 0.160415783279483 
1936	 0.160499961859009 
1937	 0.160659325377296 
1938	 0.160906027553122 
1939	 0.161216191833235 
1940	 0.161614982307549 
1941	 0.162052164914486 
1942	 0.1624940240988 
1943	 0.163042975737856 
1944	 0.163591111386683 
1945	 0.164140822629863 
1946	 0.164790406125999 
1947	 0.165428594252244 
1948	 0.166080174865301 
1949	 0.166799687966975 
1950	 0.167510326156875 
1951	 0.16822720573764 
1952	 0.168985652845858 
1953	 0.169774369468981 
1954	 0.170558845480804 
1955	 0.171397683188057 
1956	 0.172240963142531 
1957	 0.173105586219599 
1958	 0.173962828601387 
1959	 0.174769461831264 
1960	 0.175634286297974 
1961	 0.176471951551094 
1962	 0.177268977294099 
1963	 0.178096153704292 
1964	 0.178947466017983 
1965	 0.179778065013327 
1966	 0.180596375892843 
1967	 0.181457679507669 
1968	 0.182274855781245 
1969	 0.183093618022381 
1970	 0.183944684794951 
1971	 0.184764638838572 
1972	 0.185573479046522 
1973	 0.186391001827612 
1974	 0.18719357529835 
1975	 0.187985213313843 
1976	 0.188748300043934 
1977	 0.189503088413331 
1978	 0.19022593482766 
1979	 0.190883710639907 
1980	 0.191571927045646 
1981	 0.192308657662945 
1982	 0.193065351551766 
1983	 0.193853680640638 
1984	 0.194626678111489 
1985	 0.195320424852449 
1986	 0.195985118155115 
1987	 0.196620655532018 
1988	 0.197190669893477 
1989	 0.197784574134819 
1990	 0.198360587916001 
1991	 0.19893613828947 
1992	 0.199522333499383 
1993	 0.200090461391378 
1994	 0.200613486695737 
1995	 0.201153992936304 
1996	 0.201660546570956 
1997	 0.202144955686528 
1998	 0.202620670103649 
1999	 0.20309553454087 
2000	 0.203513919156782 
2001	 0.203922028154537 
2002	 0.204267457387533 
2003	 0.204551653986752 
2004	 0.204829426833608 
2005	 0.205056713284471 
2006	 0.205268043362071 
2007	 0.205474143373161 
2008	 0.205651149975912 
2009	 0.205743873025707 
2010	 0.205811736892048 
2011	 0.205808721898858 
2012	 0.205715471757087 
2013	 0.20560306718265 
2014	 0.205452150743063 
2015	 0.205248259450209 
2016	 0.205011795680881 
2017	 0.204704706595257 
2018	 0.204314253497442 
2019	 0.203911961381752 
2020	 0.203484944286186 
2021	 0.202971866533159 
2022	 0.202448386449044 
2023	 0.201861171006768 
2024	 0.20116068354037 
2025	 0.200442078231961 
2026	 0.199686151820282 
2027	 0.1988465657886 
2028	 0.198047749600183 
2029	 0.197235105814424 
2030	 0.196417116351747 
2031	 0.195603884969276 
2032	 0.19477688648282 
2033	 0.193918940937129 
2034	 0.193096696754642 
2035	 0.192277063703211 
2036	 0.191448324166767 
2037	 0.190704148298674 
2038	 0.189976777955834 
2039	 0.189326300696587 
2040	 0.188750395900321 
2041	 0.188193709415021 
2042	 0.187684996992924 
2043	 0.187220711462723 
2044	 0.186770536210682 
2045	 0.186401570533359 
2046	 0.18613738883999 
2047	 0.185841621091855 
2048	 0.185605887703608 
2049	 0.185350815765036 
2050	 0.185068897351201 
2051	 0.184808582193568 
2052	 0.184604926538174 
2053	 0.184407926936037 
2054	 0.184241434491123 
2055	 0.184117327567042 
2056	 0.184007608510222 
2057	 0.183914273654491 
2058	 0.183841410627804 
2059	 0.183819930289041 
2060	 0.18376542597336 
2061	 0.183712981275764 
2062	 0.183654321838238 
2063	 0.183582492477744 
2064	 0.183514987194625 
2065	 0.183439439305486 
2066	 0.183382896802922 
2067	 0.183321669208807 
2068	 0.183268666102059 
2069	 0.183201280252342 
2070	 0.183128306274189 
2071	 0.183060976173688 
2072	 0.183001634782021 
2073	 0.182909726647186 
2074	 0.182827107190847 
2075	 0.182697780883817 
2076	 0.182511434988036 
2077	 0.182345174796927 
2078	 0.182154930566304 
2079	 0.181982450089712 
2080	 0.181814432170207 
2081	 0.181649142800594 
2082	 0.181486354578896 
2083	 0.181334382078784 
2084	 0.181190458526247 
2085	 0.181040717473762 
2086	 0.180886706738834 
2087	 0.180735391232726 
2088	 0.180580362870937 
2089	 0.180414129494987 
2090	 0.180252402210321 
2091	 0.180092694751009 
2092	 0.179924289981736 
2093	 0.179746866231049 
2094	 0.179586445541042 
2095	 0.179434118189838 
2096	 0.179278743460207 
2097	 0.179145791508289 
2098	 0.178974620274869 
2099	 0.178830107926474 
2100	 0.178668217904253 
2101	 0.178490060926465 
2102	 0.178320873321486 
2103	 0.178104968784215 
2104	 0.177841834049441 
2105	 0.177596187588605 
2106	 0.177329569784234 
2107	 0.177073858209625 
2108	 0.176846295636729 
2109	 0.176566225333932 
2110	 0.176252408660576 
2111	 0.175944309667499 
2112	 0.175583315045005 
2113	 0.175264961907892 
2114	 0.174986470018772 
2115	 0.174688563183868 
2116	 0.174386571790132 
2117	 0.174107435949526 
2118	 0.1738052908579 
2119	 0.173474649948454 
2120	 0.173185613250295 
2121	 0.17290049242633 
2122	 0.172641150251429 
2123	 0.172426002409615 
2124	 0.172178953623184 
2125	 0.171926455877517 
2126	 0.171687463035557 
2127	 0.171437631801281 
2128	 0.171205246245333 
2129	 0.170986227081035 
2130	 0.170779494512121 
2131	 0.170575760593309 
2132	 0.170392274623204 
2133	 0.170207176243032 
2134	 0.170093591060527 
2135	 0.169977725223029 
2136	 0.169803942360105 
2137	 0.169610426733709 
2138	 0.169377249728571 
2139	 0.169171105897969 
2140	 0.168930708036896 
2141	 0.168737950664949 
2142	 0.168583869667789 
2143	 0.168422646269267 
2144	 0.168246949559166 
2145	 0.168127731822271 
2146	 0.168014266454167 
2147	 0.167960120884514 
2148	 0.167992607286747 
2149	 0.167998923701976 
2150	 0.16803953161724 
2151	 0.168072346100335 
2152	 0.168113369393679 
2153	 0.168120704612209 
2154	 0.168163496819901 
2155	 0.168187645998798 
2156	 0.168188231356127 
2157	 0.168159366942291 
2158	 0.168159007002739 
2159	 0.168143327634845 
2160	 0.168157951426664 
2161	 0.168228882069976 
2162	 0.168225856219577 
2163	 0.168196766086432 
2164	 0.168163165700194 
2165	 0.168062347710528 
2166	 0.168022763381498 
2167	 0.167999311727839 
2168	 0.168007584772803 
2169	 0.168069538312035 
2170	 0.168108267720585 
2171	 0.168143649796437 
2172	 0.168200956476341 
2173	 0.168243300484064 
2174	 0.168327786944121 
2175	 0.168406012828215 
2176	 0.168529175086577 
2177	 0.168689957845145 
2178	 0.168871931108117 
2179	 0.169071602861849 
2180	 0.169349038709291 
2181	 0.169557072154042 
2182	 0.169724385151377 
2183	 0.169936415840087 
2184	 0.170138012196031 
2185	 0.17038029370734 
2186	 0.170670244258435 
2187	 0.170948164803569 
2188	 0.1712289511587 
2189	 0.171528832500303 
2190	 0.171838262603546 
2191	 0.17216711684276 
2192	 0.172553673346502 
2193	 0.17288846206817 
2194	 0.173258347456389 
2195	 0.173531665949002 
2196	 0.173740536411374 
2197	 0.173907177422243 
2198	 0.173985158571831 
2199	 0.17405844306427 
2200	 0.174171105394618 
2201	 0.174285662350843 
2202	 0.174385195702636 
2203	 0.174498742933436 
2204	 0.174618101610069 
2205	 0.174720040374442 
2206	 0.174830732840801 
2207	 0.174992958787133 
2208	 0.175079779745788 
2209	 0.175130085588851 
2210	 0.1751565415594 
2211	 0.175139494864458 
2212	 0.175126801248788 
2213	 0.175109497609568 
2214	 0.175048476241378 
2215	 0.174966109639558 
2216	 0.174856964378797 
2217	 0.174710535757208 
2218	 0.174539239568213 
2219	 0.174346698078459 
2220	 0.174134370030704 
2221	 0.173906738750208 
2222	 0.173627696265856 
2223	 0.173326749162177 
2224	 0.17294973569894 
2225	 0.17255043925399 
2226	 0.172101672588924 
2227	 0.171547317457493 
2228	 0.170946767860195 
2229	 0.170240036246207 
2230	 0.169390466058631 
2231	 0.168538992601466 
2232	 0.167657871759594 
2233	 0.166647327232217 
2234	 0.16558613920846 
2235	 0.164392539320198 
2236	 0.163093212977028 
2237	 0.161661889941037 
2238	 0.160039841796704 
2239	 0.158437936914386 
2240	 0.156754621679375 
2241	 0.154990344206074 
2242	 0.153262309122326 
2243	 0.151349088869885 
2244	 0.149261078262264 
2245	 0.147112325940813 
2246	 0.144740752446205 
2247	 0.142464767704412 
2248	 0.140154894092809 
2249	 0.137846655430149 
2250	 0.135591254433521 
2251	 0.133344898464875 
2252	 0.130881254583988 
2253	 0.128522592611254 
2254	 0.126149133395804 
2255	 0.123734729405162 
2256	 0.121574683736799 
2257	 0.119408508855245 
2258	 0.117353227303237 
2259	 0.115426569564647 
2260	 0.113508384930867 
2261	 0.111630328944079 
2262	 0.109867959688732 
2263	 0.108162190249323 
2264	 0.10653396245785 
2265	 0.1050229718203 
2266	 0.103532017993257 
2267	 0.102108972713069 
2268	 0.100711684688873 
2269	 9.94032043828509E-02 
2270	 9.80698276728655E-02 
2271	 9.66976072848127E-02 
2272	 9.54322087454716E-02 
2273	 9.42160205184887E-02 
2274	 9.30274184012877E-02 
2275	 9.19753358742688E-02 
2276	 9.08546227601355E-02 
2277	 8.97213844133394E-02 
2278	 8.85758806688076E-02 
2279	 8.73736923377044E-02 
2280	 8.62125202761867E-02 
2281	 8.50981088871156E-02 
2282	 8.39420230520803E-02 
2283	 8.27957998326344E-02 
2284	 8.16435577535941E-02 
2285	 8.03564992593445E-02 
2286	 7.90671003803974E-02 
2287	 7.77712202558409E-02 
2288	 7.64420086862488E-02 
2289	 7.52082795799793E-02 
2290	 7.39228269764873E-02 
2291	 7.26695775575706E-02 
2292	 7.14264649014901E-02 
2293	 7.00489861681901E-02 
2294	 6.87433780618312E-02 
2295	 6.74895026750828E-02 
2296	 6.62422062514391E-02 
2297	 6.51981448036542E-02 
2298	 6.43531519624952E-02 
2299	 6.35220543223699E-02 
2300	 6.27641357548956E-02 
2301	 6.21640156426192E-02 
2302	 6.15823210508373E-02 
2303	 6.13159875089815E-02 
2304	 6.12972049423556E-02 
2305	 6.14048777181634E-02 
2306	 6.17708531277322E-02 
2307	 0.062219207007562 
2308	 6.27694499779595E-02 
2309	 6.35158847840919E-02 
2310	 6.45000422282976E-02 
2311	 6.55038896507367E-02 
2312	 6.67403722215781E-02 
2313	 6.78647214631794E-02 
2314	 6.89900392179353E-02 
2315	 7.01285500447439E-02 
2316	 7.13288545857197E-02 
2317	 7.23857523434746E-02 
2318	 0.073516648863574 
2319	 7.43535861451304E-02 
2320	 7.49547771841832E-02 
2321	 0.075486129015225 
2322	 7.58175658306174E-02 
2323	 7.60862832149124E-02 
2324	 7.62437829911717E-02 
2325	 7.63430500922244E-02 
2326	 7.63614682546264E-02 
2327	 7.62676371154675E-02 
2328	 7.60896910056649E-02 
2329	 7.58093140996947E-02 
2330	 7.53970755162297E-02 
2331	 7.48830985092177E-02 
2332	 7.42782694479604E-02 
2333	 7.37016135879208E-02 
2334	 7.30356754102651E-02 
2335	 7.22703896011906E-02 
2336	 7.15135550037141E-02 
2337	 0.070612879077879 
2338	 6.96141763142673E-02 
2339	 6.86141509502953E-02 
2340	 6.76022960693467E-02 
2341	 6.66241547275068E-02 
2342	 6.58182248249266E-02 
2343	 6.51819910120909E-02 
2344	 6.46692636383667E-02 
2345	 6.43971205375925E-02 
2346	 0.064281294502056 
2347	 6.42941652581311E-02 
2348	 0.064434352659617 
2349	 6.47807908747626E-02 
2350	 6.52886516541128E-02 
2351	 6.59485495269158E-02 
2352	 6.69259123605021E-02 
2353	 6.79687546433145E-02 
2354	 6.88419450998617E-02 
2355	 6.97424290419993E-02 
2356	 7.04827717845887E-02 
2357	 7.09654516676787E-02 
2358	 7.14298194861733E-02 
2359	 7.17893836013739E-02 
2360	 7.21501742461196E-02 
2361	 7.24967955907613E-02 
2362	 7.26630678665225E-02 
2363	 0.07274683993317 
2364	 7.27531375840851E-02 
2365	 7.27084088622889E-02 
2366	 7.28266366874551E-02 
2367	 7.29694614014288E-02 
2368	 7.29574488682108E-02 
2369	 7.29327167938783E-02 
2370	 7.29647464171436E-02 
2371	 7.29099138960291E-02 
2372	 7.28219830833301E-02 
2373	 7.28731464583884E-02 
2374	 7.28900684060534E-02 
2375	 7.29231536851799E-02 
2376	 7.29525466505657E-02 
2377	 7.29026799294505E-02 
2378	 7.29051780321574E-02 
2379	 7.28948797028603E-02 
2380	 7.29746568602385E-02 
2381	 7.31439893690536E-02 
2382	 0.073312175733941 
2383	 7.35161442564526E-02 
2384	 7.36130589156986E-02 
2385	 7.37349062373862E-02 
2386	 7.37838738712348E-02 
2387	 7.36404583397494E-02 
2388	 7.37061335331466E-02 
2389	 0.073908714008985 
2390	 7.39576623551424E-02 
2391	 7.40114425194142E-02 
2392	 7.39943974845357E-02 
2393	 7.38214017549496E-02 
2394	 7.37957060950874E-02 
2395	 7.38235779367797E-02 
2396	 7.38671913766886E-02 
2397	 0.074007654042889 
2398	 7.40527700906812E-02 
2399	 7.40529733602755E-02 
2400	 7.40590723747389E-02 
2401	 7.39797794340638E-02 
2402	 7.40124986480199E-02 
2403	 7.41297580756271E-02 
2404	 7.42081385260733E-02 
2405	 0.07421356624516 
2406	 7.39775268986898E-02 
2407	 7.39295777618682E-02 
2408	 7.39909826262905E-02 
2409	 7.38961436609177E-02 
2410	 7.39956725245564E-02 
2411	 7.40810493819728E-02 
2412	 7.40452335542418E-02 
2413	 7.40662594416586E-02 
2414	 7.39767813874158E-02 
2415	 7.38129895251363E-02 
2416	 7.34978943331466E-02 
2417	 7.31829503231823E-02 
2418	 7.32337930415053E-02 
2419	 7.31255372494284E-02 
2420	 7.29292180867898E-02 
2421	 7.28922114450232E-02 
2422	 7.26424146182743E-02 
2423	 7.24578714709027E-02 
2424	 7.24227101703028E-02 
2425	 7.23486297964602E-02 
2426	 7.23360564445155E-02 
2427	 7.23258291893625E-02 
2428	 7.23405124640656E-02 
2429	 7.22151367758457E-02 
2430	 7.18396806439424E-02 
2431	 7.15293364289937E-02 
2432	 0.071227444987393 
2433	 7.10240604761662E-02 
2434	 7.10397531951384E-02 
2435	 0.070973387847249 
2436	 7.07142200823316E-02 
2437	 7.03912004305419E-02 
2438	 7.00541220042706E-02 
2439	 6.97280400726316E-02 
2440	 6.95879136000405E-02 
2441	 6.95725694540871E-02 
2442	 6.94767858939436E-02 
2443	 6.93022776685006E-02 
2444	 6.91046065256627E-02 
2445	 6.85957707349049E-02 
2446	 6.80925330997409E-02 
2447	 6.78941615226701E-02 
2448	 6.73931518468178E-02 
2449	 6.70365912172687E-02 
2450	 6.69219634530889E-02 
2451	 6.64927975223569E-02 
2452	 6.63519652055689E-02 
2453	 6.62824036074387E-02 
2454	 6.57640762128506E-02 
2455	 6.53893521574607E-02 
2456	 6.50261653464593E-02 
2457	 6.44738683237117E-02 
2458	 0.064234759672374 
2459	 6.40718151364786E-02 
2460	 6.38464551593897E-02 
2461	 6.37736928492113E-02 
2462	 6.36080925060694E-02 
2463	 6.36815092872694E-02 
2464	 6.36333468019304E-02 
2465	 6.31903483884669E-02 
2466	 6.31654628580576E-02 
2467	 6.28327868681432E-02 
2468	 6.21852431610823E-02 
2469	 6.20623063360691E-02 
2470	 6.19162769847776E-02 
2471	 6.16473924949097E-02 
2472	 6.15775870249273E-02 
2473	 6.14455960830052E-02 
2474	 6.12033040533181E-02 
2475	 6.09248709623909E-02 
2476	 6.08050033835502E-02 
2477	 6.07663376090379E-02 
2478	 6.05008297606248E-02 
2479	 6.03357026688821E-02 
2480	 5.98005337013616E-02 
2481	 0.059681564639383 
2482	 6.00968892019567E-02 
2483	 6.01633385958273E-02 
2484	 6.02023901503858E-02 
2485	 5.99674155146256E-02 
2486	 5.94724127476493E-02 
2487	 5.94073192519183E-02 
2488	 5.94657552115709E-02 
2489	 5.95824103897531E-02 
2490	 5.98079007030621E-02 
2491	 5.97400864987267E-02 
2492	 5.97119643567236E-02 
2493	 5.99833051021691E-02 
2494	 6.03413995316893E-02 
2495	 6.02297268601442E-02 
2496	 5.98729098016247E-02 
2497	 5.98582064421407E-02 
2498	 6.00726757385098E-02 
2499	 6.07252306143064E-02 
2500	 6.12064987106515E-02 
