Wavelength	spectrum00021.asd
350	 0.318562232994147 
351	 0.316703770415842 
352	 0.318871408545082 
353	 0.32291411708677 
354	 0.321550217458857 
355	 0.323449435386004 
356	 0.326988262244229 
357	 0.32897738535928 
358	 0.328307855234739 
359	 0.328808903711627 
360	 0.331525149451846 
361	 0.335480316298684 
362	 0.336896403165145 
363	 0.337847517063176 
364	 0.339493701352498 
365	 0.341040291785979 
366	 0.344161672739772 
367	 0.347459274673288 
368	 0.34991460161931 
369	 0.354590581006505 
370	 0.357015942002067 
371	 0.358375570995209 
372	 0.362447616575093 
373	 0.365214554451091 
374	 0.367983249243211 
375	 0.371339854032055 
376	 0.374094468702351 
377	 0.375970569625127 
378	 0.378272915465661 
379	 0.38179538534729 
380	 0.384022822206468 
381	 0.386943575304913 
382	 0.390440730445221 
383	 0.393377536831763 
384	 0.398093029809255 
385	 0.401070647760009 
386	 0.401693135096383 
387	 0.404565742747928 
388	 0.407190739237143 
389	 0.409816635365688 
390	 0.412900465601602 
391	 0.415069885256238 
392	 0.417735868750546 
393	 0.420689250303518 
394	 0.422837229420112 
395	 0.426227141252793 
396	 0.429194075843507 
397	 0.430917994253723 
398	 0.432527233549919 
399	 0.436574314731991 
400	 0.440763399485537 
401	 0.442624544797687 
402	 0.445342611358845 
403	 0.447069101015271 
404	 0.448401220627079 
405	 0.451650358855344 
406	 0.455514926892968 
407	 0.458057761714139 
408	 0.459060116666546 
409	 0.461585300658441 
410	 0.464768798093137 
411	 0.467865764120274 
412	 0.47029893619297 
413	 0.472433702065529 
414	 0.474519321207385 
415	 0.476955825146929 
416	 0.480189166091648 
417	 0.482625364859675 
418	 0.484751606897897 
419	 0.487122209744755 
420	 0.489599163556618 
421	 0.491389867146884 
422	 0.493132605847811 
423	 0.495727025607403 
424	 0.497521730596286 
425	 0.499957026971343 
426	 0.503070842319814 
427	 0.505100224298231 
428	 0.507213180433374 
429	 0.509427754658145 
430	 0.511581353528752 
431	 0.513755351657249 
432	 0.515824123618168 
433	 0.517855277153513 
434	 0.5199863451726 
435	 0.521874263858602 
436	 0.523970492764413 
437	 0.526323265224748 
438	 0.528237097604705 
439	 0.530000915729247 
440	 0.531951693024564 
441	 0.534264937844899 
442	 0.536422515096826 
443	 0.538442568038687 
444	 0.540415129727911 
445	 0.542458683640151 
446	 0.544284427331785 
447	 0.5462105965959 
448	 0.548393818905089 
449	 0.550428966358275 
450	 0.552590335725266 
451	 0.554589277171609 
452	 0.556119259029111 
453	 0.558110512422931 
454	 0.559972303800073 
455	 0.561592240315905 
456	 0.563497223850267 
457	 0.56520973494895 
458	 0.566926827502734 
459	 0.568827204632242 
460	 0.570610926886433 
461	 0.572160952348611 
462	 0.573655044714831 
463	 0.575398138897693 
464	 0.57713195959676 
465	 0.578847017825907 
466	 0.580518697052624 
467	 0.582043899385311 
468	 0.583722561029851 
469	 0.585312067453986 
470	 0.586614449936414 
471	 0.588347409625095 
472	 0.589800943369335 
473	 0.590976652780007 
474	 0.592457810602451 
475	 0.594110760761357 
476	 0.59562512916056 
477	 0.596891804916335 
478	 0.598314379672093 
479	 0.599562530663064 
480	 0.600772914177013 
481	 0.60220791594038 
482	 0.603718164025847 
483	 0.605124853786618 
484	 0.606366020518764 
485	 0.607516725202194 
486	 0.608789685858217 
487	 0.610160775972059 
488	 0.611552087674961 
489	 0.61297199755164 
490	 0.614108223081245 
491	 0.615200512701058 
492	 0.616722121418516 
493	 0.617956013079843 
494	 0.619186980736565 
495	 0.620525163908226 
496	 0.621570391061743 
497	 0.622817144706268 
498	 0.624055905659128 
499	 0.62501413287902 
500	 0.626189621099225 
501	 0.627439539055439 
502	 0.628621470956748 
503	 0.629631510515255 
504	 0.630595023419497 
505	 0.631696900029645 
506	 0.632945561483224 
507	 0.6339004524694 
508	 0.63495220846113 
509	 0.636090422782404 
510	 0.637137320427474 
511	 0.638107431325886 
512	 0.639040202454164 
513	 0.64000647092171 
514	 0.641117932555331 
515	 0.642030235722297 
516	 0.6429559747866 
517	 0.644057838602397 
518	 0.644756275833669 
519	 0.645627318470319 
520	 0.646655308133742 
521	 0.647434143067119 
522	 0.648292579970438 
523	 0.649210858476284 
524	 0.650151000956621 
525	 0.651170979518327 
526	 0.651951289014634 
527	 0.652656677564192 
528	 0.653564247106643 
529	 0.654501619302093 
530	 0.655287855401609 
531	 0.656025674635834 
532	 0.657096865637738 
533	 0.657948927167511 
534	 0.658608603321865 
535	 0.659228164614082 
536	 0.659904718970367 
537	 0.660669625791723 
538	 0.661447898690446 
539	 0.662129638992908 
540	 0.662874953192135 
541	 0.663703577741602 
542	 0.664537196947762 
543	 0.665163697979208 
544	 0.665830290376995 
545	 0.666509504734298 
546	 0.667135181782794 
547	 0.667857977124211 
548	 0.668700797580796 
549	 0.669715221734024 
550	 0.670955553268637 
551	 0.671941623888634 
552	 0.672789782426829 
553	 0.673658019859883 
554	 0.674466485917636 
555	 0.675473256978922 
556	 0.676495841227943 
557	 0.677199391967296 
558	 0.677913854574842 
559	 0.678210725871903 
560	 0.67806264896141 
561	 0.678078681243228 
562	 0.678418110712428 
563	 0.678850725510005 
564	 0.679053741502574 
565	 0.678931595600932 
566	 0.678437299276114 
567	 0.677636202895243 
568	 0.676755987583008 
569	 0.676754433694878 
570	 0.677969697991154 
571	 0.680266888104994 
572	 0.682908709581236 
573	 0.685541787207033 
574	 0.68782891464585 
575	 0.689409347701393 
576	 0.689509294178876 
577	 0.688494224008956 
578	 0.686869301585657 
579	 0.68518701563764 
580	 0.68423363693469 
581	 0.684149351022032 
582	 0.684967315757752 
583	 0.687187189457941 
584	 0.689444431259702 
585	 0.691270061614356 
586	 0.692690440708822 
587	 0.692587529929399 
588	 0.691876131122669 
589	 0.691410728508217 
590	 0.691456448907622 
591	 0.692658471509654 
592	 0.694642991020995 
593	 0.696601555819037 
594	 0.697700043004262 
595	 0.698080889022679 
596	 0.697686433877924 
597	 0.696329644759331 
598	 0.695131886454392 
599	 0.694603930050001 
600	 0.694848518482007 
601	 0.695431567979202 
602	 0.696076606305883 
603	 0.696819389279187 
604	 0.697779856443722 
605	 0.6984918590016 
606	 0.699080864110579 
607	 0.699677201107114 
608	 0.700345133203055 
609	 0.700903342176957 
610	 0.701362819923614 
611	 0.701802777269822 
612	 0.702353416197362 
613	 0.702776382029387 
614	 0.703100722742889 
615	 0.703519818322158 
616	 0.703940063048596 
617	 0.704297295565317 
618	 0.704625145290806 
619	 0.705149268475359 
620	 0.705374365216652 
621	 0.705505416110612 
622	 0.705890444599294 
623	 0.706322286700184 
624	 0.70677578680154 
625	 0.70720624829614 
626	 0.707557565480219 
627	 0.708068295269075 
628	 0.708436969034993 
629	 0.708558305758548 
630	 0.709090864512301 
631	 0.709483721891074 
632	 0.709722960521548 
633	 0.710036724828862 
634	 0.71053653839995 
635	 0.711077119374372 
636	 0.711451892214819 
637	 0.711418861614323 
638	 0.711755052369828 
639	 0.71219335086444 
640	 0.712413786773814 
641	 0.71285849722905 
642	 0.713175581888633 
643	 0.713413558441311 
644	 0.713843091679515 
645	 0.714297053666656 
646	 0.714696980296148 
647	 0.715003569411447 
648	 0.715218617536938 
649	 0.715435242265046 
650	 0.715738894352232 
651	 0.716175771916395 
652	 0.716713935622324 
653	 0.716924114674472 
654	 0.716949301456184 
655	 0.717361640683774 
656	 0.717827691777029 
657	 0.718095602193945 
658	 0.718177273674331 
659	 0.718615740068904 
660	 0.719078989559461 
661	 0.719398628635345 
662	 0.719529361357549 
663	 0.719770916266012 
664	 0.720033784648127 
665	 0.720289222930949 
666	 0.720595345146954 
667	 0.721078513314987 
668	 0.721414160641832 
669	 0.721443586922026 
670	 0.721638061884192 
671	 0.721967366543966 
672	 0.722359809523806 
673	 0.722700940299584 
674	 0.722846461649414 
675	 0.722959370404977 
676	 0.723152000072569 
677	 0.723438811191931 
678	 0.723990771870359 
679	 0.724333859010301 
680	 0.724234070763556 
681	 0.724639485662846 
682	 0.725005189955379 
683	 0.725128904024589 
684	 0.725081784550366 
685	 0.725474638607579 
686	 0.725841384330794 
687	 0.726003060324844 
688	 0.726347703062461 
689	 0.726599000106801 
690	 0.726674440254494 
691	 0.726640341241099 
692	 0.726860125478205 
693	 0.727224561530167 
694	 0.727603033384022 
695	 0.7278708613017 
696	 0.728104494041186 
697	 0.728257624126492 
698	 0.728320743641438 
699	 0.728343058291748 
700	 0.728850032973846 
701	 0.729314883220183 
702	 0.729201022420199 
703	 0.72909825622478 
704	 0.729498946042502 
705	 0.730110658917032 
706	 0.730175746281173 
707	 0.730186274684915 
708	 0.73033117363648 
709	 0.730629677670333 
710	 0.730900510002292 
711	 0.730941845569401 
712	 0.73093483915658 
713	 0.731122738552635 
714	 0.731461819327517 
715	 0.73187932910368 
716	 0.732192190634871 
717	 0.732189621805246 
718	 0.73215261791751 
719	 0.732306671981497 
720	 0.732645323457354 
721	 0.732803047850233 
722	 0.732886477891259 
723	 0.732994279842316 
724	 0.733213389393086 
725	 0.733602637694622 
726	 0.73369752704929 
727	 0.733638367383592 
728	 0.733934776936104 
729	 0.734115267894917 
730	 0.734072573339631 
731	 0.733966160980238 
732	 0.734298499153863 
733	 0.734769940321631 
734	 0.735081866720818 
735	 0.735074469234625 
736	 0.735074225209708 
737	 0.735205473457822 
738	 0.73545598177153 
739	 0.735721416537926 
740	 0.736046642182123 
741	 0.736116810374817 
742	 0.73591678130898 
743	 0.73591696737154 
744	 0.736300496121634 
745	 0.736604278603145 
746	 0.736454265728411 
747	 0.736395414436493 
748	 0.736525356636002 
749	 0.736698655109905 
750	 0.736680150835438 
751	 0.736793414998882 
752	 0.736885254811686 
753	 0.736975090395192 
754	 0.737354870702709 
755	 0.737785377590768 
756	 0.738102381334858 
757	 0.738228571843534 
758	 0.738239302074461 
759	 0.738399997995829 
760	 0.738502053653958 
761	 0.738298748553729 
762	 0.73889973909711 
763	 0.739184669259138 
764	 0.738916434821295 
765	 0.738953297287021 
766	 0.73914173711262 
767	 0.7394229973591 
768	 0.739699595507898 
769	 0.739769266650824 
770	 0.739881459675159 
771	 0.740020706401446 
772	 0.740155274780751 
773	 0.740757580360608 
774	 0.740717733422968 
775	 0.740243558704331 
776	 0.740557003517464 
777	 0.740900927187204 
778	 0.741108359053849 
779	 0.741184485441525 
780	 0.741277766964085 
781	 0.741509732357604 
782	 0.741758119328641 
783	 0.741855387888581 
784	 0.741729400686848 
785	 0.741811538828884 
786	 0.742022688229899 
787	 0.742068635109795 
788	 0.742518802697377 
789	 0.742785417914855 
790	 0.742700852374939 
791	 0.742714434251087 
792	 0.74281429190401 
793	 0.742912007072599 
794	 0.742973383125763 
795	 0.743178960721908 
796	 0.74320485615096 
797	 0.743260215674273 
798	 0.743568014806594 
799	 0.743363431883027 
800	 0.743488520760134 
801	 0.743935187967522 
802	 0.74403675292627 
803	 0.744069426080328 
804	 0.744077512773958 
805	 0.744163876899453 
806	 0.74454601875717 
807	 0.744540348173066 
808	 0.744334247142408 
809	 0.744252870157849 
810	 0.744310368169312 
811	 0.744368661509042 
812	 0.744499277989069 
813	 0.744796304439758 
814	 0.744919876381588 
815	 0.74505909369264 
816	 0.745147035636483 
817	 0.74491525052129 
818	 0.744774526217145 
819	 0.744902349672164 
820	 0.745275895451453 
821	 0.7456311615862 
822	 0.745691276733516 
823	 0.745670387229087 
824	 0.745777177191644 
825	 0.745701638619644 
826	 0.745871315856569 
827	 0.746125093998802 
828	 0.746088908414885 
829	 0.745864423778667 
830	 0.745965021423848 
831	 0.746292206097253 
832	 0.74625690921546 
833	 0.746363504677605 
834	 0.746374271655445 
835	 0.746299603915259 
836	 0.746672413633529 
837	 0.746851836817016 
838	 0.746812964899241 
839	 0.746740073170834 
840	 0.746949812930988 
841	 0.74694381837789 
842	 0.746797619706159 
843	 0.746814555895581 
844	 0.747128493252873 
845	 0.747427170097745 
846	 0.747517095855554 
847	 0.74735326523033 
848	 0.747068492722419 
849	 0.747109850460582 
850	 0.747408535883365 
851	 0.747262759785922 
852	 0.747205754749881 
853	 0.747244006048936 
854	 0.747332941221874 
855	 0.747567443262612 
856	 0.747535041100291 
857	 0.747296021741953 
858	 0.747083217626217 
859	 0.747099769385181 
860	 0.747233272562513 
861	 0.747307274384725 
862	 0.747203298306809 
863	 0.747308259468412 
864	 0.747415142808931 
865	 0.7473846383429 
866	 0.747214659462098 
867	 0.747224163167329 
868	 0.747583894465301 
869	 0.748018165403311 
870	 0.747742277285561 
871	 0.747407178785211 
872	 0.747362083673744 
873	 0.747660552668247 
874	 0.747881429774222 
875	 0.748147472148492 
876	 0.74813707677948 
877	 0.747695548121861 
878	 0.747612546601209 
879	 0.7480421858741 
880	 0.748347330272486 
881	 0.747850109617548 
882	 0.747865782568033 
883	 0.747972014827569 
884	 0.747970116374038 
885	 0.747907050131662 
886	 0.747714189670686 
887	 0.747641809471439 
888	 0.747801725189567 
889	 0.748074900906062 
890	 0.747904808397676 
891	 0.747741913678611 
892	 0.747923781920685 
893	 0.748267320671007 
894	 0.748032078938926 
895	 0.74757125545546 
896	 0.747351805073951 
897	 0.747324819303386 
898	 0.747360299353779 
899	 0.747337924696917 
900	 0.74717679973973 
901	 0.746890694261075 
902	 0.746619606553802 
903	 0.746561161909193 
904	 0.746816906154117 
905	 0.7469536418225 
906	 0.746928858882441 
907	 0.746738842265607 
908	 0.746426078814206 
909	 0.74618119552534 
910	 0.746034205776021 
911	 0.745953841944039 
912	 0.745866210397637 
913	 0.745664163857408 
914	 0.745861096239301 
915	 0.746328034789875 
916	 0.746018541635775 
917	 0.745498331256667 
918	 0.745178280870565 
919	 0.745229093748441 
920	 0.745430607013043 
921	 0.745838213089973 
922	 0.745979048119524 
923	 0.745644441182809 
924	 0.745567685529161 
925	 0.74571623169626 
926	 0.745753433259635 
927	 0.745470426700267 
928	 0.745465406060566 
929	 0.745519639094173 
930	 0.74562484056176 
931	 0.745887893251133 
932	 0.746562321234659 
933	 0.747009816873727 
934	 0.747073467699668 
935	 0.746949312072911 
936	 0.746901249918986 
937	 0.747157304874188 
938	 0.747647081908896 
939	 0.748102572439697 
940	 0.748525196676443 
941	 0.748414860352597 
942	 0.748052889680233 
943	 0.74830044584318 
944	 0.748801503933967 
945	 0.748859191495519 
946	 0.748559716855969 
947	 0.748772243514148 
948	 0.749140378302774 
949	 0.749462834426287 
950	 0.749561987209698 
951	 0.749351450867822 
952	 0.749835256059416 
953	 0.750249166015809 
954	 0.750068883700449 
955	 0.74964866139076 
956	 0.749630393416816 
957	 0.749831947488797 
958	 0.749928266765401 
959	 0.749722724111084 
960	 0.749655775663413 
961	 0.749464380674233 
962	 0.748975416505689 
963	 0.748510369374462 
964	 0.748483436491047 
965	 0.748681682540091 
966	 0.748799658781966 
967	 0.748777713080411 
968	 0.748596457496146 
969	 0.748177840496747 
970	 0.747653560135799 
971	 0.747676078669967 
972	 0.747637440490496 
973	 0.747169023583064 
974	 0.746315069867821 
975	 0.745953900089947 
976	 0.745723802981505 
977	 0.745520854063202 
978	 0.745304324530487 
979	 0.744996636779365 
980	 0.744876688631693 
981	 0.744685136593493 
982	 0.744182772519399 
983	 0.743744261545103 
984	 0.743822089593494 
985	 0.74391325790673 
986	 0.743553400942294 
987	 0.743622712433558 
988	 0.743718963469021 
989	 0.743745205351782 
990	 0.743736512482527 
991	 0.743769526798074 
992	 0.744003193541601 
993	 0.744377930410739 
994	 0.744759566091645 
995	 0.745068346051396 
996	 0.745658376783994 
997	 0.746264519196035 
998	 0.746548129636223 
999	 0.746749689497425 
1000	 0.74668926899025 
1001	 0.741572066339493 
1002	 0.741784763125505 
1003	 0.742063443642523 
1004	 0.742276337941596 
1005	 0.742461761563274 
1006	 0.742630727597755 
1007	 0.742790854222894 
1008	 0.742914516448992 
1009	 0.743001371372993 
1010	 0.743095387822192 
1011	 0.743171378288124 
1012	 0.743247716989589 
1013	 0.743312868335438 
1014	 0.743388953337414 
1015	 0.743445812244371 
1016	 0.743534942913004 
1017	 0.743690574569587 
1018	 0.74380041811921 
1019	 0.743839994046049 
1020	 0.743939320251016 
1021	 0.744073280888483 
1022	 0.744222411503125 
1023	 0.744307196996656 
1024	 0.744497358649186 
1025	 0.744512454232851 
1026	 0.744406853484093 
1027	 0.744260316600467 
1028	 0.744026800512812 
1029	 0.74376852760439 
1030	 0.743496158552938 
1031	 0.743354586379335 
1032	 0.743387103601689 
1033	 0.743376755182325 
1034	 0.743272135668843 
1035	 0.743151613406124 
1036	 0.742986123736694 
1037	 0.742637074333867 
1038	 0.742474739393578 
1039	 0.742362086068351 
1040	 0.742308578257598 
1041	 0.742389544707929 
1042	 0.742418679174937 
1043	 0.74248978113332 
1044	 0.742500551611143 
1045	 0.742482224930239 
1046	 0.742455295193468 
1047	 0.74246164347438 
1048	 0.74245880118668 
1049	 0.742499700885673 
1050	 0.742563318112404 
1051	 0.742560933574769 
1052	 0.742651320727355 
1053	 0.742746757930106 
1054	 0.742827673255078 
1055	 0.742938180721196 
1056	 0.743110084999175 
1057	 0.743230781430642 
1058	 0.743342223679845 
1059	 0.743464464743324 
1060	 0.743551779933108 
1061	 0.74369573395652 
1062	 0.743819260020601 
1063	 0.743947106070749 
1064	 0.74408156310967 
1065	 0.744239476153897 
1066	 0.744385570927555 
1067	 0.744516658591802 
1068	 0.744685654976326 
1069	 0.744800534167627 
1070	 0.744944088037519 
1071	 0.745094835330954 
1072	 0.745300266941867 
1073	 0.74543496888709 
1074	 0.745543764274141 
1075	 0.745652277560234 
1076	 0.745679448307517 
1077	 0.745736459076756 
1078	 0.745846408960411 
1079	 0.745923921796048 
1080	 0.746052045157318 
1081	 0.746208362569211 
1082	 0.746371237723504 
1083	 0.746540777508774 
1084	 0.746676117399499 
1085	 0.746812423459306 
1086	 0.746928436331158 
1087	 0.747013008669882 
1088	 0.747110143969184 
1089	 0.747233758523489 
1090	 0.747333270851831 
1091	 0.747460246813476 
1092	 0.747606094968237 
1093	 0.747752964157276 
1094	 0.747856168668371 
1095	 0.747870342493335 
1096	 0.747900691320812 
1097	 0.747911095666781 
1098	 0.747895622315108 
1099	 0.74797800000506 
1100	 0.748072477197132 
1101	 0.748166810844634 
1102	 0.748293124444194 
1103	 0.748385578058741 
1104	 0.748474799819044 
1105	 0.748527624951948 
1106	 0.748543582265637 
1107	 0.74855022087012 
1108	 0.748590162773665 
1109	 0.748665619734013 
1110	 0.748697789762216 
1111	 0.748700781915872 
1112	 0.748698143699431 
1113	 0.748624807843648 
1114	 0.748626513386489 
1115	 0.748711767116376 
1116	 0.748730767408404 
1117	 0.748757163728792 
1118	 0.748799619307994 
1119	 0.74883112463106 
1120	 0.748846747546615 
1121	 0.748865042334563 
1122	 0.748930713464959 
1123	 0.74894793673597 
1124	 0.748896630698499 
1125	 0.74885357727788 
1126	 0.748768307747543 
1127	 0.748624623800813 
1128	 0.74851589181509 
1129	 0.748384299356527 
1130	 0.748162081255407 
1131	 0.747928468296197 
1132	 0.747701890908157 
1133	 0.747451917836325 
1134	 0.74722022620301 
1135	 0.746954614835269 
1136	 0.746663809593247 
1137	 0.746341335231278 
1138	 0.745996672644943 
1139	 0.7456530996532 
1140	 0.745298091263535 
1141	 0.744921496275446 
1142	 0.744549639620776 
1143	 0.744111639871541 
1144	 0.743562145605071 
1145	 0.742982787304172 
1146	 0.742354181109162 
1147	 0.741675209182443 
1148	 0.741055925596211 
1149	 0.740444583459008 
1150	 0.739791721888413 
1151	 0.739150834486902 
1152	 0.738459753463242 
1153	 0.737677983145043 
1154	 0.736958010507032 
1155	 0.736277412615801 
1156	 0.735534905249527 
1157	 0.734797663237014 
1158	 0.734042905465412 
1159	 0.733257491975804 
1160	 0.732418068514283 
1161	 0.731575302039597 
1162	 0.730709524388953 
1163	 0.729880078315818 
1164	 0.729028707345966 
1165	 0.728195938245518 
1166	 0.727421261154142 
1167	 0.726591441275197 
1168	 0.725769558227489 
1169	 0.725001449992936 
1170	 0.724273005998492 
1171	 0.723529797145526 
1172	 0.722864430204944 
1173	 0.722100210934719 
1174	 0.721264546540134 
1175	 0.720474218032686 
1176	 0.719693313151305 
1177	 0.718856154731612 
1178	 0.717986385502749 
1179	 0.717156087448223 
1180	 0.716289027534249 
1181	 0.715323090842641 
1182	 0.714490015765119 
1183	 0.713701942261465 
1184	 0.712894491954497 
1185	 0.712194095776395 
1186	 0.711502627185157 
1187	 0.710834691610953 
1188	 0.710202256937108 
1189	 0.709623043770941 
1190	 0.709045042938113 
1191	 0.708466930009543 
1192	 0.70796679339293 
1193	 0.707529016683025 
1194	 0.707076345557667 
1195	 0.706682243231093 
1196	 0.706268192916615 
1197	 0.70582285297856 
1198	 0.705386477293485 
1199	 0.705034817841153 
1200	 0.704754314107304 
1201	 0.704493435646981 
1202	 0.704310258664638 
1203	 0.704198781683837 
1204	 0.704121354308221 
1205	 0.704116433428805 
1206	 0.704185936535025 
1207	 0.704333268645632 
1208	 0.704506406861568 
1209	 0.704814146608876 
1210	 0.705218024481783 
1211	 0.70573404433961 
1212	 0.706357966291629 
1213	 0.707091192342596 
1214	 0.707893892659318 
1215	 0.70888067651404 
1216	 0.710053554461516 
1217	 0.711251577245798 
1218	 0.712605967153486 
1219	 0.714015609511906 
1220	 0.715372719252906 
1221	 0.716844089339494 
1222	 0.718283007010138 
1223	 0.719726311683307 
1224	 0.721129106227515 
1225	 0.72253533214034 
1226	 0.723841770373041 
1227	 0.725096074799442 
1228	 0.726313466562502 
1229	 0.727477754648643 
1230	 0.728587731618619 
1231	 0.729698350900183 
1232	 0.730686235165796 
1233	 0.731560603721522 
1234	 0.732392304041421 
1235	 0.733100064400779 
1236	 0.733830731308443 
1237	 0.734555290390435 
1238	 0.735232017943564 
1239	 0.735884721593228 
1240	 0.736510247221127 
1241	 0.737084403276682 
1242	 0.737576595257168 
1243	 0.738058202761456 
1244	 0.738501334602348 
1245	 0.738924769757001 
1246	 0.739304306643972 
1247	 0.739687143302205 
1248	 0.740049213127975 
1249	 0.740407260109949 
1250	 0.740776336944426 
1251	 0.74108394028157 
1252	 0.741386231416879 
1253	 0.741617003110367 
1254	 0.741777847137467 
1255	 0.741923338138079 
1256	 0.742052403255677 
1257	 0.742102389892993 
1258	 0.742081540854876 
1259	 0.742051340065656 
1260	 0.741973887584756 
1261	 0.741850935484292 
1262	 0.741697609664564 
1263	 0.741522270973265 
1264	 0.741327640959384 
1265	 0.741041270856869 
1266	 0.740878865802754 
1267	 0.740731715118715 
1268	 0.740667719397185 
1269	 0.740687540235058 
1270	 0.740696723885219 
1271	 0.740756392291095 
1272	 0.740817989931639 
1273	 0.740850041588424 
1274	 0.740982823932177 
1275	 0.741213725893022 
1276	 0.741398370636862 
1277	 0.741610741378534 
1278	 0.741838615555487 
1279	 0.742059178936874 
1280	 0.742281370213117 
1281	 0.742559413380784 
1282	 0.742799960091873 
1283	 0.742992913972044 
1284	 0.743203340145769 
1285	 0.743416008204224 
1286	 0.743637742378887 
1287	 0.743832526973514 
1288	 0.744030619178081 
1289	 0.744194181302676 
1290	 0.744325259982077 
1291	 0.744461596988015 
1292	 0.74457986916118 
1293	 0.744704042487605 
1294	 0.744826619609808 
1295	 0.744943082485585 
1296	 0.745045864862281 
1297	 0.745166433045869 
1298	 0.745308658125502 
1299	 0.745416062407022 
1300	 0.745554711517291 
1301	 0.745616504186929 
1302	 0.745609052766146 
1303	 0.745603541715653 
1304	 0.745483859211015 
1305	 0.745482114313582 
1306	 0.745556268794514 
1307	 0.745609388517363 
1308	 0.74571756395104 
1309	 0.745840140432493 
1310	 0.745906352106785 
1311	 0.745915784748015 
1312	 0.745974568467457 
1313	 0.746048263426877 
1314	 0.746090896226741 
1315	 0.746154324224688 
1316	 0.746153133014451 
1317	 0.746067974232489 
1318	 0.746070971437522 
1319	 0.746083681162716 
1320	 0.746100146671533 
1321	 0.746197874712862 
1322	 0.746204627043813 
1323	 0.746129348451045 
1324	 0.746111676702518 
1325	 0.746094083077806 
1326	 0.746072424239391 
1327	 0.746085402375157 
1328	 0.746074494849252 
1329	 0.746052962296249 
1330	 0.74600480229074 
1331	 0.745941705982694 
1332	 0.745872290571806 
1333	 0.745787724323893 
1334	 0.745677401675678 
1335	 0.745560895569871 
1336	 0.745456760524161 
1337	 0.745291885134486 
1338	 0.745111038102721 
1339	 0.744852614788982 
1340	 0.744551362642416 
1341	 0.744204970669263 
1342	 0.743792703487187 
1343	 0.743368831303405 
1344	 0.742929477168047 
1345	 0.742426437255619 
1346	 0.741883016296744 
1347	 0.741303933285806 
1348	 0.740664636031851 
1349	 0.740025546667969 
1350	 0.739339531643239 
1351	 0.738676606565044 
1352	 0.738019001709303 
1353	 0.737342066651281 
1354	 0.736673136707301 
1355	 0.735983953576832 
1356	 0.735278742131009 
1357	 0.734549256045804 
1358	 0.733776851422226 
1359	 0.733030325401329 
1360	 0.732268230782479 
1361	 0.731519634653781 
1362	 0.73079803353979 
1363	 0.730122853772556 
1364	 0.729402540893012 
1365	 0.728689303409864 
1366	 0.727942146922186 
1367	 0.727180727690631 
1368	 0.726378076302906 
1369	 0.725560989440916 
1370	 0.724692466096592 
1371	 0.723780616843102 
1372	 0.722846930923934 
1373	 0.721910191626771 
1374	 0.72087439991429 
1375	 0.719784647892702 
1376	 0.718630435475719 
1377	 0.717398408650887 
1378	 0.716098855661244 
1379	 0.714676410113669 
1380	 0.713326165898028 
1381	 0.711882911714618 
1382	 0.710551053229898 
1383	 0.709277355783361 
1384	 0.708066676037803 
1385	 0.706908458471278 
1386	 0.705814517067157 
1387	 0.704801574303967 
1388	 0.703833351851894 
1389	 0.702907934570441 
1390	 0.702041419934422 
1391	 0.701254182832551 
1392	 0.700467360708915 
1393	 0.699762473017409 
1394	 0.699070342302026 
1395	 0.698342841355329 
1396	 0.697643111232152 
1397	 0.696861020320685 
1398	 0.696101957913693 
1399	 0.695123013002507 
1400	 0.694063434371887 
1401	 0.692849182033188 
1402	 0.691466516212694 
1403	 0.689973951234316 
1404	 0.688338832014315 
1405	 0.686677892348004 
1406	 0.68487385370635 
1407	 0.683071933008419 
1408	 0.681200618520895 
1409	 0.679368364419356 
1410	 0.67744612513336 
1411	 0.675646591978894 
1412	 0.673900231385692 
1413	 0.672229460601683 
1414	 0.670675427729978 
1415	 0.669077951116009 
1416	 0.66758286865645 
1417	 0.665962626834765 
1418	 0.664367040822665 
1419	 0.662573180339455 
1420	 0.660699866986595 
1421	 0.658658008118562 
1422	 0.656455229459082 
1423	 0.654093098165448 
1424	 0.651629121756256 
1425	 0.648874578102325 
1426	 0.646086254117203 
1427	 0.643185987333301 
1428	 0.640165451592528 
1429	 0.637358483687 
1430	 0.634600184443111 
1431	 0.631826140648046 
1432	 0.629290219664437 
1433	 0.626890061135171 
1434	 0.624658486902692 
1435	 0.622597268043695 
1436	 0.620622738989364 
1437	 0.618828982292198 
1438	 0.617081907776216 
1439	 0.615405860897449 
1440	 0.613849256713157 
1441	 0.61233030742697 
1442	 0.61105765117086 
1443	 0.609842074424263 
1444	 0.608997498742571 
1445	 0.608301708046889 
1446	 0.608107563665494 
1447	 0.608154133486062 
1448	 0.608799301340818 
1449	 0.60992910035209 
1450	 0.611529182108936 
1451	 0.613704727511686 
1452	 0.616204100963323 
1453	 0.619347934651482 
1454	 0.622461682863734 
1455	 0.626011221453421 
1456	 0.629413849909606 
1457	 0.633012710285835 
1458	 0.636337024628536 
1459	 0.639651146830833 
1460	 0.64269233317616 
1461	 0.645502406137613 
1462	 0.648087642030823 
1463	 0.650407249441024 
1464	 0.652606673653842 
1465	 0.654583898126637 
1466	 0.656456864443084 
1467	 0.658122314402309 
1468	 0.659684678032502 
1469	 0.661110230408773 
1470	 0.662311956658694 
1471	 0.663484749597463 
1472	 0.664556393338588 
1473	 0.665565789830125 
1474	 0.666467093304974 
1475	 0.667337995899288 
1476	 0.668140534728728 
1477	 0.668918357413865 
1478	 0.66962640336539 
1479	 0.670328052574818 
1480	 0.671018901325741 
1481	 0.671651754093695 
1482	 0.672233088070235 
1483	 0.672807905533192 
1484	 0.673338552152092 
1485	 0.673872215028079 
1486	 0.674401926975541 
1487	 0.674900769309032 
1488	 0.675376411317014 
1489	 0.675836990793548 
1490	 0.67625616032969 
1491	 0.676709640992679 
1492	 0.677199740057896 
1493	 0.67761459014705 
1494	 0.678028411585115 
1495	 0.678381875353741 
1496	 0.678626760563909 
1497	 0.678927415844493 
1498	 0.679239372440885 
1499	 0.679526383814661 
1500	 0.679801077396858 
1501	 0.680092280056233 
1502	 0.680376809788687 
1503	 0.680652591972965 
1504	 0.680948719350867 
1505	 0.681225193815263 
1506	 0.681478212826429 
1507	 0.681724254464323 
1508	 0.681980716939454 
1509	 0.68220687905708 
1510	 0.682376206049991 
1511	 0.682586159900879 
1512	 0.682801047551721 
1513	 0.683018064298971 
1514	 0.683267334142122 
1515	 0.683502291093927 
1516	 0.683722092158361 
1517	 0.683947611240964 
1518	 0.684198523423105 
1519	 0.684411684372533 
1520	 0.684613360966079 
1521	 0.684787657429368 
1522	 0.684948772914061 
1523	 0.685087195944324 
1524	 0.685209857398063 
1525	 0.685324860817592 
1526	 0.685414493787289 
1527	 0.685472837860472 
1528	 0.685535566225371 
1529	 0.685567545338049 
1530	 0.68566045120128 
1531	 0.685773888193251 
1532	 0.685876092045699 
1533	 0.686017319704868 
1534	 0.68612254450894 
1535	 0.686191057256344 
1536	 0.686291615123853 
1537	 0.686393088809759 
1538	 0.686527808672119 
1539	 0.686682409295968 
1540	 0.686838867977468 
1541	 0.687037951219127 
1542	 0.687185005540908 
1543	 0.687318248231836 
1544	 0.687431508151025 
1545	 0.687532958045092 
1546	 0.687589978628817 
1547	 0.687611799097741 
1548	 0.687629978942521 
1549	 0.687595495872417 
1550	 0.687603751111454 
1551	 0.687650787515954 
1552	 0.687635773700832 
1553	 0.687596969213633 
1554	 0.687565079553836 
1555	 0.687495532186596 
1556	 0.687443953095533 
1557	 0.687402731133908 
1558	 0.687374296339198 
1559	 0.68731917168005 
1560	 0.687325658862896 
1561	 0.687372052005629 
1562	 0.687440724621947 
1563	 0.687567877940323 
1564	 0.687659560624366 
1565	 0.687785890985994 
1566	 0.687850814583826 
1567	 0.687851914096495 
1568	 0.687895159757943 
1569	 0.687928704290966 
1570	 0.687966549894882 
1571	 0.68801443608141 
1572	 0.688082081870243 
1573	 0.688136769794641 
1574	 0.688226748226347 
1575	 0.688381837631598 
1576	 0.688491724964361 
1577	 0.688579413133446 
1578	 0.688692520520609 
1579	 0.688817819763226 
1580	 0.688915868772718 
1581	 0.689047188701638 
1582	 0.689115786467454 
1583	 0.689090162257467 
1584	 0.689133197154444 
1585	 0.689176803068276 
1586	 0.689235735268459 
1587	 0.689343360419298 
1588	 0.689431581071978 
1589	 0.689524030549089 
1590	 0.689592978892891 
1591	 0.689640359771031 
1592	 0.689707326388048 
1593	 0.689741361366335 
1594	 0.68982287620077 
1595	 0.689960901369511 
1596	 0.690073530794168 
1597	 0.690209740907975 
1598	 0.690315604863232 
1599	 0.690406128343408 
1600	 0.690476132357863 
1601	 0.690506481672465 
1602	 0.69056257379088 
1603	 0.690624371036174 
1604	 0.69066964923457 
1605	 0.690707386479287 
1606	 0.690762659492604 
1607	 0.69083382446047 
1608	 0.690867328027992 
1609	 0.69093663007316 
1610	 0.690928452518485 
1611	 0.690834393685882 
1612	 0.690747448153057 
1613	 0.690602809616293 
1614	 0.690496450829416 
1615	 0.690406374232945 
1616	 0.69030590604971 
1617	 0.690241690314642 
1618	 0.690128464432644 
1619	 0.689974668652277 
1620	 0.68982583033535 
1621	 0.689629909799192 
1622	 0.689473875261857 
1623	 0.689374896738245 
1624	 0.689217549304996 
1625	 0.689027184802276 
1626	 0.688858623161914 
1627	 0.688678875398749 
1628	 0.6884799494198 
1629	 0.688311381715225 
1630	 0.688105229394947 
1631	 0.687790007865586 
1632	 0.687571372809703 
1633	 0.687405225628217 
1634	 0.687238691928216 
1635	 0.687157651655855 
1636	 0.687014843403506 
1637	 0.686824778776332 
1638	 0.686643061490189 
1639	 0.686462610716974 
1640	 0.686243366569027 
1641	 0.6860300679752 
1642	 0.685761001029095 
1643	 0.685391320684078 
1644	 0.685091515415062 
1645	 0.684818369201795 
1646	 0.684510593692105 
1647	 0.684249815925704 
1648	 0.68391336157217 
1649	 0.683505101606918 
1650	 0.683084024783236 
1651	 0.682675857603011 
1652	 0.682169575611113 
1653	 0.681583112988972 
1654	 0.680981367682115 
1655	 0.680284963918233 
1656	 0.679604967527222 
1657	 0.678968009903155 
1658	 0.678226127743613 
1659	 0.67743237153157 
1660	 0.676602605574898 
1661	 0.675737445273429 
1662	 0.674769168535211 
1663	 0.673722597755618 
1664	 0.672617490567768 
1665	 0.671396424656685 
1666	 0.670148712711232 
1667	 0.668916575938417 
1668	 0.66756642656252 
1669	 0.666173039765049 
1670	 0.66462423623225 
1671	 0.662914629970843 
1672	 0.661153290922233 
1673	 0.659255789605845 
1674	 0.657326059932779 
1675	 0.655358747212297 
1676	 0.653346039750888 
1677	 0.651240529518554 
1678	 0.649151878570688 
1679	 0.647058766691714 
1680	 0.644883027704018 
1681	 0.642684484134235 
1682	 0.640386703676045 
1683	 0.637962956392196 
1684	 0.635606453257531 
1685	 0.633254368229888 
1686	 0.630829529175044 
1687	 0.628373095560963 
1688	 0.625871518528293 
1689	 0.623307885860448 
1690	 0.620678041951111 
1691	 0.618043653246542 
1692	 0.615377040468173 
1693	 0.612622579643097 
1694	 0.609858636680454 
1695	 0.607064365750619 
1696	 0.604238671840738 
1697	 0.601385122371623 
1698	 0.598443530903036 
1699	 0.595467967447551 
1700	 0.592516919145109 
1701	 0.589451465063072 
1702	 0.586517107942683 
1703	 0.583569642955478 
1704	 0.580832086419444 
1705	 0.578145089306776 
1706	 0.575691857189436 
1707	 0.573568791951589 
1708	 0.571514020451367 
1709	 0.56960581452887 
1710	 0.567856018742266 
1711	 0.56613855193923 
1712	 0.564631289244034 
1713	 0.563195973349201 
1714	 0.561782003345626 
1715	 0.560536655224596 
1716	 0.559267981795298 
1717	 0.558067621906935 
1718	 0.556973035450231 
1719	 0.555886204088167 
1720	 0.554922133502407 
1721	 0.553989897473844 
1722	 0.553108332280167 
1723	 0.552422215786266 
1724	 0.55181841766257 
1725	 0.551386068947121 
1726	 0.551210001489944 
1727	 0.551213472321154 
1728	 0.551451034802769 
1729	 0.552010627091241 
1730	 0.552859836754081 
1731	 0.553864257069478 
1732	 0.555133841879703 
1733	 0.556558463465894 
1734	 0.558158625802813 
1735	 0.559938887292212 
1736	 0.56167691586662 
1737	 0.563315558857339 
1738	 0.564693228780225 
1739	 0.565821900838875 
1740	 0.566750422719032 
1741	 0.567430132545848 
1742	 0.567850326910975 
1743	 0.568116618182401 
1744	 0.56811375188523 
1745	 0.567995861314773 
1746	 0.567632474600816 
1747	 0.567332915306088 
1748	 0.566927696084676 
1749	 0.566557738559223 
1750	 0.566164369875821 
1751	 0.565849920757585 
1752	 0.565520429592231 
1753	 0.565267406004993 
1754	 0.56509683332536 
1755	 0.565007252513843 
1756	 0.564884563116912 
1757	 0.565029416481365 
1758	 0.565367288562893 
1759	 0.565859615866475 
1760	 0.56653373829319 
1761	 0.567446722900281 
1762	 0.568442417862148 
1763	 0.569651212562623 
1764	 0.571026728549811 
1765	 0.572454053275838 
1766	 0.574087046199731 
1767	 0.575722325853198 
1768	 0.577417787362054 
1769	 0.579170245663392 
1770	 0.580796477556342 
1771	 0.582460405335633 
1772	 0.584063191917697 
1773	 0.585576176847385 
1774	 0.587095765705761 
1775	 0.588495828434311 
1776	 0.589801122344266 
1777	 0.590977543678031 
1778	 0.591955275449634 
1779	 0.59280193633231 
1780	 0.593567404840589 
1781	 0.594287122820932 
1782	 0.594967908606675 
1783	 0.595566712956963 
1784	 0.596124111526638 
1785	 0.596565528837468 
1786	 0.597009738211134 
1787	 0.597496414519495 
1788	 0.597859641320265 
1789	 0.598149133173189 
1790	 0.598371862644884 
1791	 0.598459230299732 
1792	 0.598542145775989 
1793	 0.598584077579064 
1794	 0.598614785262277 
1795	 0.59865762612442 
1796	 0.598756444309756 
1797	 0.598834854426823 
1798	 0.59892134517624 
1799	 0.599091220321684 
1800	 0.599239865938229 
1801	 0.577658590223548 
1802	 0.578054984227746 
1803	 0.578397205193166 
1804	 0.578683227060064 
1805	 0.579004669129957 
1806	 0.579265819429517 
1807	 0.579462141145111 
1808	 0.579697606799762 
1809	 0.579925919693464 
1810	 0.580148874496985 
1811	 0.580384165858607 
1812	 0.580603536338861 
1813	 0.580825286312902 
1814	 0.581016706499264 
1815	 0.5811616179594 
1816	 0.581328525346215 
1817	 0.581493866099281 
1818	 0.581602890595938 
1819	 0.581796821467801 
1820	 0.582036092940276 
1821	 0.582279185991344 
1822	 0.582564062290528 
1823	 0.582856245424349 
1824	 0.583108411125636 
1825	 0.583391794442035 
1826	 0.583645324666242 
1827	 0.583895711809583 
1828	 0.584094978827612 
1829	 0.584238213951069 
1830	 0.584426170337683 
1831	 0.584582715039424 
1832	 0.584780019398804 
1833	 0.585009111513362 
1834	 0.58527761471666 
1835	 0.585522752488324 
1836	 0.58573681235014 
1837	 0.58597793356582 
1838	 0.58620952597513 
1839	 0.586479419175737 
1840	 0.586753691321469 
1841	 0.587079499966756 
1842	 0.587460165778624 
1843	 0.587850901837718 
1844	 0.588205882967125 
1845	 0.588534344842164 
1846	 0.588849468202717 
1847	 0.589121709488169 
1848	 0.589400787014089 
1849	 0.589698407491052 
1850	 0.58996730858548 
1851	 0.590204016002865 
1852	 0.590450012650585 
1853	 0.590725679257466 
1854	 0.590919823159609 
1855	 0.591095930649334 
1856	 0.591297625664737 
1857	 0.591402146696848 
1858	 0.591482305700616 
1859	 0.591527777976993 
1860	 0.591528994287946 
1861	 0.591488608607192 
1862	 0.591425608820554 
1863	 0.591306183281366 
1864	 0.5911137245931 
1865	 0.590898213621855 
1866	 0.590575776819696 
1867	 0.590218172047216 
1868	 0.589822470668534 
1869	 0.589404479755916 
1870	 0.589009291481939 
1871	 0.58858960484135 
1872	 0.588226655182021 
1873	 0.587915363560709 
1874	 0.58757587080245 
1875	 0.587298706952201 
1876	 0.586936191200417 
1877	 0.586555482184549 
1878	 0.586067157046937 
1879	 0.585422141511855 
1880	 0.584771458889374 
1881	 0.583922962797226 
1882	 0.582912714067037 
1883	 0.581820075609489 
1884	 0.580586235923815 
1885	 0.579096076560906 
1886	 0.577570681454007 
1887	 0.575929266451786 
1888	 0.574154989573527 
1889	 0.572429338983541 
1890	 0.570573753420243 
1891	 0.568663639207241 
1892	 0.56669712433941 
1893	 0.564702949532063 
1894	 0.562600812589693 
1895	 0.56060254306914 
1896	 0.558583555291379 
1897	 0.556655208167871 
1898	 0.554902560845527 
1899	 0.553112632201117 
1900	 0.5514264643298 
1901	 0.549832046740885 
1902	 0.548174744717449 
1903	 0.546644509518044 
1904	 0.545187684322259 
1905	 0.543784377598969 
1906	 0.542469569786662 
1907	 0.541328873636775 
1908	 0.540190049729736 
1909	 0.53910615317819 
1910	 0.538052022313023 
1911	 0.536922554005983 
1912	 0.535858904701919 
1913	 0.53485253147604 
1914	 0.533873922920732 
1915	 0.532999348544459 
1916	 0.53223984722777 
1917	 0.531502906188117 
1918	 0.530767325562943 
1919	 0.530100703859934 
1920	 0.529418797150347 
1921	 0.528752153472508 
1922	 0.528164021317848 
1923	 0.527610952148288 
1924	 0.527075522363554 
1925	 0.526550687451915 
1926	 0.526090477932572 
1927	 0.525661055985213 
1928	 0.525277518638281 
1929	 0.524938903990747 
1930	 0.524690266774357 
1931	 0.524419262716551 
1932	 0.524164813417194 
1933	 0.523995376468593 
1934	 0.523835468905328 
1935	 0.52371623058409 
1936	 0.52365687827388 
1937	 0.523612569395547 
1938	 0.523556403110375 
1939	 0.523595861217053 
1940	 0.523697616613354 
1941	 0.523838562452931 
1942	 0.52402735381255 
1943	 0.524258383657252 
1944	 0.524487205840489 
1945	 0.524741467779772 
1946	 0.52501269016796 
1947	 0.52525056962433 
1948	 0.525499291351086 
1949	 0.525738596307611 
1950	 0.526003456670979 
1951	 0.526302218213727 
1952	 0.52658734896053 
1953	 0.526882653333591 
1954	 0.527172623391352 
1955	 0.527458377803663 
1956	 0.527664416053039 
1957	 0.527873817156591 
1958	 0.528156546463069 
1959	 0.52840974955155 
1960	 0.528651980295081 
1961	 0.528908486961929 
1962	 0.529180420246761 
1963	 0.529409618350572 
1964	 0.52962983057248 
1965	 0.529863223209998 
1966	 0.53008274857279 
1967	 0.53029541957888 
1968	 0.530529655158003 
1969	 0.530765470383983 
1970	 0.531020414477999 
1971	 0.531285995606441 
1972	 0.53153724058146 
1973	 0.531751146431664 
1974	 0.531898990589355 
1975	 0.531969582681289 
1976	 0.532035226079059 
1977	 0.532039790851232 
1978	 0.53205329485675 
1979	 0.532042567261968 
1980	 0.532045683429022 
1981	 0.532041351116869 
1982	 0.532071239243418 
1983	 0.532066407174354 
1984	 0.532035480877959 
1985	 0.531984607759335 
1986	 0.531822314380299 
1987	 0.531668354740074 
1988	 0.531487397845037 
1989	 0.531266447530035 
1990	 0.530983316702812 
1991	 0.530749553702441 
1992	 0.530469947667923 
1993	 0.530263138045913 
1994	 0.530106152230353 
1995	 0.529955454737381 
1996	 0.529822718207273 
1997	 0.529644562774967 
1998	 0.529472118293871 
1999	 0.529280781205042 
2000	 0.529111805264909 
2001	 0.528931102971842 
2002	 0.528785302331001 
2003	 0.528666270297242 
2004	 0.528547885232701 
2005	 0.528446843494423 
2006	 0.52835143798581 
2007	 0.528274722960595 
2008	 0.528192841052002 
2009	 0.528064750566425 
2010	 0.527975133298048 
2011	 0.527884516714552 
2012	 0.52776805558238 
2013	 0.527634344075688 
2014	 0.527484752403954 
2015	 0.527353660482461 
2016	 0.52719223370027 
2017	 0.527052199749016 
2018	 0.52695604755407 
2019	 0.526839613419966 
2020	 0.526703090142337 
2021	 0.526582345369785 
2022	 0.526486262903509 
2023	 0.526380010560457 
2024	 0.526217810339342 
2025	 0.526049676937774 
2026	 0.525821550050144 
2027	 0.525506462141813 
2028	 0.525217066078558 
2029	 0.524894028239535 
2030	 0.524590493593719 
2031	 0.524291078488992 
2032	 0.523994650598885 
2033	 0.5237002812646 
2034	 0.523413966137372 
2035	 0.523144132015022 
2036	 0.522850067103917 
2037	 0.52256651064502 
2038	 0.522207755496806 
2039	 0.521899496899958 
2040	 0.521559496898697 
2041	 0.521291525558403 
2042	 0.521055859679784 
2043	 0.520883678504113 
2044	 0.520781501244012 
2045	 0.520653510653441 
2046	 0.52058048772698 
2047	 0.5204748794122 
2048	 0.52033098401214 
2049	 0.520218860929445 
2050	 0.520142219509542 
2051	 0.520032721969686 
2052	 0.519909566221526 
2053	 0.519819523556458 
2054	 0.519751523332359 
2055	 0.519701926922257 
2056	 0.519645228711038 
2057	 0.519649343453719 
2058	 0.519565620614609 
2059	 0.519420326266339 
2060	 0.519292578976728 
2061	 0.519141439771775 
2062	 0.518980207756807 
2063	 0.518856723050406 
2064	 0.518658356516685 
2065	 0.518353436535847 
2066	 0.518105619800252 
2067	 0.517939269894082 
2068	 0.517733901198393 
2069	 0.517604320404247 
2070	 0.517596857345488 
2071	 0.517522522958137 
2072	 0.517464171770889 
2073	 0.517333828306313 
2074	 0.517158258377671 
2075	 0.517022806099985 
2076	 0.516871668156992 
2077	 0.51669275876926 
2078	 0.516538909765003 
2079	 0.516356015123854 
2080	 0.516057705194573 
2081	 0.515842447020007 
2082	 0.515643970425466 
2083	 0.515541426054022 
2084	 0.515430573985287 
2085	 0.515353778453611 
2086	 0.515227058130459 
2087	 0.515083030037233 
2088	 0.514952218346897 
2089	 0.514812772466269 
2090	 0.514654815538977 
2091	 0.514527877351394 
2092	 0.514332769140873 
2093	 0.51406389520291 
2094	 0.51383319942548 
2095	 0.513578833227829 
2096	 0.51334209365989 
2097	 0.513130582324457 
2098	 0.512894147833162 
2099	 0.512704475571551 
2100	 0.512500807528887 
2101	 0.512288195884988 
2102	 0.512112255604464 
2103	 0.511865086198772 
2104	 0.511553118310041 
2105	 0.511292670558138 
2106	 0.511033910978668 
2107	 0.510743413892271 
2108	 0.510499968364499 
2109	 0.510156285534896 
2110	 0.509694178390767 
2111	 0.509307487219506 
2112	 0.508917583418227 
2113	 0.508517700962678 
2114	 0.508171483133986 
2115	 0.50777315525468 
2116	 0.50735757381707 
2117	 0.506861034723815 
2118	 0.506372001158748 
2119	 0.505840760378111 
2120	 0.505375518487216 
2121	 0.504884096967345 
2122	 0.504472116664281 
2123	 0.504131556819825 
2124	 0.503778499294334 
2125	 0.503479128930008 
2126	 0.503141941849757 
2127	 0.502766028880466 
2128	 0.502460724088393 
2129	 0.502122351404536 
2130	 0.501882478209759 
2131	 0.5017659088898 
2132	 0.501629268451892 
2133	 0.501512813046114 
2134	 0.501453764524529 
2135	 0.501412351019859 
2136	 0.50135276018002 
2137	 0.501285274711789 
2138	 0.501258933303473 
2139	 0.501150279358134 
2140	 0.500969685380197 
2141	 0.500832538002514 
2142	 0.500678710474347 
2143	 0.500541863225598 
2144	 0.500373040031758 
2145	 0.500305619513687 
2146	 0.500289686750382 
2147	 0.500278962067565 
2148	 0.500372332987265 
2149	 0.500414360303291 
2150	 0.500409859887316 
2151	 0.500438913921151 
2152	 0.500501641142632 
2153	 0.500529496729373 
2154	 0.500570013101954 
2155	 0.500648462544001 
2156	 0.500677913686337 
2157	 0.500717415511212 
2158	 0.500662619899439 
2159	 0.500531892252493 
2160	 0.500446391890343 
2161	 0.500334384579893 
2162	 0.500195003639291 
2163	 0.500091497755186 
2164	 0.499912886943736 
2165	 0.499606306157819 
2166	 0.499397195085861 
2167	 0.499215247002091 
2168	 0.499026016580458 
2169	 0.498877633526979 
2170	 0.49870743285218 
2171	 0.498533224724392 
2172	 0.498333902674911 
2173	 0.498090660216079 
2174	 0.497881159444436 
2175	 0.497730504128559 
2176	 0.497555615502237 
2177	 0.497426003385363 
2178	 0.497384191026008 
2179	 0.497265873356919 
2180	 0.497105610761238 
2181	 0.496999416813037 
2182	 0.496937773792519 
2183	 0.496779108091019 
2184	 0.496618544647643 
2185	 0.496401771631846 
2186	 0.496075803628703 
2187	 0.495810348294376 
2188	 0.495516421116571 
2189	 0.495284687845276 
2190	 0.495093736416694 
2191	 0.494893422932159 
2192	 0.494760044748902 
2193	 0.494579119130247 
2194	 0.49440931356205 
2195	 0.49416473258731 
2196	 0.493886103524735 
2197	 0.49353775173396 
2198	 0.493164041105182 
2199	 0.492747835227593 
2200	 0.492417062210598 
2201	 0.492139249397593 
2202	 0.491804516338749 
2203	 0.491480237873012 
2204	 0.491162305136528 
2205	 0.49082658392916 
2206	 0.490468112094275 
2207	 0.490123296784922 
2208	 0.489757922114306 
2209	 0.489357952666201 
2210	 0.488938576169923 
2211	 0.488518530466573 
2212	 0.488098406804054 
2213	 0.487673246121761 
2214	 0.487178255062661 
2215	 0.486694245097527 
2216	 0.486131825009307 
2217	 0.485454445305103 
2218	 0.484786340376288 
2219	 0.484131284692918 
2220	 0.483390169266779 
2221	 0.482591507906108 
2222	 0.481744657783405 
2223	 0.480892159643494 
2224	 0.479934738906833 
2225	 0.478935735479878 
2226	 0.477957725825637 
2227	 0.476856944572465 
2228	 0.475644988159519 
2229	 0.474458640132403 
2230	 0.473229275990185 
2231	 0.471953437831109 
2232	 0.470692255334565 
2233	 0.469280757009757 
2234	 0.467838705880553 
2235	 0.466173806022758 
2236	 0.464358029934891 
2237	 0.462431190918661 
2238	 0.46027825800366 
2239	 0.458109893693335 
2240	 0.455879167722941 
2241	 0.45352298029578 
2242	 0.451102271643478 
2243	 0.448534158531939 
2244	 0.445811343175274 
2245	 0.443006031369425 
2246	 0.439911172637516 
2247	 0.436995562553895 
2248	 0.43412944964428 
2249	 0.431212658685276 
2250	 0.428376601082264 
2251	 0.42554534314679 
2252	 0.422376778249293 
2253	 0.419280183097708 
2254	 0.416170237774667 
2255	 0.412978555328072 
2256	 0.410060739373092 
2257	 0.407086602064717 
2258	 0.404202726537322 
2259	 0.401411878202422 
2260	 0.398620412124843 
2261	 0.395833295523833 
2262	 0.393183588410636 
2263	 0.390533251986422 
2264	 0.388096272095851 
2265	 0.385851189232696 
2266	 0.383599796844923 
2267	 0.381515142046378 
2268	 0.379392264748037 
2269	 0.377228346459107 
2270	 0.375225929333487 
2271	 0.373293896453168 
2272	 0.371444054735287 
2273	 0.369803056070489 
2274	 0.368042497547815 
2275	 0.366322242474615 
2276	 0.364526701964364 
2277	 0.362712473930749 
2278	 0.360792762490612 
2279	 0.358723990373903 
2280	 0.356733785838759 
2281	 0.354799239060681 
2282	 0.352686763686651 
2283	 0.350556620401478 
2284	 0.348344707454072 
2285	 0.345858589304117 
2286	 0.343376479208607 
2287	 0.340834660210412 
2288	 0.33821826892671 
2289	 0.335683455004329 
2290	 0.332895890157087 
2291	 0.330127771500358 
2292	 0.327389870737741 
2293	 0.324352852499517 
2294	 0.321411797699875 
2295	 0.318500622530801 
2296	 0.315548801393827 
2297	 0.31291896867862 
2298	 0.310443160557005 
2299	 0.308252424268118 
2300	 0.306291256499234 
2301	 0.304611257768337 
2302	 0.303221315923663 
2303	 0.302059063005133 
2304	 0.301147365946252 
2305	 0.300541756447939 
2306	 0.300236049268571 
2307	 0.300141993902054 
2308	 0.300377444516527 
2309	 0.30078223942277 
2310	 0.30143183657231 
2311	 0.30225543731363 
2312	 0.303460925782297 
2313	 0.304528697870705 
2314	 0.305767467338996 
2315	 0.306872282339092 
2316	 0.307898415818956 
2317	 0.308911698740441 
2318	 0.309963933915314 
2319	 0.310856650003394 
2320	 0.311711727733538 
2321	 0.312394355779468 
2322	 0.312923091133691 
2323	 0.313315782327336 
2324	 0.313512677702169 
2325	 0.313680148737418 
2326	 0.313699750104545 
2327	 0.313701237471005 
2328	 0.313666794367357 
2329	 0.313566203480465 
2330	 0.31340765218672 
2331	 0.31313827248166 
2332	 0.312902752629143 
2333	 0.312651000262527 
2334	 0.312301564234967 
2335	 0.311899665783594 
2336	 0.311334678541458 
2337	 0.310715182044388 
2338	 0.31014411313194 
2339	 0.309511038745214 
2340	 0.308957840151359 
2341	 0.308481791752947 
2342	 0.307902623405121 
2343	 0.307559437553849 
2344	 0.307496969627666 
2345	 0.307465649202749 
2346	 0.307822284434197 
2347	 0.308481062517645 
2348	 0.309227854760255 
2349	 0.310413063726533 
2350	 0.311916539559138 
2351	 0.313574663457691 
2352	 0.315379874347722 
2353	 0.31720273326527 
2354	 0.318824664828807 
2355	 0.320492043728062 
2356	 0.322176772709822 
2357	 0.323679405433683 
2358	 0.325145429637811 
2359	 0.326346558345381 
2360	 0.327286627465373 
2361	 0.327952484823375 
2362	 0.328382820856694 
2363	 0.328608061472765 
2364	 0.32871698474079 
2365	 0.32890100060971 
2366	 0.329098573305509 
2367	 0.329283348243261 
2368	 0.329450731660268 
2369	 0.329641087275827 
2370	 0.329920669668534 
2371	 0.330264283784818 
2372	 0.330513975673189 
2373	 0.330682577141397 
2374	 0.330745196419121 
2375	 0.33062801315473 
2376	 0.330611539707828 
2377	 0.33076287790844 
2378	 0.330885689575973 
2379	 0.331051924086392 
2380	 0.331249515469566 
2381	 0.331401077974941 
2382	 0.331663522427176 
2383	 0.332033646874686 
2384	 0.332310785925041 
2385	 0.332660879182342 
2386	 0.332888544140966 
2387	 0.332956018056234 
2388	 0.333212675517803 
2389	 0.33353512173237 
2390	 0.333741126751689 
2391	 0.334028010185155 
2392	 0.334076414560517 
2393	 0.33393737395734 
2394	 0.333910914156596 
2395	 0.333715104311691 
2396	 0.333768155040962 
2397	 0.334029169855853 
2398	 0.33411080672426 
2399	 0.334273551353849 
2400	 0.334327259575921 
2401	 0.334188495633572 
2402	 0.334165325619551 
2403	 0.334160465858638 
2404	 0.334157157275647 
2405	 0.33408341446495 
2406	 0.334028404816101 
2407	 0.334003163358123 
2408	 0.333808811359625 
2409	 0.333676199806604 
2410	 0.333681674202818 
2411	 0.33370521592476 
2412	 0.333837935581987 
2413	 0.333942830778128 
2414	 0.333726518895924 
2415	 0.33360708949859 
2416	 0.333576526123241 
2417	 0.333399313134527 
2418	 0.333535048619951 
2419	 0.333588621637146 
2420	 0.333538716801044 
2421	 0.333635122013287 
2422	 0.333560875182631 
2423	 0.333353312913602 
2424	 0.333065155844665 
2425	 0.332950005222344 
2426	 0.332853852347908 
2427	 0.332719313966582 
2428	 0.332746847227751 
2429	 0.332648761982308 
2430	 0.332452898450601 
2431	 0.332173936080989 
2432	 0.331966867154606 
2433	 0.331809146298479 
2434	 0.331319983765896 
2435	 0.330906137615423 
2436	 0.330625782384939 
2437	 0.330141254680096 
2438	 0.329767864954014 
2439	 0.329519959991215 
2440	 0.329369366788364 
2441	 0.329392655172425 
2442	 0.329678037764145 
2443	 0.330193550192687 
2444	 0.330271053224422 
2445	 0.330117266776267 
2446	 0.32967428349672 
2447	 0.329058315609701 
2448	 0.328880877743832 
2449	 0.328402422441113 
2450	 0.327981178309844 
2451	 0.327823175228938 
2452	 0.327257948915414 
2453	 0.326705434584127 
2454	 0.326300067479951 
2455	 0.325993492889531 
2456	 0.325861386912873 
2457	 0.325585775803498 
2458	 0.325325806372185 
2459	 0.324977107575502 
2460	 0.324407193589503 
2461	 0.324141597357583 
2462	 0.324108911271787 
2463	 0.32402698921888 
2464	 0.32370267745334 
2465	 0.323242515293891 
2466	 0.322880720835388 
2467	 0.322522897279642 
2468	 0.322304436893837 
2469	 0.322310468500538 
2470	 0.322231017903759 
2471	 0.321894255428126 
2472	 0.321808200407507 
2473	 0.322194274825431 
2474	 0.322184169285544 
2475	 0.322057578455838 
2476	 0.322576372137709 
2477	 0.322752054865716 
2478	 0.322849127749923 
2479	 0.323461053907223 
2480	 0.323003303046073 
2481	 0.322874255795376 
2482	 0.322878481457449 
2483	 0.322794831557809 
2484	 0.322918097618335 
2485	 0.323123898414732 
2486	 0.323196003811112 
2487	 0.32332163491517 
2488	 0.32376917425506 
2489	 0.324105635512542 
2490	 0.324627119162162 
2491	 0.325409458449074 
2492	 0.32548501725495 
2493	 0.325478659602685 
2494	 0.325885641881183 
2495	 0.325995932470081 
2496	 0.326461794331556 
2497	 0.327337669528152 
2498	 0.32775547730244 
2499	 0.328084376153119 
2500	 0.328847063875415 
