Wavelength	spectrum00009.asd
350	 4.91470438392597E-02 
351	 4.78410652139903E-02 
352	 4.69316358511527E-02 
353	 4.57023065632901E-02 
354	 4.19501766539162E-02 
355	 4.12883440593161E-02 
356	 4.18406976207021E-02 
357	 4.11913043632226E-02 
358	 0.040441328831388 
359	 3.89960507263658E-02 
360	 3.69136581736279E-02 
361	 0.034792591006531 
362	 3.48052749433663E-02 
363	 0.033505125064287 
364	 0.030968493902741 
365	 3.23648273125475E-02 
366	 3.20195693832825E-02 
367	 0.031549360683404 
368	 3.29015075652978E-02 
369	 3.34378701188593E-02 
370	 3.25870888912881E-02 
371	 3.16900503965986E-02 
372	 3.26588573789797E-02 
373	 0.031912643038406 
374	 3.04619012171845E-02 
375	 2.93043229529467E-02 
376	 2.86594328465746E-02 
377	 2.76545902744677E-02 
378	 2.79755486130341E-02 
379	 3.00193265143572E-02 
380	 2.73572377100602E-02 
381	 2.66844013515506E-02 
382	 2.79527778567507E-02 
383	 2.72382688344648E-02 
384	 2.71238347480241E-02 
385	 2.77182559969095E-02 
386	 2.83316782128494E-02 
387	 2.75103264855887E-02 
388	 2.67458273098792E-02 
389	 2.68520798808557E-02 
390	 2.77251321782796E-02 
391	 2.67438560646724E-02 
392	 2.60540899214555E-02 
393	 2.58019408286576E-02 
394	 2.48731243337488E-02 
395	 2.44312254438385E-02 
396	 2.45047139786353E-02 
397	 2.46653564599546E-02 
398	 2.39392597339367E-02 
399	 2.40729067266768E-02 
400	 2.45012590455184E-02 
401	 2.43053494551624E-02 
402	 2.41558919692101E-02 
403	 2.36655575215213E-02 
404	 2.31746089302143E-02 
405	 0.023457077291199 
406	 2.32676711435385E-02 
407	 2.31361067520041E-02 
408	 2.32181169072737E-02 
409	 2.23402581030358E-02 
410	 2.20545749606982E-02 
411	 2.23054402162501E-02 
412	 2.23812998301585E-02 
413	 0.021183807756082 
414	 0.02042260452178 
415	 2.07526583372136E-02 
416	 2.16899056818952E-02 
417	 2.17371025028004E-02 
418	 2.15160863840206E-02 
419	 2.14866696343931E-02 
420	 2.07005461157448E-02 
421	 2.00343664025933E-02 
422	 2.00333449158921E-02 
423	 2.07681764335254E-02 
424	 2.04543554925022E-02 
425	 1.99906421528944E-02 
426	 1.99569903438645E-02 
427	 2.03145343924542E-02 
428	 2.02739624157983E-02 
429	 1.97937408598031E-02 
430	 1.92236131871241E-02 
431	 1.94993343156947E-02 
432	 1.96536831822333E-02 
433	 1.95086456204672E-02 
434	 1.93642339351586E-02 
435	 1.94038867335317E-02 
436	 1.94217097740212E-02 
437	 1.93566288033052E-02 
438	 1.94669778919658E-02 
439	 1.90876871665683E-02 
440	 1.87158752624384E-02 
441	 1.89222196659823E-02 
442	 1.91389187459944E-02 
443	 1.91181595720937E-02 
444	 1.89535216292774E-02 
445	 1.89768290848561E-02 
446	 0.018886808952093 
447	 1.87336655328491E-02 
448	 1.86542105775922E-02 
449	 1.88922991329663E-02 
450	 1.89511174430722E-02 
451	 1.88565724397514E-02 
452	 1.88250485543108E-02 
453	 1.88504113163379E-02 
454	 0.018773986780421 
455	 1.86193943168678E-02 
456	 1.86178693505542E-02 
457	 1.86725624317738E-02 
458	 1.87216887748871E-02 
459	 1.87183597826889E-02 
460	 1.86373789161786E-02 
461	 0.018560345829678 
462	 1.84857165485049E-02 
463	 1.83861968259229E-02 
464	 1.84719046375752E-02 
465	 1.84754560493969E-02 
466	 1.83514617190889E-02 
467	 1.84847956353775E-02 
468	 1.84574512082519E-02 
469	 1.83209842377489E-02 
470	 1.82419646279069E-02 
471	 1.82291164749577E-02 
472	 1.83551801915286E-02 
473	 1.84233086901476E-02 
474	 1.80890819834308E-02 
475	 1.81346017233005E-02 
476	 1.82944981088828E-02 
477	 1.83210785436403E-02 
478	 1.84236428678423E-02 
479	 1.83150949061081E-02 
480	 1.81537799755357E-02 
481	 1.82085624091041E-02 
482	 1.82293608335963E-02 
483	 1.83181101893222E-02 
484	 1.83931235961104E-02 
485	 1.81487031339748E-02 
486	 1.81688232671013E-02 
487	 1.82902708027871E-02 
488	 1.82696769264892E-02 
489	 1.81944990753926E-02 
490	 1.80570626655679E-02 
491	 1.79636714564748E-02 
492	 0.018046378756956 
493	 1.80282126479633E-02 
494	 1.79813102128593E-02 
495	 1.79753873733039E-02 
496	 1.80075344162894E-02 
497	 1.79774793274875E-02 
498	 1.79100243624305E-02 
499	 1.78783465536235E-02 
500	 0.017976565771963 
501	 1.80285172788867E-02 
502	 1.79404773446068E-02 
503	 1.77237895854301E-02 
504	 1.77632910711954E-02 
505	 1.79074170944355E-02 
506	 1.79761387403382E-02 
507	 1.79833358224827E-02 
508	 1.79282104474179E-02 
509	 1.78287389137667E-02 
510	 1.77294059118565E-02 
511	 1.77904745418708E-02 
512	 1.77928944883392E-02 
513	 1.76970208780375E-02 
514	 1.77358266145748E-02 
515	 1.77019911912667E-02 
516	 1.76715801831938E-02 
517	 1.77167140311463E-02 
518	 1.76266916415748E-02 
519	 0.017596220392984 
520	 1.76299606264217E-02 
521	 1.76069878374414E-02 
522	 1.76500937355137E-02 
523	 1.76622923619404E-02 
524	 1.76073799472089E-02 
525	 1.76236340340331E-02 
526	 1.76992599049291E-02 
527	 1.77149334978129E-02 
528	 1.75873739232439E-02 
529	 1.76823136524966E-02 
530	 1.77099516687323E-02 
531	 1.76076013058963E-02 
532	 1.75921177682869E-02 
533	 1.76356011105651E-02 
534	 1.76253361150685E-02 
535	 1.75182867742123E-02 
536	 1.75277427952637E-02 
537	 1.75938877069591E-02 
538	 1.76433029980295E-02 
539	 1.76103448949707E-02 
540	 1.75885871647476E-02 
541	 1.75487961183695E-02 
542	 1.74896634323064E-02 
543	 1.74786551484583E-02 
544	 1.74500755641114E-02 
545	 0.017466404513478 
546	 1.75666790474336E-02 
547	 1.75086010543106E-02 
548	 1.74567700888737E-02 
549	 1.74725388933086E-02 
550	 1.75099886280636E-02 
551	 1.75774300317586E-02 
552	 1.75359290815721E-02 
553	 1.73688191619515E-02 
554	 1.74291986863538E-02 
555	 1.74669970761574E-02 
556	 1.74466160188803E-02 
557	 1.74313755417855E-02 
558	 1.74339218748219E-02 
559	 1.74419764710351E-02 
560	 1.74573821616406E-02 
561	 1.75080426214042E-02 
562	 1.74645537509465E-02 
563	 0.017418258383479 
564	 1.74571014604821E-02 
565	 1.74021406929155E-02 
566	 1.73849331824701E-02 
567	 1.73947826958862E-02 
568	 1.73221143075511E-02 
569	 1.72658153460676E-02 
570	 1.72989960155542E-02 
571	 1.74213393940123E-02 
572	 1.74887642331424E-02 
573	 1.76124538006385E-02 
574	 1.77754254414649E-02 
575	 1.79022780327271E-02 
576	 1.78788913334575E-02 
577	 1.78305604209663E-02 
578	 1.78067832715356E-02 
579	 1.77526467408352E-02 
580	 1.77298026551725E-02 
581	 1.77657940560851E-02 
582	 1.78591890930309E-02 
583	 1.79495820736342E-02 
584	 1.80817027820718E-02 
585	 1.82274836996687E-02 
586	 1.83278522504128E-02 
587	 1.84624384063318E-02 
588	 0.018599524953907 
589	 1.87178511771017E-02 
590	 1.88274585775865E-02 
591	 0.019062557987273 
592	 1.93779265023253E-02 
593	 1.96674562318302E-02 
594	 1.98503575661361E-02 
595	 2.00491800718723E-02 
596	 2.02761253993315E-02 
597	 2.04477290007751E-02 
598	 2.06468831863527E-02 
599	 2.08794036882857E-02 
600	 2.11606061731248E-02 
601	 2.15696281069089E-02 
602	 0.021962814656288 
603	 2.23656659784173E-02 
604	 2.28653584089156E-02 
605	 2.34106447575964E-02 
606	 2.39242394601563E-02 
607	 2.44383656251275E-02 
608	 2.51205841698792E-02 
609	 2.56750740632524E-02 
610	 2.62067874168101E-02 
611	 2.68598675951259E-02 
612	 2.75426140677071E-02 
613	 2.82555099180309E-02 
614	 2.89901991588073E-02 
615	 2.97349297472146E-02 
616	 3.04502687144928E-02 
617	 3.11894293781608E-02 
618	 3.19869376004102E-02 
619	 3.28281781607428E-02 
620	 3.37012738575319E-02 
621	 3.45880438412918E-02 
622	 3.54773347896359E-02 
623	 3.63985538551284E-02 
624	 3.73540663722516E-02 
625	 3.83409499567726E-02 
626	 3.93478748585606E-02 
627	 4.03685516347542E-02 
628	 4.13816552144123E-02 
629	 4.23858805928191E-02 
630	 4.34383397812556E-02 
631	 4.45053237872945E-02 
632	 0.0455923165847 
633	 4.67120963701894E-02 
634	 4.78111981166661E-02 
635	 4.89593873186278E-02 
636	 5.01506845566703E-02 
637	 5.12711907119745E-02 
638	 5.24156332037201E-02 
639	 5.35988376936441E-02 
640	 5.48090691601878E-02 
641	 5.60202438740037E-02 
642	 5.72152655814093E-02 
643	 5.84206800735923E-02 
644	 5.96852809606585E-02 
645	 6.09580280489492E-02 
646	 6.22215899802152E-02 
647	 6.34704192632228E-02 
648	 6.47092170298321E-02 
649	 6.59459931756644E-02 
650	 6.72102031949831E-02 
651	 6.85194073293858E-02 
652	 6.98214520326294E-02 
653	 7.11204973629066E-02 
654	 7.24220064402713E-02 
655	 7.37306911878211E-02 
656	 7.50154546457769E-02 
657	 7.63159374765282E-02 
658	 7.76501024568818E-02 
659	 7.89694396570368E-02 
660	 8.02984625763123E-02 
661	 8.16336784074314E-02 
662	 8.29630197606146E-02 
663	 0.084283809083303 
664	 8.56357410599599E-02 
665	 8.70088298780039E-02 
666	 0.088344751088009 
667	 8.97107869007659E-02 
668	 9.10697334900944E-02 
669	 9.23975229742359E-02 
670	 9.37628584909986E-02 
671	 9.51280643824763E-02 
672	 9.65195937389092E-02 
673	 9.79716054387085E-02 
674	 9.93460761137145E-02 
675	 0.100718245413404 
676	 0.102136817290696 
677	 0.103593583911772 
678	 0.104969973088385 
679	 0.106360770366187 
680	 0.107848020761569 
681	 0.10932229092613 
682	 0.110824763501063 
683	 0.11227653170707 
684	 0.113586181340472 
685	 0.115077491098785 
686	 0.116586028689441 
687	 0.11804332196395 
688	 0.119595813933043 
689	 0.121111951281959 
690	 0.122568238901515 
691	 0.123994071026306 
692	 0.125480301417871 
693	 0.127037724553738 
694	 0.128599460388351 
695	 0.130067919041701 
696	 0.1315765598318 
697	 0.133104349451388 
698	 0.134594095721058 
699	 0.135959932877658 
700	 0.137477844707806 
701	 0.139078574694448 
702	 0.140606377743862 
703	 0.141994594585275 
704	 0.143475347063111 
705	 0.145037123655336 
706	 0.146503545363219 
707	 0.147965641714435 
708	 0.149409953704324 
709	 0.150852049280793 
710	 0.152377410941954 
711	 0.153891748514429 
712	 0.155341092720773 
713	 0.156730158801296 
714	 0.158225263951181 
715	 0.159728905173504 
716	 0.161198062158315 
717	 0.162637622703847 
718	 0.164094071720942 
719	 0.165538223933883 
720	 0.166981562460097 
721	 0.168523912024163 
722	 0.169977134858414 
723	 0.17142759996298 
724	 0.1729851170668 
725	 0.174509938425529 
726	 0.175943474465599 
727	 0.1773477231622 
728	 0.178853874968293 
729	 0.180320815927163 
730	 0.181843289598761 
731	 0.183427072844282 
732	 0.184875394041191 
733	 0.186519465129844 
734	 0.188132492662834 
735	 0.189495936555501 
736	 0.191063844054153 
737	 0.192668133487722 
738	 0.19425890464905 
739	 0.195858149458149 
740	 0.197370556629849 
741	 0.198951208501207 
742	 0.200608106796231 
743	 0.202090673181224 
744	 0.203724058406041 
745	 0.205385374956823 
746	 0.206920045383601 
747	 0.208501361166649 
748	 0.210099840021915 
749	 0.211723398225153 
750	 0.2133877058705 
751	 0.215047650483962 
752	 0.21658618309913 
753	 0.218042808703497 
754	 0.219658732621977 
755	 0.2214100693874 
756	 0.223042489959742 
757	 0.224438863016021 
758	 0.226008806680828 
759	 0.227640371125096 
760	 0.229254376010577 
761	 0.230811904027331 
762	 0.232490481193666 
763	 0.23414525297161 
764	 0.235686908663047 
765	 0.237131433872998 
766	 0.238628446841514 
767	 0.240263487591537 
768	 0.241988195567164 
769	 0.243482892058934 
770	 0.24497622060906 
771	 0.246510834260816 
772	 0.248065304014099 
773	 0.249651064899599 
774	 0.251196618073128 
775	 0.252717885951872 
776	 0.254297524174975 
777	 0.255817557392857 
778	 0.257275962254321 
779	 0.258747313098407 
780	 0.260403634303444 
781	 0.261863014005124 
782	 0.263256464245172 
783	 0.264777533639755 
784	 0.266273957293655 
785	 0.267824720747066 
786	 0.269307578552633 
787	 0.270579670954747 
788	 0.272265109328925 
789	 0.27381449264198 
790	 0.275045129889629 
791	 0.276346571242659 
792	 0.277870334117056 
793	 0.279460288177786 
794	 0.280949106604097 
795	 0.282341734062559 
796	 0.283658113636101 
797	 0.285047079006069 
798	 0.286582976990827 
799	 0.287747105564863 
800	 0.289037660949534 
801	 0.290572326679955 
802	 0.292123220484329 
803	 0.293578391776968 
804	 0.294834888464736 
805	 0.295984883419634 
806	 0.297380702836614 
807	 0.298675153806929 
808	 0.299972836063216 
809	 0.30139828501396 
810	 0.302814445343699 
811	 0.303997046636456 
812	 0.305174898309474 
813	 0.306681787517603 
814	 0.308165455951212 
815	 0.309464143266101 
816	 0.310614900106498 
817	 0.311815831871864 
818	 0.313079674375096 
819	 0.314405020289125 
820	 0.315760548138073 
821	 0.317086819444957 
822	 0.318248284895518 
823	 0.319501604855172 
824	 0.320989879314571 
825	 0.32215936805222 
826	 0.32341949647919 
827	 0.324754633480005 
828	 0.32595235105762 
829	 0.326888561980951 
830	 0.328184797774256 
831	 0.329762191708198 
832	 0.330937256503272 
833	 0.331958790449579 
834	 0.333065888281023 
835	 0.33437996455877 
836	 0.335837064916062 
837	 0.336989619356968 
838	 0.338003192092973 
839	 0.339126912646498 
840	 0.340368048994968 
841	 0.341466996954542 
842	 0.342546168945076 
843	 0.343809699105009 
844	 0.345020060354717 
845	 0.346120940222843 
846	 0.347111169134987 
847	 0.348042838510452 
848	 0.349023755340575 
849	 0.35010457025495 
850	 0.351241257995715 
851	 0.352290252499473 
852	 0.353373379074433 
853	 0.354308956225769 
854	 0.355128801623553 
855	 0.356449382514487 
856	 0.35748984388074 
857	 0.358317195722404 
858	 0.359216707713763 
859	 0.360190931710152 
860	 0.361229550483719 
861	 0.36223427801486 
862	 0.363113129773159 
863	 0.364079626657682 
864	 0.365104972068097 
865	 0.366058660468477 
866	 0.36679681658703 
867	 0.367790931604522 
868	 0.368863151454415 
869	 0.369826275638933 
870	 0.370624682970791 
871	 0.371527065436539 
872	 0.372483245829016 
873	 0.373373131713149 
874	 0.374075056390593 
875	 0.375168224675587 
876	 0.376192357064592 
877	 0.376716627673447 
878	 0.377632462935631 
879	 0.378698537334214 
880	 0.379695901616022 
881	 0.380484911547078 
882	 0.381318644835321 
883	 0.381964766829811 
884	 0.3825851905216 
885	 0.383564833466181 
886	 0.384337217263492 
887	 0.385204578679328 
888	 0.386178934212025 
889	 0.386861021804523 
890	 0.387556285669457 
891	 0.388280940474806 
892	 0.389029193900521 
893	 0.389841550953481 
894	 0.390555762827837 
895	 0.391179684670725 
896	 0.391836884404608 
897	 0.392859552357742 
898	 0.39343900482133 
899	 0.39374577371279 
900	 0.394258208499166 
901	 0.395167621944414 
902	 0.396062393427462 
903	 0.396655374457549 
904	 0.396913130380924 
905	 0.397598108188594 
906	 0.39827168814382 
907	 0.398792189546692 
908	 0.39929104961263 
909	 0.399801221007274 
910	 0.400520252132325 
911	 0.401296688614899 
912	 0.401694350753358 
913	 0.402188148173436 
914	 0.402944922825912 
915	 0.403778982694064 
916	 0.404150025800089 
917	 0.40475018444725 
918	 0.405300777351179 
919	 0.405685090852054 
920	 0.406433305457929 
921	 0.40728838750489 
922	 0.40813274569391 
923	 0.408889270333502 
924	 0.409501495006488 
925	 0.410150377995472 
926	 0.410880737135398 
927	 0.411622903216312 
928	 0.412123768673585 
929	 0.412488167148367 
930	 0.412961890955103 
931	 0.4137694067127 
932	 0.414828069190211 
933	 0.415710793761063 
934	 0.416455620029636 
935	 0.417304232365347 
936	 0.418000776162776 
937	 0.418589510193604 
938	 0.419290564143907 
939	 0.420315723940577 
940	 0.421158787085938 
941	 0.421654830247614 
942	 0.422065284083161 
943	 0.422891228899482 
944	 0.423721641426072 
945	 0.424236000082977 
946	 0.424606958918461 
947	 0.425442303284816 
948	 0.426502693028886 
949	 0.427319733853701 
950	 0.427684809562706 
951	 0.427818635297907 
952	 0.428581660493395 
953	 0.429143813388621 
954	 0.429245677717815 
955	 0.429883833519749 
956	 0.430586706018203 
957	 0.431257093174125 
958	 0.431751600056417 
959	 0.431768023405674 
960	 0.431921583455218 
961	 0.432239257914798 
962	 0.432469148776658 
963	 0.43213746958739 
964	 0.432459534309377 
965	 0.433169330551006 
966	 0.433763484097645 
967	 0.434183280446115 
968	 0.43466862102731 
969	 0.434884982820338 
970	 0.43472313321996 
971	 0.4350133809573 
972	 0.435332810021877 
973	 0.435499093184512 
974	 0.435610552100173 
975	 0.436343094019183 
976	 0.436837969232837 
977	 0.437157086371555 
978	 0.43747819406396 
979	 0.437320790304225 
980	 0.437473557007671 
981	 0.437732701711865 
982	 0.437822631756294 
983	 0.438391009183539 
984	 0.439111894002715 
985	 0.439641927549684 
986	 0.439825685419139 
987	 0.440110803503417 
988	 0.440505321279983 
989	 0.440757982824944 
990	 0.440752388234512 
991	 0.44113702355978 
992	 0.441636608728927 
993	 0.442122768135244 
994	 0.442523982736593 
995	 0.442763808435125 
996	 0.443222739603676 
997	 0.443680641375771 
998	 0.443894526750468 
999	 0.444346429180066 
1000	 0.444504642533453 
1001	 0.456140845818027 
1002	 0.456491976211485 
1003	 0.456937032381674 
1004	 0.457318694812118 
1005	 0.457627838354456 
1006	 0.458040643395123 
1007	 0.458519734924314 
1008	 0.458918375777052 
1009	 0.45930518274894 
1010	 0.459686115493605 
1011	 0.460015904902276 
1012	 0.460425533439674 
1013	 0.460901999313303 
1014	 0.461333989213061 
1015	 0.461788335834275 
1016	 0.462187644723193 
1017	 0.462578682586365 
1018	 0.462948546612515 
1019	 0.46327616845562 
1020	 0.463637763553887 
1021	 0.464045979749874 
1022	 0.464507853256592 
1023	 0.464894228982867 
1024	 0.465331309482173 
1025	 0.465666330094267 
1026	 0.465931613773136 
1027	 0.466152067225295 
1028	 0.466313943221152 
1029	 0.466456548779455 
1030	 0.466597312066897 
1031	 0.466775304787704 
1032	 0.466959556391811 
1033	 0.467181562822515 
1034	 0.467435230516797 
1035	 0.467488907610512 
1036	 0.467536614193311 
1037	 0.467523141527134 
1038	 0.467595714426132 
1039	 0.467612426640665 
1040	 0.467689827488536 
1041	 0.467890449286525 
1042	 0.467999812880767 
1043	 0.46805802279189 
1044	 0.468153193544524 
1045	 0.468198233904493 
1046	 0.46812926905748 
1047	 0.468062237785408 
1048	 0.468033082732215 
1049	 0.468054614745843 
1050	 0.468138401914568 
1051	 0.46817522730247 
1052	 0.468176109683697 
1053	 0.468246478125873 
1054	 0.468342922383791 
1055	 0.468434869131762 
1056	 0.468541538537947 
1057	 0.468712013064525 
1058	 0.46887255062725 
1059	 0.469099928655939 
1060	 0.469490114765473 
1061	 0.469884282079721 
1062	 0.470230417346208 
1063	 0.470605784283597 
1064	 0.470979271704448 
1065	 0.471422469892483 
1066	 0.471965080528419 
1067	 0.472526982958895 
1068	 0.47314182016157 
1069	 0.4737730534315 
1070	 0.474467199002162 
1071	 0.47522765717977 
1072	 0.476049897598819 
1073	 0.476765599763746 
1074	 0.477467545154411 
1075	 0.478200403719603 
1076	 0.478969906754291 
1077	 0.479878266960275 
1078	 0.480854165866673 
1079	 0.481817280895612 
1080	 0.48269013254674 
1081	 0.483511411916383 
1082	 0.484433575238098 
1083	 0.485323362278497 
1084	 0.48620556532128 
1085	 0.487181749504923 
1086	 0.488049033269954 
1087	 0.488838505869519 
1088	 0.489586741231886 
1089	 0.490373001705509 
1090	 0.491080983109 
1091	 0.491815978640688 
1092	 0.492585932086154 
1093	 0.49327125670912 
1094	 0.493918780247555 
1095	 0.494505701520106 
1096	 0.495027946428255 
1097	 0.495541898418783 
1098	 0.496035528396181 
1099	 0.496527648258295 
1100	 0.49696566069043 
1101	 0.497347073336237 
1102	 0.497674359310463 
1103	 0.497859008057752 
1104	 0.497889387197683 
1105	 0.497905663661036 
1106	 0.497960130897964 
1107	 0.497910485174562 
1108	 0.497886024301817 
1109	 0.497864655991613 
1110	 0.497708683027 
1111	 0.497490275132187 
1112	 0.49726794282827 
1113	 0.496989672240803 
1114	 0.496666531824353 
1115	 0.496319822567724 
1116	 0.495914676165176 
1117	 0.495520292470854 
1118	 0.49509889762274 
1119	 0.494635625078919 
1120	 0.494168001738385 
1121	 0.493711172531375 
1122	 0.493191744006662 
1123	 0.49265734856729 
1124	 0.492204899578705 
1125	 0.491687545592445 
1126	 0.491129979506461 
1127	 0.490548734408249 
1128	 0.489906580327517 
1129	 0.489303337942594 
1130	 0.488654090721592 
1131	 0.487963137373705 
1132	 0.48729851282456 
1133	 0.486607494260976 
1134	 0.485939943309469 
1135	 0.485260006967375 
1136	 0.484583206261135 
1137	 0.48390486089621 
1138	 0.48324011968075 
1139	 0.482538046896861 
1140	 0.481820490013721 
1141	 0.481112282348875 
1142	 0.480394254519039 
1143	 0.479665308228098 
1144	 0.478994785448241 
1145	 0.478258068572319 
1146	 0.47745552462608 
1147	 0.476630019839445 
1148	 0.475779201743136 
1149	 0.47499289576839 
1150	 0.474249616105112 
1151	 0.473545102806744 
1152	 0.472786064134185 
1153	 0.472006529731699 
1154	 0.471216832677312 
1155	 0.470401061602973 
1156	 0.469568061032733 
1157	 0.468740439054769 
1158	 0.467902214961614 
1159	 0.467047183519947 
1160	 0.466159592209006 
1161	 0.465269523078233 
1162	 0.464313819084604 
1163	 0.463411043866986 
1164	 0.462505724215318 
1165	 0.461599978737601 
1166	 0.460809532389643 
1167	 0.460000164642031 
1168	 0.459212538451829 
1169	 0.458423818958824 
1170	 0.457650967989388 
1171	 0.456877269270643 
1172	 0.456139933574901 
1173	 0.455317105293416 
1174	 0.45446767162022 
1175	 0.453628028275239 
1176	 0.452731254888747 
1177	 0.451842953606273 
1178	 0.450982744687778 
1179	 0.450069515638716 
1180	 0.449202889688394 
1181	 0.448307008121597 
1182	 0.447387645074587 
1183	 0.446577699113426 
1184	 0.44574117895243 
1185	 0.444906505501262 
1186	 0.444149450014681 
1187	 0.443472175083467 
1188	 0.442786869206933 
1189	 0.442100486720485 
1190	 0.441502051121989 
1191	 0.440941385329179 
1192	 0.440452919373098 
1193	 0.440081375990419 
1194	 0.439675274103601 
1195	 0.439299210462461 
1196	 0.438926192400637 
1197	 0.438536937871576 
1198	 0.438170913802783 
1199	 0.437883395027992 
1200	 0.437655270079216 
1201	 0.437474166802867 
1202	 0.437361622455379 
1203	 0.437293686713094 
1204	 0.437282853981083 
1205	 0.437375442255855 
1206	 0.437528444261983 
1207	 0.437822368445003 
1208	 0.438218580471787 
1209	 0.438724645477666 
1210	 0.439321044154008 
1211	 0.440078663526405 
1212	 0.440948195197076 
1213	 0.441977807946968 
1214	 0.443177550277324 
1215	 0.444496444951071 
1216	 0.445998988161988 
1217	 0.447529708002486 
1218	 0.449177331623145 
1219	 0.45090357646067 
1220	 0.452632163623647 
1221	 0.454465732159171 
1222	 0.456234358892364 
1223	 0.458018522533556 
1224	 0.459721006780357 
1225	 0.461362644500905 
1226	 0.462963976469183 
1227	 0.464544183510565 
1228	 0.466033803053253 
1229	 0.467466776490228 
1230	 0.468841968773507 
1231	 0.470169192969874 
1232	 0.471400510026727 
1233	 0.472530748129341 
1234	 0.473634838477636 
1235	 0.474627307724682 
1236	 0.475636074028841 
1237	 0.476704256498687 
1238	 0.477637859259789 
1239	 0.478497498782356 
1240	 0.479305964179203 
1241	 0.480012261040743 
1242	 0.480617259286232 
1243	 0.481267975592354 
1244	 0.481910190352598 
1245	 0.482501783548702 
1246	 0.483073952176239 
1247	 0.48361084056518 
1248	 0.484109579328772 
1249	 0.484571042694766 
1250	 0.485028012173316 
1251	 0.485397270583686 
1252	 0.485676575988317 
1253	 0.485961458618577 
1254	 0.486204118439944 
1255	 0.486421007783207 
1256	 0.486611449297899 
1257	 0.486789553598896 
1258	 0.486940002495879 
1259	 0.487063542042233 
1260	 0.487183488945748 
1261	 0.487266099155216 
1262	 0.487289972722869 
1263	 0.487305555969503 
1264	 0.487340645575158 
1265	 0.487362245106728 
1266	 0.487407375327495 
1267	 0.487472526686208 
1268	 0.487530856697191 
1269	 0.487600668173425 
1270	 0.487649578337413 
1271	 0.487695117338886 
1272	 0.487734326863747 
1273	 0.487742948842586 
1274	 0.487784381803082 
1275	 0.487841319858381 
1276	 0.487897007080689 
1277	 0.487943544097595 
1278	 0.488031409364383 
1279	 0.488132718114859 
1280	 0.488256462865446 
1281	 0.488417627954554 
1282	 0.488592632436989 
1283	 0.488766410130313 
1284	 0.488979245469855 
1285	 0.48922242677684 
1286	 0.489487817901255 
1287	 0.489813925200129 
1288	 0.490191126501341 
1289	 0.490575810271864 
1290	 0.490984802485039 
1291	 0.491463835321085 
1292	 0.491974888779405 
1293	 0.492529035956674 
1294	 0.49314951191166 
1295	 0.493806552000983 
1296	 0.494494980951575 
1297	 0.495219520858294 
1298	 0.496021151716192 
1299	 0.496814263104271 
1300	 0.497649670903406 
1301	 0.498444826523246 
1302	 0.499232104503879 
1303	 0.500025225117531 
1304	 0.500798695636987 
1305	 0.501568242617048 
1306	 0.502385160384978 
1307	 0.503134687399286 
1308	 0.503830408174689 
1309	 0.504518557765857 
1310	 0.505159101982931 
1311	 0.505755436791255 
1312	 0.506321771170007 
1313	 0.50688174971868 
1314	 0.507331148958795 
1315	 0.507721068109683 
1316	 0.508042635603774 
1317	 0.508270150158913 
1318	 0.50847346678372 
1319	 0.508651338313208 
1320	 0.508732327554771 
1321	 0.508744954306077 
1322	 0.508702416497332 
1323	 0.508609545040885 
1324	 0.508414692132438 
1325	 0.508159214099288 
1326	 0.507820019990468 
1327	 0.507379001099759 
1328	 0.50687990079864 
1329	 0.50633609477401 
1330	 0.505703345822758 
1331	 0.504984497294163 
1332	 0.504208693267971 
1333	 0.503373902071988 
1334	 0.502450663945281 
1335	 0.50151962716446 
1336	 0.500549408194 
1337	 0.499524478685011 
1338	 0.498474048924533 
1339	 0.497352599573809 
1340	 0.496192565673223 
1341	 0.494938063828476 
1342	 0.493597256969077 
1343	 0.49225332912292 
1344	 0.490869029735206 
1345	 0.489409194586849 
1346	 0.487915880704861 
1347	 0.486384463318345 
1348	 0.484755706967713 
1349	 0.483145754773973 
1350	 0.481487458311607 
1351	 0.479892932845545 
1352	 0.478294575842776 
1353	 0.476720994989022 
1354	 0.475197805681208 
1355	 0.473684269998281 
1356	 0.472155256325074 
1357	 0.470668180029852 
1358	 0.469189357234253 
1359	 0.467769184488296 
1360	 0.466406157630934 
1361	 0.465049179943202 
1362	 0.463707816668118 
1363	 0.462462306515593 
1364	 0.461172225974322 
1365	 0.459884847495011 
1366	 0.458604691294257 
1367	 0.457338197573948 
1368	 0.456055729787916 
1369	 0.454799098618504 
1370	 0.453456746083945 
1371	 0.452076837685245 
1372	 0.450687769679372 
1373	 0.449258262910761 
1374	 0.447796978616646 
1375	 0.446328740394039 
1376	 0.444795310435592 
1377	 0.443210256254186 
1378	 0.441555392144065 
1379	 0.439801139244631 
1380	 0.438091855666862 
1381	 0.436332020064625 
1382	 0.4345860717524 
1383	 0.432830578531043 
1384	 0.431135887522672 
1385	 0.429447495374468 
1386	 0.427794194034854 
1387	 0.426196817739056 
1388	 0.424645484949353 
1389	 0.423096619394056 
1390	 0.421611080377079 
1391	 0.420228808665957 
1392	 0.418813126956395 
1393	 0.417500636964344 
1394	 0.416130971169198 
1395	 0.414653528191429 
1396	 0.413181031906788 
1397	 0.411521411178289 
1398	 0.409771296719884 
1399	 0.407801856651952 
1400	 0.405704590368409 
1401	 0.40340111724218 
1402	 0.400892318268574 
1403	 0.398215166937832 
1404	 0.395335177389615 
1405	 0.392398755903891 
1406	 0.389242477521007 
1407	 0.386122589396489 
1408	 0.382861813642141 
1409	 0.379739821920018 
1410	 0.376530547055435 
1411	 0.37355629062654 
1412	 0.370661278188089 
1413	 0.368013844158287 
1414	 0.365583001217889 
1415	 0.363246836712463 
1416	 0.361131237678718 
1417	 0.359049055296173 
1418	 0.357074869676931 
1419	 0.35513360830358 
1420	 0.353284888884041 
1421	 0.351474284003362 
1422	 0.349660597244994 
1423	 0.347957930391969 
1424	 0.346351609780471 
1425	 0.344750976756952 
1426	 0.34336186795783 
1427	 0.342032925157031 
1428	 0.340775476352221 
1429	 0.3397190351582 
1430	 0.338718369743085 
1431	 0.337791386662084 
1432	 0.337004611240346 
1433	 0.336348816712919 
1434	 0.335772600963347 
1435	 0.335313150615218 
1436	 0.334914744994719 
1437	 0.33461269660904 
1438	 0.334374963806968 
1439	 0.334220671746634 
1440	 0.334111269166308 
1441	 0.334064110081791 
1442	 0.33409130486069 
1443	 0.334189787656936 
1444	 0.334327782859085 
1445	 0.334548267455533 
1446	 0.334787698592443 
1447	 0.335058921381253 
1448	 0.335368698353264 
1449	 0.3357437601894 
1450	 0.336114935546366 
1451	 0.336503928932223 
1452	 0.336919337886229 
1453	 0.337366870874038 
1454	 0.337802602161656 
1455	 0.338280998050836 
1456	 0.338717049283552 
1457	 0.339124765577035 
1458	 0.33953285801679 
1459	 0.339916824253342 
1460	 0.340309046082418 
1461	 0.340695126551965 
1462	 0.341090257480284 
1463	 0.341465667403181 
1464	 0.341882179015997 
1465	 0.342313851560296 
1466	 0.342780247262672 
1467	 0.34327394483435 
1468	 0.343805054604291 
1469	 0.344335537850435 
1470	 0.344873028158307 
1471	 0.345420489055388 
1472	 0.345986793940718 
1473	 0.346525575121198 
1474	 0.347074030315233 
1475	 0.347589296495447 
1476	 0.348073767212058 
1477	 0.348567139652693 
1478	 0.349049537660564 
1479	 0.349527241747027 
1480	 0.349999556267232 
1481	 0.350473044977243 
1482	 0.350953843182608 
1483	 0.351401147799882 
1484	 0.351841574418405 
1485	 0.352260404092118 
1486	 0.352639563708277 
1487	 0.353030439996518 
1488	 0.3534141057592 
1489	 0.353801320421795 
1490	 0.354157875175088 
1491	 0.354578202353149 
1492	 0.355036508971952 
1493	 0.355486621238539 
1494	 0.355989549927113 
1495	 0.356448315455302 
1496	 0.356866349796562 
1497	 0.357312237980857 
1498	 0.357768361524711 
1499	 0.358213427120099 
1500	 0.358663454003277 
1501	 0.359112186902671 
1502	 0.359538108966994 
1503	 0.359985659930712 
1504	 0.360446995316667 
1505	 0.36091364335122 
1506	 0.361395239699913 
1507	 0.361873582613342 
1508	 0.362351164616198 
1509	 0.362839381091934 
1510	 0.363338597490597 
1511	 0.363827482356771 
1512	 0.364341524629399 
1513	 0.364817428276174 
1514	 0.365283244183436 
1515	 0.365713998408069 
1516	 0.366091937377312 
1517	 0.366477654511975 
1518	 0.366845552600168 
1519	 0.367201689266348 
1520	 0.367544980712709 
1521	 0.367896700083452 
1522	 0.36823940441375 
1523	 0.368584284801758 
1524	 0.368927188184706 
1525	 0.369283292729253 
1526	 0.369621730793545 
1527	 0.369946464543183 
1528	 0.370272009863636 
1529	 0.370603632758878 
1530	 0.370906600976862 
1531	 0.371189445571716 
1532	 0.37148201792595 
1533	 0.371754041042791 
1534	 0.372056252145906 
1535	 0.372384755051178 
1536	 0.372678915396098 
1537	 0.372969395368817 
1538	 0.373256976873506 
1539	 0.373531214357528 
1540	 0.373795801030164 
1541	 0.374075486740703 
1542	 0.374307081422054 
1543	 0.374512474194533 
1544	 0.374686581922373 
1545	 0.374823034449877 
1546	 0.374959158870178 
1547	 0.375065272380732 
1548	 0.375175442868579 
1549	 0.375292404227941 
1550	 0.375376266650238 
1551	 0.375444052785313 
1552	 0.375489655189213 
1553	 0.375506396636594 
1554	 0.37551972770426 
1555	 0.37551002368682 
1556	 0.375508134611088 
1557	 0.375489352409589 
1558	 0.375496151610793 
1559	 0.37549350841096 
1560	 0.375540032914361 
1561	 0.375613776510538 
1562	 0.375713265654249 
1563	 0.375864823560313 
1564	 0.375998955320328 
1565	 0.376152589380539 
1566	 0.376292202954203 
1567	 0.376426595196889 
1568	 0.376559461735232 
1569	 0.376690083231164 
1570	 0.376817227785245 
1571	 0.376921541732513 
1572	 0.37706446613291 
1573	 0.377203682067723 
1574	 0.377389126034452 
1575	 0.377629730258863 
1576	 0.377858169266045 
1577	 0.378111385421634 
1578	 0.378358198727455 
1579	 0.378620471980645 
1580	 0.378851450773596 
1581	 0.379071743549644 
1582	 0.37928561826524 
1583	 0.379460103398479 
1584	 0.379663809716122 
1585	 0.37987085408794 
1586	 0.380099631028606 
1587	 0.380345071693276 
1588	 0.380600186170989 
1589	 0.380907947494386 
1590	 0.381157794136714 
1591	 0.381366435844061 
1592	 0.381606588971888 
1593	 0.381838573675196 
1594	 0.382061656406175 
1595	 0.382310760821711 
1596	 0.382540071821218 
1597	 0.382723562562394 
1598	 0.382936073261975 
1599	 0.383176218472698 
1600	 0.383399129783154 
1601	 0.38364363590411 
1602	 0.383839936699695 
1603	 0.383990810763801 
1604	 0.384157225760263 
1605	 0.384294362142871 
1606	 0.384447432831661 
1607	 0.384639026607066 
1608	 0.384789655337476 
1609	 0.384917363625468 
1610	 0.385039873621759 
1611	 0.385149379826197 
1612	 0.385239241244984 
1613	 0.385322681267721 
1614	 0.385383567489695 
1615	 0.385399614291928 
1616	 0.385434169985659 
1617	 0.38549037671473 
1618	 0.385500719264164 
1619	 0.385494583433238 
1620	 0.385474322768162 
1621	 0.38540199940188 
1622	 0.385346345864274 
1623	 0.385312119419656 
1624	 0.385246236005224 
1625	 0.385165057905274 
1626	 0.38506832026066 
1627	 0.384960189714288 
1628	 0.38482133628232 
1629	 0.384637555964774 
1630	 0.384477587895328 
1631	 0.384299665647395 
1632	 0.384130963837137 
1633	 0.383985057223848 
1634	 0.383834140477327 
1635	 0.38365459392331 
1636	 0.383516039756308 
1637	 0.383409558346584 
1638	 0.383300621686624 
1639	 0.383250416909064 
1640	 0.383135168583382 
1641	 0.383023359348731 
1642	 0.382823877872393 
1643	 0.382538443199661 
1644	 0.382250430112289 
1645	 0.381917794855343 
1646	 0.381554597161471 
1647	 0.381187517561636 
1648	 0.380756284095989 
1649	 0.380249106534498 
1650	 0.3797364765299 
1651	 0.379189157477595 
1652	 0.378624820861194 
1653	 0.378035326157021 
1654	 0.377432720064635 
1655	 0.376821195195578 
1656	 0.376169415509463 
1657	 0.375524905063456 
1658	 0.374789040026776 
1659	 0.373990809492285 
1660	 0.373146708522939 
1661	 0.372244383778034 
1662	 0.371278045331637 
1663	 0.370260461675274 
1664	 0.369166742990673 
1665	 0.368009710823213 
1666	 0.366757902909329 
1667	 0.365458692809304 
1668	 0.36404400138535 
1669	 0.362559658498944 
1670	 0.360905500971069 
1671	 0.359100203673091 
1672	 0.357190061696907 
1673	 0.355121453106864 
1674	 0.35297708471098 
1675	 0.35074368260264 
1676	 0.348443937769193 
1677	 0.346055355292407 
1678	 0.343577785283186 
1679	 0.340996338405784 
1680	 0.338347130720698 
1681	 0.335578661578786 
1682	 0.332774991097447 
1683	 0.329916406302533 
1684	 0.327060923261913 
1685	 0.324146062337237 
1686	 0.321240797653392 
1687	 0.318284027034577 
1688	 0.315359684838577 
1689	 0.312456105991834 
1690	 0.309513240385639 
1691	 0.306593891621057 
1692	 0.303691142200339 
1693	 0.300758295145195 
1694	 0.297846722051943 
1695	 0.294954321789832 
1696	 0.292024552079956 
1697	 0.289100159797715 
1698	 0.286098570806222 
1699	 0.283074319759401 
1700	 0.280081708935558 
1701	 0.277005776130927 
1702	 0.274040224866639 
1703	 0.271054472045148 
1704	 0.268256784853942 
1705	 0.265526940246475 
1706	 0.262936001118912 
1707	 0.26066566140132 
1708	 0.258479497388828 
1709	 0.256412701653842 
1710	 0.254553337421057 
1711	 0.252701125499647 
1712	 0.250982655042576 
1713	 0.249347234118877 
1714	 0.247745549870264 
1715	 0.246303658312181 
1716	 0.244868942168799 
1717	 0.2435090165913 
1718	 0.242198152472503 
1719	 0.240879000289301 
1720	 0.239736875990689 
1721	 0.238720858782419 
1722	 0.237852843795117 
1723	 0.237239742047718 
1724	 0.236770781934846 
1725	 0.236456257390135 
1726	 0.236401557057354 
1727	 0.236617848023471 
1728	 0.237071400855603 
1729	 0.237872999137494 
1730	 0.239030364234425 
1731	 0.240318530066482 
1732	 0.241850305018317 
1733	 0.243497491073565 
1734	 0.245202443676672 
1735	 0.247010212865053 
1736	 0.248743297156432 
1737	 0.250394150783425 
1738	 0.251853075334738 
1739	 0.253062546365717 
1740	 0.254120033932699 
1741	 0.254896067808759 
1742	 0.25539287119154 
1743	 0.255732014221267 
1744	 0.255811268852186 
1745	 0.255774190242426 
1746	 0.255517640877566 
1747	 0.255221337671348 
1748	 0.254718272757818 
1749	 0.254324401696574 
1750	 0.253867196456191 
1751	 0.253540018318269 
1752	 0.253286249814656 
1753	 0.253076590161789 
1754	 0.252909022821821 
1755	 0.252864638828159 
1756	 0.252857399066855 
1757	 0.253000019548468 
1758	 0.253354769032266 
1759	 0.253831122095737 
1760	 0.254479849319577 
1761	 0.255354044970279 
1762	 0.256303156377451 
1763	 0.257466483940763 
1764	 0.258804231254454 
1765	 0.260295255430327 
1766	 0.262044640390613 
1767	 0.263822712740686 
1768	 0.265656801629361 
1769	 0.267536199545992 
1770	 0.269261432415949 
1771	 0.270979978514379 
1772	 0.272642196442603 
1773	 0.274198210718636 
1774	 0.275760850768782 
1775	 0.277171759222877 
1776	 0.278499690076002 
1777	 0.279726770379743 
1778	 0.280712568396201 
1779	 0.28164027651725 
1780	 0.282492407140746 
1781	 0.283208881586953 
1782	 0.283906190455435 
1783	 0.284531685763443 
1784	 0.285067329041991 
1785	 0.285539816138922 
1786	 0.285994700975004 
1787	 0.286403547724448 
1788	 0.286781682813971 
1789	 0.287143167990389 
1790	 0.287427527707528 
1791	 0.287655097663029 
1792	 0.287826224878715 
1793	 0.287880944481915 
1794	 0.287981819546051 
1795	 0.288151971051988 
1796	 0.288374166947853 
1797	 0.288596707525762 
1798	 0.288843371622163 
1799	 0.289087554153251 
1800	 0.289332775022444 
1801	 0.292051889525028 
1802	 0.292433232900069 
1803	 0.29278761449647 
1804	 0.293150019033866 
1805	 0.293499611267772 
1806	 0.29380318997021 
1807	 0.294022385459984 
1808	 0.29432357252217 
1809	 0.294644722756154 
1810	 0.294950354518593 
1811	 0.295300163608695 
1812	 0.295615760736834 
1813	 0.295889887112111 
1814	 0.296167125836204 
1815	 0.296483625759329 
1816	 0.296779441977679 
1817	 0.297104755826166 
1818	 0.297464411698334 
1819	 0.297794625168567 
1820	 0.29810869520041 
1821	 0.298453983796121 
1822	 0.298792218579268 
1823	 0.299157964777591 
1824	 0.299555331845295 
1825	 0.299951506796075 
1826	 0.300316828287217 
1827	 0.300669587225952 
1828	 0.3010044263019 
1829	 0.301293222220412 
1830	 0.301634821959892 
1831	 0.301992198064454 
1832	 0.302352560807983 
1833	 0.302699885887341 
1834	 0.303042927986169 
1835	 0.303376943841251 
1836	 0.303711157218646 
1837	 0.304080877010226 
1838	 0.304492215736641 
1839	 0.304891707271657 
1840	 0.305317979802442 
1841	 0.305714430453118 
1842	 0.306110342355056 
1843	 0.306506522447814 
1844	 0.306853626780543 
1845	 0.307149169504947 
1846	 0.307429196865301 
1847	 0.30768141795095 
1848	 0.307909966503444 
1849	 0.308122366899946 
1850	 0.308296934476007 
1851	 0.308445178016716 
1852	 0.308558118521521 
1853	 0.308631390323819 
1854	 0.308698136072832 
1855	 0.308764228723507 
1856	 0.308747105477355 
1857	 0.308677194429678 
1858	 0.308585502877705 
1859	 0.308429570507238 
1860	 0.308227145864597 
1861	 0.307946137724288 
1862	 0.307608864711617 
1863	 0.307215748477209 
1864	 0.306740363343075 
1865	 0.306184965790558 
1866	 0.305615929246489 
1867	 0.304919288701758 
1868	 0.304144490304178 
1869	 0.303322761598843 
1870	 0.302400829697766 
1871	 0.301400556469295 
1872	 0.300349878495697 
1873	 0.299231827856652 
1874	 0.298038330356209 
1875	 0.296811556646536 
1876	 0.29537404889352 
1877	 0.29390047288514 
1878	 0.292249344164455 
1879	 0.290418950506976 
1880	 0.288584378189424 
1881	 0.286477206519267 
1882	 0.284152871782885 
1883	 0.281697710846066 
1884	 0.279009794755213 
1885	 0.275928965464422 
1886	 0.272750390114835 
1887	 0.269298332803983 
1888	 0.265568572079098 
1889	 0.261911186181147 
1890	 0.258015119365258 
1891	 0.25407986738021 
1892	 0.250133120503372 
1893	 0.246045249284923 
1894	 0.241760988860178 
1895	 0.237625917053135 
1896	 0.233371163200357 
1897	 0.229086501013637 
1898	 0.22518030184183 
1899	 0.221217293515148 
1900	 0.217350122269995 
1901	 0.213706717080894 
1902	 0.209900310778232 
1903	 0.206299157928208 
1904	 0.202855904663234 
1905	 0.19953098943908 
1906	 0.196322153836031 
1907	 0.193444726089393 
1908	 0.190598647642686 
1909	 0.187926046475423 
1910	 0.185452177388086 
1911	 0.182989030080319 
1912	 0.180764256091903 
1913	 0.178640707118581 
1914	 0.176597632499799 
1915	 0.174773676142551 
1916	 0.173173636804113 
1917	 0.171643602228649 
1918	 0.170244048193243 
1919	 0.168982302985896 
1920	 0.167721200497916 
1921	 0.16656786708105 
1922	 0.165531223614321 
1923	 0.164594602832077 
1924	 0.163819369914678 
1925	 0.16312684834236 
1926	 0.162500554403904 
1927	 0.161950090268027 
1928	 0.161498167850029 
1929	 0.161137168756461 
1930	 0.160829924835214 
1931	 0.160631032665635 
1932	 0.160486348492012 
1933	 0.160398455845371 
1934	 0.16042471907015 
1935	 0.160507357151535 
1936	 0.160640862655559 
1937	 0.160844933285602 
1938	 0.161121193478413 
1939	 0.161445337509139 
1940	 0.161828699553025 
1941	 0.162278109157236 
1942	 0.162778754772416 
1943	 0.163314253902246 
1944	 0.163872012317521 
1945	 0.164485611430826 
1946	 0.165166881209469 
1947	 0.165864421543807 
1948	 0.166621283738027 
1949	 0.167404798955309 
1950	 0.16816168989029 
1951	 0.168901585016447 
1952	 0.16967014596759 
1953	 0.170427487975771 
1954	 0.171219414593697 
1955	 0.172089612096912 
1956	 0.172914982734809 
1957	 0.173791544035303 
1958	 0.17468705648718 
1959	 0.175507004159128 
1960	 0.176389905249454 
1961	 0.177234519163744 
1962	 0.178043518216637 
1963	 0.17887127199119 
1964	 0.179689980848335 
1965	 0.180509809214214 
1966	 0.181345612409363 
1967	 0.182180655212501 
1968	 0.182944987425594 
1969	 0.183773053215927 
1970	 0.184591234177124 
1971	 0.185364909950082 
1972	 0.186191485614113 
1973	 0.187013107583641 
1974	 0.187825087392019 
1975	 0.18864464358192 
1976	 0.189433151004321 
1977	 0.190208569234016 
1978	 0.19097292631391 
1979	 0.191712764219871 
1980	 0.192431156529643 
1981	 0.193181855545886 
1982	 0.193891756222787 
1983	 0.194578824275614 
1984	 0.195267207954366 
1985	 0.195917371194647 
1986	 0.196545618563931 
1987	 0.197159318738489 
1988	 0.197742157524006 
1989	 0.198331540520022 
1990	 0.19891253805141 
1991	 0.199479329077978 
1992	 0.200036323177055 
1993	 0.200600768639737 
1994	 0.201121809771839 
1995	 0.201648157510466 
1996	 0.202154205599068 
1997	 0.202617346687556 
1998	 0.203073036397033 
1999	 0.203522290717549 
2000	 0.203909759620712 
2001	 0.20427830568296 
2002	 0.204589003914775 
2003	 0.204807243501353 
2004	 0.205066034159584 
2005	 0.20532858915774 
2006	 0.205545684826578 
2007	 0.20577628263813 
2008	 0.205947861474896 
2009	 0.206042422541065 
2010	 0.206058291183157 
2011	 0.206022046824042 
2012	 0.205947066565301 
2013	 0.205820068615395 
2014	 0.205634608131006 
2015	 0.205422333849921 
2016	 0.205180699802279 
2017	 0.204872488455324 
2018	 0.204516423016498 
2019	 0.204108491389093 
2020	 0.203647610893503 
2021	 0.20310126200181 
2022	 0.202571684968681 
2023	 0.202034008955566 
2024	 0.201354998637797 
2025	 0.200665601036408 
2026	 0.199935023071768 
2027	 0.199074867457762 
2028	 0.198293946794679 
2029	 0.197559865911724 
2030	 0.196762120098796 
2031	 0.195926747557487 
2032	 0.195111418329148 
2033	 0.194243483169272 
2034	 0.193442880250556 
2035	 0.192653289649058 
2036	 0.191922901625613 
2037	 0.191286564444288 
2038	 0.190620261860634 
2039	 0.190000514982368 
2040	 0.189439006838637 
2041	 0.188875618280922 
2042	 0.188297755661781 
2043	 0.187811149296052 
2044	 0.187374176054004 
2045	 0.186967742605695 
2046	 0.186644778643705 
2047	 0.186297157525186 
2048	 0.185967312707465 
2049	 0.18565022991034 
2050	 0.185343132584612 
2051	 0.185034265055332 
2052	 0.184746899580969 
2053	 0.184490669742407 
2054	 0.184306229062671 
2055	 0.184190378228341 
2056	 0.184057078915741 
2057	 0.183991792983394 
2058	 0.183883894739593 
2059	 0.183764100411058 
2060	 0.183635413693633 
2061	 0.183487136578441 
2062	 0.183363405203219 
2063	 0.183235681681628 
2064	 0.183113749150147 
2065	 0.183013693931919 
2066	 0.182924706521052 
2067	 0.182788805549756 
2068	 0.182647550606235 
2069	 0.182543208839497 
2070	 0.1824553429158 
2071	 0.182342845362821 
2072	 0.182269746834833 
2073	 0.182133202451528 
2074	 0.181949237785761 
2075	 0.181766285103621 
2076	 0.181540760538894 
2077	 0.181349884966742 
2078	 0.181162454751191 
2079	 0.180972042323346 
2080	 0.180797039756764 
2081	 0.180620713147125 
2082	 0.180432046345122 
2083	 0.180253087337468 
2084	 0.180080764149274 
2085	 0.179917202518147 
2086	 0.17976575978321 
2087	 0.179628594445822 
2088	 0.179478015148709 
2089	 0.179343888220286 
2090	 0.179189270929917 
2091	 0.179014309624131 
2092	 0.178844419499846 
2093	 0.178672427761607 
2094	 0.178493093221232 
2095	 0.178298813554038 
2096	 0.178122404439325 
2097	 0.177943063146436 
2098	 0.177776914939723 
2099	 0.177655745483051 
2100	 0.177492423845586 
2101	 0.177316743342843 
2102	 0.177141965951912 
2103	 0.176940400688377 
2104	 0.176692571142619 
2105	 0.176477876854311 
2106	 0.176262820413556 
2107	 0.176045398284944 
2108	 0.175851906352573 
2109	 0.175623008216513 
2110	 0.175371843669053 
2111	 0.175124939085685 
2112	 0.174861540892671 
2113	 0.174595256935482 
2114	 0.174322666737732 
2115	 0.174052541492046 
2116	 0.173753174739432 
2117	 0.173496616024252 
2118	 0.173247360122998 
2119	 0.173032628936958 
2120	 0.172764357984639 
2121	 0.172471534660236 
2122	 0.172220289477122 
2123	 0.171947889443477 
2124	 0.17170807873607 
2125	 0.17152545588924 
2126	 0.171318703897567 
2127	 0.171096241290197 
2128	 0.170892860487973 
2129	 0.170695467996972 
2130	 0.170516797577859 
2131	 0.170345410084715 
2132	 0.170190640630894 
2133	 0.170058241200266 
2134	 0.169951261376052 
2135	 0.169789858516847 
2136	 0.169659397154481 
2137	 0.169519408751017 
2138	 0.169353018710804 
2139	 0.169217152514975 
2140	 0.169109004287872 
2141	 0.168980761522718 
2142	 0.168860820337649 
2143	 0.168726985175222 
2144	 0.168558900789152 
2145	 0.168445848758463 
2146	 0.168297072857828 
2147	 0.168254739976058 
2148	 0.168321849635975 
2149	 0.168356500699692 
2150	 0.168481414948062 
2151	 0.168536587193511 
2152	 0.168530717109566 
2153	 0.1685481276475 
2154	 0.168578774832656 
2155	 0.168560678432695 
2156	 0.168570331569199 
2157	 0.168599881452964 
2158	 0.168602950206025 
2159	 0.168581262294788 
2160	 0.168595676265024 
2161	 0.168635376911931 
2162	 0.168633779331078 
2163	 0.168612323842957 
2164	 0.168625531641382 
2165	 0.168628970413349 
2166	 0.168637081530439 
2167	 0.168673706019849 
2168	 0.168715365833901 
2169	 0.168714071053241 
2170	 0.168780810092735 
2171	 0.168910941087471 
2172	 0.169034259983695 
2173	 0.169211670488156 
2174	 0.169340758757791 
2175	 0.169466745351286 
2176	 0.169626787548594 
2177	 0.169770214042729 
2178	 0.169901352280963 
2179	 0.170060922540874 
2180	 0.170222208939052 
2181	 0.170416253487004 
2182	 0.170647974421521 
2183	 0.170861059958743 
2184	 0.171084101137079 
2185	 0.171309280509915 
2186	 0.171516217542618 
2187	 0.171754338554901 
2188	 0.172017910990227 
2189	 0.17228780699657 
2190	 0.172611128013709 
2191	 0.172871547498633 
2192	 0.173112358122683 
2193	 0.173336623107576 
2194	 0.173538100777795 
2195	 0.173696393743085 
2196	 0.173817554927057 
2197	 0.173936470588689 
2198	 0.17403171670638 
2199	 0.174117746594151 
2200	 0.174258764346003 
2201	 0.174460005558919 
2202	 0.174616344621027 
2203	 0.174791225302691 
2204	 0.17491145937858 
2205	 0.175001453465391 
2206	 0.175077291278628 
2207	 0.175124375552218 
2208	 0.175161871231893 
2209	 0.175170150064835 
2210	 0.175186022055824 
2211	 0.175210098099674 
2212	 0.175196281512524 
2213	 0.175184509037936 
2214	 0.175128965440517 
2215	 0.175009132887574 
2216	 0.17489557155057 
2217	 0.174772424031235 
2218	 0.174629973315672 
2219	 0.174494386171454 
2220	 0.174313673936222 
2221	 0.174122815514938 
2222	 0.173853863268328 
2223	 0.173558030104414 
2224	 0.173234955728353 
2225	 0.17285057353143 
2226	 0.17240887511451 
2227	 0.171853027328476 
2228	 0.171183671080483 
2229	 0.17050794395605 
2230	 0.169751997803035 
2231	 0.168955753938819 
2232	 0.168163470808093 
2233	 0.167236614557911 
2234	 0.166241333828944 
2235	 0.165103288865492 
2236	 0.163841923232266 
2237	 0.16250939872495 
2238	 0.161016447039881 
2239	 0.159505850422501 
2240	 0.157974397786682 
2241	 0.156308630973926 
2242	 0.154593151796689 
2243	 0.152715088745558 
2244	 0.150616368103176 
2245	 0.148552771945312 
2246	 0.146338577804344 
2247	 0.144179589182372 
2248	 0.142097491348345 
2249	 0.139912860789616 
2250	 0.137640398946308 
2251	 0.135433069595634 
2252	 0.13307100184171 
2253	 0.130733632048628 
2254	 0.128490833139142 
2255	 0.126209053900029 
2256	 0.124064072438391 
2257	 0.121988460538733 
2258	 0.120001531855408 
2259	 0.118130674018905 
2260	 0.116233135625091 
2261	 0.114379084011941 
2262	 0.112611817771076 
2263	 0.1108151237334 
2264	 0.109203496531911 
2265	 0.107758655809783 
2266	 0.106322428095979 
2267	 0.105062053540727 
2268	 0.103671336402155 
2269	 0.102225555602033 
2270	 0.100881391358055 
2271	 9.94888334520211E-02 
2272	 0.098194025723585 
2273	 9.70403894331821E-02 
2274	 9.58791456393905E-02 
2275	 9.47518230638831E-02 
2276	 9.36362805983675E-02 
2277	 9.26364988682552E-02 
2278	 9.15049513440476E-02 
2279	 9.02476026639454E-02 
2280	 8.90766413101421E-02 
2281	 8.78921081590389E-02 
2282	 0.086695835280714 
2283	 8.55638208586275E-02 
2284	 8.44409384873074E-02 
2285	 8.31388618873281E-02 
2286	 8.17941169447876E-02 
2287	 8.03516111966255E-02 
2288	 7.89166045866154E-02 
2289	 7.76268177156159E-02 
2290	 7.63091134208311E-02 
2291	 7.50383918704835E-02 
2292	 7.37873786551392E-02 
2293	 7.23775896308036E-02 
2294	 7.09825924104493E-02 
2295	 6.96790802426148E-02 
2296	 6.84805406917576E-02 
2297	 0.067434816132826 
2298	 6.65315130539405E-02 
2299	 6.57465154621908E-02 
2300	 6.50990183085231E-02 
2301	 6.45603965649854E-02 
2302	 6.41328736548808E-02 
2303	 6.39146770822788E-02 
2304	 6.38152589949292E-02 
2305	 6.39444645447019E-02 
2306	 6.43323833745806E-02 
2307	 6.48246710106501E-02 
2308	 6.55217100280633E-02 
2309	 6.63184125462644E-02 
2310	 6.72740255176622E-02 
2311	 6.82980473299542E-02 
2312	 6.95266725589584E-02 
2313	 7.06809585110486E-02 
2314	 7.19456451975793E-02 
2315	 7.31035257511996E-02 
2316	 7.42677090981837E-02 
2317	 7.52656094821252E-02 
2318	 7.61484162956075E-02 
2319	 7.69758002974897E-02 
2320	 7.77293615208749E-02 
2321	 7.83264368660015E-02 
2322	 7.88870462687346E-02 
2323	 7.92450124498225E-02 
2324	 7.93232252055351E-02 
2325	 7.93884396687082E-02 
2326	 7.92879460202044E-02 
2327	 7.91852033056203E-02 
2328	 0.079106904818481 
2329	 7.88574394496174E-02 
2330	 7.84936023211776E-02 
2331	 7.80878083556664E-02 
2332	 7.74945415949165E-02 
2333	 0.076748870737955 
2334	 7.59793188310228E-02 
2335	 7.51209989275328E-02 
2336	 0.074236647400967 
2337	 7.33362839630392E-02 
2338	 0.07241596617656 
2339	 7.14607147916972E-02 
2340	 7.05477134869062E-02 
2341	 6.97393442612558E-02 
2342	 6.89535211449762E-02 
2343	 6.82576254329164E-02 
2344	 0.067648940714238 
2345	 0.067189273974225 
2346	 6.70226940332525E-02 
2347	 6.70990116356007E-02 
2348	 0.067332955175213 
2349	 6.77819254849129E-02 
2350	 6.83748584670565E-02 
2351	 6.91528690700083E-02 
2352	 7.00932163682591E-02 
2353	 7.10439865851949E-02 
2354	 7.19803499122899E-02 
2355	 7.27855016057588E-02 
2356	 7.34014295388828E-02 
2357	 7.39469641112128E-02 
2358	 7.44139696556525E-02 
2359	 7.48760690940231E-02 
2360	 7.53759887042878E-02 
2361	 7.56904815804889E-02 
2362	 7.58869645193606E-02 
2363	 7.59370297065476E-02 
2364	 0.07588941993391 
2365	 7.59310730063432E-02 
2366	 7.59749726117033E-02 
2367	 7.60388149821259E-02 
2368	 7.60871131981447E-02 
2369	 7.60880292913213E-02 
2370	 7.60950440784633E-02 
2371	 7.61590308117268E-02 
2372	 7.62716859939463E-02 
2373	 7.63131232112881E-02 
2374	 7.62956040774332E-02 
2375	 7.62496840704087E-02 
2376	 7.61162442161625E-02 
2377	 7.59578077787326E-02 
2378	 7.59253656262417E-02 
2379	 7.59731214848569E-02 
2380	 7.60218549891506E-02 
2381	 7.61235439567716E-02 
2382	 0.076256278179449 
2383	 7.64040710499843E-02 
2384	 7.65420621713863E-02 
2385	 7.67479814440186E-02 
2386	 7.69687675798503E-02 
2387	 7.71827065199033E-02 
2388	 7.72959826249769E-02 
2389	 0.077417828574487 
2390	 7.74757795085374E-02 
2391	 7.74110520307225E-02 
2392	 7.74636890781657E-02 
2393	 7.75971074465507E-02 
2394	 7.75266553690883E-02 
2395	 7.72976545639528E-02 
2396	 0.07730690201304 
2397	 7.73327785552757E-02 
2398	 7.74322719217899E-02 
2399	 7.78167181874772E-02 
2400	 7.78783365649995E-02 
2401	 0.07770662298294 
2402	 7.76527087264539E-02 
2403	 7.75844984025121E-02 
2404	 7.75654255320943E-02 
2405	 7.74849190699856E-02 
2406	 0.077337350655821 
2407	 0.077247141199151 
2408	 7.70514446282731E-02 
2409	 7.69099397043685E-02 
2410	 0.076932461755312 
2411	 7.68891038873587E-02 
2412	 7.67664486113962E-02 
2413	 7.67439159739623E-02 
2414	 0.076685662902897 
2415	 7.64446382487468E-02 
2416	 0.07643905343412 
2417	 7.64236904644142E-02 
2418	 7.63275948397972E-02 
2419	 7.64389502987048E-02 
2420	 7.63437628536841E-02 
2421	 7.62855061645701E-02 
2422	 7.61304868103079E-02 
2423	 7.57135375428218E-02 
2424	 7.54270005397737E-02 
2425	 7.52392517108257E-02 
2426	 7.50583118889721E-02 
2427	 0.074800757164178 
2428	 7.47096639319483E-02 
2429	 7.46299066173521E-02 
2430	 7.45199019679888E-02 
2431	 7.45214049164691E-02 
2432	 7.43755980439151E-02 
2433	 7.40837410034271E-02 
2434	 7.37095306142992E-02 
2435	 7.34604745865397E-02 
2436	 7.33535630207682E-02 
2437	 7.32632266743148E-02 
2438	 7.30831657996164E-02 
2439	 7.28300138894179E-02 
2440	 7.25575962006226E-02 
2441	 7.21513523888154E-02 
2442	 0.071820092374662 
2443	 0.0714675714668 
2444	 7.11044140757465E-02 
2445	 0.070857421406142 
2446	 7.04664277855122E-02 
2447	 7.01393157047438E-02 
2448	 6.98291274062413E-02 
2449	 6.92160308355314E-02 
2450	 6.86779592481573E-02 
2451	 6.83500524997469E-02 
2452	 6.80490454211752E-02 
2453	 6.78686369114396E-02 
2454	 6.78210703262262E-02 
2455	 6.77110572723236E-02 
2456	 6.72968247429142E-02 
2457	 6.69395812184334E-02 
2458	 6.66443299559848E-02 
2459	 6.62977912535342E-02 
2460	 6.61567828960763E-02 
2461	 6.58854716538383E-02 
2462	 6.53786391130919E-02 
2463	 6.51148258037151E-02 
2464	 6.52595047473581E-02 
2465	 6.51525679654648E-02 
2466	 6.50919337546861E-02 
2467	 6.51149272689911E-02 
2468	 6.44302961616015E-02 
2469	 6.39220164554582E-02 
2470	 6.37130099360125E-02 
2471	 0.063228681955263 
2472	 6.29763722762334E-02 
2473	 6.30099528052203E-02 
2474	 6.30378893337276E-02 
2475	 6.30281984095078E-02 
2476	 6.29374656508037E-02 
2477	 6.26245293484837E-02 
2478	 0.062423264110298 
2479	 6.23930197486301E-02 
2480	 6.20515385231497E-02 
2481	 6.19498944929171E-02 
2482	 6.19264758964621E-02 
2483	 0.062075556782206 
2484	 6.22725062076647E-02 
2485	 6.23596814619356E-02 
2486	 6.21439660615998E-02 
2487	 6.19263617546135E-02 
2488	 6.20587753991387E-02 
2489	 6.22806674338263E-02 
2490	 6.17663418871032E-02 
2491	 6.14507919124629E-02 
2492	 6.18331972475324E-02 
2493	 6.15114469945853E-02 
2494	 6.16767233334535E-02 
2495	 6.22257184520209E-02 
2496	 6.17117047038388E-02 
2497	 6.15102889457115E-02 
2498	 6.13803998770686E-02 
2499	 6.08148720457218E-02 
2500	 6.06235647178483E-02 
