Wavelength	spectrum00005.asd
350	 8.89358582578576E-02 
351	 8.66388867142471E-02 
352	 8.09989612412944E-02 
353	 7.82759932854016E-02 
354	 8.17214354736097E-02 
355	 8.10883079874791E-02 
356	 0.078745179217339 
357	 7.76136824226472E-02 
358	 7.28508480311019E-02 
359	 7.24163139533771E-02 
360	 0.074926936956927 
361	 7.44733008136017E-02 
362	 7.00860153865485E-02 
363	 6.69115085686667E-02 
364	 6.68649994528458E-02 
365	 6.70346643493314E-02 
366	 6.57162802296797E-02 
367	 6.42926096958353E-02 
368	 6.42717116961874E-02 
369	 0.064924466416929 
370	 6.43103912236497E-02 
371	 6.31346889985997E-02 
372	 6.34442209896859E-02 
373	 6.43565571893603E-02 
374	 6.40978876160368E-02 
375	 6.22468127159891E-02 
376	 6.03315700039184E-02 
377	 5.98125514745457E-02 
378	 6.10238448955063E-02 
379	 6.26993076448655E-02 
380	 5.93176444326022E-02 
381	 5.90348026705383E-02 
382	 6.06605441904213E-02 
383	 5.81439804321442E-02 
384	 5.87578245373116E-02 
385	 5.96538290439887E-02 
386	 5.89305296868908E-02 
387	 0.057810102148708 
388	 5.85947608549895E-02 
389	 5.92220804878593E-02 
390	 5.75958708812265E-02 
391	 5.61285473478702E-02 
392	 5.50539628883565E-02 
393	 5.45954351578938E-02 
394	 5.48467733895295E-02 
395	 5.48849239879747E-02 
396	 5.40490479525376E-02 
397	 5.25700572368964E-02 
398	 5.18971024798038E-02 
399	 5.24331093463082E-02 
400	 5.39339216799615E-02 
401	 5.54080853560315E-02 
402	 5.38547217623623E-02 
403	 5.30600296787812E-02 
404	 5.32171685533659E-02 
405	 5.18889473227565E-02 
406	 5.16638123340247E-02 
407	 0.051771260927806 
408	 5.13654455212289E-02 
409	 5.02625831766113E-02 
410	 5.00526558125405E-02 
411	 5.01628542130082E-02 
412	 4.96669840453364E-02 
413	 4.98688395252471E-02 
414	 4.99312221766105E-02 
415	 4.97402802987302E-02 
416	 4.98762684391272E-02 
417	 4.95034048301289E-02 
418	 4.89108158513684E-02 
419	 4.84011962026677E-02 
420	 4.78169647662849E-02 
421	 0.047268194136748 
422	 4.69942775233383E-02 
423	 0.047116549065937 
424	 4.66488958044745E-02 
425	 4.67670623190104E-02 
426	 4.73758072341892E-02 
427	 0.046807728195978 
428	 4.63871257015937E-02 
429	 4.62474855001569E-02 
430	 4.62296586189741E-02 
431	 4.61387933694458E-02 
432	 4.61672613738193E-02 
433	 4.61482009418082E-02 
434	 4.57549668686836E-02 
435	 4.50461925771366E-02 
436	 4.48741641652408E-02 
437	 0.04529871218522 
438	 4.50574491925327E-02 
439	 4.48958991189138E-02 
440	 4.47881152898639E-02 
441	 4.46261239378165E-02 
442	 4.48954146703846E-02 
443	 4.49681718998375E-02 
444	 4.47058694483601E-02 
445	 4.44019144828114E-02 
446	 4.42279222475875E-02 
447	 4.42707963920579E-02 
448	 4.44533230076883E-02 
449	 4.44116501774967E-02 
450	 4.42208974317295E-02 
451	 4.40975057301837E-02 
452	 4.42478244500584E-02 
453	 4.44265316369187E-02 
454	 4.43906177281848E-02 
455	 4.41553784135899E-02 
456	 4.40124167357024E-02 
457	 4.37785338974692E-02 
458	 0.043734872212827 
459	 0.043972637478817 
460	 4.37067155675737E-02 
461	 4.37133468052195E-02 
462	 4.39171421265166E-02 
463	 0.043815647050597 
464	 4.37171601122278E-02 
465	 4.36090756206393E-02 
466	 4.35116873030448E-02 
467	 4.35487659761405E-02 
468	 4.36135838651427E-02 
469	 4.36520445919841E-02 
470	 4.36405527024482E-02 
471	 4.36054175875002E-02 
472	 4.36249084771139E-02 
473	 4.35461208233981E-02 
474	 4.31007549509206E-02 
475	 4.31738651443839E-02 
476	 0.043410491649974 
477	 4.34363917042394E-02 
478	 4.32716371135958E-02 
479	 4.32817384050444E-02 
480	 4.33119539726847E-02 
481	 4.30868566883573E-02 
482	 4.30133603310766E-02 
483	 4.29609354918189E-02 
484	 4.29147699486244E-02 
485	 4.30315727499049E-02 
486	 4.30251737042812E-02 
487	 4.29975462721348E-02 
488	 4.30693338437904E-02 
489	 4.31258305220961E-02 
490	 4.31861511709842E-02 
491	 4.32122775124843E-02 
492	 4.31477550182272E-02 
493	 4.30586072807253E-02 
494	 4.31084674818838E-02 
495	 4.33002815086068E-02 
496	 4.33606724546146E-02 
497	 4.34503462796743E-02 
498	 4.34635310184594E-02 
499	 4.33203929832626E-02 
500	 4.34182940317416E-02 
501	 4.34980922331498E-02 
502	 4.34474654829224E-02 
503	 4.33196854082549E-02 
504	 4.32994914188877E-02 
505	 4.33787989835149E-02 
506	 4.34986344927822E-02 
507	 4.35947240716324E-02 
508	 4.35834805154594E-02 
509	 4.35785180569409E-02 
510	 4.37265066191938E-02 
511	 4.37109495226371E-02 
512	 4.37032507866923E-02 
513	 0.043755542107609 
514	 4.37093234200834E-02 
515	 0.043775628258275 
516	 4.39176687534898E-02 
517	 4.40237746445811E-02 
518	 4.39578584720616E-02 
519	 4.38913539696556E-02 
520	 4.39244797643222E-02 
521	 4.40734448451086E-02 
522	 4.40355589030158E-02 
523	 4.40378531021025E-02 
524	 4.42271154160285E-02 
525	 4.44761227052388E-02 
526	 4.44756093834388E-02 
527	 4.43864412197846E-02 
528	 4.44804028412093E-02 
529	 4.45556101676271E-02 
530	 4.45605969630851E-02 
531	 4.45670908134164E-02 
532	 4.47588568292957E-02 
533	 4.49658461526402E-02 
534	 4.50883318877329E-02 
535	 4.51116721845428E-02 
536	 4.52019991361857E-02 
537	 4.53457801163238E-02 
538	 4.54813518953441E-02 
539	 4.55374852167948E-02 
540	 4.56291157714083E-02 
541	 4.57667463532272E-02 
542	 0.045927770303618 
543	 4.60557090226026E-02 
544	 4.62391516472987E-02 
545	 0.04645682431885 
546	 4.66545592736356E-02 
547	 4.67955785909455E-02 
548	 4.69674196230165E-02 
549	 4.72027114697562E-02 
550	 4.74787934070947E-02 
551	 4.77815250896734E-02 
552	 4.80671951918697E-02 
553	 4.83205850568849E-02 
554	 4.85976252298566E-02 
555	 4.89274506454455E-02 
556	 4.92681567660892E-02 
557	 4.95635899432689E-02 
558	 4.99302745612537E-02 
559	 5.03882923475508E-02 
560	 0.050916993005249 
561	 5.14548571415646E-02 
562	 0.05205677823348 
563	 5.26187732079679E-02 
564	 5.30688169331544E-02 
565	 5.36000188137153E-02 
566	 5.42432235017208E-02 
567	 5.49612339162929E-02 
568	 5.56872485455513E-02 
569	 5.66451825576322E-02 
570	 5.77598629328367E-02 
571	 5.89927657271214E-02 
572	 6.05017247850652E-02 
573	 6.20887083659887E-02 
574	 0.06373507872283 
575	 0.065447023048845 
576	 6.69227439630172E-02 
577	 6.82529330761612E-02 
578	 6.95832798125684E-02 
579	 0.071083395037434 
580	 7.29101614777431E-02 
581	 7.50252041206955E-02 
582	 7.73792372090435E-02 
583	 8.00586099603222E-02 
584	 0.082908118512589 
585	 8.59698943163822E-02 
586	 8.94035057041286E-02 
587	 9.30600910450502E-02 
588	 9.69201217271071E-02 
589	 0.101025478582247 
590	 0.105436877695138 
591	 0.110339290899801 
592	 0.115630494491452 
593	 0.121082303499407 
594	 0.126455901133817 
595	 0.131845562593853 
596	 0.137222189864961 
597	 0.14243420848298 
598	 0.147830357991531 
599	 0.153677313514919 
600	 0.160155820914194 
601	 0.167253463405223 
602	 0.174492089920092 
603	 0.181925236080635 
604	 0.189779855929151 
605	 0.197648057389401 
606	 0.205382012104863 
607	 0.212998914319994 
608	 0.22067722213715 
609	 0.227988818445705 
610	 0.235044831934507 
611	 0.242057314227034 
612	 0.248976234021328 
613	 0.255663409507654 
614	 0.262054177436106 
615	 0.268181736024101 
616	 0.274119133032404 
617	 0.279726437165422 
618	 0.284968313117545 
619	 0.290078525761898 
620	 0.294881279009403 
621	 0.299421084086013 
622	 0.303755827926958 
623	 0.307653132491339 
624	 0.311409855464326 
625	 0.31503292647473 
626	 0.318246329508772 
627	 0.321427691283245 
628	 0.324311883631124 
629	 0.326791136992269 
630	 0.329484786658842 
631	 0.331859556208197 
632	 0.334008247686882 
633	 0.336221654415892 
634	 0.338102964254525 
635	 0.339941748680153 
636	 0.341787917363647 
637	 0.343323390366448 
638	 0.34484395644847 
639	 0.346292204956311 
640	 0.347620334276965 
641	 0.349123957997301 
642	 0.350432929762208 
643	 0.351548318435882 
644	 0.352692545277667 
645	 0.353741346214719 
646	 0.354747184423254 
647	 0.355766191722286 
648	 0.356838815917177 
649	 0.357695913214244 
650	 0.358461891926669 
651	 0.359338406856217 
652	 0.360300149148333 
653	 0.36108193185404 
654	 0.361757373001629 
655	 0.362643876408993 
656	 0.363340503561401 
657	 0.363921831854509 
658	 0.364510984855072 
659	 0.36515515077193 
660	 0.365965289594144 
661	 0.366726079650429 
662	 0.367207344735717 
663	 0.367834289860344 
664	 0.368445722140429 
665	 0.368969240664275 
666	 0.369461268783997 
667	 0.370039304360013 
668	 0.370686594859308 
669	 0.371318152047109 
670	 0.371762460216053 
671	 0.372093397187376 
672	 0.372481414646536 
673	 0.373084787858012 
674	 0.373658681745831 
675	 0.37410832561762 
676	 0.374482412117136 
677	 0.374977940194728 
678	 0.375519338801438 
679	 0.375953555481399 
680	 0.376249801093179 
681	 0.376816213415122 
682	 0.377291591365909 
683	 0.377588670059821 
684	 0.377815541141312 
685	 0.378286897837481 
686	 0.37873385455552 
687	 0.379073185206553 
688	 0.379573043476264 
689	 0.379970434409097 
690	 0.380275297722514 
691	 0.380573417336869 
692	 0.380945509192578 
693	 0.381274958665557 
694	 0.38162768883734 
695	 0.382137600508668 
696	 0.382429840351111 
697	 0.382650189048108 
698	 0.382938943067831 
699	 0.383324018765848 
700	 0.383738336596678 
701	 0.384084094690798 
702	 0.384315827712636 
703	 0.384591330739043 
704	 0.384960971244497 
705	 0.385342994489524 
706	 0.385588695982178 
707	 0.385864603620007 
708	 0.386173822792632 
709	 0.386477441730322 
710	 0.386695786134088 
711	 0.387095256305808 
712	 0.387521661354899 
713	 0.38776146126641 
714	 0.387883833821321 
715	 0.38817334436127 
716	 0.38862480907829 
717	 0.389002668021501 
718	 0.389061927139659 
719	 0.389191850112056 
720	 0.389585387289921 
721	 0.389966175200623 
722	 0.390165887634695 
723	 0.390377320658999 
724	 0.390769679409637 
725	 0.390923642700578 
726	 0.39101525660456 
727	 0.391219568221104 
728	 0.391650163846545 
729	 0.391937009393015 
730	 0.392139655331791 
731	 0.392295715531726 
732	 0.392288262671686 
733	 0.392641935812907 
734	 0.393025857533127 
735	 0.393068597266914 
736	 0.393233535356742 
737	 0.393644704550644 
738	 0.394091569193914 
739	 0.394196264961847 
740	 0.394207824016872 
741	 0.394434873852514 
742	 0.394834744315113 
743	 0.394839965441752 
744	 0.39505100459118 
745	 0.395479768703036 
746	 0.39592008305354 
747	 0.395982475853234 
748	 0.396340338107526 
749	 0.396756743237221 
750	 0.396611495782253 
751	 0.396796345792883 
752	 0.396984919003983 
753	 0.397070791033949 
754	 0.397382382481095 
755	 0.397534535732982 
756	 0.397660240345628 
757	 0.39790036866594 
758	 0.398056613556176 
759	 0.398243466147322 
760	 0.39841888228137 
761	 0.398521459515902 
762	 0.398864122399035 
763	 0.399116263111785 
764	 0.39920456695465 
765	 0.39937269503066 
766	 0.399478003490267 
767	 0.399707310783526 
768	 0.400072960133973 
769	 0.400031720746523 
770	 0.400105457267195 
771	 0.400355173254292 
772	 0.400658190258443 
773	 0.400908145131127 
774	 0.401074074365962 
775	 0.401253653385907 
776	 0.401613075473131 
777	 0.401920253508565 
778	 0.402012853472662 
779	 0.401968715527261 
780	 0.402236077231149 
781	 0.402456539495216 
782	 0.40257449457909 
783	 0.402651009835095 
784	 0.402844558885667 
785	 0.40294815892262 
786	 0.403019700297077 
787	 0.403252408782277 
788	 0.4036080636758 
789	 0.40396978170926 
790	 0.404176989906431 
791	 0.404064223092117 
792	 0.404323799164247 
793	 0.404630987834848 
794	 0.404724313005948 
795	 0.405064446045945 
796	 0.405206616855137 
797	 0.405225550832969 
798	 0.405323653739907 
799	 0.40527899746457 
800	 0.405489181198476 
801	 0.405886072713803 
802	 0.40605248636656 
803	 0.406114342208588 
804	 0.40618036114941 
805	 0.406327445258288 
806	 0.406579312177779 
807	 0.406600248195101 
808	 0.406667302102866 
809	 0.406971818481501 
810	 0.406956495131621 
811	 0.407103570993014 
812	 0.407437773222965 
813	 0.407756812620474 
814	 0.407895200997711 
815	 0.407905597498962 
816	 0.407898259794913 
817	 0.408005581904473 
818	 0.408197248103735 
819	 0.408364400506706 
820	 0.408513616290202 
821	 0.408860478809361 
822	 0.409020501172766 
823	 0.409096005757736 
824	 0.409248025812458 
825	 0.409364382644754 
826	 0.40963403991362 
827	 0.409890593729266 
828	 0.409881772310793 
829	 0.409836399648018 
830	 0.410198026871109 
831	 0.410703584201397 
832	 0.410570204256063 
833	 0.410500314225074 
834	 0.410678069648995 
835	 0.411081296036254 
836	 0.411499895259556 
837	 0.411518336198916 
838	 0.411483885356375 
839	 0.411707206446396 
840	 0.411801049476703 
841	 0.41195573563439 
842	 0.412057037034553 
843	 0.412022742077947 
844	 0.41254790645145 
845	 0.412785652549241 
846	 0.412670532197145 
847	 0.412719446169601 
848	 0.412655546222294 
849	 0.412731655049569 
850	 0.412968316338575 
851	 0.413041448816468 
852	 0.412972156423158 
853	 0.412925176218147 
854	 0.413036646098539 
855	 0.413314217513307 
856	 0.41358595508104 
857	 0.413735445172375 
858	 0.413728430669978 
859	 0.413689956784353 
860	 0.413842663875167 
861	 0.413989736725951 
862	 0.413844117816834 
863	 0.413969303620114 
864	 0.414218516842257 
865	 0.414388795731 
866	 0.414341595642736 
867	 0.414655185453059 
868	 0.414912520220519 
869	 0.414910123590845 
870	 0.41492925189349 
871	 0.415067361084587 
872	 0.415237733231621 
873	 0.415343042126776 
874	 0.415359619771034 
875	 0.415615462198593 
876	 0.415852701647513 
877	 0.415825486325651 
878	 0.416035463121717 
879	 0.4162184269687 
880	 0.416293612605406 
881	 0.416332096126213 
882	 0.416683833131514 
883	 0.416847258037685 
884	 0.416822009712134 
885	 0.416974676949081 
886	 0.416969778735259 
887	 0.416989006513819 
888	 0.417172140115589 
889	 0.417516042530049 
890	 0.417625866942329 
891	 0.417695016010206 
892	 0.417906010973793 
893	 0.41822511464791 
894	 0.418253749363622 
895	 0.418098969096358 
896	 0.418011661949004 
897	 0.418265680683285 
898	 0.418097645203783 
899	 0.418009563203797 
900	 0.418525927799024 
901	 0.4185141027943 
902	 0.418618807006595 
903	 0.418718208124423 
904	 0.418460327913217 
905	 0.418447095683836 
906	 0.418574947398545 
907	 0.41864340133329 
908	 0.418483032227455 
909	 0.418456177261185 
910	 0.418511310807576 
911	 0.418570885533751 
912	 0.418590799562006 
913	 0.418700360740734 
914	 0.418889050739842 
915	 0.419055888807658 
916	 0.419028933571561 
917	 0.418999441442515 
918	 0.418961788095773 
919	 0.418936468136974 
920	 0.419058887635939 
921	 0.419294710135054 
922	 0.419488785029957 
923	 0.419584843859556 
924	 0.419873470785762 
925	 0.419883244629306 
926	 0.419863065886106 
927	 0.42007792974647 
928	 0.420013957458807 
929	 0.419903289360828 
930	 0.419958002870485 
931	 0.420292978643797 
932	 0.42070384969617 
933	 0.420955881130212 
934	 0.42110421101129 
935	 0.421307306091396 
936	 0.421306908186008 
937	 0.421184633300258 
938	 0.421184465117961 
939	 0.421540982576002 
940	 0.421828658676844 
941	 0.42190134890922 
942	 0.421921182276751 
943	 0.422220370855407 
944	 0.422449348307024 
945	 0.422469344829707 
946	 0.422354383904224 
947	 0.422382599755868 
948	 0.422900707121296 
949	 0.423380276032003 
950	 0.423472181172236 
951	 0.423282343677512 
952	 0.423429522430982 
953	 0.423469962475289 
954	 0.423299160255678 
955	 0.423570261458539 
956	 0.424174200821723 
957	 0.424483994000712 
958	 0.42427015292906 
959	 0.424158666244207 
960	 0.423914334808706 
961	 0.423736751439708 
962	 0.423731557295385 
963	 0.423649173765838 
964	 0.423665717855916 
965	 0.423725344985631 
966	 0.42379272512056 
967	 0.424016978437894 
968	 0.42409572315604 
969	 0.423854288469338 
970	 0.423448808230211 
971	 0.423697040643198 
972	 0.423926297410253 
973	 0.423869659871468 
974	 0.423540907392467 
975	 0.423301022012711 
976	 0.423373273456834 
977	 0.423740245650933 
978	 0.424139794874361 
979	 0.42390741290835 
980	 0.423907228142191 
981	 0.423966160411294 
982	 0.423778296964289 
983	 0.423787981514593 
984	 0.424000121903813 
985	 0.424293493002645 
986	 0.424478609993699 
987	 0.424340697899197 
988	 0.424360250976189 
989	 0.424435502308848 
990	 0.42436366096392 
991	 0.424371428091164 
992	 0.424528135575854 
993	 0.424847186147978 
994	 0.425132737456457 
995	 0.424583714688837 
996	 0.424562004702697 
997	 0.424984890510686 
998	 0.425298656231616 
999	 0.425435280427952 
1000	 0.425093739347936 
1001	 0.439606334758568 
1002	 0.439689090198545 
1003	 0.439841456965522 
1004	 0.440011514465542 
1005	 0.44014951686356 
1006	 0.440314190781929 
1007	 0.440564289540644 
1008	 0.440741369673749 
1009	 0.440849717224357 
1010	 0.441019230024148 
1011	 0.441228569337426 
1012	 0.441403395354207 
1013	 0.441542177392964 
1014	 0.441739427201282 
1015	 0.441930822237727 
1016	 0.442186910573036 
1017	 0.442480157558663 
1018	 0.442685334814042 
1019	 0.442736976759399 
1020	 0.442828138555014 
1021	 0.442978294409442 
1022	 0.44314397558527 
1023	 0.443288611083416 
1024	 0.443535616292176 
1025	 0.443646752086876 
1026	 0.443656312150591 
1027	 0.443681940119165 
1028	 0.443680888446319 
1029	 0.443655042763246 
1030	 0.443577728878128 
1031	 0.443590884877595 
1032	 0.443599748761971 
1033	 0.443530018328991 
1034	 0.443574309702521 
1035	 0.443552565721735 
1036	 0.443450395138433 
1037	 0.443305375037702 
1038	 0.443150051028739 
1039	 0.442883102985074 
1040	 0.4426912023339 
1041	 0.442538670879247 
1042	 0.442359577435693 
1043	 0.442190598359321 
1044	 0.441984304504032 
1045	 0.44181566138257 
1046	 0.441587612933707 
1047	 0.441368724395704 
1048	 0.441231798181658 
1049	 0.440994296473526 
1050	 0.440801260104758 
1051	 0.44062484618292 
1052	 0.440373368300701 
1053	 0.44019668564604 
1054	 0.440043188883884 
1055	 0.439932041552241 
1056	 0.439866446741012 
1057	 0.439825208225126 
1058	 0.439814633319221 
1059	 0.439823043734172 
1060	 0.43986492622316 
1061	 0.440035517344348 
1062	 0.440297223847672 
1063	 0.440624821118148 
1064	 0.440997268477107 
1065	 0.441337729010939 
1066	 0.441645428459461 
1067	 0.441970073395226 
1068	 0.442389116033173 
1069	 0.442876754695618 
1070	 0.443437853391132 
1071	 0.444106921397761 
1072	 0.444803635192647 
1073	 0.445413876942348 
1074	 0.446070610492407 
1075	 0.446722181741091 
1076	 0.447408177265966 
1077	 0.448260491259327 
1078	 0.449074547155465 
1079	 0.449876638086206 
1080	 0.450735238807089 
1081	 0.451531085928711 
1082	 0.452384568890938 
1083	 0.453270267883868 
1084	 0.454149342306669 
1085	 0.455093457553828 
1086	 0.455935758913716 
1087	 0.456731787110322 
1088	 0.457497236709592 
1089	 0.458256492026317 
1090	 0.458898074631395 
1091	 0.459594241005074 
1092	 0.460307398126967 
1093	 0.46089511146622 
1094	 0.461483397723381 
1095	 0.462042787417135 
1096	 0.462533338184271 
1097	 0.462985000124246 
1098	 0.463337478331164 
1099	 0.463732053753652 
1100	 0.464053917109226 
1101	 0.464297278255137 
1102	 0.46463629896359 
1103	 0.46482741547712 
1104	 0.464899274088375 
1105	 0.464914112349521 
1106	 0.464990361859197 
1107	 0.464964746938235 
1108	 0.464915039143515 
1109	 0.464863675108933 
1110	 0.464690060570088 
1111	 0.464452507216321 
1112	 0.464209451295206 
1113	 0.463929641031897 
1114	 0.463669241251022 
1115	 0.463357364375333 
1116	 0.462980183546708 
1117	 0.462585918590666 
1118	 0.462168774037994 
1119	 0.461713286404148 
1120	 0.461242967402513 
1121	 0.460748480308163 
1122	 0.460265103549901 
1123	 0.459756721038333 
1124	 0.459198585801645 
1125	 0.458675919150075 
1126	 0.458225108931667 
1127	 0.45781888248346 
1128	 0.45743114348915 
1129	 0.457051386909582 
1130	 0.456601437683376 
1131	 0.45611032523061 
1132	 0.455632880913251 
1133	 0.455227400336776 
1134	 0.454878266238553 
1135	 0.454502037957044 
1136	 0.454113826365806 
1137	 0.453805720229794 
1138	 0.453511626371294 
1139	 0.453238761228471 
1140	 0.45302505335096 
1141	 0.45283988922746 
1142	 0.452625689591734 
1143	 0.452421931010267 
1144	 0.452255005591187 
1145	 0.452075821843378 
1146	 0.451870711948725 
1147	 0.451667522497996 
1148	 0.451478462534249 
1149	 0.451333183550469 
1150	 0.451281114976643 
1151	 0.451238617779638 
1152	 0.451155231640581 
1153	 0.451079594109938 
1154	 0.45100088874636 
1155	 0.450859575262642 
1156	 0.450774443943395 
1157	 0.450759734774417 
1158	 0.450683068815421 
1159	 0.450579138936784 
1160	 0.450500978957872 
1161	 0.450379010029796 
1162	 0.450258872101064 
1163	 0.450182400538501 
1164	 0.450139517112187 
1165	 0.450124541210196 
1166	 0.450074782667634 
1167	 0.450019519817583 
1168	 0.449972201489569 
1169	 0.449948240685028 
1170	 0.44995134851558 
1171	 0.449928795455454 
1172	 0.449922357291222 
1173	 0.449895213435677 
1174	 0.449828784697366 
1175	 0.449788721749827 
1176	 0.449757004897068 
1177	 0.449719868507003 
1178	 0.449675595555283 
1179	 0.449649566647214 
1180	 0.449609852383254 
1181	 0.449642045851776 
1182	 0.449697415973025 
1183	 0.449719856492396 
1184	 0.449743661060551 
1185	 0.449784246719364 
1186	 0.449819472361456 
1187	 0.449846685084484 
1188	 0.449872471246372 
1189	 0.449901554221266 
1190	 0.449932366012993 
1191	 0.449938445724741 
1192	 0.449986052513825 
1193	 0.450062532794043 
1194	 0.450137218620123 
1195	 0.450237455366711 
1196	 0.450323564330379 
1197	 0.450399674084611 
1198	 0.450494028093827 
1199	 0.450569885967529 
1200	 0.450672958163543 
1201	 0.450824535096792 
1202	 0.450953212553938 
1203	 0.451095964738864 
1204	 0.451287089090066 
1205	 0.451470476386743 
1206	 0.451659351720921 
1207	 0.451860200677476 
1208	 0.452061506665468 
1209	 0.452289850224592 
1210	 0.452508702376321 
1211	 0.452790383265629 
1212	 0.453146156943845 
1213	 0.453482892278607 
1214	 0.453801578594996 
1215	 0.454201316993168 
1216	 0.454628844399114 
1217	 0.455084869183203 
1218	 0.455609002829721 
1219	 0.456180137851599 
1220	 0.456732705532648 
1221	 0.457258212345367 
1222	 0.457740019647076 
1223	 0.458247583514524 
1224	 0.458739597697088 
1225	 0.459206747780892 
1226	 0.45966919101754 
1227	 0.460155106790731 
1228	 0.460586908429821 
1229	 0.460972090352663 
1230	 0.461368741425812 
1231	 0.461746230685527 
1232	 0.462126116083163 
1233	 0.462484594311921 
1234	 0.462865459007746 
1235	 0.463250100347647 
1236	 0.463643702014588 
1237	 0.464084034809226 
1238	 0.464481741207389 
1239	 0.464878001865474 
1240	 0.465240658906589 
1241	 0.465541635744973 
1242	 0.465863799354915 
1243	 0.466153028653315 
1244	 0.466410498292932 
1245	 0.466672146090985 
1246	 0.466932324587413 
1247	 0.467156871921051 
1248	 0.467352912952232 
1249	 0.467563300137767 
1250	 0.467751367245269 
1251	 0.467949283413506 
1252	 0.468205307914467 
1253	 0.468359575702047 
1254	 0.468466996676667 
1255	 0.468548917157748 
1256	 0.468541413075096 
1257	 0.468571112460315 
1258	 0.468624359647477 
1259	 0.468633367088795 
1260	 0.468599156984296 
1261	 0.468587673670975 
1262	 0.468547341340754 
1263	 0.468537532427614 
1264	 0.468513444466469 
1265	 0.46851223663919 
1266	 0.46849575720562 
1267	 0.468459504173757 
1268	 0.468433155546554 
1269	 0.468414989439765 
1270	 0.468400006674066 
1271	 0.468382659057355 
1272	 0.468362286962986 
1273	 0.468340128103596 
1274	 0.468338111465689 
1275	 0.468345148913761 
1276	 0.468342363050676 
1277	 0.468314162549014 
1278	 0.468355598923652 
1279	 0.468422282656291 
1280	 0.468496722162833 
1281	 0.468619105097649 
1282	 0.468763888816293 
1283	 0.46887509296827 
1284	 0.469060209899658 
1285	 0.469297867863862 
1286	 0.469591268740885 
1287	 0.469939245321404 
1288	 0.470343529235803 
1289	 0.470786317979138 
1290	 0.471281658716105 
1291	 0.471828838801582 
1292	 0.472419454074014 
1293	 0.473061357565961 
1294	 0.473761451585759 
1295	 0.474509626719816 
1296	 0.475313126123127 
1297	 0.476146028132551 
1298	 0.477035225830481 
1299	 0.47795063684929 
1300	 0.478918138179939 
1301	 0.479875018533911 
1302	 0.480877291024694 
1303	 0.481852506263601 
1304	 0.482795197396243 
1305	 0.48376335104917 
1306	 0.484745176235174 
1307	 0.48571756519216 
1308	 0.486693778622039 
1309	 0.487687136669872 
1310	 0.488610156014874 
1311	 0.489526000172808 
1312	 0.490336640923058 
1313	 0.491099635711136 
1314	 0.491758062234056 
1315	 0.492317907614679 
1316	 0.492837727507933 
1317	 0.493259194824178 
1318	 0.493683079799419 
1319	 0.494080921899552 
1320	 0.494415652110201 
1321	 0.49473123771045 
1322	 0.494957852189905 
1323	 0.495109771881638 
1324	 0.495213115872375 
1325	 0.495270258799736 
1326	 0.495246515646384 
1327	 0.495170881809729 
1328	 0.495015773652976 
1329	 0.494779171453656 
1330	 0.494485276114263 
1331	 0.494111132839031 
1332	 0.493705184158139 
1333	 0.493269232346166 
1334	 0.492752863082442 
1335	 0.49219982724933 
1336	 0.491605786382538 
1337	 0.490973844087679 
1338	 0.4902729189119 
1339	 0.489597622858363 
1340	 0.488921875862173 
1341	 0.488202089277831 
1342	 0.487471995983805 
1343	 0.486701174466804 
1344	 0.485874584783195 
1345	 0.485065100668979 
1346	 0.484228812233906 
1347	 0.483420214279185 
1348	 0.482640962731134 
1349	 0.481820375572133 
1350	 0.480968137153024 
1351	 0.480151126841221 
1352	 0.479313826879348 
1353	 0.478501167950095 
1354	 0.47770005909924 
1355	 0.476949586935239 
1356	 0.476216949298251 
1357	 0.475511090081033 
1358	 0.474861163040594 
1359	 0.474214003804187 
1360	 0.473554921370007 
1361	 0.472933583026435 
1362	 0.47237209615912 
1363	 0.471858103327151 
1364	 0.471377164959455 
1365	 0.470958454239337 
1366	 0.47053653912767 
1367	 0.470135995176155 
1368	 0.469750020093332 
1369	 0.469388389234801 
1370	 0.46903010128626 
1371	 0.468670931256679 
1372	 0.468351684268798 
1373	 0.468063091362897 
1374	 0.467769320047669 
1375	 0.467519975609913 
1376	 0.467218781553757 
1377	 0.466896131207627 
1378	 0.466559800086582 
1379	 0.466162619240633 
1380	 0.465831478287383 
1381	 0.465506371095045 
1382	 0.465214095998924 
1383	 0.464960799884134 
1384	 0.464729615317023 
1385	 0.464519507355248 
1386	 0.464330172687845 
1387	 0.464185535485302 
1388	 0.464037090314847 
1389	 0.463887502714474 
1390	 0.463761439831612 
1391	 0.463657457848084 
1392	 0.463554789610033 
1393	 0.463452954390635 
1394	 0.463368828589018 
1395	 0.463267720420352 
1396	 0.463160670973991 
1397	 0.463035523332744 
1398	 0.462926355479236 
1399	 0.462750306154925 
1400	 0.462544823047541 
1401	 0.462293180746563 
1402	 0.462009224912909 
1403	 0.461653922838042 
1404	 0.461236709261399 
1405	 0.46080908634288 
1406	 0.460296866229445 
1407	 0.459839202290248 
1408	 0.459364184100443 
1409	 0.458935595967659 
1410	 0.458504335899181 
1411	 0.458149686550252 
1412	 0.457830213778753 
1413	 0.45758230620172 
1414	 0.457411820577943 
1415	 0.457268184628278 
1416	 0.457211598713331 
1417	 0.457127381268242 
1418	 0.457064856746492 
1419	 0.45700214991543 
1420	 0.456925405589476 
1421	 0.456868860496316 
1422	 0.456832522981682 
1423	 0.456797462211614 
1424	 0.456759528736327 
1425	 0.456741366770102 
1426	 0.45675983615344 
1427	 0.456776428304537 
1428	 0.456830823384629 
1429	 0.456896658183343 
1430	 0.456956529586113 
1431	 0.457016448689639 
1432	 0.457090409630313 
1433	 0.45717235422665 
1434	 0.457252803794123 
1435	 0.457336962063174 
1436	 0.457436638808205 
1437	 0.457550197973776 
1438	 0.457645286545471 
1439	 0.457733382342351 
1440	 0.457847945526469 
1441	 0.45794619086419 
1442	 0.45808549655303 
1443	 0.458285465144108 
1444	 0.458449688696273 
1445	 0.458613416257281 
1446	 0.458769362390421 
1447	 0.458910944871567 
1448	 0.459060625937762 
1449	 0.459223269383986 
1450	 0.459366227258943 
1451	 0.459476671626548 
1452	 0.459630283661741 
1453	 0.459778996439205 
1454	 0.459956259563711 
1455	 0.460198274660362 
1456	 0.460405610135556 
1457	 0.46061569942495 
1458	 0.460811294188091 
1459	 0.460981186303699 
1460	 0.461163947447831 
1461	 0.461327982288109 
1462	 0.461517715450042 
1463	 0.461737634576418 
1464	 0.461945266187626 
1465	 0.462153404247928 
1466	 0.462383315443701 
1467	 0.462598961210165 
1468	 0.462783083067001 
1469	 0.46294903787082 
1470	 0.463086040451219 
1471	 0.463223805624551 
1472	 0.463335312448976 
1473	 0.463442570716653 
1474	 0.463532989741498 
1475	 0.463665889063026 
1476	 0.463796900295673 
1477	 0.463940901325503 
1478	 0.464135973419457 
1479	 0.46428203698962 
1480	 0.464391867454797 
1481	 0.464531882062789 
1482	 0.464678788961619 
1483	 0.464821665193951 
1484	 0.464986790265629 
1485	 0.465109690053904 
1486	 0.465196933038597 
1487	 0.46531304883871 
1488	 0.465423993454529 
1489	 0.465535585227988 
1490	 0.465659857748761 
1491	 0.465783149073888 
1492	 0.465893481365935 
1493	 0.46601505678015 
1494	 0.466161610136617 
1495	 0.466287873449423 
1496	 0.466407220836319 
1497	 0.466517516401893 
1498	 0.466601269050255 
1499	 0.466713738301607 
1500	 0.466827918479285 
1501	 0.466955968230258 
1502	 0.467113506332956 
1503	 0.467262737794999 
1504	 0.467396776419895 
1505	 0.467560799069898 
1506	 0.467758719953294 
1507	 0.467931109579906 
1508	 0.46812237688496 
1509	 0.468290091099528 
1510	 0.468402858743966 
1511	 0.468555259534948 
1512	 0.468698013463275 
1513	 0.468885230050502 
1514	 0.469124740023654 
1515	 0.469358919098099 
1516	 0.469649426985634 
1517	 0.469891345029088 
1518	 0.470099236954791 
1519	 0.470312608992176 
1520	 0.470520832589322 
1521	 0.470699947472497 
1522	 0.470869934270681 
1523	 0.47102893652965 
1524	 0.47115316470762 
1525	 0.471225143577362 
1526	 0.471340381331014 
1527	 0.471450236188031 
1528	 0.471578756082714 
1529	 0.471722339598863 
1530	 0.471871195886905 
1531	 0.472025382488295 
1532	 0.472193357901664 
1533	 0.472354783433145 
1534	 0.472586701055394 
1535	 0.472874907127646 
1536	 0.473109240056109 
1537	 0.473369651617362 
1538	 0.473615978824313 
1539	 0.47381796541413 
1540	 0.474050447020491 
1541	 0.474345679482169 
1542	 0.474542182867954 
1543	 0.474686304918969 
1544	 0.474832868813915 
1545	 0.474922385911642 
1546	 0.475058999849093 
1547	 0.475219681435293 
1548	 0.475353020552323 
1549	 0.475487388392611 
1550	 0.47561376863932 
1551	 0.475738835017046 
1552	 0.475823664027413 
1553	 0.475900217032275 
1554	 0.475946912482425 
1555	 0.475918938867094 
1556	 0.475956790360627 
1557	 0.476007101200117 
1558	 0.476069585776285 
1559	 0.47614909544351 
1560	 0.476255772005203 
1561	 0.476370360160283 
1562	 0.476515954985441 
1563	 0.476722186611574 
1564	 0.476890665659332 
1565	 0.477062215912973 
1566	 0.477224397095222 
1567	 0.47737735380502 
1568	 0.477518366758686 
1569	 0.477642438437462 
1570	 0.477782999870536 
1571	 0.477902808919801 
1572	 0.478057559582751 
1573	 0.478252285359139 
1574	 0.478426874743675 
1575	 0.478609847329257 
1576	 0.478785695507791 
1577	 0.478957172573575 
1578	 0.479119166777816 
1579	 0.479282666843612 
1580	 0.479431362592493 
1581	 0.479567338950532 
1582	 0.479691363335826 
1583	 0.479783731915769 
1584	 0.479907991479019 
1585	 0.480025773023677 
1586	 0.480170263957893 
1587	 0.480361516716756 
1588	 0.480526577648469 
1589	 0.480705854570385 
1590	 0.480852995670703 
1591	 0.480965798366513 
1592	 0.481095329942966 
1593	 0.481194691263722 
1594	 0.481334684122345 
1595	 0.481514083200585 
1596	 0.481675489880616 
1597	 0.481879231325313 
1598	 0.482021407887833 
1599	 0.482128694370522 
1600	 0.482218753983884 
1601	 0.482205612078907 
1602	 0.482304267870299 
1603	 0.482447053190935 
1604	 0.482602376984916 
1605	 0.482854022857334 
1606	 0.483056086839481 
1607	 0.483242047771281 
1608	 0.483416321015971 
1609	 0.483601682686106 
1610	 0.4837356990098 
1611	 0.483823515825146 
1612	 0.483911086129842 
1613	 0.483958953661055 
1614	 0.484015176905669 
1615	 0.484067641526991 
1616	 0.484126009938833 
1617	 0.484165626781304 
1618	 0.484236444258017 
1619	 0.484354147626075 
1620	 0.48443130172105 
1621	 0.484515647772093 
1622	 0.484572042853848 
1623	 0.484585844050702 
1624	 0.484605023357593 
1625	 0.484586947567105 
1626	 0.484616853282236 
1627	 0.484686528380742 
1628	 0.484725689668523 
1629	 0.48479055445758 
1630	 0.484829542029253 
1631	 0.484803393956995 
1632	 0.484822767657912 
1633	 0.484869972551581 
1634	 0.484912159534943 
1635	 0.484963685452173 
1636	 0.485028507124183 
1637	 0.485102843436319 
1638	 0.485167406916275 
1639	 0.485259618809004 
1640	 0.485318728723892 
1641	 0.485379681788063 
1642	 0.485380771351043 
1643	 0.485310190267338 
1644	 0.48527565444325 
1645	 0.485210309667211 
1646	 0.485162008365553 
1647	 0.485150131644714 
1648	 0.485120348141926 
1649	 0.485090774957293 
1650	 0.485035392011862 
1651	 0.484991651899906 
1652	 0.484897879279283 
1653	 0.484741845034902 
1654	 0.484597269873999 
1655	 0.484435615421335 
1656	 0.484265270553622 
1657	 0.484101801406652 
1658	 0.483903084975916 
1659	 0.483674684114693 
1660	 0.483442449877003 
1661	 0.483204525757332 
1662	 0.482932898863072 
1663	 0.482640792325571 
1664	 0.482308013669187 
1665	 0.481944312863769 
1666	 0.481551305449524 
1667	 0.481155283750143 
1668	 0.480686212236812 
1669	 0.480171941790469 
1670	 0.479589298635968 
1671	 0.47893050827236 
1672	 0.478223788611973 
1673	 0.477429199546404 
1674	 0.476661081334303 
1675	 0.475862042367395 
1676	 0.475064358877304 
1677	 0.474300827995131 
1678	 0.473459810418753 
1679	 0.472545054685827 
1680	 0.471658657953945 
1681	 0.470753962881726 
1682	 0.469825616815496 
1683	 0.468899238462629 
1684	 0.467968326399837 
1685	 0.466996775237306 
1686	 0.466057476729636 
1687	 0.465144236568234 
1688	 0.464197207228828 
1689	 0.46325319758209 
1690	 0.462254300275826 
1691	 0.461226791157041 
1692	 0.460209076830557 
1693	 0.459150953391693 
1694	 0.458114850580454 
1695	 0.457067131497454 
1696	 0.456043172024492 
1697	 0.455057059536698 
1698	 0.454009671192923 
1699	 0.452986542292117 
1700	 0.451912195824571 
1701	 0.450741702336473 
1702	 0.449660264834474 
1703	 0.448551521455695 
1704	 0.447539068160373 
1705	 0.446583409537814 
1706	 0.44563059973669 
1707	 0.444840793447358 
1708	 0.444080410862426 
1709	 0.443369118469597 
1710	 0.442776962057385 
1711	 0.442179329603293 
1712	 0.44160966975106 
1713	 0.441129260921004 
1714	 0.44062617317152 
1715	 0.440162325650211 
1716	 0.439718025307037 
1717	 0.439202490243678 
1718	 0.438662783275108 
1719	 0.438144638885255 
1720	 0.437740193375019 
1721	 0.437382219803665 
1722	 0.437077567014558 
1723	 0.436902988260276 
1724	 0.436726681435543 
1725	 0.436618781081881 
1726	 0.436596639534447 
1727	 0.436588093725711 
1728	 0.436662821152735 
1729	 0.43685923702875 
1730	 0.43720775235645 
1731	 0.43766909235108 
1732	 0.438210303804466 
1733	 0.438750179311909 
1734	 0.439337329155487 
1735	 0.440007763102342 
1736	 0.440648022579918 
1737	 0.441264501185995 
1738	 0.441788354619039 
1739	 0.442241832921633 
1740	 0.442647322762482 
1741	 0.442979427642673 
1742	 0.443274393677451 
1743	 0.443451014498702 
1744	 0.443521476220205 
1745	 0.443510661424239 
1746	 0.443352974306741 
1747	 0.443205249220306 
1748	 0.442978726197248 
1749	 0.442795998538428 
1750	 0.442576694882323 
1751	 0.442470210535338 
1752	 0.442424775358561 
1753	 0.442372397482746 
1754	 0.44238049151265 
1755	 0.442375732084816 
1756	 0.442336025861115 
1757	 0.442400048381015 
1758	 0.44252447518043 
1759	 0.442724878394455 
1760	 0.442984680155982 
1761	 0.443371839418443 
1762	 0.443814933566321 
1763	 0.444337714231965 
1764	 0.444958625816616 
1765	 0.445642959661428 
1766	 0.446402949666799 
1767	 0.447183527689375 
1768	 0.447936420676832 
1769	 0.448616974705541 
1770	 0.449246883175924 
1771	 0.449850575049915 
1772	 0.45043309653745 
1773	 0.451027052760478 
1774	 0.451663024758403 
1775	 0.452270600563274 
1776	 0.452830723653308 
1777	 0.453343814311432 
1778	 0.453708166069565 
1779	 0.453991388278301 
1780	 0.454233635362291 
1781	 0.454392185357395 
1782	 0.454543325736389 
1783	 0.454704401395546 
1784	 0.454922471488592 
1785	 0.455169431943654 
1786	 0.455392528891195 
1787	 0.4556385482936 
1788	 0.455826448659442 
1789	 0.456003996046432 
1790	 0.45610608933964 
1791	 0.456127568068948 
1792	 0.456169311915898 
1793	 0.456129574935299 
1794	 0.456214181993391 
1795	 0.456353757285225 
1796	 0.456464440662617 
1797	 0.456612826408784 
1798	 0.456785721337008 
1799	 0.45692777662874 
1800	 0.457081322414992 
1801	 0.461192139543765 
1802	 0.461453657870182 
1803	 0.461720231994808 
1804	 0.462006199506308 
1805	 0.462288053913771 
1806	 0.46249954439641 
1807	 0.462664552617338 
1808	 0.46283716785544 
1809	 0.462940389738939 
1810	 0.4631054332926 
1811	 0.463297858801108 
1812	 0.46348957386187 
1813	 0.463714875518051 
1814	 0.463898965396885 
1815	 0.464090141249478 
1816	 0.464320075352498 
1817	 0.464527153550001 
1818	 0.464725177230622 
1819	 0.46492631385917 
1820	 0.465124493464356 
1821	 0.4653305349756 
1822	 0.465512655145356 
1823	 0.46575985722876 
1824	 0.466028008364655 
1825	 0.466240962408333 
1826	 0.466454795835943 
1827	 0.466684763051135 
1828	 0.466862817042368 
1829	 0.466967007186902 
1830	 0.467133725883268 
1831	 0.467284599155039 
1832	 0.467487148982118 
1833	 0.467717724542375 
1834	 0.46798057106788 
1835	 0.468200020531143 
1836	 0.468368916117324 
1837	 0.468571102927665 
1838	 0.468763398903841 
1839	 0.468954501939795 
1840	 0.469158235569129 
1841	 0.469377180696546 
1842	 0.469590259269253 
1843	 0.469790837967804 
1844	 0.470062399117156 
1845	 0.470293726765041 
1846	 0.470519904092951 
1847	 0.470779933158389 
1848	 0.471027096450396 
1849	 0.471308592728508 
1850	 0.47152098726915 
1851	 0.471719430916113 
1852	 0.471878022594506 
1853	 0.47195602742209 
1854	 0.472012251905776 
1855	 0.472076439691164 
1856	 0.47213855122725 
1857	 0.472224364139329 
1858	 0.472283199506579 
1859	 0.472312083123969 
1860	 0.472311171572583 
1861	 0.47230049041944 
1862	 0.472259226648036 
1863	 0.472217585160252 
1864	 0.472204406799418 
1865	 0.472178492534839 
1866	 0.47207826908839 
1867	 0.471938793705156 
1868	 0.471720743499772 
1869	 0.471413223320048 
1870	 0.471099076440374 
1871	 0.4707251899603 
1872	 0.470386947506502 
1873	 0.470017608860207 
1874	 0.469697680973577 
1875	 0.469426197809438 
1876	 0.469113867520113 
1877	 0.468846602693649 
1878	 0.468518879176338 
1879	 0.468155284211796 
1880	 0.467787738459832 
1881	 0.467291915670606 
1882	 0.46670410160004 
1883	 0.466082547953199 
1884	 0.465349729169344 
1885	 0.464469195112077 
1886	 0.463543886895185 
1887	 0.462520655466072 
1888	 0.461375943801794 
1889	 0.460261076191439 
1890	 0.459150851511716 
1891	 0.457980797774718 
1892	 0.456795530796411 
1893	 0.455616735796169 
1894	 0.454412496286839 
1895	 0.453221974388849 
1896	 0.451999629623289 
1897	 0.450826278816326 
1898	 0.449736515342368 
1899	 0.448556061115199 
1900	 0.447438849822782 
1901	 0.446383540925386 
1902	 0.445252271708882 
1903	 0.444233120583637 
1904	 0.443296053265534 
1905	 0.442428673560106 
1906	 0.441638495940653 
1907	 0.440959289776236 
1908	 0.440281091722482 
1909	 0.439651062603555 
1910	 0.439041759016802 
1911	 0.438398531097319 
1912	 0.437812365592292 
1913	 0.437282879146784 
1914	 0.43674885442821 
1915	 0.436240712482163 
1916	 0.43577746743192 
1917	 0.435329323667383 
1918	 0.434876858906884 
1919	 0.434444378927252 
1920	 0.433990718986245 
1921	 0.433552803832046 
1922	 0.433117568214376 
1923	 0.432719639258573 
1924	 0.432428414688687 
1925	 0.432128356438151 
1926	 0.43185442686763 
1927	 0.431620139286109 
1928	 0.431393747861564 
1929	 0.431147362415048 
1930	 0.430982568253328 
1931	 0.430910009235514 
1932	 0.430878778830569 
1933	 0.430890705210919 
1934	 0.430954672570578 
1935	 0.431013576516134 
1936	 0.431102368934501 
1937	 0.431212615888433 
1938	 0.431373143765341 
1939	 0.431521114040564 
1940	 0.431702568510644 
1941	 0.431826187821398 
1942	 0.431943203322998 
1943	 0.432044445575477 
1944	 0.432115747118326 
1945	 0.432201488615154 
1946	 0.432335198842459 
1947	 0.432511719211332 
1948	 0.432705198477749 
1949	 0.432942420565621 
1950	 0.43317705373415 
1951	 0.433430877527975 
1952	 0.433675467903405 
1953	 0.433918754084187 
1954	 0.43417273971555 
1955	 0.43448277648745 
1956	 0.434749082143256 
1957	 0.435049355887418 
1958	 0.435409051759384 
1959	 0.435664761435268 
1960	 0.435903470608501 
1961	 0.436149427822827 
1962	 0.436350127152188 
1963	 0.436577102095576 
1964	 0.436819962117755 
1965	 0.437082021406414 
1966	 0.437350149647645 
1967	 0.43764609905264 
1968	 0.437952403777321 
1969	 0.438245761817366 
1970	 0.438536693659083 
1971	 0.438823683592612 
1972	 0.439116735444477 
1973	 0.439384539539444 
1974	 0.439649183404338 
1975	 0.439927649608238 
1976	 0.440156128096036 
1977	 0.440348070564648 
1978	 0.440548236430733 
1979	 0.440716128626091 
1980	 0.440875072402111 
1981	 0.441095681839866 
1982	 0.441337895068415 
1983	 0.441585219025352 
1984	 0.441854942032567 
1985	 0.442133986916383 
1986	 0.442366005666951 
1987	 0.442581434149243 
1988	 0.442777855899833 
1989	 0.442983048607256 
1990	 0.443148647503462 
1991	 0.443338444393641 
1992	 0.443547480392088 
1993	 0.443757175571002 
1994	 0.443942618223879 
1995	 0.444160192674711 
1996	 0.444402629175079 
1997	 0.44463944158812 
1998	 0.444869571068409 
1999	 0.445107718342237 
2000	 0.445337983927885 
2001	 0.44556527852731 
2002	 0.445767446537117 
2003	 0.44595614440415 
2004	 0.446164858529617 
2005	 0.446359369494671 
2006	 0.446554179867921 
2007	 0.446793812215736 
2008	 0.446984372039221 
2009	 0.447102367584891 
2010	 0.447220435425421 
2011	 0.447305220194743 
2012	 0.447311189989198 
2013	 0.44729403341522 
2014	 0.447235659175951 
2015	 0.44715189027233 
2016	 0.447006261063249 
2017	 0.446879688048669 
2018	 0.446744085336489 
2019	 0.446606786069918 
2020	 0.44644814580292 
2021	 0.446296483781199 
2022	 0.446207237455551 
2023	 0.446078202648472 
2024	 0.445987547527279 
2025	 0.445886701989298 
2026	 0.445721368309133 
2027	 0.445488262404425 
2028	 0.445288926825351 
2029	 0.44504818694552 
2030	 0.444842979886807 
2031	 0.444667944961124 
2032	 0.444470035436161 
2033	 0.44429663890371 
2034	 0.444084061228676 
2035	 0.443828142617959 
2036	 0.443579491033336 
2037	 0.443391845024823 
2038	 0.443132166405556 
2039	 0.442929423085846 
2040	 0.44277521339129 
2041	 0.442622159729682 
2042	 0.442437803864662 
2043	 0.442341496223847 
2044	 0.442298965390936 
2045	 0.44227655786504 
2046	 0.442304897754722 
2047	 0.442357045020706 
2048	 0.442461724547812 
2049	 0.442550014878631 
2050	 0.442661897166008 
2051	 0.442760628787012 
2052	 0.442862767048253 
2053	 0.442990576917555 
2054	 0.443148228729191 
2055	 0.44338268170685 
2056	 0.443515413098886 
2057	 0.443624976615548 
2058	 0.443721976580966 
2059	 0.44375186570284 
2060	 0.443818213427202 
2061	 0.443902221272148 
2062	 0.443982788687068 
2063	 0.444060067915591 
2064	 0.444128209238269 
2065	 0.444164991630158 
2066	 0.444257702473702 
2067	 0.444382040196976 
2068	 0.44450847814939 
2069	 0.444643962216008 
2070	 0.444849362895539 
2071	 0.444962107549788 
2072	 0.445044295313005 
2073	 0.445097725286152 
2074	 0.445092750793522 
2075	 0.445111655700843 
2076	 0.445110529549069 
2077	 0.44511421276445 
2078	 0.445129113061994 
2079	 0.4451351334062 
2080	 0.445119629417 
2081	 0.445112899261145 
2082	 0.445081495573347 
2083	 0.445104645326037 
2084	 0.445115944015904 
2085	 0.445183624213136 
2086	 0.445240909316264 
2087	 0.445334118639599 
2088	 0.445383897649068 
2089	 0.445428446846231 
2090	 0.445455851841273 
2091	 0.445479380660344 
2092	 0.445460457859849 
2093	 0.445408873634715 
2094	 0.445358733278665 
2095	 0.445249628263757 
2096	 0.445184003535338 
2097	 0.445152846223452 
2098	 0.445087665388559 
2099	 0.445057246978431 
2100	 0.44506976338766 
2101	 0.445072522591381 
2102	 0.445115481648559 
2103	 0.445094871520575 
2104	 0.44506343516436 
2105	 0.445000819344045 
2106	 0.444863957178428 
2107	 0.444788685864627 
2108	 0.44472315656307 
2109	 0.444665466410431 
2110	 0.44468522114953 
2111	 0.444611623975331 
2112	 0.444498302504745 
2113	 0.444355638305253 
2114	 0.444117108905343 
2115	 0.443924499489785 
2116	 0.443727161388865 
2117	 0.443551807271034 
2118	 0.443389635758089 
2119	 0.443232862771537 
2120	 0.443123193447197 
2121	 0.443050529118939 
2122	 0.442986146196606 
2123	 0.442995972417141 
2124	 0.442916097523036 
2125	 0.442831201374095 
2126	 0.442674762966419 
2127	 0.442427510342155 
2128	 0.442216192714961 
2129	 0.44194787018864 
2130	 0.441732492640847 
2131	 0.441536412540777 
2132	 0.441367129699974 
2133	 0.441198838820499 
2134	 0.441103682125945 
2135	 0.441048863117262 
2136	 0.440995117981161 
2137	 0.440889271050607 
2138	 0.440827087205999 
2139	 0.440621032540094 
2140	 0.440299100431595 
2141	 0.440008309454375 
2142	 0.439659274925513 
2143	 0.439305377103745 
2144	 0.438913133902486 
2145	 0.438585250594154 
2146	 0.438206560929769 
2147	 0.437943170179356 
2148	 0.437803109104253 
2149	 0.437625722443983 
2150	 0.437528471882611 
2151	 0.437361501679025 
2152	 0.43717672268524 
2153	 0.436962770925576 
2154	 0.436669503510722 
2155	 0.436334039943895 
2156	 0.43601776585446 
2157	 0.435642270951625 
2158	 0.435341667293004 
2159	 0.435081027222304 
2160	 0.434810334627277 
2161	 0.434582417560832 
2162	 0.434294871974077 
2163	 0.433977600391774 
2164	 0.433673956850832 
2165	 0.433347270937231 
2166	 0.433020542788543 
2167	 0.432714252254145 
2168	 0.432381654080514 
2169	 0.431977353401048 
2170	 0.431653994678744 
2171	 0.431356378869694 
2172	 0.431084483229893 
2173	 0.43087071899396 
2174	 0.430663753868409 
2175	 0.430483888189285 
2176	 0.430261004019574 
2177	 0.430048326193881 
2178	 0.429836817822755 
2179	 0.429638067468579 
2180	 0.429404515912257 
2181	 0.429262058806369 
2182	 0.429179483943773 
2183	 0.42908404409395 
2184	 0.429084362720154 
2185	 0.428952872114454 
2186	 0.428757477063712 
2187	 0.4285635112909 
2188	 0.428258126445093 
2189	 0.428059116929033 
2190	 0.427871362444883 
2191	 0.427754453239267 
2192	 0.427755942561063 
2193	 0.427702713743025 
2194	 0.427700651603505 
2195	 0.427651231146887 
2196	 0.427603016370084 
2197	 0.427441939572839 
2198	 0.427282619378431 
2199	 0.42710881447061 
2200	 0.426951717990512 
2201	 0.426753203542781 
2202	 0.426626625512975 
2203	 0.42655466660368 
2204	 0.426459377175091 
2205	 0.426393965655633 
2206	 0.426289565340486 
2207	 0.42616153922189 
2208	 0.426041869529047 
2209	 0.425905602813458 
2210	 0.425780246784966 
2211	 0.425660215540687 
2212	 0.425541955721369 
2213	 0.425417523260295 
2214	 0.425313609617529 
2215	 0.425242209524462 
2216	 0.425145827008954 
2217	 0.425056906929156 
2218	 0.424944283494734 
2219	 0.424858295521393 
2220	 0.424673752901051 
2221	 0.424411962035664 
2222	 0.424145225983254 
2223	 0.423876744929602 
2224	 0.423541801456906 
2225	 0.423292884607592 
2226	 0.423061113552733 
2227	 0.422724219461604 
2228	 0.422303519438836 
2229	 0.421964211353688 
2230	 0.421605577988224 
2231	 0.421232809538302 
2232	 0.42097458486133 
2233	 0.42048008459822 
2234	 0.41983716748393 
2235	 0.419200540875986 
2236	 0.418463021651628 
2237	 0.417705813401642 
2238	 0.416940159230811 
2239	 0.416103696242904 
2240	 0.415190075750038 
2241	 0.414230583343506 
2242	 0.413245541097484 
2243	 0.412171619534046 
2244	 0.411004025294857 
2245	 0.409812558303639 
2246	 0.408462861312291 
2247	 0.40724428194463 
2248	 0.406088184802331 
2249	 0.404886322063944 
2250	 0.403740411259904 
2251	 0.402593798274726 
2252	 0.401260232923784 
2253	 0.399969976827501 
2254	 0.398698096405027 
2255	 0.397380802522014 
2256	 0.396193552705639 
2257	 0.395032225334737 
2258	 0.393856178570585 
2259	 0.392709537293249 
2260	 0.391549558554022 
2261	 0.390341089565098 
2262	 0.389243479131512 
2263	 0.388201893211895 
2264	 0.387171914330411 
2265	 0.38620836841162 
2266	 0.385227589819834 
2267	 0.384241096502361 
2268	 0.383268124612678 
2269	 0.382343620934306 
2270	 0.381392231879901 
2271	 0.380388926553577 
2272	 0.379475549840893 
2273	 0.378561385084025 
2274	 0.377722817125851 
2275	 0.377006468317023 
2276	 0.37625240102991 
2277	 0.375568840236174 
2278	 0.374811788113121 
2279	 0.374036174251443 
2280	 0.373196324388646 
2281	 0.372299438141278 
2282	 0.371367248163244 
2283	 0.370366844113292 
2284	 0.369364601666191 
2285	 0.36828819141062 
2286	 0.367313978588286 
2287	 0.36639359654558 
2288	 0.365419364805102 
2289	 0.364537853519944 
2290	 0.363549149684693 
2291	 0.362442950872326 
2292	 0.361382429521688 
2293	 0.360291564585838 
2294	 0.359180903983928 
2295	 0.358172853210318 
2296	 0.357246068493153 
2297	 0.356421901548903 
2298	 0.355627264108832 
2299	 0.355102288914466 
2300	 0.354730483723167 
2301	 0.354572954817444 
2302	 0.354686763735955 
2303	 0.354871887111607 
2304	 0.355237499220898 
2305	 0.355641228384617 
2306	 0.356199881243728 
2307	 0.356774305015311 
2308	 0.3573529008914 
2309	 0.358136873831704 
2310	 0.359041714099926 
2311	 0.360038475905858 
2312	 0.361349579549956 
2313	 0.362456637083498 
2314	 0.363566232875022 
2315	 0.364592366106753 
2316	 0.365509457091528 
2317	 0.366382090896887 
2318	 0.367283539946501 
2319	 0.36799641189553 
2320	 0.368592664074476 
2321	 0.3690881662543 
2322	 0.369423723429471 
2323	 0.369683100757545 
2324	 0.369840213385742 
2325	 0.369933837657687 
2326	 0.369863387605129 
2327	 0.369812270875307 
2328	 0.369755080145889 
2329	 0.36959724044495 
2330	 0.369415786128643 
2331	 0.369132074503382 
2332	 0.36866596528141 
2333	 0.368071228178792 
2334	 0.367439563467422 
2335	 0.366842386934168 
2336	 0.366155976363249 
2337	 0.365392484566875 
2338	 0.364599429789941 
2339	 0.363688898149643 
2340	 0.36289939860448 
2341	 0.362231432179788 
2342	 0.361612101859057 
2343	 0.36125893558632 
2344	 0.360959143968381 
2345	 0.360796951655611 
2346	 0.360746999597571 
2347	 0.360669137027837 
2348	 0.360857463075534 
2349	 0.361349602078953 
2350	 0.362027189427458 
2351	 0.362832561783069 
2352	 0.363690645382263 
2353	 0.36448813052678 
2354	 0.365143267510698 
2355	 0.365779364212229 
2356	 0.366371185747583 
2357	 0.366874098908929 
2358	 0.367416406816238 
2359	 0.367873281244563 
2360	 0.368101599579043 
2361	 0.36818597141042 
2362	 0.3682855725345 
2363	 0.368296361357792 
2364	 0.368285824860651 
2365	 0.368350809013917 
2366	 0.368255505218198 
2367	 0.36816509052131 
2368	 0.368163755070185 
2369	 0.368113646846607 
2370	 0.368061698793881 
2371	 0.368060028480959 
2372	 0.368119764980193 
2373	 0.36813503209023 
2374	 0.36808149505213 
2375	 0.367975053189858 
2376	 0.367755217447963 
2377	 0.367459025834704 
2378	 0.367299084455407 
2379	 0.367259988852635 
2380	 0.367218709615218 
2381	 0.3672781447741 
2382	 0.367371000143848 
2383	 0.367526116679336 
2384	 0.367644147208315 
2385	 0.367815745991844 
2386	 0.367970360928518 
2387	 0.368111672438152 
2388	 0.368198730222598 
2389	 0.368275497015489 
2390	 0.368225045733304 
2391	 0.368094648996524 
2392	 0.367958975172235 
2393	 0.367702633713112 
2394	 0.367655603258932 
2395	 0.36764753147004 
2396	 0.367700991405503 
2397	 0.367950234606768 
2398	 0.368031306422364 
2399	 0.368068114339071 
2400	 0.368049433710058 
2401	 0.367952057115738 
2402	 0.36788032111477 
2403	 0.36775647865242 
2404	 0.367982077516435 
2405	 0.368027668425856 
2406	 0.367658275378476 
2407	 0.367544006619799 
2408	 0.367329336736002 
2409	 0.366831035625752 
2410	 0.366615193097135 
2411	 0.366408074233799 
2412	 0.366112212940465 
2413	 0.366056175123932 
2414	 0.366113858496423 
2415	 0.366281707303087 
2416	 0.366364407103307 
2417	 0.366287681278019 
2418	 0.366302961943999 
2419	 0.366298831343656 
2420	 0.366241103022876 
2421	 0.366203603319976 
2422	 0.366073068214813 
2423	 0.365941620798659 
2424	 0.365937155684004 
2425	 0.366027073523067 
2426	 0.365954693543274 
2427	 0.365742297058468 
2428	 0.365459915057323 
2429	 0.365042395227053 
2430	 0.364799604817728 
2431	 0.364616304824295 
2432	 0.364503497822271 
2433	 0.364438666119746 
2434	 0.364328649948115 
2435	 0.36438297651856 
2436	 0.364287828619756 
2437	 0.364003585929141 
2438	 0.363713747985699 
2439	 0.363280626282158 
2440	 0.362842406639266 
2441	 0.362671734362947 
2442	 0.362643025404901 
2443	 0.362549110336371 
2444	 0.362410308205612 
2445	 0.362098605549216 
2446	 0.361499402064171 
2447	 0.360972478182211 
2448	 0.360700724911559 
2449	 0.36044726409961 
2450	 0.360258959869124 
2451	 0.36015871143208 
2452	 0.359851650967463 
2453	 0.359441758921715 
2454	 0.359278485801501 
2455	 0.359130064944354 
2456	 0.358732835648469 
2457	 0.3583443220916 
2458	 0.357792364790392 
2459	 0.357121605431876 
2460	 0.356883957348788 
2461	 0.356647303310252 
2462	 0.356560646819206 
2463	 0.35684475583148 
2464	 0.356923478523568 
2465	 0.356873747198902 
2466	 0.356701061278476 
2467	 0.356415439055561 
2468	 0.35596345802199 
2469	 0.355658725105231 
2470	 0.355758634718768 
2471	 0.355532733794554 
2472	 0.355267279173472 
2473	 0.355671243645382 
2474	 0.355858899505841 
2475	 0.355616833731856 
2476	 0.355665190037933 
2477	 0.355374661627168 
2478	 0.354894647249181 
2479	 0.354827305239411 
2480	 0.354710449277733 
2481	 0.354469604264826 
2482	 0.354071412142075 
2483	 0.353821539470347 
2484	 0.353634448403797 
2485	 0.353584457497955 
2486	 0.353590559839779 
2487	 0.353644188136176 
2488	 0.353826594860498 
2489	 0.354068914628972 
2490	 0.354422912438983 
2491	 0.354877305082095 
2492	 0.354922444737514 
2493	 0.354942081649504 
2494	 0.35509214268449 
2495	 0.354666798654336 
2496	 0.354721220716472 
2497	 0.355155087113987 
2498	 0.354598234787769 
2499	 0.354838354478081 
2500	 0.355568225285612 
