Wavelength	spectrum00007.asd
350	 4.78612001763812E-02 
351	 4.56637990391828E-02 
352	 4.62889161917115E-02 
353	 4.70082021710209E-02 
354	 4.32664053169389E-02 
355	 3.90185970480363E-02 
356	 0.037741259470368 
357	 3.94997931199437E-02 
358	 3.49311560134144E-02 
359	 3.30960499893265E-02 
360	 3.50375020910079E-02 
361	 3.70413947172093E-02 
362	 3.38061437299785E-02 
363	 2.97084573509261E-02 
364	 2.81849601126612E-02 
365	 3.01504523275698E-02 
366	 3.09811491554535E-02 
367	 0.031242025823262 
368	 3.18648159629867E-02 
369	 3.04486462538858E-02 
370	 2.83720888829315E-02 
371	 2.71629298541314E-02 
372	 2.80138199900746E-02 
373	 2.85482793141092E-02 
374	 2.87670960273952E-02 
375	 2.85131197523282E-02 
376	 2.70092617588116E-02 
377	 2.47394072209003E-02 
378	 2.40147884230399E-02 
379	 2.58252231743956E-02 
380	 2.54601744992559E-02 
381	 2.42396121231945E-02 
382	 2.35896248910791E-02 
383	 2.44322307908297E-02 
384	 2.28978245877999E-02 
385	 2.19623886222519E-02 
386	 2.30004749612662E-02 
387	 2.38357992695111E-02 
388	 2.42455418216627E-02 
389	 2.37517442706836E-02 
390	 2.23897736409691E-02 
391	 2.17757444437806E-02 
392	 2.21797933486144E-02 
393	 2.26819444408583E-02 
394	 2.18254640856085E-02 
395	 2.08315809173575E-02 
396	 0.020845975207795 
397	 0.021553956087562 
398	 2.02752168033528E-02 
399	 1.96184734095906E-02 
400	 2.00412037411331E-02 
401	 2.09625876162408E-02 
402	 2.06150138373201E-02 
403	 1.92546629448448E-02 
404	 1.80738470362639E-02 
405	 1.86531754942296E-02 
406	 1.93884368371427E-02 
407	 0.01914451134419 
408	 1.78992835903318E-02 
409	 1.73849895721428E-02 
410	 1.79309418460864E-02 
411	 1.85621364713552E-02 
412	 1.82285241278418E-02 
413	 1.81087372161789E-02 
414	 1.75240578036941E-02 
415	 1.68784763993482E-02 
416	 1.74848483122555E-02 
417	 1.74348198862467E-02 
418	 1.69605427574956E-02 
419	 1.66171820466886E-02 
420	 1.68616754814422E-02 
421	 1.63827593998629E-02 
422	 1.58273940821859E-02 
423	 1.62670866159604E-02 
424	 1.58420055272899E-02 
425	 1.57941835779937E-02 
426	 1.61468934754408E-02 
427	 1.53183822658918E-02 
428	 0.015255692920123 
429	 1.55989086929224E-02 
430	 1.56684060739333E-02 
431	 1.54374091670016E-02 
432	 1.53313517655113E-02 
433	 1.53801821277238E-02 
434	 1.53692162268796E-02 
435	 1.50711356324022E-02 
436	 1.51037206793415E-02 
437	 1.54223053528937E-02 
438	 1.48023857168944E-02 
439	 1.44998130062284E-02 
440	 1.46360687919509E-02 
441	 1.49350915834172E-02 
442	 1.50266931127733E-02 
443	 1.48046466220793E-02 
444	 1.44472138934534E-02 
445	 1.43354022283003E-02 
446	 1.44889878433797E-02 
447	 1.46288120619285E-02 
448	 1.46166750799893E-02 
449	 1.47704995036525E-02 
450	 1.45702230821941E-02 
451	 1.42873098679318E-02 
452	 1.43787770781892E-02 
453	 1.44018763092013E-02 
454	 1.43268314241942E-02 
455	 1.41878834751645E-02 
456	 1.40576735833862E-02 
457	 1.39026249012996E-02 
458	 0.013937581587681 
459	 1.42237909069952E-02 
460	 1.42254999757531E-02 
461	 1.42917813462755E-02 
462	 1.43136067386516E-02 
463	 1.40222783258108E-02 
464	 1.41005058808487E-02 
465	 1.42645479737956E-02 
466	 1.42794498807318E-02 
467	 1.41563574033023E-02 
468	 1.40364810593656E-02 
469	 1.40705316713148E-02 
470	 0.014267320338198 
471	 1.40819063377272E-02 
472	 1.39360384631889E-02 
473	 1.39548589776214E-02 
474	 1.39901537348855E-02 
475	 1.38950416268578E-02 
476	 1.37851433644966E-02 
477	 0.013774308837037 
478	 0.013882374368537 
479	 1.39839796177946E-02 
480	 1.40033745682163E-02 
481	 1.39199920989588E-02 
482	 1.38813855869489E-02 
483	 1.38556352627348E-02 
484	 1.38454292964554E-02 
485	 1.39064942982949E-02 
486	 1.38950159562372E-02 
487	 1.37817027684933E-02 
488	 1.36268954912134E-02 
489	 1.36655511881496E-02 
490	 1.37404702287845E-02 
491	 1.37007550678144E-02 
492	 1.34620013675914E-02 
493	 1.34894766978908E-02 
494	 0.013551332508263 
495	 1.35260424512883E-02 
496	 1.36263042587025E-02 
497	 1.36931333557647E-02 
498	 1.36386109960211E-02 
499	 1.34656903673049E-02 
500	 1.34677015942616E-02 
501	 1.34170727541352E-02 
502	 1.33364591550198E-02 
503	 1.34665444518354E-02 
504	 1.35231127263361E-02 
505	 1.34902861195483E-02 
506	 1.34304579164156E-02 
507	 1.34750167052957E-02 
508	 1.34563020323836E-02 
509	 1.33918152338256E-02 
510	 0.01337188199053 
511	 1.33577872789137E-02 
512	 1.33618278169363E-02 
513	 1.33648564816214E-02 
514	 1.33026250134035E-02 
515	 1.32608555873475E-02 
516	 1.32871622416173E-02 
517	 1.33562285754927E-02 
518	 1.32262049161412E-02 
519	 1.31278369140478E-02 
520	 1.31390264017317E-02 
521	 1.32102277221207E-02 
522	 1.32002976858634E-02 
523	 1.31943352026317E-02 
524	 1.32360401230267E-02 
525	 0.013221860014047 
526	 1.31626051779802E-02 
527	 1.30996399680394E-02 
528	 0.013081888376779 
529	 1.31222905285971E-02 
530	 1.31098101399203E-02 
531	 1.30502884528808E-02 
532	 1.30766715320498E-02 
533	 1.31101134625207E-02 
534	 1.31115597052283E-02 
535	 1.30667855174463E-02 
536	 1.29856581392004E-02 
537	 1.30579239552725E-02 
538	 1.31741285743568E-02 
539	 0.013094020685712 
540	 1.30648398911361E-02 
541	 1.30574943442095E-02 
542	 1.30365813231795E-02 
543	 1.30089596016836E-02 
544	 1.29713858675309E-02 
545	 1.29570418165279E-02 
546	 1.29818095668984E-02 
547	 1.29251606953685E-02 
548	 1.29607056429614E-02 
549	 1.30260038668297E-02 
550	 1.28672144823154E-02 
551	 1.29307200751189E-02 
552	 1.30053607076614E-02 
553	 1.29232322150298E-02 
554	 1.29380319064533E-02 
555	 1.29325548105231E-02 
556	 1.29260214051128E-02 
557	 1.29782702995238E-02 
558	 1.29774602768279E-02 
559	 1.29266929442736E-02 
560	 1.28836923745235E-02 
561	 1.29666055584089E-02 
562	 1.29673951323011E-02 
563	 0.012957279075713 
564	 1.30098085832839E-02 
565	 1.28781472497975E-02 
566	 1.28626894682174E-02 
567	 1.29295863611542E-02 
568	 1.28191841378201E-02 
569	 1.28795712526654E-02 
570	 1.29460259200127E-02 
571	 1.29196192559759E-02 
572	 1.30040053699573E-02 
573	 0.013104353907943 
574	 0.0132256303531 
575	 1.33718630713839E-02 
576	 1.33358636273751E-02 
577	 1.33052778277455E-02 
578	 1.33469474477472E-02 
579	 1.33603522882943E-02 
580	 1.33178161570576E-02 
581	 1.33013885109053E-02 
582	 1.33850925291056E-02 
583	 1.35399378051881E-02 
584	 1.36900377003216E-02 
585	 1.38396887325918E-02 
586	 1.40286829496676E-02 
587	 1.41186925584027E-02 
588	 1.41627673319436E-02 
589	 1.42475543298794E-02 
590	 1.44731659428619E-02 
591	 1.47481676989589E-02 
592	 1.50024678823978E-02 
593	 1.52038892512203E-02 
594	 1.54488722705204E-02 
595	 1.57243914251819E-02 
596	 1.59930243992386E-02 
597	 1.62060036515534E-02 
598	 1.64514627169805E-02 
599	 1.67238755809036E-02 
600	 1.70318696016307E-02 
601	 1.74606181885212E-02 
602	 1.79191283556146E-02 
603	 1.83985641252809E-02 
604	 1.89228476033888E-02 
605	 1.94733087792382E-02 
606	 2.00421177538209E-02 
607	 2.06417455983443E-02 
608	 2.13075860093839E-02 
609	 2.19394807150197E-02 
610	 0.022613513179383 
611	 2.33904067007994E-02 
612	 2.41137585102642E-02 
613	 2.48765858141547E-02 
614	 2.56953771231547E-02 
615	 2.65403259930885E-02 
616	 2.74123895226717E-02 
617	 2.83300205326191E-02 
618	 2.92820071630919E-02 
619	 3.02009210756067E-02 
620	 3.12013122187093E-02 
621	 3.22663264743571E-02 
622	 3.33426013798849E-02 
623	 3.44424782083621E-02 
624	 3.55703617028309E-02 
625	 3.67467328971698E-02 
626	 0.037995113176274 
627	 3.92070422566303E-02 
628	 0.040404150354638 
629	 4.16443046235948E-02 
630	 4.30239922418213E-02 
631	 0.044381023396686 
632	 4.57191346596733E-02 
633	 4.71110852329743E-02 
634	 4.85412635064281E-02 
635	 4.99954552207798E-02 
636	 5.14678939806963E-02 
637	 5.29595490401508E-02 
638	 5.44406794368427E-02 
639	 5.59368947639754E-02 
640	 5.74824052489625E-02 
641	 5.90975548244617E-02 
642	 6.07075806958407E-02 
643	 6.23126840450876E-02 
644	 6.39557904447634E-02 
645	 6.55487491666746E-02 
646	 6.71557683623866E-02 
647	 6.88199263017291E-02 
648	 7.05216024242828E-02 
649	 7.21914893512387E-02 
650	 0.073830221900078 
651	 0.075479984140081 
652	 7.72502801719899E-02 
653	 0.078994110586428 
654	 8.07007847535388E-02 
655	 0.082469277164473 
656	 8.41822749771719E-02 
657	 8.59090647245574E-02 
658	 8.76910743147325E-02 
659	 8.94558487380134E-02 
660	 9.11996718117831E-02 
661	 9.29344084929606E-02 
662	 9.46866429245612E-02 
663	 9.65197470340819E-02 
664	 9.83168609252229E-02 
665	 0.100066893044208 
666	 0.101873614266173 
667	 0.103727058633628 
668	 0.105559785161126 
669	 0.107341472464564 
670	 0.109179186077955 
671	 0.110997193037084 
672	 0.112802512975885 
673	 0.114639595659616 
674	 0.11650360449068 
675	 0.118340621526525 
676	 0.12015153833388 
677	 0.122005193173053 
678	 0.123918650146167 
679	 0.125825988413713 
680	 0.127687093702257 
681	 0.129616697776999 
682	 0.131534975611572 
683	 0.133424185218402 
684	 0.135309567246939 
685	 0.137222221899117 
686	 0.139175001747799 
687	 0.141149717929952 
688	 0.143098747077733 
689	 0.145040426664202 
690	 0.146971701170563 
691	 0.148881389799253 
692	 0.1507280553353 
693	 0.152672710312386 
694	 0.154717835661865 
695	 0.156750687631645 
696	 0.158678780520791 
697	 0.160575155706715 
698	 0.162477177387729 
699	 0.164330241250373 
700	 0.166303896769074 
701	 0.168307883321591 
702	 0.170218425512537 
703	 0.172093098293834 
704	 0.174042184660538 
705	 0.176005825885313 
706	 0.177824375045952 
707	 0.179669118506491 
708	 0.181540219506547 
709	 0.183425533853367 
710	 0.185333205761499 
711	 0.187231020255308 
712	 0.189073817868388 
713	 0.19086651863461 
714	 0.192816404444535 
715	 0.194689123014428 
716	 0.19649151970039 
717	 0.19838305923119 
718	 0.200115265721995 
719	 0.201916937870951 
720	 0.203878248207178 
721	 0.205749704706735 
722	 0.207566920612908 
723	 0.209376391572706 
724	 0.211228277463967 
725	 0.213151203079521 
726	 0.214994513332593 
727	 0.216797905837183 
728	 0.218723630413243 
729	 0.220633902026775 
730	 0.222488016410385 
731	 0.224317709828965 
732	 0.226240325590508 
733	 0.228309468086122 
734	 0.230301948131527 
735	 0.232049379677491 
736	 0.233903097427707 
737	 0.235857459453074 
738	 0.237848631782447 
739	 0.239784679018044 
740	 0.241743664742818 
741	 0.243742250455576 
742	 0.245721295770038 
743	 0.247521924169875 
744	 0.249629564080296 
745	 0.251762065206006 
746	 0.253602251020943 
747	 0.255458755864173 
748	 0.257407055650625 
749	 0.259444655998622 
750	 0.261500521003117 
751	 0.263454358886507 
752	 0.26537433149662 
753	 0.267286264161825 
754	 0.269138728339301 
755	 0.271188908224905 
756	 0.273269221714793 
757	 0.275202248317424 
758	 0.277054121121103 
759	 0.27906453888069 
760	 0.281090413381828 
761	 0.282891575578159 
762	 0.284929266595853 
763	 0.286897838370158 
764	 0.288704944346216 
765	 0.290555672638983 
766	 0.292491376675868 
767	 0.294456600897993 
768	 0.296398854598343 
769	 0.298328982659682 
770	 0.300152732087327 
771	 0.301950234782975 
772	 0.303842941106329 
773	 0.305814626144705 
774	 0.307695255532378 
775	 0.309508634209632 
776	 0.311427825838128 
777	 0.313245108172261 
778	 0.315112886738295 
779	 0.317035395711041 
780	 0.318673315956615 
781	 0.320473031478731 
782	 0.322369706257395 
783	 0.324188320290416 
784	 0.325919591360997 
785	 0.327664075673918 
786	 0.329427789992532 
787	 0.331182213864361 
788	 0.333152396328032 
789	 0.334913261968453 
790	 0.336399840001224 
791	 0.338041831683888 
792	 0.339880391586974 
793	 0.341736134095999 
794	 0.34346239775181 
795	 0.345141112883627 
796	 0.346744404801364 
797	 0.348418082664684 
798	 0.350242892190064 
799	 0.351677078168116 
800	 0.353204746437209 
801	 0.355009567845808 
802	 0.356943684040304 
803	 0.358456753747934 
804	 0.35993518467613 
805	 0.361591332855105 
806	 0.36317706926615 
807	 0.364741552314455 
808	 0.36630569955519 
809	 0.367889354717914 
810	 0.369521973577791 
811	 0.371007077868177 
812	 0.372516975071143 
813	 0.374292378493543 
814	 0.375942686624753 
815	 0.377458609190177 
816	 0.378904870101922 
817	 0.380388084538388 
818	 0.381966618586648 
819	 0.383503685213849 
820	 0.384978450714959 
821	 0.386613560015519 
822	 0.388049432683246 
823	 0.389479394579868 
824	 0.391079904674268 
825	 0.392471063487648 
826	 0.39405207550641 
827	 0.395700157227738 
828	 0.397088123787412 
829	 0.39822965206872 
830	 0.399753190297154 
831	 0.401502948891173 
832	 0.40270598588529 
833	 0.404183382593448 
834	 0.405667375346645 
835	 0.407031269239372 
836	 0.408604748168494 
837	 0.410168047311499 
838	 0.411553281794339 
839	 0.412738064231369 
840	 0.414053486305247 
841	 0.415271189385525 
842	 0.416504813827881 
843	 0.417943915391109 
844	 0.41946080371103 
845	 0.42083158521114 
846	 0.421989864902338 
847	 0.42303052542473 
848	 0.424220376317109 
849	 0.425519141693433 
850	 0.426807752636766 
851	 0.427939195847106 
852	 0.429335873768406 
853	 0.430641076979483 
854	 0.431627843735568 
855	 0.432668903271075 
856	 0.433855423924134 
857	 0.435008838528031 
858	 0.436006315777604 
859	 0.43728472163574 
860	 0.438586892893136 
861	 0.439777660103708 
862	 0.440820109011843 
863	 0.441807155357233 
864	 0.442849483892608 
865	 0.44390131797156 
866	 0.444831004474577 
867	 0.446109181657093 
868	 0.447364979449909 
869	 0.448381189606263 
870	 0.449318457312823 
871	 0.450236988270986 
872	 0.451357003610962 
873	 0.452647043941689 
874	 0.453473229819556 
875	 0.454486507913553 
876	 0.455581033548731 
877	 0.456512356366347 
878	 0.457430357795524 
879	 0.458538764942243 
880	 0.45967877630518 
881	 0.46057060643292 
882	 0.461361913625414 
883	 0.462107905715692 
884	 0.462996547846149 
885	 0.464227153459067 
886	 0.465300604057467 
887	 0.466086415655837 
888	 0.466789751987779 
889	 0.467873074788349 
890	 0.468615831371902 
891	 0.469321704894979 
892	 0.470279933260823 
893	 0.471425827660763 
894	 0.472294737004541 
895	 0.472929171121256 
896	 0.473552538812421 
897	 0.474488526117274 
898	 0.474999723209478 
899	 0.475427776092484 
900	 0.476294404121083 
901	 0.477293652725564 
902	 0.478155539060589 
903	 0.478791097909961 
904	 0.479272170899028 
905	 0.479864769874978 
906	 0.480382993235009 
907	 0.480960726910961 
908	 0.481874814078369 
909	 0.482593189091905 
910	 0.483143188962355 
911	 0.483629338181825 
912	 0.484170526347018 
913	 0.484778379388452 
914	 0.485628124430627 
915	 0.486627836302528 
916	 0.487321131816275 
917	 0.487578378048073 
918	 0.488003821645933 
919	 0.488853498677088 
920	 0.489463295383074 
921	 0.49052982593627 
922	 0.491533440297053 
923	 0.492092203269489 
924	 0.492987945092204 
925	 0.493698417909031 
926	 0.494317941790773 
927	 0.49502038725752 
928	 0.495538756160526 
929	 0.496204527285425 
930	 0.497019742130066 
931	 0.497908264208416 
932	 0.499168068162019 
933	 0.500243338567016 
934	 0.501058858348131 
935	 0.501831047043721 
936	 0.502609090120739 
937	 0.503391450867532 
938	 0.50436356271911 
939	 0.505688895292354 
940	 0.506605949867384 
941	 0.507122731169768 
942	 0.507594936620426 
943	 0.508508450748282 
944	 0.509458210670835 
945	 0.510029802994118 
946	 0.51033354487408 
947	 0.511016389795592 
948	 0.512486553225681 
949	 0.513662240618835 
950	 0.514044238805382 
951	 0.514215321081781 
952	 0.51510013074705 
953	 0.515740882506134 
954	 0.515762168482765 
955	 0.516149257946094 
956	 0.51691359577439 
957	 0.517833191657571 
958	 0.518530486926023 
959	 0.518545670950965 
960	 0.518449769576871 
961	 0.518627724543932 
962	 0.51903843161461 
963	 0.518948760823066 
964	 0.519111160672973 
965	 0.519690905229348 
966	 0.520473308891116 
967	 0.520813388930672 
968	 0.521139279860726 
969	 0.521356751706484 
970	 0.521404635085858 
971	 0.521637120635258 
972	 0.522124439501016 
973	 0.522504616840378 
974	 0.522519057959887 
975	 0.522541967364959 
976	 0.523062292115395 
977	 0.52358231641155 
978	 0.523656236121844 
979	 0.52405991857986 
980	 0.524357669255201 
981	 0.524480204472522 
982	 0.524537766877569 
983	 0.524755356178431 
984	 0.525344100396305 
985	 0.526090612532884 
986	 0.52669582466589 
987	 0.527176511737722 
988	 0.527674355038124 
989	 0.52788194249868 
990	 0.527586257593274 
991	 0.527357400131455 
992	 0.527538152949891 
993	 0.528209768333047 
994	 0.529177934347107 
995	 0.529882493418858 
996	 0.530445739914699 
997	 0.530743434132815 
998	 0.530775118047383 
999	 0.531182472915491 
1000	 0.531219800666351 
1001	 0.544112136521908 
1002	 0.544559536733647 
1003	 0.545081473460734 
1004	 0.545512586462371 
1005	 0.545924405043012 
1006	 0.546324370165455 
1007	 0.546656555255544 
1008	 0.547074742299223 
1009	 0.547530721317529 
1010	 0.547971366231913 
1011	 0.548431332342746 
1012	 0.548911552824265 
1013	 0.549437252107518 
1014	 0.549884985086917 
1015	 0.550306017234396 
1016	 0.55074803248006 
1017	 0.551134456532955 
1018	 0.55156873430809 
1019	 0.551947023788678 
1020	 0.552281418726479 
1021	 0.552700053347865 
1022	 0.553102517660191 
1023	 0.553496977984853 
1024	 0.554081356056018 
1025	 0.554398155590154 
1026	 0.554485943678907 
1027	 0.554693155002181 
1028	 0.554852825191639 
1029	 0.555023502567581 
1030	 0.5551627044073 
1031	 0.555348670198143 
1032	 0.555533877774574 
1033	 0.555618296894635 
1034	 0.555729904200436 
1035	 0.555825626471772 
1036	 0.555944843958575 
1037	 0.556041854399737 
1038	 0.556114550578946 
1039	 0.556242960671582 
1040	 0.556307458006844 
1041	 0.556232433837094 
1042	 0.556248812657918 
1043	 0.556284895386555 
1044	 0.55638759595047 
1045	 0.556491608211276 
1046	 0.556542898156075 
1047	 0.556667993559235 
1048	 0.556760732000115 
1049	 0.556701546802218 
1050	 0.556726709183213 
1051	 0.556795793453982 
1052	 0.556801878608927 
1053	 0.556875134359739 
1054	 0.557076279105289 
1055	 0.557203896907406 
1056	 0.557251250757478 
1057	 0.557422015597066 
1058	 0.557619607805091 
1059	 0.557870967767541 
1060	 0.558277076400523 
1061	 0.55863812290221 
1062	 0.559045195638639 
1063	 0.559540203391517 
1064	 0.559969277590021 
1065	 0.560480231332095 
1066	 0.561048840335017 
1067	 0.561549259863825 
1068	 0.562151993246851 
1069	 0.562831172711147 
1070	 0.563539972179504 
1071	 0.564290439083923 
1072	 0.565123916554883 
1073	 0.565905162856045 
1074	 0.56672566989035 
1075	 0.567587365505912 
1076	 0.568461730092793 
1077	 0.569476147034875 
1078	 0.570475836918578 
1079	 0.57141040972059 
1080	 0.572406692474037 
1081	 0.573411080652659 
1082	 0.57437864171684 
1083	 0.57538725612865 
1084	 0.57642617330483 
1085	 0.577390679424624 
1086	 0.578310707509212 
1087	 0.579186871877965 
1088	 0.580102700308137 
1089	 0.580998195690344 
1090	 0.581797310499514 
1091	 0.582622539020002 
1092	 0.583434322619935 
1093	 0.584110305494932 
1094	 0.584811222425012 
1095	 0.585500446174864 
1096	 0.586051314620496 
1097	 0.586577051953898 
1098	 0.587064857075806 
1099	 0.587488084395767 
1100	 0.587876631582429 
1101	 0.588218870905042 
1102	 0.588513729268535 
1103	 0.588739607691189 
1104	 0.588922977644291 
1105	 0.58902030824464 
1106	 0.589025976374726 
1107	 0.588995186684581 
1108	 0.588890325996663 
1109	 0.588781855044606 
1110	 0.588671227734333 
1111	 0.588441095782747 
1112	 0.588182595671251 
1113	 0.587847972853836 
1114	 0.587427627772074 
1115	 0.587002515432989 
1116	 0.586521188925665 
1117	 0.586071439759755 
1118	 0.585589210361839 
1119	 0.585105528138492 
1120	 0.584566541570129 
1121	 0.584017213816706 
1122	 0.583374988484332 
1123	 0.582723294336918 
1124	 0.582086038133547 
1125	 0.581404089933485 
1126	 0.58076592093305 
1127	 0.580100904255654 
1128	 0.579339219144 
1129	 0.578564110615328 
1130	 0.577730070332776 
1131	 0.576892513761191 
1132	 0.576132776176602 
1133	 0.575386391333115 
1134	 0.574626498040393 
1135	 0.573803628377014 
1136	 0.572921297429178 
1137	 0.572030084376997 
1138	 0.571108837990948 
1139	 0.570166241930653 
1140	 0.569186686058243 
1141	 0.568241268667966 
1142	 0.567271020752454 
1143	 0.566273185643119 
1144	 0.565354825926613 
1145	 0.564378725467993 
1146	 0.563359833007397 
1147	 0.562325835374766 
1148	 0.561238144025769 
1149	 0.560220464346 
1150	 0.559205929140535 
1151	 0.55816050967809 
1152	 0.557072726070653 
1153	 0.555932017901751 
1154	 0.554789457678325 
1155	 0.553601966834624 
1156	 0.55243300973667 
1157	 0.55128235402879 
1158	 0.550131145570133 
1159	 0.54896841722559 
1160	 0.547814608730734 
1161	 0.546654127598403 
1162	 0.545364790617012 
1163	 0.5441249956511 
1164	 0.542873898936163 
1165	 0.541610348376166 
1166	 0.540455928246916 
1167	 0.539270730566425 
1168	 0.538148756291905 
1169	 0.53702578949893 
1170	 0.535942659147734 
1171	 0.534818265493371 
1172	 0.533702301061687 
1173	 0.532537713246948 
1174	 0.531345947375098 
1175	 0.530174751781609 
1176	 0.529013980712911 
1177	 0.527799011275544 
1178	 0.526573205471755 
1179	 0.525281118543399 
1180	 0.524025591061368 
1181	 0.522713886637591 
1182	 0.521433704959399 
1183	 0.520297209620226 
1184	 0.519138323799315 
1185	 0.518033232876447 
1186	 0.516983940330422 
1187	 0.515989719719313 
1188	 0.515027742186712 
1189	 0.514092849686054 
1190	 0.513243856721534 
1191	 0.512450754021696 
1192	 0.511737898194842 
1193	 0.511120712842055 
1194	 0.510521211869647 
1195	 0.509972698686932 
1196	 0.509463174446304 
1197	 0.509007014309432 
1198	 0.508562517792834 
1199	 0.50810282331131 
1200	 0.507778500102429 
1201	 0.507467048080114 
1202	 0.507177280762135 
1203	 0.507044483956733 
1204	 0.506980608314037 
1205	 0.507016313257015 
1206	 0.507109194087881 
1207	 0.507398294341792 
1208	 0.507768854379845 
1209	 0.508352357345155 
1210	 0.509088929117516 
1211	 0.510052352486222 
1212	 0.51123659305507 
1213	 0.512566627319535 
1214	 0.514099952750393 
1215	 0.515786011368819 
1216	 0.517660026445036 
1217	 0.519612171251524 
1218	 0.52174872517361 
1219	 0.523968072262163 
1220	 0.526233155650866 
1221	 0.528635561693714 
1222	 0.530931198969229 
1223	 0.533261587758617 
1224	 0.535505910424363 
1225	 0.537682429266201 
1226	 0.53979164366188 
1227	 0.541896313011999 
1228	 0.54386672555855 
1229	 0.545750415248376 
1230	 0.547534325670893 
1231	 0.549240059514365 
1232	 0.550835461446203 
1233	 0.552298125451939 
1234	 0.553693025368837 
1235	 0.554951149621617 
1236	 0.556203634983421 
1237	 0.557431938431711 
1238	 0.558570969500252 
1239	 0.559639118791293 
1240	 0.560672713369589 
1241	 0.561686701558795 
1242	 0.562537529736304 
1243	 0.563350130310329 
1244	 0.564115116317037 
1245	 0.564827272085116 
1246	 0.565413228945102 
1247	 0.566043940949057 
1248	 0.566692117713641 
1249	 0.567261767229063 
1250	 0.567796056971098 
1251	 0.568274836456955 
1252	 0.568702239637411 
1253	 0.569083326095169 
1254	 0.569420572736321 
1255	 0.569704037118086 
1256	 0.56993336123795 
1257	 0.570117410616504 
1258	 0.570228534705417 
1259	 0.570327303121448 
1260	 0.570370099275769 
1261	 0.57041822005553 
1262	 0.57042604487874 
1263	 0.570474374257226 
1264	 0.570507902355377 
1265	 0.570535317709107 
1266	 0.570573492157099 
1267	 0.570607597615265 
1268	 0.570671005924824 
1269	 0.570758331103995 
1270	 0.570829071921618 
1271	 0.570918849802872 
1272	 0.570991826390639 
1273	 0.571046610202095 
1274	 0.571108126161296 
1275	 0.571155102698781 
1276	 0.57123329289283 
1277	 0.571282827027622 
1278	 0.571410808035397 
1279	 0.571624084932126 
1280	 0.571807917620016 
1281	 0.572011062726707 
1282	 0.57223776896232 
1283	 0.572443186058494 
1284	 0.572690049121669 
1285	 0.572970813254432 
1286	 0.573299085355671 
1287	 0.573638984064821 
1288	 0.574001135546272 
1289	 0.574386038724699 
1290	 0.574778272573548 
1291	 0.575251555247953 
1292	 0.575768194667547 
1293	 0.576319284803612 
1294	 0.576918656328353 
1295	 0.577582260115894 
1296	 0.578305789586191 
1297	 0.579033686419449 
1298	 0.579827773977668 
1299	 0.580629339102572 
1300	 0.581462803427681 
1301	 0.582258704710963 
1302	 0.583057775051311 
1303	 0.583872349704067 
1304	 0.584649672398685 
1305	 0.585450595595619 
1306	 0.586330443472224 
1307	 0.587145841600053 
1308	 0.587933791318905 
1309	 0.588694265703807 
1310	 0.589411983749972 
1311	 0.590110281313643 
1312	 0.590707381241256 
1313	 0.59125529058621 
1314	 0.591720995200596 
1315	 0.592107193623833 
1316	 0.592414680868646 
1317	 0.592640927125399 
1318	 0.59282776744478 
1319	 0.592948098839116 
1320	 0.592997305126814 
1321	 0.59300958160111 
1322	 0.592933260417478 
1323	 0.59279044648727 
1324	 0.592542688421188 
1325	 0.592215491165757 
1326	 0.591815752823107 
1327	 0.591328384222127 
1328	 0.590758238503963 
1329	 0.59012584833051 
1330	 0.589414767871794 
1331	 0.58863466436342 
1332	 0.587754850079659 
1333	 0.586822972367399 
1334	 0.585761867642295 
1335	 0.584657013169667 
1336	 0.583461563924098 
1337	 0.582211142108221 
1338	 0.580908829012048 
1339	 0.579548146944178 
1340	 0.578126838432264 
1341	 0.576639207322074 
1342	 0.575114600323319 
1343	 0.573492460813729 
1344	 0.571772526709696 
1345	 0.570032879308579 
1346	 0.568225084370941 
1347	 0.566410881487144 
1348	 0.564570048830183 
1349	 0.562700355319754 
1350	 0.560754243539603 
1351	 0.558866925779761 
1352	 0.556982490517463 
1353	 0.555099115902122 
1354	 0.553221695834247 
1355	 0.551382269570995 
1356	 0.549523377714957 
1357	 0.547718024657607 
1358	 0.545936378794034 
1359	 0.544220982947092 
1360	 0.542580286897863 
1361	 0.540931528270486 
1362	 0.539302667773635 
1363	 0.537777491864086 
1364	 0.536179672566492 
1365	 0.534581593486563 
1366	 0.532947126166865 
1367	 0.531293254597923 
1368	 0.529628010774242 
1369	 0.527962559722438 
1370	 0.526215140387366 
1371	 0.524418961541711 
1372	 0.522640958045771 
1373	 0.52083480094349 
1374	 0.518969911508506 
1375	 0.517109955436119 
1376	 0.515163096136938 
1377	 0.513128840229082 
1378	 0.51102936169116 
1379	 0.508833039015906 
1380	 0.506673392626388 
1381	 0.504439075616799 
1382	 0.502230270223279 
1383	 0.500018160049684 
1384	 0.497862635899511 
1385	 0.495690844936672 
1386	 0.493598126419309 
1387	 0.491577746556408 
1388	 0.48962317673062 
1389	 0.48770152126611 
1390	 0.485857205278063 
1391	 0.484145109964245 
1392	 0.482375113250863 
1393	 0.480770452667401 
1394	 0.479093534427163 
1395	 0.477282847865114 
1396	 0.475478855705445 
1397	 0.473458578169192 
1398	 0.471320907677754 
1399	 0.468945915890441 
1400	 0.466447716358845 
1401	 0.463663609206101 
1402	 0.460635288215678 
1403	 0.457391340028711 
1404	 0.453871035613675 
1405	 0.450303656342598 
1406	 0.446486407399009 
1407	 0.442692399964812 
1408	 0.438696645041208 
1409	 0.43492050150142 
1410	 0.431054688492004 
1411	 0.427476788895563 
1412	 0.424046542632407 
1413	 0.420879625029224 
1414	 0.41792785266836 
1415	 0.415139420876558 
1416	 0.412634549222057 
1417	 0.410176735394289 
1418	 0.407883792117279 
1419	 0.405623481494452 
1420	 0.403459812318926 
1421	 0.401365100875849 
1422	 0.399325145944458 
1423	 0.397354952789845 
1424	 0.395492170784941 
1425	 0.393606068282874 
1426	 0.391896083305953 
1427	 0.390272661480452 
1428	 0.388761840498894 
1429	 0.387473735064955 
1430	 0.386242007230461 
1431	 0.385107536707307 
1432	 0.384105559071008 
1433	 0.383227881510723 
1434	 0.382457604242111 
1435	 0.381817087391435 
1436	 0.381254379196356 
1437	 0.380801388231707 
1438	 0.380432511087339 
1439	 0.380147231754777 
1440	 0.379964622575749 
1441	 0.379906701310251 
1442	 0.379879864765401 
1443	 0.379929079265364 
1444	 0.38005207035595 
1445	 0.380247497877418 
1446	 0.380481205793205 
1447	 0.380805506820916 
1448	 0.381138954323453 
1449	 0.381512036233974 
1450	 0.381901934300759 
1451	 0.382352492396332 
1452	 0.382772802352764 
1453	 0.383182307052355 
1454	 0.383608291845503 
1455	 0.384045306455135 
1456	 0.384470966889026 
1457	 0.384907678052001 
1458	 0.385338710119995 
1459	 0.385738908416486 
1460	 0.386169701465941 
1461	 0.386618146191966 
1462	 0.387068288312487 
1463	 0.387494264884677 
1464	 0.387987069567395 
1465	 0.388504174087659 
1466	 0.38907825908013 
1467	 0.389670570449442 
1468	 0.390270593368647 
1469	 0.390863070169856 
1470	 0.391439766275424 
1471	 0.392029002440317 
1472	 0.392639755203518 
1473	 0.3932243114115 
1474	 0.393799732812084 
1475	 0.394363625054676 
1476	 0.394921692104878 
1477	 0.395460565092305 
1478	 0.395967542985529 
1479	 0.396504591632229 
1480	 0.397041345718549 
1481	 0.397583725591987 
1482	 0.39816050944894 
1483	 0.398691458292929 
1484	 0.399205427204505 
1485	 0.399702680191237 
1486	 0.400182814000483 
1487	 0.400635736223853 
1488	 0.401057056733301 
1489	 0.401487795167983 
1490	 0.401886821258285 
1491	 0.402316534920458 
1492	 0.402741506623577 
1493	 0.403212715069391 
1494	 0.403728591640824 
1495	 0.40421991148745 
1496	 0.404723225352802 
1497	 0.40524260292533 
1498	 0.405758769357721 
1499	 0.406278592189979 
1500	 0.406811675538888 
1501	 0.407366028438055 
1502	 0.407919136966307 
1503	 0.408481742342527 
1504	 0.409079617817131 
1505	 0.409674041333728 
1506	 0.410291955246805 
1507	 0.410866182465673 
1508	 0.411434748135491 
1509	 0.411981380188254 
1510	 0.412474447163921 
1511	 0.41297431344495 
1512	 0.413465419076153 
1513	 0.413963703509316 
1514	 0.414459627164018 
1515	 0.41495231354839 
1516	 0.415460721954721 
1517	 0.415951056201357 
1518	 0.416432405473753 
1519	 0.416896502788499 
1520	 0.41736128702189 
1521	 0.417787656143987 
1522	 0.418175661344962 
1523	 0.418575483415155 
1524	 0.41895085560573 
1525	 0.419293108103652 
1526	 0.419665066740847 
1527	 0.42004876724318 
1528	 0.420399456514325 
1529	 0.420741624031559 
1530	 0.421089543890106 
1531	 0.421412729316595 
1532	 0.42176346365854 
1533	 0.422141232041153 
1534	 0.422493984500628 
1535	 0.42284668516183 
1536	 0.423174678096316 
1537	 0.423488537758083 
1538	 0.423797096631064 
1539	 0.424087661845928 
1540	 0.424377860966767 
1541	 0.424666783434325 
1542	 0.42494493762004 
1543	 0.425215589832666 
1544	 0.425472027321978 
1545	 0.425732708900792 
1546	 0.425948347637594 
1547	 0.426143210315962 
1548	 0.426304608217701 
1549	 0.426435056460579 
1550	 0.426531882226316 
1551	 0.426598642526227 
1552	 0.426634894596144 
1553	 0.426622257341023 
1554	 0.426614605091662 
1555	 0.426573458911191 
1556	 0.426554148467976 
1557	 0.426523969947493 
1558	 0.426522280927793 
1559	 0.426523758649029 
1560	 0.426563232708518 
1561	 0.42662361043527 
1562	 0.426717381361196 
1563	 0.426859544015511 
1564	 0.426991968297868 
1565	 0.427152124334613 
1566	 0.427299961998017 
1567	 0.427439391944819 
1568	 0.427592657816062 
1569	 0.427745851514688 
1570	 0.4279167867474 
1571	 0.428084395773591 
1572	 0.428294654648256 
1573	 0.428539754178337 
1574	 0.428787740447039 
1575	 0.429083228996399 
1576	 0.429345429023041 
1577	 0.429585349512161 
1578	 0.429846335150208 
1579	 0.430126766313817 
1580	 0.430372479341814 
1581	 0.430605070956037 
1582	 0.43084724649973 
1583	 0.431055162230745 
1584	 0.431293196445971 
1585	 0.431563882316861 
1586	 0.431827179307355 
1587	 0.432080049262978 
1588	 0.432357388355335 
1589	 0.432666038792873 
1590	 0.432951463803446 
1591	 0.433243438927928 
1592	 0.433527803324789 
1593	 0.433782874879733 
1594	 0.434060124349589 
1595	 0.434353285054822 
1596	 0.434640365419923 
1597	 0.434935009170896 
1598	 0.4352240250686 
1599	 0.43552279810228 
1600	 0.435794022118999 
1601	 0.436061794846374 
1602	 0.436301958188693 
1603	 0.436494205080771 
1604	 0.436706383601757 
1605	 0.436921111272763 
1606	 0.437120023159471 
1607	 0.437328218889998 
1608	 0.43751332970528 
1609	 0.437689329481182 
1610	 0.437823048271144 
1611	 0.437917092688241 
1612	 0.438013176351752 
1613	 0.438077728608732 
1614	 0.438142798305994 
1615	 0.438209463683033 
1616	 0.438269294406308 
1617	 0.438326486068697 
1618	 0.43835665277879 
1619	 0.43840287479532 
1620	 0.438390132473615 
1621	 0.438328081243389 
1622	 0.438241775239507 
1623	 0.438092066175383 
1624	 0.437958741743965 
1625	 0.437813879906599 
1626	 0.437662020877377 
1627	 0.437521361749552 
1628	 0.437351843370093 
1629	 0.437142203759965 
1630	 0.436955999664538 
1631	 0.436742036890845 
1632	 0.436571314840356 
1633	 0.436446366735972 
1634	 0.43630632300184 
1635	 0.436213917337947 
1636	 0.436066820047274 
1637	 0.435863353907193 
1638	 0.435688480723858 
1639	 0.435538658038601 
1640	 0.435319702623123 
1641	 0.435122678900801 
1642	 0.43483194936953 
1643	 0.43442518148278 
1644	 0.434022183845463 
1645	 0.433594637443451 
1646	 0.433114528946395 
1647	 0.4325847165065 
1648	 0.43204530084062 
1649	 0.43146139413026 
1650	 0.430858764811314 
1651	 0.430272995072863 
1652	 0.429615008367898 
1653	 0.428897705719844 
1654	 0.428152959160015 
1655	 0.427373507239409 
1656	 0.426535406387328 
1657	 0.425678592535033 
1658	 0.424719841836096 
1659	 0.423682494489264 
1660	 0.422588862571332 
1661	 0.421429104478434 
1662	 0.420184473818821 
1663	 0.418875666548224 
1664	 0.417457058211713 
1665	 0.41594844325995 
1666	 0.414336254901776 
1667	 0.412628643353256 
1668	 0.41083757251693 
1669	 0.409000256496944 
1670	 0.406956891925325 
1671	 0.404772292093332 
1672	 0.402441897352277 
1673	 0.399929073562518 
1674	 0.397286575488646 
1675	 0.394528679399722 
1676	 0.391668219357966 
1677	 0.388631380350913 
1678	 0.385542046461294 
1679	 0.38233065406271 
1680	 0.379066656121324 
1681	 0.375720914259383 
1682	 0.372301182329499 
1683	 0.368825783850731 
1684	 0.365310543960701 
1685	 0.361696497812816 
1686	 0.358082574531421 
1687	 0.354370797679848 
1688	 0.350714042746639 
1689	 0.347046489402703 
1690	 0.343399590637291 
1691	 0.339805039361436 
1692	 0.336278717819914 
1693	 0.332794340044934 
1694	 0.329289911810717 
1695	 0.325824366658674 
1696	 0.322299760243626 
1697	 0.318781719641032 
1698	 0.315117390125902 
1699	 0.311384479417713 
1700	 0.307716409900187 
1701	 0.303897562849129 
1702	 0.300298344487183 
1703	 0.296747658160076 
1704	 0.293388559052847 
1705	 0.290116804029477 
1706	 0.286981213260031 
1707	 0.284286942302396 
1708	 0.281682009686076 
1709	 0.279227665903127 
1710	 0.277017525981835 
1711	 0.274818098461462 
1712	 0.272823080864591 
1713	 0.270896571384521 
1714	 0.268969703641296 
1715	 0.267244987645334 
1716	 0.265512901762884 
1717	 0.26388506545666 
1718	 0.262381145771789 
1719	 0.260847792005496 
1720	 0.25949102585326 
1721	 0.258263930107674 
1722	 0.257163201041556 
1723	 0.256372979992049 
1724	 0.255744726587909 
1725	 0.255339060447394 
1726	 0.255303533951784 
1727	 0.255559927043681 
1728	 0.25614173827677 
1729	 0.257122828863232 
1730	 0.258466286279316 
1731	 0.26002527761779 
1732	 0.261898878819736 
1733	 0.263908847635 
1734	 0.266047911256256 
1735	 0.268321108438381 
1736	 0.270454579179764 
1737	 0.272475716368929 
1738	 0.274253161014839 
1739	 0.27570899665935 
1740	 0.276935385822361 
1741	 0.277889781427916 
1742	 0.278546843619856 
1743	 0.278985312360006 
1744	 0.279134449801484 
1745	 0.279110401343753 
1746	 0.278743019865975 
1747	 0.278422937122428 
1748	 0.277930710477492 
1749	 0.277515610033111 
1750	 0.277054349341183 
1751	 0.276709673824438 
1752	 0.276393608390259 
1753	 0.276161545154373 
1754	 0.276013374491084 
1755	 0.275932756475149 
1756	 0.275835595884385 
1757	 0.275996455840369 
1758	 0.276359095506829 
1759	 0.276911800446563 
1760	 0.277704454841173 
1761	 0.278719132057391 
1762	 0.279894527326836 
1763	 0.281390937171357 
1764	 0.283084622854229 
1765	 0.284947806364453 
1766	 0.287073675325006 
1767	 0.289181930707897 
1768	 0.291352686477212 
1769	 0.293565922246832 
1770	 0.295586823928634 
1771	 0.297621170536508 
1772	 0.299595760455365 
1773	 0.30144333646498 
1774	 0.303329516286352 
1775	 0.305044966430352 
1776	 0.306643671992218 
1777	 0.308140081674667 
1778	 0.309395818760535 
1779	 0.310589039626821 
1780	 0.311689733628403 
1781	 0.312636962704465 
1782	 0.313529148753954 
1783	 0.314328468577393 
1784	 0.315033765098823 
1785	 0.31567744635046 
1786	 0.316229920328039 
1787	 0.316678998744738 
1788	 0.317082873266311 
1789	 0.317393219116096 
1790	 0.317695009131577 
1791	 0.317925708041148 
1792	 0.318154714228395 
1793	 0.31837221015457 
1794	 0.318511385147632 
1795	 0.318681595580498 
1796	 0.318885098705575 
1797	 0.319126530920896 
1798	 0.319381923337409 
1799	 0.319697309318118 
1800	 0.320011659764629 
1801	 0.321536887941375 
1802	 0.321912541449115 
1803	 0.322316994567134 
1804	 0.322741690689971 
1805	 0.323240705843379 
1806	 0.323641364194584 
1807	 0.324017456075478 
1808	 0.324396118485614 
1809	 0.324726415339183 
1810	 0.325064977353988 
1811	 0.325425271773133 
1812	 0.325763410516751 
1813	 0.32604133448028 
1814	 0.326387518522467 
1815	 0.326724074035132 
1816	 0.327058741989008 
1817	 0.327440269180954 
1818	 0.327841145923172 
1819	 0.328258137900459 
1820	 0.32872800233077 
1821	 0.329178427535233 
1822	 0.329623303393483 
1823	 0.330112290397059 
1824	 0.33054781037349 
1825	 0.330980414455313 
1826	 0.331416755628346 
1827	 0.33183268309806 
1828	 0.33226008103632 
1829	 0.33269179513096 
1830	 0.333130612061732 
1831	 0.333578333165513 
1832	 0.334023164507228 
1833	 0.334437596400818 
1834	 0.334902898061752 
1835	 0.335312060604099 
1836	 0.335685504926282 
1837	 0.336101187385945 
1838	 0.336510769294475 
1839	 0.336940383454787 
1840	 0.337414116667892 
1841	 0.337872256306713 
1842	 0.338355097780633 
1843	 0.338798213358121 
1844	 0.339194633025222 
1845	 0.339559316821057 
1846	 0.33990753552028 
1847	 0.340263381938623 
1848	 0.340610137083045 
1849	 0.341006286725534 
1850	 0.341302457422883 
1851	 0.341567219405705 
1852	 0.341768934153158 
1853	 0.341900779003575 
1854	 0.341997980696858 
1855	 0.342056760307732 
1856	 0.342074409416712 
1857	 0.342021178152702 
1858	 0.341896211111138 
1859	 0.341712539061929 
1860	 0.341429724547717 
1861	 0.341122510584239 
1862	 0.340770999302536 
1863	 0.340409452892508 
1864	 0.339933719193266 
1865	 0.339381403926125 
1866	 0.338750498246919 
1867	 0.33794492096765 
1868	 0.337038985617372 
1869	 0.336041524622736 
1870	 0.334954822840342 
1871	 0.333761560807508 
1872	 0.332528233591282 
1873	 0.331223181147403 
1874	 0.329879119390571 
1875	 0.328492491019714 
1876	 0.326833538391333 
1877	 0.32514761517459 
1878	 0.32329419458807 
1879	 0.321233969580447 
1880	 0.319186243576003 
1881	 0.316862798156085 
1882	 0.314337558316728 
1883	 0.311641834304819 
1884	 0.308677016243176 
1885	 0.305276947829927 
1886	 0.30176366469498 
1887	 0.297926306141912 
1888	 0.293789635572871 
1889	 0.289804587362282 
1890	 0.285491807747844 
1891	 0.281112860524929 
1892	 0.276766955460821 
1893	 0.272229410231831 
1894	 0.267424722609716 
1895	 0.262805893961285 
1896	 0.258103315407589 
1897	 0.253347764274303 
1898	 0.248974340037941 
1899	 0.244556234092777 
1900	 0.240263622513338 
1901	 0.236172337335771 
1902	 0.231916595377639 
1903	 0.227905386062972 
1904	 0.224036905775574 
1905	 0.220249629386526 
1906	 0.216618867034837 
1907	 0.213438127777734 
1908	 0.210266338713286 
1909	 0.207276115877716 
1910	 0.204530220938849 
1911	 0.201709519478298 
1912	 0.199128142982076 
1913	 0.196728007412524 
1914	 0.194380335232451 
1915	 0.192263825737327 
1916	 0.190384506335408 
1917	 0.188588695720978 
1918	 0.186927223730389 
1919	 0.18547703804423 
1920	 0.184069110156084 
1921	 0.182812227660707 
1922	 0.181638085640351 
1923	 0.180547502027075 
1924	 0.179641342017724 
1925	 0.178795392265207 
1926	 0.178037678023098 
1927	 0.177393406762272 
1928	 0.176814759007937 
1929	 0.1762946823918 
1930	 0.175888777950885 
1931	 0.175586091742479 
1932	 0.175360351566488 
1933	 0.175238157288097 
1934	 0.175189757023793 
1935	 0.175187060561117 
1936	 0.175266629813994 
1937	 0.175425279143181 
1938	 0.175643181541678 
1939	 0.175949220488756 
1940	 0.176347003259434 
1941	 0.176833344156476 
1942	 0.177315686808016 
1943	 0.177902144415513 
1944	 0.178530920303785 
1945	 0.179152224186366 
1946	 0.179882679633424 
1947	 0.180600001590582 
1948	 0.181330682158744 
1949	 0.182116067977187 
1950	 0.182886461763696 
1951	 0.183660143005189 
1952	 0.184466013316212 
1953	 0.185291560446421 
1954	 0.186092853953326 
1955	 0.186978967581138 
1956	 0.187874316270158 
1957	 0.188796421284824 
1958	 0.189789766754103 
1959	 0.190710687201553 
1960	 0.191628829598821 
1961	 0.192542402524992 
1962	 0.193415047161316 
1963	 0.194306410458266 
1964	 0.195215702989224 
1965	 0.196105289308028 
1966	 0.1969859760381 
1967	 0.197884248671361 
1968	 0.198721579114883 
1969	 0.199605157325347 
1970	 0.200469994880871 
1971	 0.201327020218784 
1972	 0.202266752391225 
1973	 0.203146619817967 
1974	 0.204021707163627 
1975	 0.204923864759159 
1976	 0.205765350209875 
1977	 0.20656175830922 
1978	 0.207355135503824 
1979	 0.208119252820056 
1980	 0.208842001196949 
1981	 0.209649006421217 
1982	 0.210418844258716 
1983	 0.211177751039241 
1984	 0.211947914441451 
1985	 0.212623684229716 
1986	 0.213277388305141 
1987	 0.213941085617043 
1988	 0.214595346108059 
1989	 0.215255603677915 
1990	 0.215919639281757 
1991	 0.216560071672368 
1992	 0.21720523492749 
1993	 0.217835372264545 
1994	 0.218397619694724 
1995	 0.218961057529641 
1996	 0.21947489215344 
1997	 0.219914605859537 
1998	 0.220367155514682 
1999	 0.220797491829265 
2000	 0.221191891370757 
2001	 0.221572171249382 
2002	 0.221931479844205 
2003	 0.22225262918923 
2004	 0.222567789708772 
2005	 0.222901916082722 
2006	 0.223151703373773 
2007	 0.223357551820712 
2008	 0.223520792624004 
2009	 0.223623172326241 
2010	 0.223678409447243 
2011	 0.223672129104016 
2012	 0.223557166091515 
2013	 0.223401982184968 
2014	 0.22315529035163 
2015	 0.222892905999428 
2016	 0.222594816027137 
2017	 0.222243660677585 
2018	 0.221836433298049 
2019	 0.221393659870465 
2020	 0.220901900870082 
2021	 0.220371408195785 
2022	 0.219815753930823 
2023	 0.219210360453206 
2024	 0.218499327290051 
2025	 0.217731567430284 
2026	 0.216921757301973 
2027	 0.216002530484111 
2028	 0.215110059341286 
2029	 0.214192769677655 
2030	 0.21326582240238 
2031	 0.212301280237679 
2032	 0.211369545389747 
2033	 0.210418147221259 
2034	 0.209526438289533 
2035	 0.208664330830365 
2036	 0.207812149359627 
2037	 0.207063388008257 
2038	 0.206260210685532 
2039	 0.205516196938215 
2040	 0.204783719537827 
2041	 0.204141899899196 
2042	 0.20354388228357 
2043	 0.203006666210995 
2044	 0.202555765307652 
2045	 0.202133742983697 
2046	 0.201756030022693 
2047	 0.201412660036078 
2048	 0.201150350236356 
2049	 0.200865234756164 
2050	 0.200601837208549 
2051	 0.200334364634409 
2052	 0.200068362224342 
2053	 0.199831211120394 
2054	 0.19963650596903 
2055	 0.199487102099886 
2056	 0.19933487864289 
2057	 0.199206464476665 
2058	 0.199099649143124 
2059	 0.199017653728084 
2060	 0.198926865428688 
2061	 0.198867509214283 
2062	 0.198791506815922 
2063	 0.19869907920357 
2064	 0.198615879347466 
2065	 0.198553165759519 
2066	 0.198462979109972 
2067	 0.198360172443502 
2068	 0.198255839950609 
2069	 0.198159567282251 
2070	 0.198057217321598 
2071	 0.197961199351516 
2072	 0.197889476562124 
2073	 0.197779104519448 
2074	 0.197657113098452 
2075	 0.197517447160643 
2076	 0.197349471355133 
2077	 0.197181091796901 
2078	 0.19700597051921 
2079	 0.196817209824837 
2080	 0.196598781891605 
2081	 0.196407410148391 
2082	 0.196218514301793 
2083	 0.19601946174802 
2084	 0.195859862938935 
2085	 0.195715943484301 
2086	 0.195564594461457 
2087	 0.195426925900273 
2088	 0.195267012392639 
2089	 0.195119537136399 
2090	 0.19492008357643 
2091	 0.194673254019135 
2092	 0.194449706311696 
2093	 0.194168467228113 
2094	 0.193963115129217 
2095	 0.193836980436714 
2096	 0.193661055978903 
2097	 0.193507370277736 
2098	 0.193318498014639 
2099	 0.193128617951993 
2100	 0.192916741372859 
2101	 0.192686999411677 
2102	 0.192464362460281 
2103	 0.192215397176828 
2104	 0.191900893762161 
2105	 0.191643439805097 
2106	 0.191410694717553 
2107	 0.191169108443653 
2108	 0.19096094266696 
2109	 0.190710065120469 
2110	 0.190435398425947 
2111	 0.190154661583129 
2112	 0.18986720437342 
2113	 0.189546585382962 
2114	 0.189183585366146 
2115	 0.188849260400545 
2116	 0.188502508362278 
2117	 0.188144008883816 
2118	 0.187821597457287 
2119	 0.187548061828136 
2120	 0.187234155792527 
2121	 0.186891574964597 
2122	 0.18660004103218 
2123	 0.186340221911282 
2124	 0.186038645908364 
2125	 0.185750548714945 
2126	 0.185461086832323 
2127	 0.185089785323777 
2128	 0.184823650652495 
2129	 0.184645354321979 
2130	 0.184428028683996 
2131	 0.184250205627855 
2132	 0.184059442757398 
2133	 0.183834665089519 
2134	 0.183637023265199 
2135	 0.183467879326906 
2136	 0.183270581967125 
2137	 0.183080951175198 
2138	 0.182878997205818 
2139	 0.182711869956025 
2140	 0.182553939869005 
2141	 0.18240447276302 
2142	 0.182272214443729 
2143	 0.182159645399189 
2144	 0.182062072886631 
2145	 0.181968695652147 
2146	 0.181880162151837 
2147	 0.181830251889798 
2148	 0.181790581687961 
2149	 0.181773616528316 
2150	 0.181798824793623 
2151	 0.181838009132793 
2152	 0.181910555808108 
2153	 0.181970420665214 
2154	 0.181996358978772 
2155	 0.182058419631842 
2156	 0.182089492054314 
2157	 0.182072240605914 
2158	 0.182093418215215 
2159	 0.182159900229933 
2160	 0.18214888938202 
2161	 0.182098692204379 
2162	 0.182073020625084 
2163	 0.182014679685088 
2164	 0.181974987914787 
2165	 0.181935789511368 
2166	 0.18193064283036 
2167	 0.181909546129781 
2168	 0.181946480157586 
2169	 0.182067028831621 
2170	 0.182156829220794 
2171	 0.182280653947534 
2172	 0.182374887438 
2173	 0.182428458761361 
2174	 0.182504557229444 
2175	 0.182625962653901 
2176	 0.182705493700526 
2177	 0.182885832214932 
2178	 0.183152625325439 
2179	 0.183373034138396 
2180	 0.183629677151577 
2181	 0.183855781511896 
2182	 0.184048952888038 
2183	 0.184268006313481 
2184	 0.184489220106159 
2185	 0.184732063691032 
2186	 0.18498292071887 
2187	 0.185252164390995 
2188	 0.185565781364782 
2189	 0.185847187148107 
2190	 0.186122235464372 
2191	 0.186401169601822 
2192	 0.186662293006408 
2193	 0.186931807586286 
2194	 0.18722831341321 
2195	 0.187501065802375 
2196	 0.187780525091063 
2197	 0.188029689305546 
2198	 0.188212871657806 
2199	 0.188374482225672 
2200	 0.188549203301035 
2201	 0.188684782404669 
2202	 0.188843388535133 
2203	 0.189055009816954 
2204	 0.189167592925828 
2205	 0.189210340962553 
2206	 0.189298666045159 
2207	 0.189360674220504 
2208	 0.189434923149733 
2209	 0.189568164123281 
2210	 0.189612343252067 
2211	 0.189603766711589 
2212	 0.189582342408925 
2213	 0.18951060238461 
2214	 0.189444333417122 
2215	 0.189389417787405 
2216	 0.189281922301019 
2217	 0.189171493395602 
2218	 0.188997469097303 
2219	 0.188749756415215 
2220	 0.188485232296255 
2221	 0.188206687121411 
2222	 0.187838986486019 
2223	 0.187483247388727 
2224	 0.187069020737086 
2225	 0.186543977214971 
2226	 0.185987901779252 
2227	 0.185320539742126 
2228	 0.184539427838911 
2229	 0.183743558624629 
2230	 0.182856718374921 
2231	 0.181971353213 
2232	 0.181097632308052 
2233	 0.180071052875815 
2234	 0.179058486729985 
2235	 0.177775115489038 
2236	 0.176275311773314 
2237	 0.174716061391383 
2238	 0.172935222914447 
2239	 0.171169343199198 
2240	 0.169398674455348 
2241	 0.16745521437359 
2242	 0.165427296042418 
2243	 0.163269578283534 
2244	 0.160921574709475 
2245	 0.158543755252803 
2246	 0.155989192795135 
2247	 0.153501066779052 
2248	 0.151014095158616 
2249	 0.14847333802627 
2250	 0.145915096253751 
2251	 0.143386934258412 
2252	 0.140681125648779 
2253	 0.138046290640627 
2254	 0.135450435107707 
2255	 0.132840031296101 
2256	 0.130481863862001 
2257	 0.128125918447612 
2258	 0.125863168603069 
2259	 0.123760599823677 
2260	 0.12160085733611 
2261	 0.119418127985426 
2262	 0.117393016190918 
2263	 0.115371240767955 
2264	 0.113548509880825 
2265	 0.111916744346998 
2266	 0.110295255249429 
2267	 0.108854179200283 
2268	 0.107329651298611 
2269	 0.105789993557468 
2270	 0.104327366507279 
2271	 0.102852100254009 
2272	 0.101467227869563 
2273	 0.100227230113874 
2274	 9.89034343511266E-02 
2275	 9.76448915867413E-02 
2276	 9.62911346296821E-02 
2277	 9.48019794686716E-02 
2278	 9.34343675942005E-02 
2279	 0.092053590005119 
2280	 9.07024753337573E-02 
2281	 8.94824870949636E-02 
2282	 8.81751987090935E-02 
2283	 0.086879171307627 
2284	 8.54944323359856E-02 
2285	 8.39295426953889E-02 
2286	 8.24853121102669E-02 
2287	 8.09186418192187E-02 
2288	 0.079399211230686 
2289	 7.80770805901493E-02 
2290	 7.66022871021312E-02 
2291	 7.52108667559211E-02 
2292	 7.37763422603084E-02 
2293	 7.21974409894871E-02 
2294	 7.07555005056388E-02 
2295	 6.92889891188348E-02 
2296	 6.78587599382559E-02 
2297	 6.66314652156863E-02 
2298	 6.55038846621117E-02 
2299	 6.46157506830051E-02 
2300	 6.39380264598186E-02 
2301	 6.33735769652694E-02 
2302	 6.29908211562108E-02 
2303	 6.27814882354436E-02 
2304	 6.26988681357348E-02 
2305	 6.28434038828644E-02 
2306	 0.063218999198491 
2307	 6.37655974912556E-02 
2308	 6.45379269361383E-02 
2309	 6.54215189448668E-02 
2310	 6.65242859307738E-02 
2311	 6.77172033468891E-02 
2312	 6.91408625439202E-02 
2313	 7.04461029246847E-02 
2314	 7.18940910927841E-02 
2315	 7.31956149106963E-02 
2316	 7.43862232029293E-02 
2317	 7.55419122689058E-02 
2318	 0.076716823004225 
2319	 7.76979414243045E-02 
2320	 7.86572658957302E-02 
2321	 7.93197051462843E-02 
2322	 7.96827343463539E-02 
2323	 8.00152387087816E-02 
2324	 8.01327750790067E-02 
2325	 8.01989496292459E-02 
2326	 8.02550541505769E-02 
2327	 8.01157653674405E-02 
2328	 7.97285564676072E-02 
2329	 7.93425965208848E-02 
2330	 7.88399631023648E-02 
2331	 0.078299097131086 
2332	 7.77717467083555E-02 
2333	 7.71471581794363E-02 
2334	 7.63910465307418E-02 
2335	 0.075537176878661 
2336	 7.45302646901289E-02 
2337	 7.34319086508619E-02 
2338	 7.23191873315073E-02 
2339	 7.11236615647026E-02 
2340	 7.01037692600743E-02 
2341	 6.92066954117735E-02 
2342	 6.83099599937676E-02 
2343	 6.76706216045637E-02 
2344	 6.70668937024894E-02 
2345	 0.066581911609848 
2346	 6.64483932002594E-02 
2347	 6.64532428475532E-02 
2348	 6.66395803083733E-02 
2349	 6.71536333869894E-02 
2350	 6.78043626319686E-02 
2351	 6.86670704981316E-02 
2352	 6.96938701093191E-02 
2353	 7.06916758414831E-02 
2354	 7.16627309459727E-02 
2355	 7.25950460804001E-02 
2356	 7.34197213324075E-02 
2357	 7.41651654333205E-02 
2358	 7.48385671327846E-02 
2359	 7.53453556605906E-02 
2360	 7.57940518548766E-02 
2361	 0.076080216875351 
2362	 7.61581094420703E-02 
2363	 7.61716058157188E-02 
2364	 0.076166840648754 
2365	 0.076198178144115 
2366	 7.62839606261131E-02 
2367	 7.64484679119029E-02 
2368	 7.66280595682623E-02 
2369	 7.67262680306619E-02 
2370	 7.68367438109245E-02 
2371	 0.076861969323318 
2372	 7.67845806629325E-02 
2373	 7.67186181401529E-02 
2374	 7.65746395321623E-02 
2375	 7.65019076652412E-02 
2376	 7.65566818024564E-02 
2377	 7.65162831569806E-02 
2378	 7.65304505474161E-02 
2379	 7.66950705090974E-02 
2380	 7.67452126898525E-02 
2381	 7.69067035913183E-02 
2382	 7.70142424225041E-02 
2383	 7.70609003403004E-02 
2384	 7.71282195076426E-02 
2385	 7.72195477021718E-02 
2386	 7.73065941002054E-02 
2387	 0.077443078270342 
2388	 7.75674057796029E-02 
2389	 7.76506933327778E-02 
2390	 7.77582208014967E-02 
2391	 7.78944115420623E-02 
2392	 7.79277220350463E-02 
2393	 7.79489460684799E-02 
2394	 7.79548072294359E-02 
2395	 7.78614411752726E-02 
2396	 7.78372169462924E-02 
2397	 7.77927673920541E-02 
2398	 7.78666084261798E-02 
2399	 7.80804630408418E-02 
2400	 7.81121501088714E-02 
2401	 7.81726759222024E-02 
2402	 7.81753034861801E-02 
2403	 7.79766132372352E-02 
2404	 7.79367634626541E-02 
2405	 7.79689758941829E-02 
2406	 7.79284701456507E-02 
2407	 7.78789600446975E-02 
2408	 0.077836746372854 
2409	 7.78451820347394E-02 
2410	 7.76812367198187E-02 
2411	 7.76311767203759E-02 
2412	 7.77541150104051E-02 
2413	 7.76786791058362E-02 
2414	 7.76140327065105E-02 
2415	 7.75891476295532E-02 
2416	 7.73766288801223E-02 
2417	 7.72904531413846E-02 
2418	 7.74129278419552E-02 
2419	 7.73605551679478E-02 
2420	 7.72400877382464E-02 
2421	 7.70288721514035E-02 
2422	 7.69323713723523E-02 
2423	 7.70500546990278E-02 
2424	 7.71375786569601E-02 
2425	 7.72859396494333E-02 
2426	 7.71742766665974E-02 
2427	 7.66956760081442E-02 
2428	 7.61408708165472E-02 
2429	 7.57868509285891E-02 
2430	 7.55899783728246E-02 
2431	 7.54300832042477E-02 
2432	 7.54529842984364E-02 
2433	 7.52853420731014E-02 
2434	 7.50011865068208E-02 
2435	 7.49843632705884E-02 
2436	 7.48334779975262E-02 
2437	 7.43793438167964E-02 
2438	 7.40359152916269E-02 
2439	 0.073829478506934 
2440	 7.36188689350136E-02 
2441	 7.36988180612397E-02 
2442	 0.073627297303123 
2443	 7.32387542871721E-02 
2444	 7.30073260088175E-02 
2445	 7.26656850166109E-02 
2446	 7.23420619909057E-02 
2447	 7.20571619733579E-02 
2448	 7.15863122210796E-02 
2449	 7.13478386532515E-02 
2450	 7.10669495648225E-02 
2451	 7.06110634274678E-02 
2452	 0.070288570937985 
2453	 6.98308434957964E-02 
2454	 6.94009207783364E-02 
2455	 0.069162859409687 
2456	 6.87091872587743E-02 
2457	 6.81565174522893E-02 
2458	 6.80695143111929E-02 
2459	 6.79946982543148E-02 
2460	 6.74968471811403E-02 
2461	 6.71967834622108E-02 
2462	 6.69852413227357E-02 
2463	 0.066428571693028 
2464	 6.62365851500297E-02 
2465	 6.60999632536528E-02 
2466	 6.54183879051572E-02 
2467	 6.52651384546811E-02 
2468	 6.53544567468733E-02 
2469	 6.53442742071632E-02 
2470	 6.55246659500836E-02 
2471	 6.51468374102716E-02 
2472	 6.46970245784347E-02 
2473	 6.44577597518357E-02 
2474	 6.43606641245972E-02 
2475	 6.45461024646537E-02 
2476	 6.45519091985588E-02 
2477	 6.44898148559797E-02 
2478	 6.44174824466537E-02 
2479	 6.41807950534409E-02 
2480	 0.063770820286191 
2481	 6.35541436260577E-02 
2482	 6.32394721225259E-02 
2483	 6.29156415559297E-02 
2484	 6.27878935910417E-02 
2485	 6.30296224304419E-02 
2486	 6.28962136879026E-02 
2487	 6.23880107463212E-02 
2488	 6.24097649808851E-02 
2489	 6.23940460504158E-02 
2490	 0.062185660624456 
2491	 6.28545640773549E-02 
2492	 6.30061564627302E-02 
2493	 6.26591393351528E-02 
2494	 6.32378793556263E-02 
2495	 6.32200179208342E-02 
2496	 6.35509616727676E-02 
2497	 6.41333495347995E-02 
2498	 6.35800666519974E-02 
2499	 6.35340631399352E-02 
2500	 6.35492279907111E-02 
