Wavelength	spectrum00013.asd
350	 0.042000655545258 
351	 3.78607363297692E-02 
352	 3.00343818578258E-02 
353	 2.51818065624796E-02 
354	 2.72412551674861E-02 
355	 0.029720403229205 
356	 3.10313667298827E-02 
357	 3.08659773307687E-02 
358	 2.85378448791467E-02 
359	 2.78666827084398E-02 
360	 2.92062117378281E-02 
361	 3.03563731083313E-02 
362	 2.41710794285538E-02 
363	 2.16385763634608E-02 
364	 2.53619120221191E-02 
365	 2.52601029257078E-02 
366	 2.40864700837959E-02 
367	 2.30444225573764E-02 
368	 0.022961795982354 
369	 2.44840776260826E-02 
370	 2.34742451148347E-02 
371	 2.21783028122909E-02 
372	 2.53484183218322E-02 
373	 2.48321278385253E-02 
374	 2.41305339795177E-02 
375	 2.44399251010565E-02 
376	 2.18158154690833E-02 
377	 2.15312497465572E-02 
378	 2.35634585500605E-02 
379	 2.59318596657692E-02 
380	 2.53933796987405E-02 
381	 2.47826805586705E-02 
382	 2.53997513418201E-02 
383	 2.70911243551116E-02 
384	 2.67785442445789E-02 
385	 2.52710226958621E-02 
386	 2.38136160133698E-02 
387	 2.34743283432661E-02 
388	 2.40958449419749E-02 
389	 2.51228619125627E-02 
390	 2.57593222913696E-02 
391	 2.47480323756326E-02 
392	 2.44687827633658E-02 
393	 2.49120421846802E-02 
394	 2.45770098477765E-02 
395	 2.47860451987162E-02 
396	 2.47224714550069E-02 
397	 2.41206638481404E-02 
398	 2.40107954782223E-02 
399	 2.42340074458302E-02 
400	 2.46194295551079E-02 
401	 2.49652498277652E-02 
402	 2.50938370670678E-02 
403	 2.50289034603388E-02 
404	 2.50584821288864E-02 
405	 2.55625304607265E-02 
406	 2.56170148080299E-02 
407	 2.52079734396364E-02 
408	 2.46914091071844E-02 
409	 2.48205911702638E-02 
410	 2.52814738334615E-02 
411	 2.58239411570493E-02 
412	 2.61850412957734E-02 
413	 2.59944440961113E-02 
414	 2.59322778641731E-02 
415	 2.60880039687081E-02 
416	 2.60057845224893E-02 
417	 0.026223267897669 
418	 2.63283248426915E-02 
419	 2.61987389119901E-02 
420	 2.68490802703781E-02 
421	 2.68907675555526E-02 
422	 2.66569503922555E-02 
423	 0.02699742808832 
424	 2.70584528536561E-02 
425	 2.75702705142024E-02 
426	 2.82919247630463E-02 
427	 2.77967023619226E-02 
428	 2.80628402607563E-02 
429	 2.86333150034101E-02 
430	 2.88178491169923E-02 
431	 2.89005721049121E-02 
432	 2.93447253298401E-02 
433	 2.98578951188487E-02 
434	 2.98368974569636E-02 
435	 2.99935813474564E-02 
436	 0.03045331898927 
437	 3.10598259341099E-02 
438	 3.13496522304742E-02 
439	 3.14588585331986E-02 
440	 3.16777121830454E-02 
441	 0.032164082299651 
442	 3.23052841978492E-02 
443	 3.25851322257752E-02 
444	 0.033037360661615 
445	 3.33232314952998E-02 
446	 3.34841180264643E-02 
447	 3.37823818497022E-02 
448	 3.43334805702249E-02 
449	 3.49085974849697E-02 
450	 3.51216363122894E-02 
451	 3.52685097158442E-02 
452	 3.57988334168224E-02 
453	 3.62708128416732E-02 
454	 0.036434488531858 
455	 3.64910077260981E-02 
456	 3.70966779590675E-02 
457	 3.75050632973152E-02 
458	 3.78952575645023E-02 
459	 3.84382729770963E-02 
460	 0.038625255592848 
461	 3.89185589226999E-02 
462	 3.93338187535459E-02 
463	 3.96575430119217E-02 
464	 4.00421514670086E-02 
465	 4.05092211326162E-02 
466	 4.09672864064552E-02 
467	 4.11646363567339E-02 
468	 4.14970874649212E-02 
469	 4.19155763203096E-02 
470	 4.22737345368671E-02 
471	 4.26128369648195E-02 
472	 4.30448045522281E-02 
473	 4.34147028927747E-02 
474	 4.34174131040931E-02 
475	 4.38467655250891E-02 
476	 4.43140337271767E-02 
477	 4.45312395928163E-02 
478	 4.48751345039035E-02 
479	 4.51267489320818E-02 
480	 4.54355426999242E-02 
481	 4.59627640314704E-02 
482	 4.60272977811241E-02 
483	 4.62160464036266E-02 
484	 4.66811821637134E-02 
485	 4.69777375838536E-02 
486	 4.70904507279781E-02 
487	 4.72757261950394E-02 
488	 4.76953488306262E-02 
489	 4.80371979685549E-02 
490	 4.81270745789427E-02 
491	 4.81570583605751E-02 
492	 4.84782080715363E-02 
493	 0.048638234803407 
494	 4.89336316211377E-02 
495	 4.94019750559863E-02 
496	 4.95026995150231E-02 
497	 4.96326770742265E-02 
498	 0.049699610994559 
499	 4.95872855198118E-02 
500	 4.97511992427404E-02 
501	 4.99746720730818E-02 
502	 5.00970292343148E-02 
503	 5.00539674911232E-02 
504	 5.01745913458797E-02 
505	 5.02241663716015E-02 
506	 5.00672351548102E-02 
507	 5.00578811335732E-02 
508	 0.050046342366315 
509	 5.00252916970008E-02 
510	 5.00144145120956E-02 
511	 4.97925200242021E-02 
512	 4.95608075490425E-02 
513	 0.049422493787918 
514	 0.049306840612384 
515	 4.91451749509859E-02 
516	 4.90054719176789E-02 
517	 4.89028853855802E-02 
518	 4.85104674747885E-02 
519	 4.82145156597097E-02 
520	 4.80686308496827E-02 
521	 4.78864806510104E-02 
522	 4.76797543291476E-02 
523	 4.74114596720722E-02 
524	 4.70926944737918E-02 
525	 4.68389404791345E-02 
526	 4.65287515862875E-02 
527	 4.61993136590687E-02 
528	 4.59225144190523E-02 
529	 4.56351629539421E-02 
530	 4.53106326530336E-02 
531	 4.49546843150522E-02 
532	 4.46042706263048E-02 
533	 4.42484411200377E-02 
534	 4.38593642292424E-02 
535	 4.34498967226486E-02 
536	 4.31724264447357E-02 
537	 4.28493979908296E-02 
538	 4.24585171083941E-02 
539	 4.20679150304246E-02 
540	 4.16896195654371E-02 
541	 4.13270379596813E-02 
542	 4.09502930982871E-02 
543	 4.04651287927198E-02 
544	 4.01953627935493E-02 
545	 3.99473972413708E-02 
546	 3.94765021415483E-02 
547	 3.90746169636908E-02 
548	 3.87509706561218E-02 
549	 3.84512837295195E-02 
550	 3.80818237608681E-02 
551	 3.77191032102204E-02 
552	 3.74063759715702E-02 
553	 3.71344355417657E-02 
554	 3.67805014395903E-02 
555	 3.64446763169594E-02 
556	 0.036114280912642 
557	 3.57366310385885E-02 
558	 3.53697866512858E-02 
559	 3.50523260514288E-02 
560	 3.47823115092257E-02 
561	 3.45062051957815E-02 
562	 3.41769190175231E-02 
563	 0.033837129871836 
564	 3.35197651909497E-02 
565	 3.31026661344213E-02 
566	 3.27211072912538E-02 
567	 0.032371072417887 
568	 0.031960436651493 
569	 0.031746798876668 
570	 3.15137159069316E-02 
571	 3.11801006896968E-02 
572	 3.11104497738729E-02 
573	 3.10347565524516E-02 
574	 3.09418682078782E-02 
575	 3.08733470940308E-02 
576	 3.06160331244248E-02 
577	 3.02375902714306E-02 
578	 2.98282722480428E-02 
579	 2.94767185043337E-02 
580	 2.91517087845448E-02 
581	 2.88623392837465E-02 
582	 2.86233956129374E-02 
583	 2.84505934856752E-02 
584	 2.83246310155822E-02 
585	 0.028233789297593 
586	 0.028159345056841 
587	 2.79956618368543E-02 
588	 2.77717206593197E-02 
589	 2.75395877431022E-02 
590	 2.73566290176235E-02 
591	 2.72338859718899E-02 
592	 2.71469313128793E-02 
593	 0.027054372222408 
594	 2.69159100312021E-02 
595	 2.67372338968845E-02 
596	 0.026492055306827 
597	 2.61389522534385E-02 
598	 0.025853216479928 
599	 2.56267971210597E-02 
600	 2.54396641149978E-02 
601	 2.53453075830564E-02 
602	 2.52306966790972E-02 
603	 0.025093379032667 
604	 2.49793480331551E-02 
605	 2.48868986624018E-02 
606	 0.024807781461444 
607	 2.47200337163786E-02 
608	 2.45872306015382E-02 
609	 2.44583100987371E-02 
610	 2.43447807682761E-02 
611	 2.42417733006986E-02 
612	 2.41250268924173E-02 
613	 0.024030435570237 
614	 2.39500632606437E-02 
615	 2.38489745155443E-02 
616	 0.02373688354479 
617	 2.36408287783087E-02 
618	 2.35705028552912E-02 
619	 2.35016805367249E-02 
620	 2.34281184788837E-02 
621	 2.33544426218804E-02 
622	 2.32889964441516E-02 
623	 2.32322028951619E-02 
624	 0.023186425348289 
625	 2.31340500088805E-02 
626	 2.30452609821237E-02 
627	 2.30254323041359E-02 
628	 2.29874846486828E-02 
629	 2.28882028871846E-02 
630	 0.022892814925063 
631	 2.28456632060792E-02 
632	 2.27783171089326E-02 
633	 2.27822247846786E-02 
634	 2.27395924212796E-02 
635	 2.27098686079292E-02 
636	 2.27090281386355E-02 
637	 2.26817138989189E-02 
638	 2.26678783009697E-02 
639	 2.26693291982195E-02 
640	 2.26739845873379E-02 
641	 2.26525563210547E-02 
642	 2.26603239219439E-02 
643	 2.26826544520341E-02 
644	 2.26676220132576E-02 
645	 2.26521581073001E-02 
646	 2.26753444065206E-02 
647	 2.27265793838879E-02 
648	 2.27140038729137E-02 
649	 2.27119032814602E-02 
650	 2.27276251530525E-02 
651	 2.27489944953076E-02 
652	 0.022769427940104 
653	 2.28127010799678E-02 
654	 2.28599282501724E-02 
655	 2.28650773432165E-02 
656	 2.29199647514676E-02 
657	 2.29546321690992E-02 
658	 0.022945852576908 
659	 2.30280357340575E-02 
660	 2.30975694887337E-02 
661	 2.31207472902432E-02 
662	 0.02311471845959 
663	 2.32209150910198E-02 
664	 2.33297695560478E-02 
665	 2.33837505081339E-02 
666	 2.33984487205415E-02 
667	 2.34693802502498E-02 
668	 2.35556101221971E-02 
669	 2.36146224934664E-02 
670	 2.36778571809277E-02 
671	 2.37325544261454E-02 
672	 0.023788769043831 
673	 2.38644167769006E-02 
674	 2.39596551932126E-02 
675	 2.40334826138316E-02 
676	 0.024091601957848 
677	 2.41976875628933E-02 
678	 2.42843672911647E-02 
679	 2.43580431538438E-02 
680	 2.44371611801332E-02 
681	 2.45174169665938E-02 
682	 2.46387593116437E-02 
683	 0.024753980127658 
684	 2.47919046483311E-02 
685	 2.49044793339827E-02 
686	 2.50207111391771E-02 
687	 2.51029619411948E-02 
688	 2.51930508461377E-02 
689	 2.53414635692005E-02 
690	 2.54643675614283E-02 
691	 2.55006468781357E-02 
692	 2.55902460627396E-02 
693	 2.57221269785161E-02 
694	 2.58658634243781E-02 
695	 2.59827224418203E-02 
696	 2.60886954994922E-02 
697	 2.61953900711394E-02 
698	 0.026305538074435 
699	 2.64073736013757E-02 
700	 2.65466124072133E-02 
701	 2.67010069301637E-02 
702	 2.68302490185403E-02 
703	 2.69012939612357E-02 
704	 0.027023756433593 
705	 2.71839632216184E-02 
706	 2.72892246231985E-02 
707	 2.74026598161244E-02 
708	 0.027529682068539 
709	 2.76615063363147E-02 
710	 2.77776379878638E-02 
711	 2.79029454688032E-02 
712	 2.80496711576472E-02 
713	 2.82128584840331E-02 
714	 2.83383264454672E-02 
715	 2.84735731777888E-02 
716	 2.86051365234464E-02 
717	 2.86868079294585E-02 
718	 2.88340487882811E-02 
719	 2.90030378311719E-02 
720	 2.91415752946071E-02 
721	 2.92173609734245E-02 
722	 2.93645786089082E-02 
723	 0.029524607861658 
724	 2.96272645280201E-02 
725	 2.98145692479784E-02 
726	 2.99652513848312E-02 
727	 3.00617790329435E-02 
728	 3.01683081489753E-02 
729	 3.03331103451853E-02 
730	 3.04757527213374E-02 
731	 3.05695527548698E-02 
732	 3.07021023659665E-02 
733	 3.08731746960509E-02 
734	 3.10295355616383E-02 
735	 3.11296908474929E-02 
736	 3.12411347787289E-02 
737	 3.13667552919151E-02 
738	 3.14997171959218E-02 
739	 3.16268417224976E-02 
740	 3.17460775289001E-02 
741	 3.18636244588979E-02 
742	 3.19884240657571E-02 
743	 3.21318749253127E-02 
744	 3.22737492794714E-02 
745	 3.24045406723999E-02 
746	 3.25194647262156E-02 
747	 3.26154406794232E-02 
748	 3.27215587870719E-02 
749	 3.28443303794083E-02 
750	 3.29756428803805E-02 
751	 3.31205230598109E-02 
752	 3.32304572434223E-02 
753	 3.33079581232228E-02 
754	 3.34251240965142E-02 
755	 3.35494876016745E-02 
756	 3.36672202817225E-02 
757	 3.37713749961367E-02 
758	 3.38611576039746E-02 
759	 3.39596855308509E-02 
760	 3.40704236477135E-02 
761	 3.41877380761622E-02 
762	 0.034323226836542 
763	 3.44414194031285E-02 
764	 3.45266963311278E-02 
765	 3.45920870568007E-02 
766	 3.47078434415262E-02 
767	 3.48326580080732E-02 
768	 3.49305243011427E-02 
769	 3.50305975641261E-02 
770	 3.51264598883844E-02 
771	 3.52322766856455E-02 
772	 3.53543079899007E-02 
773	 3.54251120638636E-02 
774	 3.55239718059561E-02 
775	 3.56508735580869E-02 
776	 3.57414953008849E-02 
777	 3.58313213323268E-02 
778	 0.035933476206619 
779	 3.60423280989415E-02 
780	 3.61253706290525E-02 
781	 3.62263118919782E-02 
782	 0.036341176038361 
783	 3.64530682026881E-02 
784	 3.65554797958887E-02 
785	 3.66299768434553E-02 
786	 3.66964842198622E-02 
787	 3.67952520358537E-02 
788	 3.69382921225816E-02 
789	 3.70842783193582E-02 
790	 3.71996722198469E-02 
791	 3.72714229185854E-02 
792	 3.73575816767702E-02 
793	 0.037484436659733 
794	 3.76387697489438E-02 
795	 3.77365227391107E-02 
796	 3.78105247137899E-02 
797	 3.78993481187085E-02 
798	 3.80274866181304E-02 
799	 3.81296478482918E-02 
800	 3.82629173287867E-02 
801	 3.84297865927195E-02 
802	 3.85847207442299E-02 
803	 3.86977168532375E-02 
804	 3.87889487192263E-02 
805	 3.88856336298282E-02 
806	 3.90115741924899E-02 
807	 3.91355033169972E-02 
808	 0.039258806566393 
809	 3.93883189052367E-02 
810	 3.95205760579344E-02 
811	 3.96522489359556E-02 
812	 3.98008681544359E-02 
813	 3.99806887700217E-02 
814	 4.01363950586401E-02 
815	 4.02722797809951E-02 
816	 4.04067567577535E-02 
817	 4.05635982599068E-02 
818	 4.07182147571184E-02 
819	 4.08877246851968E-02 
820	 4.10718782562348E-02 
821	 4.12332688806709E-02 
822	 4.14183944592426E-02 
823	 4.15914114747882E-02 
824	 4.17298033878451E-02 
825	 0.041918101037805 
826	 4.21213763058322E-02 
827	 4.23141187771105E-02 
828	 0.042484735652262 
829	 4.26743622768821E-02 
830	 0.042898161395172 
831	 4.31341719268102E-02 
832	 4.33335569662046E-02 
833	 4.35115132386532E-02 
834	 4.37170134574347E-02 
835	 4.39681346227023E-02 
836	 4.42291185274858E-02 
837	 4.44627248594552E-02 
838	 0.04467274661328 
839	 4.48848047613266E-02 
840	 4.51484517374384E-02 
841	 4.54070056026202E-02 
842	 4.56704312167199E-02 
843	 4.59594985582306E-02 
844	 4.62071489607983E-02 
845	 4.64436600362965E-02 
846	 4.66918920516945E-02 
847	 4.69618113461344E-02 
848	 4.72281375878706E-02 
849	 4.75155304375592E-02 
850	 4.78414375939197E-02 
851	 4.82024899587226E-02 
852	 4.85289716805217E-02 
853	 4.88251693563592E-02 
854	 4.91136357065984E-02 
855	 4.94150148154622E-02 
856	 4.97359476428006E-02 
857	 5.00723234786913E-02 
858	 0.050415795266556 
859	 5.07579677964476E-02 
860	 5.11333609172207E-02 
861	 5.15482406422686E-02 
862	 5.19774511996079E-02 
863	 5.23199272247028E-02 
864	 5.27115215088742E-02 
865	 5.31604354509393E-02 
866	 5.35626633738939E-02 
867	 0.054011688440538 
868	 0.054443066552339 
869	 5.48443226107493E-02 
870	 5.52982372963995E-02 
871	 5.57700391513902E-02 
872	 5.62499083350735E-02 
873	 5.67366669844325E-02 
874	 5.72386777748988E-02 
875	 5.77993554592166E-02 
876	 5.83327074462118E-02 
877	 5.87824215952142E-02 
878	 5.93433853583962E-02 
879	 5.99443783558639E-02 
880	 6.05023763017671E-02 
881	 6.09780406609405E-02 
882	 6.15864974754051E-02 
883	 6.21858022403145E-02 
884	 6.27649721121682E-02 
885	 6.34174200218875E-02 
886	 6.40821695558507E-02 
887	 6.47076259564205E-02 
888	 6.53210222845127E-02 
889	 6.60244790774831E-02 
890	 6.66992863864257E-02 
891	 6.73865842862477E-02 
892	 6.81062625756114E-02 
893	 6.87916564805972E-02 
894	 6.95279142142263E-02 
895	 7.02755743753408E-02 
896	 7.10043022962638E-02 
897	 7.17929855324983E-02 
898	 7.25545415682304E-02 
899	 7.33192888268534E-02 
900	 7.41317179353752E-02 
901	 7.49243471109738E-02 
902	 7.57248176778092E-02 
903	 7.65239450227014E-02 
904	 7.73239683122197E-02 
905	 7.82922499321734E-02 
906	 7.91939087906831E-02 
907	 8.00028400111345E-02 
908	 8.08637827757951E-02 
909	 8.18462350362666E-02 
910	 8.28242883719243E-02 
911	 8.37418533190358E-02 
912	 8.46438703536794E-02 
913	 0.085562263219892 
914	 8.66110625071277E-02 
915	 8.77514863880026E-02 
916	 0.088741289670437 
917	 8.97133460615742E-02 
918	 9.07212320392446E-02 
919	 9.17898567548888E-02 
920	 0.092916472945368 
921	 0.094116528198046 
922	 9.52394337422438E-02 
923	 9.62365502046957E-02 
924	 9.74218272954247E-02 
925	 9.85913032260643E-02 
926	 9.97580393834374E-02 
927	 0.100967613627985 
928	 0.102135798252693 
929	 0.103287353836433 
930	 0.104491071983305 
931	 0.105794391578295 
932	 0.107082896170161 
933	 0.108427338699487 
934	 0.109771784305187 
935	 0.111041390352507 
936	 0.11244331170533 
937	 0.113779900510679 
938	 0.115042640311885 
939	 0.116370167546083 
940	 0.117848713843008 
941	 0.119268187492342 
942	 0.120626876064445 
943	 0.122102137190354 
944	 0.123534824831121 
945	 0.124888392497183 
946	 0.126194176442374 
947	 0.127550683418861 
948	 0.129163488639257 
949	 0.130754455659937 
950	 0.13215860455309 
951	 0.133474234023369 
952	 0.13498424016322 
953	 0.136583075298976 
954	 0.138140940204664 
955	 0.139625460855014 
956	 0.141040099324034 
957	 0.142560444537298 
958	 0.144197279707795 
959	 0.145638701903456 
960	 0.147117084374512 
961	 0.14856206184332 
962	 0.149957910850601 
963	 0.151518817897814 
964	 0.153071575122509 
965	 0.154608709935887 
966	 0.156135145357648 
967	 0.157592717662958 
968	 0.159195819831927 
969	 0.160756074950835 
970	 0.162164450263647 
971	 0.163808850400548 
972	 0.165450607649309 
973	 0.166950954060502 
974	 0.168324848956045 
975	 0.169903441472101 
976	 0.171499883604504 
977	 0.173088423424379 
978	 0.174706755055619 
979	 0.176449340929702 
980	 0.177934824342531 
981	 0.179353195486458 
982	 0.180943799147772 
983	 0.18243408423689 
984	 0.183953556901081 
985	 0.18565430071489 
986	 0.187537664121506 
987	 0.189169103479342 
988	 0.190548757191198 
989	 0.191907390639598 
990	 0.19344146036083 
991	 0.194911118347554 
992	 0.196455738194546 
993	 0.198052757189386 
994	 0.199611400920014 
995	 0.200981558877854 
996	 0.202783114789474 
997	 0.204655209953524 
998	 0.20610644338184 
999	 0.207509183431095 
1000	 0.208803573161299 
1001	 0.216999993616923 
1002	 0.218613944306193 
1003	 0.220211693875857 
1004	 0.221786411726492 
1005	 0.223391614404258 
1006	 0.22494164028386 
1007	 0.226427435720527 
1008	 0.227972188899188 
1009	 0.229488905165087 
1010	 0.231034264681608 
1011	 0.232667264480342 
1012	 0.234225729423354 
1013	 0.235757053301193 
1014	 0.237303813452746 
1015	 0.238858691792414 
1016	 0.240292028102387 
1017	 0.241883082650859 
1018	 0.243412783285632 
1019	 0.244934614687487 
1020	 0.246500799269209 
1021	 0.247960806334315 
1022	 0.24933414387463 
1023	 0.250744065637448 
1024	 0.252121126064458 
1025	 0.25349842103492 
1026	 0.254821696332551 
1027	 0.256218865029737 
1028	 0.257678801224763 
1029	 0.259102197463943 
1030	 0.26036997148332 
1031	 0.261724754354314 
1032	 0.262944557992368 
1033	 0.264032122949665 
1034	 0.26534527065608 
1035	 0.266591426149477 
1036	 0.267811487608937 
1037	 0.269090023349225 
1038	 0.270261512617785 
1039	 0.271334771041422 
1040	 0.272446807943411 
1041	 0.27349529753962 
1042	 0.274543887595201 
1043	 0.275606417495179 
1044	 0.276670090668045 
1045	 0.277698673240435 
1046	 0.278731733288479 
1047	 0.279706278607719 
1048	 0.280715449192893 
1049	 0.281677214529973 
1050	 0.282669706159541 
1051	 0.283777208392196 
1052	 0.284799133598826 
1053	 0.285811586737903 
1054	 0.286827124259245 
1055	 0.28783040213232 
1056	 0.288813659215571 
1057	 0.289810534288685 
1058	 0.290778785963005 
1059	 0.291800528926437 
1060	 0.292947508154367 
1061	 0.294038622758685 
1062	 0.295244013540536 
1063	 0.296474370886503 
1064	 0.2975742067502 
1065	 0.29872592223855 
1066	 0.299877894902922 
1067	 0.301065803121028 
1068	 0.302413465235939 
1069	 0.303663636472325 
1070	 0.30496450784512 
1071	 0.30629872347294 
1072	 0.307720390231396 
1073	 0.309016207648581 
1074	 0.31040514127078 
1075	 0.311813995300478 
1076	 0.313178829837895 
1077	 0.314650694825883 
1078	 0.316111368613035 
1079	 0.317513300607795 
1080	 0.318929585821736 
1081	 0.320300217959567 
1082	 0.321657257752459 
1083	 0.323073086809894 
1084	 0.324438288613328 
1085	 0.325802928600966 
1086	 0.327161969332822 
1087	 0.328508932840056 
1088	 0.329852157068859 
1089	 0.331221476082039 
1090	 0.332480215787126 
1091	 0.333684054909027 
1092	 0.33482579882766 
1093	 0.335934358967613 
1094	 0.337094105891212 
1095	 0.338218780531652 
1096	 0.339374298585018 
1097	 0.34048021393316 
1098	 0.341419075646295 
1099	 0.342313444456429 
1100	 0.343185312186305 
1101	 0.34398324251665 
1102	 0.344763936056857 
1103	 0.345518980852892 
1104	 0.346274867851611 
1105	 0.346934514394324 
1106	 0.347561143174862 
1107	 0.348178995565582 
1108	 0.348720168690381 
1109	 0.349194903354043 
1110	 0.349610345053637 
1111	 0.349999762938832 
1112	 0.350354749549207 
1113	 0.350689019615361 
1114	 0.351043042897149 
1115	 0.351315213150544 
1116	 0.351574985185911 
1117	 0.351828911224521 
1118	 0.352016199867604 
1119	 0.35215555478829 
1120	 0.352297278570641 
1121	 0.352404567197587 
1122	 0.352466959901252 
1123	 0.352574633395499 
1124	 0.352576880727645 
1125	 0.352543497417494 
1126	 0.352553721352568 
1127	 0.352569168044136 
1128	 0.352613840343448 
1129	 0.352645863644468 
1130	 0.352641362173636 
1131	 0.352642633598977 
1132	 0.352647904200315 
1133	 0.352656023265184 
1134	 0.352684170321945 
1135	 0.352679458214673 
1136	 0.352600621214947 
1137	 0.352600642916609 
1138	 0.352651792760519 
1139	 0.352657543745748 
1140	 0.352670251531915 
1141	 0.35270088035402 
1142	 0.352664124117556 
1143	 0.352658556374861 
1144	 0.352715441461794 
1145	 0.352727701321317 
1146	 0.35273952053241 
1147	 0.352719999305722 
1148	 0.352656748886268 
1149	 0.352656800525801 
1150	 0.352697130378515 
1151	 0.352742718107808 
1152	 0.352756056457477 
1153	 0.352779093131348 
1154	 0.35275855137407 
1155	 0.352696112709711 
1156	 0.35263731711566 
1157	 0.352558861059102 
1158	 0.35248343175306 
1159	 0.352409596771255 
1160	 0.352313973872542 
1161	 0.352178940166184 
1162	 0.352074021184035 
1163	 0.351960765780096 
1164	 0.351833315511901 
1165	 0.351725996146759 
1166	 0.351635712215297 
1167	 0.351549809785129 
1168	 0.351447451546169 
1169	 0.351351719618427 
1170	 0.35126501849296 
1171	 0.351183924739981 
1172	 0.351123141779063 
1173	 0.3510100638619 
1174	 0.350861923588848 
1175	 0.350740809689275 
1176	 0.350614021604845 
1177	 0.350474527314673 
1178	 0.350347746801706 
1179	 0.350222468064091 
1180	 0.350066867398465 
1181	 0.349851869752762 
1182	 0.349675326035687 
1183	 0.349538208698384 
1184	 0.349387574776412 
1185	 0.349273205018257 
1186	 0.349173223721047 
1187	 0.349094083424325 
1188	 0.349020024159 
1189	 0.348954052031216 
1190	 0.348916978737503 
1191	 0.348902732184765 
1192	 0.348900197612182 
1193	 0.3489153144254 
1194	 0.348952238689249 
1195	 0.349013005159667 
1196	 0.349065302482662 
1197	 0.349114405812129 
1198	 0.349214168573552 
1199	 0.349291325888399 
1200	 0.349398536042363 
1201	 0.349546076724259 
1202	 0.349704250088752 
1203	 0.34989743186532 
1204	 0.350124030782888 
1205	 0.350390856463832 
1206	 0.350680571331574 
1207	 0.351045614391225 
1208	 0.351457217032886 
1209	 0.351923304586351 
1210	 0.352448870426147 
1211	 0.353034455727828 
1212	 0.353665029309143 
1213	 0.354370606498323 
1214	 0.35514623846833 
1215	 0.355985038649094 
1216	 0.356905996318054 
1217	 0.357848571525751 
1218	 0.358863683692889 
1219	 0.359893457276582 
1220	 0.360946596655543 
1221	 0.362046720581152 
1222	 0.363093129474763 
1223	 0.364178909966395 
1224	 0.365203067768165 
1225	 0.366193117163925 
1226	 0.367150653781799 
1227	 0.368083719460387 
1228	 0.368976699404376 
1229	 0.369834846521619 
1230	 0.370668451527233 
1231	 0.371474903860343 
1232	 0.372246944413433 
1233	 0.372971888292067 
1234	 0.373685568008118 
1235	 0.3743494912773 
1236	 0.375033145017293 
1237	 0.375762344892365 
1238	 0.376410256954165 
1239	 0.377019969008542 
1240	 0.377616181720621 
1241	 0.378145877586282 
1242	 0.378610964639079 
1243	 0.379087672090061 
1244	 0.37956140772217 
1245	 0.379978812717408 
1246	 0.380347187913489 
1247	 0.380729220374258 
1248	 0.38108621684228 
1249	 0.381434226779904 
1250	 0.381801028997098 
1251	 0.382107980980347 
1252	 0.382364012404348 
1253	 0.382616798222683 
1254	 0.382855595819537 
1255	 0.383059608902761 
1256	 0.383231652334117 
1257	 0.383397441703723 
1258	 0.383547580429524 
1259	 0.383659898201114 
1260	 0.383742850961578 
1261	 0.383824469571907 
1262	 0.383872707675915 
1263	 0.383901746246554 
1264	 0.383956621509593 
1265	 0.384021043077515 
1266	 0.384091667751202 
1267	 0.384175115247058 
1268	 0.384241114061716 
1269	 0.384302192378988 
1270	 0.384376332185915 
1271	 0.384440201365329 
1272	 0.384520138545562 
1273	 0.384615489664307 
1274	 0.384720470503411 
1275	 0.384825020543927 
1276	 0.384947691241986 
1277	 0.385105334267048 
1278	 0.385243330645455 
1279	 0.385377208327891 
1280	 0.385517361051913 
1281	 0.385619142670875 
1282	 0.385782121718535 
1283	 0.385971317567097 
1284	 0.386191277122406 
1285	 0.386446171364031 
1286	 0.386744553718609 
1287	 0.387070897022996 
1288	 0.387420157827256 
1289	 0.387816920246201 
1290	 0.388258663269575 
1291	 0.388731908231308 
1292	 0.389249551000787 
1293	 0.389779859726238 
1294	 0.390311801575005 
1295	 0.390937720100619 
1296	 0.391622132693166 
1297	 0.392328966343745 
1298	 0.393143131202858 
1299	 0.393906779971818 
1300	 0.39465978866545 
1301	 0.395421204961697 
1302	 0.396181068934213 
1303	 0.396949123416672 
1304	 0.397758605823909 
1305	 0.39850807579193 
1306	 0.399248903270514 
1307	 0.39994835557865 
1308	 0.400557843811156 
1309	 0.401207001059234 
1310	 0.40181172324834 
1311	 0.402391872605675 
1312	 0.402958728133845 
1313	 0.403504137225353 
1314	 0.404034840660967 
1315	 0.404565628433359 
1316	 0.405031277050413 
1317	 0.405466514762661 
1318	 0.405860679137827 
1319	 0.406219024856857 
1320	 0.406512975267325 
1321	 0.40678989657386 
1322	 0.406965232916958 
1323	 0.40706536725451 
1324	 0.407095631972461 
1325	 0.4070558677701 
1326	 0.406946011662021 
1327	 0.406770503905458 
1328	 0.406522808792632 
1329	 0.406192273769172 
1330	 0.405821307888206 
1331	 0.40540561105957 
1332	 0.404918041490732 
1333	 0.404363001338817 
1334	 0.403768474849326 
1335	 0.403152145101792 
1336	 0.402479451463577 
1337	 0.401791223221453 
1338	 0.401083085804052 
1339	 0.400371862850308 
1340	 0.399627210373386 
1341	 0.398883317473698 
1342	 0.398153732834345 
1343	 0.397385175902018 
1344	 0.39659941004666 
1345	 0.395776091235375 
1346	 0.394943382583082 
1347	 0.394062325347918 
1348	 0.393126615014362 
1349	 0.392188592002904 
1350	 0.391183574025621 
1351	 0.390241838261015 
1352	 0.389317940292906 
1353	 0.38839281613499 
1354	 0.387491589759793 
1355	 0.386598879499781 
1356	 0.385666088775743 
1357	 0.384803509573927 
1358	 0.384003542658033 
1359	 0.383192477842518 
1360	 0.382407109937719 
1361	 0.381632936902771 
1362	 0.380847217406645 
1363	 0.380123804695156 
1364	 0.379406565999362 
1365	 0.378732221896528 
1366	 0.378042122095754 
1367	 0.377356990582548 
1368	 0.376679914764805 
1369	 0.376028376451638 
1370	 0.375331561231752 
1371	 0.37462661594104 
1372	 0.373908223080343 
1373	 0.373183419054017 
1374	 0.372402368974309 
1375	 0.371614680517831 
1376	 0.370753722334038 
1377	 0.369812511730129 
1378	 0.368855659579669 
1379	 0.36781773745226 
1380	 0.366834982665374 
1381	 0.36583459955375 
1382	 0.364859818786745 
1383	 0.363927338661505 
1384	 0.362982960681427 
1385	 0.362042129739546 
1386	 0.361100667263099 
1387	 0.36012527824195 
1388	 0.359221253339389 
1389	 0.358285491918678 
1390	 0.357472164633158 
1391	 0.356785405789737 
1392	 0.356083164519292 
1393	 0.355505736515672 
1394	 0.354971481336966 
1395	 0.354423594139477 
1396	 0.353929016953252 
1397	 0.353361988510858 
1398	 0.35283813409045 
1399	 0.352113754703513 
1400	 0.351323534570543 
1401	 0.350391883945143 
1402	 0.349322618863311 
1403	 0.348142177894521 
1404	 0.346837848038112 
1405	 0.345477301370951 
1406	 0.343976213348766 
1407	 0.34245993526864 
1408	 0.340806747534255 
1409	 0.33928857334723 
1410	 0.337650435667316 
1411	 0.33628818771196 
1412	 0.335039339985853 
1413	 0.334004591100488 
1414	 0.333153024329339 
1415	 0.332464856678786 
1416	 0.332033428929638 
1417	 0.331622713558444 
1418	 0.331417844042533 
1419	 0.331153460228464 
1420	 0.330959678185133 
1421	 0.330705035787376 
1422	 0.330396388918786 
1423	 0.330114367587154 
1424	 0.329824887763063 
1425	 0.329508217022706 
1426	 0.329272123168421 
1427	 0.32904459759206 
1428	 0.328798846860185 
1429	 0.328595918273885 
1430	 0.32841496859354 
1431	 0.328237044179528 
1432	 0.328109007405623 
1433	 0.328036411771794 
1434	 0.327954934564313 
1435	 0.327887307305773 
1436	 0.327840630470585 
1437	 0.327819266812812 
1438	 0.327789779358387 
1439	 0.3277488538694 
1440	 0.327775237168443 
1441	 0.327824002981647 
1442	 0.327896415238962 
1443	 0.328030057438836 
1444	 0.328158426870335 
1445	 0.328291081868191 
1446	 0.328435789818224 
1447	 0.328616722874328 
1448	 0.328778479883061 
1449	 0.328946149165786 
1450	 0.329091852450755 
1451	 0.32922220241943 
1452	 0.329355757060649 
1453	 0.329489822723809 
1454	 0.329594514140155 
1455	 0.32969350621048 
1456	 0.329776028180977 
1457	 0.329821156631122 
1458	 0.32986950448109 
1459	 0.32992649745894 
1460	 0.32995621033017 
1461	 0.329984583613677 
1462	 0.329973003896414 
1463	 0.329922914707628 
1464	 0.329860850493356 
1465	 0.329798109393036 
1466	 0.32966504317837 
1467	 0.329500081470327 
1468	 0.329344417855333 
1469	 0.32913962938803 
1470	 0.328892364630754 
1471	 0.328607889921762 
1472	 0.328306213093872 
1473	 0.327933732098667 
1474	 0.327506081817627 
1475	 0.327032485835975 
1476	 0.326512801158166 
1477	 0.325936309567488 
1478	 0.325293329958797 
1479	 0.324634020541246 
1480	 0.323922406422513 
1481	 0.323203401635186 
1482	 0.322457871058173 
1483	 0.321695422454307 
1484	 0.320913794177942 
1485	 0.320100892719736 
1486	 0.319248753945193 
1487	 0.318417213093768 
1488	 0.317515628188862 
1489	 0.316737286139059 
1490	 0.315968304452214 
1491	 0.315328960865083 
1492	 0.314768223473096 
1493	 0.314324324841131 
1494	 0.314002371849513 
1495	 0.313743899630314 
1496	 0.313575856200059 
1497	 0.313500930287449 
1498	 0.313471281183245 
1499	 0.313601188098874 
1500	 0.313795119943991 
1501	 0.314224861396287 
1502	 0.314772447556638 
1503	 0.315587501460497 
1504	 0.316646265787408 
1505	 0.31789503121128 
1506	 0.31951624802786 
1507	 0.321075289201524 
1508	 0.322851142438224 
1509	 0.324512997917918 
1510	 0.326260672599723 
1511	 0.32776397538152 
1512	 0.329186708844763 
1513	 0.330431665410527 
1514	 0.331414466002452 
1515	 0.332345032753251 
1516	 0.333101827879138 
1517	 0.333866481206504 
1518	 0.334533614798551 
1519	 0.335211730351053 
1520	 0.33588523117665 
1521	 0.336547617475893 
1522	 0.337199783221367 
1523	 0.337884057637466 
1524	 0.338538345904892 
1525	 0.339207034370364 
1526	 0.33982335281297 
1527	 0.340391447833575 
1528	 0.341004931600622 
1529	 0.341620778746963 
1530	 0.342211743283169 
1531	 0.342832443850783 
1532	 0.343379765682557 
1533	 0.343866965373779 
1534	 0.344368879206247 
1535	 0.344853142249106 
1536	 0.345321963823552 
1537	 0.34577015796909 
1538	 0.346232841986605 
1539	 0.346685987630722 
1540	 0.347138282294432 
1541	 0.347621448745896 
1542	 0.348035905233794 
1543	 0.348435829395415 
1544	 0.34876564630044 
1545	 0.349031178872729 
1546	 0.349291039803854 
1547	 0.349495631851108 
1548	 0.349711514151655 
1549	 0.349912206266853 
1550	 0.350119447960472 
1551	 0.350340763874239 
1552	 0.350505643585004 
1553	 0.350647894466467 
1554	 0.350782127634447 
1555	 0.350875906659186 
1556	 0.350964996964595 
1557	 0.351034973384195 
1558	 0.351137149287527 
1559	 0.351210465709974 
1560	 0.351337477289578 
1561	 0.351529163461588 
1562	 0.351694410295274 
1563	 0.351863476901733 
1564	 0.352039104694799 
1565	 0.352229329668371 
1566	 0.352397691461872 
1567	 0.352562357764086 
1568	 0.352724245696156 
1569	 0.352855255170971 
1570	 0.353019758807369 
1571	 0.353194394417468 
1572	 0.353388107633987 
1573	 0.353607488012155 
1574	 0.353824032824804 
1575	 0.354074966255929 
1576	 0.354284200699592 
1577	 0.354471551389294 
1578	 0.354662088915213 
1579	 0.354836311904128 
1580	 0.355004109549903 
1581	 0.355179273007586 
1582	 0.355334105565165 
1583	 0.355441506948038 
1584	 0.355594310116135 
1585	 0.355766279280554 
1586	 0.355933853512319 
1587	 0.356127463522549 
1588	 0.35630858724127 
1589	 0.356498709960372 
1590	 0.356649496877434 
1591	 0.356761652149664 
1592	 0.356906497743914 
1593	 0.357026546053351 
1594	 0.357173061497762 
1595	 0.357375302391467 
1596	 0.357544183059264 
1597	 0.357710608511542 
1598	 0.357853458665651 
1599	 0.357968364211472 
1600	 0.358094367657385 
1601	 0.358204993202496 
1602	 0.358322956663872 
1603	 0.358440031409448 
1604	 0.358573697677926 
1605	 0.358728095169022 
1606	 0.358860844585196 
1607	 0.359014365977272 
1608	 0.359134406509791 
1609	 0.359226470704404 
1610	 0.359299503607461 
1611	 0.359356563490214 
1612	 0.359391328724708 
1613	 0.359378709038192 
1614	 0.35939045950832 
1615	 0.359394802782288 
1616	 0.359406809764786 
1617	 0.359445656043257 
1618	 0.359459690300621 
1619	 0.359470043771204 
1620	 0.359460400917786 
1621	 0.359426304183199 
1622	 0.359393966264817 
1623	 0.359348736695474 
1624	 0.359297412943589 
1625	 0.359236059990234 
1626	 0.359182068256556 
1627	 0.359151645759223 
1628	 0.359076582870924 
1629	 0.358945795104321 
1630	 0.358869264363263 
1631	 0.358801909863834 
1632	 0.358718856545196 
1633	 0.358693014684406 
1634	 0.358623691458865 
1635	 0.358481440632665 
1636	 0.358376061065699 
1637	 0.358279969060451 
1638	 0.358184657051544 
1639	 0.358124002769505 
1640	 0.358020381096288 
1641	 0.357908939549327 
1642	 0.357768494196659 
1643	 0.35757610300913 
1644	 0.357399198309778 
1645	 0.357227120407144 
1646	 0.357024622162854 
1647	 0.356812138469146 
1648	 0.356580738975777 
1649	 0.356315330421562 
1650	 0.356046750326755 
1651	 0.35580262239093 
1652	 0.355489386219638 
1653	 0.355119489661377 
1654	 0.354758590043942 
1655	 0.354371489718509 
1656	 0.353949591304104 
1657	 0.353549902217889 
1658	 0.353054832220211 
1659	 0.352486497484768 
1660	 0.351885575636827 
1661	 0.351248922230307 
1662	 0.350535395825057 
1663	 0.349756409767523 
1664	 0.348912830453835 
1665	 0.347989330116209 
1666	 0.347023357698795 
1667	 0.346033094872552 
1668	 0.344950122716715 
1669	 0.343807957495262 
1670	 0.342565215677737 
1671	 0.341208795436559 
1672	 0.339795451522561 
1673	 0.338296404796134 
1674	 0.336746689123743 
1675	 0.335157184019892 
1676	 0.333493074917428 
1677	 0.331748546597778 
1678	 0.329957212801306 
1679	 0.328055158995842 
1680	 0.326171160320017 
1681	 0.324257872063712 
1682	 0.322324941475121 
1683	 0.320385901442965 
1684	 0.318438771716592 
1685	 0.316482671807058 
1686	 0.314474921337783 
1687	 0.312429729659455 
1688	 0.310351670781647 
1689	 0.308210800919706 
1690	 0.306074711572877 
1691	 0.303914211529604 
1692	 0.301828603459586 
1693	 0.299793610563478 
1694	 0.29768335107794 
1695	 0.295565117428986 
1696	 0.293428283073303 
1697	 0.291238368791551 
1698	 0.289023191181417 
1699	 0.286856262402027 
1700	 0.284617281242663 
1701	 0.282255660449018 
1702	 0.279999843211655 
1703	 0.277693841325278 
1704	 0.275572763355715 
1705	 0.273516815726952 
1706	 0.271579257528713 
1707	 0.269871622500331 
1708	 0.268260912574406 
1709	 0.266769197086826 
1710	 0.265443138662482 
1711	 0.26413187600161 
1712	 0.262874835987106 
1713	 0.261664045301812 
1714	 0.260421624216773 
1715	 0.259286145685819 
1716	 0.25817319763468 
1717	 0.257079215884151 
1718	 0.256056989903206 
1719	 0.255042739314554 
1720	 0.254123640694559 
1721	 0.25329421103516 
1722	 0.252544905132148 
1723	 0.251990155168953 
1724	 0.251585306881547 
1725	 0.251331139353498 
1726	 0.251300238166081 
1727	 0.251479540869756 
1728	 0.251865262076974 
1729	 0.252490579650175 
1730	 0.253408282258612 
1731	 0.254444686739102 
1732	 0.25562851376987 
1733	 0.256904585706474 
1734	 0.258216201225901 
1735	 0.259627130083954 
1736	 0.260992194625193 
1737	 0.262287000121672 
1738	 0.263442297346134 
1739	 0.264349559437084 
1740	 0.265055030876321 
1741	 0.265613350442561 
1742	 0.265968005370358 
1743	 0.266206659801597 
1744	 0.266241665126104 
1745	 0.266243489718713 
1746	 0.266098178414718 
1747	 0.265962973807283 
1748	 0.26578585710831 
1749	 0.265597855247347 
1750	 0.265319046287957 
1751	 0.26514820106586 
1752	 0.26498452547143 
1753	 0.26492833636114 
1754	 0.26496854310509 
1755	 0.265017805880696 
1756	 0.265088106119498 
1757	 0.265243874643378 
1758	 0.265535864011344 
1759	 0.265970600330818 
1760	 0.266539628168862 
1761	 0.267257607423628 
1762	 0.268084923768456 
1763	 0.269133038173664 
1764	 0.270265627719791 
1765	 0.271514421131511 
1766	 0.272971277454079 
1767	 0.274391315224768 
1768	 0.275858185223283 
1769	 0.27731716973532 
1770	 0.278618897039032 
1771	 0.279924110394963 
1772	 0.281192869094959 
1773	 0.282418253270766 
1774	 0.283642785149413 
1775	 0.284764333491332 
1776	 0.285830520451683 
1777	 0.286742314710497 
1778	 0.287496419518062 
1779	 0.288229049334702 
1780	 0.288818240731108 
1781	 0.28933299415592 
1782	 0.289852306671595 
1783	 0.290262296939647 
1784	 0.290646961941662 
1785	 0.291055827094464 
1786	 0.291410871700064 
1787	 0.291744078842622 
1788	 0.292026874679949 
1789	 0.292256878697903 
1790	 0.292447937523478 
1791	 0.29257168255672 
1792	 0.292686279425851 
1793	 0.292741242815613 
1794	 0.292847701941693 
1795	 0.293023451261061 
1796	 0.293192201516116 
1797	 0.293346314552861 
1798	 0.293487991622208 
1799	 0.29359562167442 
1800	 0.293691999076462 
1801	 0.299039775524336 
1802	 0.299336385778115 
1803	 0.299614832194409 
1804	 0.299836461239685 
1805	 0.300082261064315 
1806	 0.300309109021481 
1807	 0.30051498794206 
1808	 0.300760432807228 
1809	 0.301016384827731 
1810	 0.301256766386895 
1811	 0.301539799755844 
1812	 0.301777854317947 
1813	 0.30198480397727 
1814	 0.302183188377633 
1815	 0.302355302343918 
1816	 0.302506793852838 
1817	 0.302695337785873 
1818	 0.302867246193107 
1819	 0.303083428166605 
1820	 0.303328808513975 
1821	 0.303601924647995 
1822	 0.303905752231928 
1823	 0.304227098111674 
1824	 0.304557500319727 
1825	 0.304868001011969 
1826	 0.305154629908625 
1827	 0.305432864922743 
1828	 0.305665178225112 
1829	 0.305829873983543 
1830	 0.306056180345656 
1831	 0.306276694733332 
1832	 0.306498209466403 
1833	 0.306747262410937 
1834	 0.307068499040659 
1835	 0.30735481088415 
1836	 0.307608601376417 
1837	 0.307888904675116 
1838	 0.308180249460432 
1839	 0.308457393798432 
1840	 0.308769427845692 
1841	 0.30902909290958 
1842	 0.309255920206411 
1843	 0.30949418045674 
1844	 0.309698560637466 
1845	 0.309842717479036 
1846	 0.3100144530626 
1847	 0.310182225844126 
1848	 0.31036221637481 
1849	 0.310560423426993 
1850	 0.31073871197468 
1851	 0.310917961486639 
1852	 0.311095332116227 
1853	 0.311258863332123 
1854	 0.311372840878217 
1855	 0.311459146891642 
1856	 0.311504718973378 
1857	 0.31146286201025 
1858	 0.311389512432775 
1859	 0.31127955246072 
1860	 0.311127261373872 
1861	 0.310925219404442 
1862	 0.310686067162107 
1863	 0.310401002211304 
1864	 0.310059506307597 
1865	 0.309705642871238 
1866	 0.309306143673506 
1867	 0.308815443019358 
1868	 0.308272333802827 
1869	 0.307667573759314 
1870	 0.307017458795699 
1871	 0.306282709709311 
1872	 0.305590346181906 
1873	 0.304911089853822 
1874	 0.304159341280518 
1875	 0.303390735959261 
1876	 0.302518421093046 
1877	 0.301597217047917 
1878	 0.300549276333255 
1879	 0.299334289827483 
1880	 0.298114163947222 
1881	 0.296705803870121 
1882	 0.295104911054425 
1883	 0.293436754762115 
1884	 0.29167534978219 
1885	 0.289669880356521 
1886	 0.287683677807326 
1887	 0.285571723794454 
1888	 0.283350544760026 
1889	 0.281250303129405 
1890	 0.279004657549455 
1891	 0.276708330936174 
1892	 0.274430110428514 
1893	 0.272065586475573 
1894	 0.269573576680275 
1895	 0.267162265080648 
1896	 0.264726343059968 
1897	 0.262261902577769 
1898	 0.259988756520108 
1899	 0.257688161678898 
1900	 0.255433279842283 
1901	 0.253267204105849 
1902	 0.251033735116321 
1903	 0.248921727546886 
1904	 0.246882753527796 
1905	 0.244891632993728 
1906	 0.2429994935852 
1907	 0.241295207606234 
1908	 0.239591788158526 
1909	 0.237979978091438 
1910	 0.236457146600598 
1911	 0.234892439571946 
1912	 0.233426548618695 
1913	 0.23206319665418 
1914	 0.230771599381811 
1915	 0.229589006996433 
1916	 0.22854438911319 
1917	 0.227557347373243 
1918	 0.22659938289526 
1919	 0.225688822187658 
1920	 0.224795887348325 
1921	 0.223952305695 
1922	 0.223141918434789 
1923	 0.222383980600697 
1924	 0.221725558085695 
1925	 0.221108057187962 
1926	 0.220564838213362 
1927	 0.220114410881046 
1928	 0.219698794343986 
1929	 0.219337690612683 
1930	 0.219027321392804 
1931	 0.218753824759933 
1932	 0.218511203798868 
1933	 0.218319665540367 
1934	 0.218179617616283 
1935	 0.218086159772733 
1936	 0.218061537001963 
1937	 0.218080627531353 
1938	 0.218159018537722 
1939	 0.218262639108239 
1940	 0.218426340758329 
1941	 0.218588795122882 
1942	 0.218763162905927 
1943	 0.218977219292586 
1944	 0.219229599568432 
1945	 0.219532769968797 
1946	 0.21988276544253 
1947	 0.220270695618913 
1948	 0.2206732834124 
1949	 0.221103359474627 
1950	 0.22151339893104 
1951	 0.221918180370758 
1952	 0.222335790463609 
1953	 0.22275377716665 
1954	 0.223159728837879 
1955	 0.22363236399749 
1956	 0.224091267275098 
1957	 0.22451524417078 
1958	 0.2249949729238 
1959	 0.225429254357053 
1960	 0.225850565893792 
1961	 0.226283143232197 
1962	 0.226728511987734 
1963	 0.227139269683139 
1964	 0.227529277833261 
1965	 0.227935208113163 
1966	 0.22833507121608 
1967	 0.228742727499882 
1968	 0.229145129330582 
1969	 0.229543554666283 
1970	 0.229903898941586 
1971	 0.230288310697152 
1972	 0.230705832167125 
1973	 0.231078123992756 
1974	 0.23142820119841 
1975	 0.231756563693614 
1976	 0.232087709195534 
1977	 0.232373090895966 
1978	 0.232699399391367 
1979	 0.233046996264744 
1980	 0.233399781831609 
1981	 0.233766386244369 
1982	 0.23414063828222 
1983	 0.234564805840963 
1984	 0.235042270258345 
1985	 0.235505671822996 
1986	 0.235967905799111 
1987	 0.236403159559871 
1988	 0.236826677318298 
1989	 0.237211622815229 
1990	 0.237565784338369 
1991	 0.237911085982118 
1992	 0.238233832993203 
1993	 0.238534949731879 
1994	 0.238816900949225 
1995	 0.239096979513476 
1996	 0.239342944597217 
1997	 0.239575107668643 
1998	 0.239829279563621 
1999	 0.240100715220237 
2000	 0.240335263748582 
2001	 0.240599255803842 
2002	 0.240787822329174 
2003	 0.240909731921286 
2004	 0.241037455656427 
2005	 0.241133517883381 
2006	 0.241211589404013 
2007	 0.241281182897097 
2008	 0.241334879960295 
2009	 0.241356308983259 
2010	 0.241335893239705 
2011	 0.241274559958984 
2012	 0.24116628769049 
2013	 0.24098778956333 
2014	 0.240739163188924 
2015	 0.240449401139575 
2016	 0.240090779079953 
2017	 0.239712532916176 
2018	 0.239286741730152 
2019	 0.238830240280551 
2020	 0.238352619018811 
2021	 0.237806327507253 
2022	 0.23722179535005 
2023	 0.236655938056976 
2024	 0.236042485644549 
2025	 0.235420331142109 
2026	 0.234782152836468 
2027	 0.234104364362161 
2028	 0.233454879766208 
2029	 0.232804186531382 
2030	 0.232154976188044 
2031	 0.231549274893368 
2032	 0.230888593445026 
2033	 0.230203653101548 
2034	 0.229503785776929 
2035	 0.228781626956291 
2036	 0.227992944162937 
2037	 0.227270397407206 
2038	 0.226543506731376 
2039	 0.225930251668952 
2040	 0.225350290682063 
2041	 0.224917146869946 
2042	 0.224553605418428 
2043	 0.224356455864024 
2044	 0.224319661759965 
2045	 0.224344572624366 
2046	 0.224544877434408 
2047	 0.224741028372473 
2048	 0.225006595789346 
2049	 0.225290820467589 
2050	 0.22566539628919 
2051	 0.225981991040916 
2052	 0.226307179316187 
2053	 0.226637702976812 
2054	 0.226939557846561 
2055	 0.227202659581293 
2056	 0.227494311621912 
2057	 0.227760903800204 
2058	 0.228087224688907 
2059	 0.228445616836899 
2060	 0.228801006049274 
2061	 0.229190892193542 
2062	 0.229587784200271 
2063	 0.229971957376904 
2064	 0.230386875790699 
2065	 0.230830675829425 
2066	 0.231307189191712 
2067	 0.231765539076846 
2068	 0.232183904239572 
2069	 0.232597942025375 
2070	 0.233008623006064 
2071	 0.233370145276882 
2072	 0.23371326553124 
2073	 0.234014493396222 
2074	 0.234268445965324 
2075	 0.234502540563724 
2076	 0.234718835880959 
2077	 0.234891624726779 
2078	 0.235013810458751 
2079	 0.23512198304952 
2080	 0.235177433439048 
2081	 0.235242314055544 
2082	 0.235286495538224 
2083	 0.235351274257715 
2084	 0.23538956655339 
2085	 0.235469530855189 
2086	 0.235510275029421 
2087	 0.235545015546375 
2088	 0.235560912733508 
2089	 0.23554716050219 
2090	 0.235542288155107 
2091	 0.235553127541675 
2092	 0.235516451665403 
2093	 0.23545454511723 
2094	 0.235392245648274 
2095	 0.235281978138225 
2096	 0.23519709594463 
2097	 0.235152933980312 
2098	 0.235064880515875 
2099	 0.234931270677412 
2100	 0.234805602488071 
2101	 0.234641793355161 
2102	 0.23444012186586 
2103	 0.234222169489756 
2104	 0.233987094833276 
2105	 0.233726109484296 
2106	 0.233408847586613 
2107	 0.233122982430066 
2108	 0.232847968732653 
2109	 0.232545483563842 
2110	 0.232255883851095 
2111	 0.231929992925009 
2112	 0.231562020906155 
2113	 0.231192210584248 
2114	 0.230795049412848 
2115	 0.230400430919509 
2116	 0.230010651958169 
2117	 0.229593244303028 
2118	 0.229175205947544 
2119	 0.228748847625944 
2120	 0.228333596976202 
2121	 0.227903564613181 
2122	 0.227502657117762 
2123	 0.227114564908792 
2124	 0.226741119361577 
2125	 0.226386790726001 
2126	 0.226027267176904 
2127	 0.225683909352501 
2128	 0.225340026041146 
2129	 0.224977779588375 
2130	 0.224648808693934 
2131	 0.224358057265247 
2132	 0.224049952648822 
2133	 0.223759582353636 
2134	 0.223454933082473 
2135	 0.223135658813063 
2136	 0.222775959093751 
2137	 0.222444528905126 
2138	 0.222111388730225 
2139	 0.221774488105497 
2140	 0.221451506298624 
2141	 0.221102487395873 
2142	 0.220738682813092 
2143	 0.220371258845113 
2144	 0.219980716679165 
2145	 0.219614666510148 
2146	 0.21923677434095 
2147	 0.21889085592633 
2148	 0.218542474964607 
2149	 0.218250412402904 
2150	 0.21801321531937 
2151	 0.217770376888351 
2152	 0.217559947559413 
2153	 0.217386154382874 
2154	 0.217135027800224 
2155	 0.216871075705451 
2156	 0.216647133088379 
2157	 0.216423673121701 
2158	 0.216196868210879 
2159	 0.216016040544231 
2160	 0.21578037616335 
2161	 0.215492812603414 
2162	 0.215237682276199 
2163	 0.214974628614074 
2164	 0.214730178884802 
2165	 0.214466751439807 
2166	 0.214273429247324 
2167	 0.214156546451799 
2168	 0.21398731262096 
2169	 0.213825629748724 
2170	 0.213683355298412 
2171	 0.213483684394562 
2172	 0.213350650637977 
2173	 0.213247987960753 
2174	 0.213221644230773 
2175	 0.21322148523083 
2176	 0.213263636140169 
2177	 0.213350506454 
2178	 0.213527909497979 
2179	 0.213629735032726 
2180	 0.213741896144147 
2181	 0.213834280013109 
2182	 0.213899443751853 
2183	 0.213963567371576 
2184	 0.214015714381328 
2185	 0.214090950573067 
2186	 0.21415748236637 
2187	 0.214233726982823 
2188	 0.214332987965077 
2189	 0.214428966649444 
2190	 0.214531705353143 
2191	 0.214617143417527 
2192	 0.214714329779758 
2193	 0.214796185228194 
2194	 0.214861216133534 
2195	 0.214909151995148 
2196	 0.214986459088835 
2197	 0.214979432376995 
2198	 0.214927287248815 
2199	 0.214838256928428 
2200	 0.214741308638256 
2201	 0.214607831507711 
2202	 0.214441344701667 
2203	 0.214282094988191 
2204	 0.214025944474327 
2205	 0.213681313712844 
2206	 0.213339076732613 
2207	 0.212891865353611 
2208	 0.212562081459616 
2209	 0.212206600470058 
2210	 0.21199096180016 
2211	 0.211869734362851 
2212	 0.211820098002106 
2213	 0.211872211987086 
2214	 0.211969143902521 
2215	 0.212208625599206 
2216	 0.212370257775997 
2217	 0.21259437102973 
2218	 0.212730452635889 
2219	 0.21284368641002 
2220	 0.212848337830867 
2221	 0.212785705043363 
2222	 0.212645167863195 
2223	 0.212401506162646 
2224	 0.212089969470721 
2225	 0.211788221778712 
2226	 0.211390510349941 
2227	 0.210872239366064 
2228	 0.21027329100674 
2229	 0.209604494008125 
2230	 0.208788918721635 
2231	 0.20797151708887 
2232	 0.207148725760361 
2233	 0.20615624239736 
2234	 0.205081814876732 
2235	 0.203881080622296 
2236	 0.202548622421571 
2237	 0.201127250300822 
2238	 0.199564418622123 
2239	 0.197959761465164 
2240	 0.196251680993049 
2241	 0.194484550448938 
2242	 0.192696021802737 
2243	 0.190768769526235 
2244	 0.188758202686962 
2245	 0.186620781343972 
2246	 0.184216781529296 
2247	 0.181927646481208 
2248	 0.179560405806736 
2249	 0.17724658222142 
2250	 0.174998594919816 
2251	 0.172847300993006 
2252	 0.170444589216831 
2253	 0.168078876486613 
2254	 0.165720199743035 
2255	 0.163246319614975 
2256	 0.160987628655772 
2257	 0.158780610005004 
2258	 0.156577046664209 
2259	 0.154442206620922 
2260	 0.152260205307589 
2261	 0.150054768633921 
2262	 0.147910251591999 
2263	 0.145724579051342 
2264	 0.143673836220644 
2265	 0.14181937808881 
2266	 0.139740860507602 
2267	 0.137764586686404 
2268	 0.135468105402553 
2269	 0.132930971204457 
2270	 0.130330386619437 
2271	 0.12754596726355 
2272	 0.124670776427294 
2273	 0.121688109831587 
2274	 0.118571050518523 
2275	 0.115297299413753 
2276	 0.111957665262548 
2277	 0.108306707993621 
2278	 0.104960484685132 
2279	 0.101408079694683 
2280	 9.83782160110905E-02 
2281	 9.56498272891539E-02 
2282	 9.32775526710188E-02 
2283	 9.12164222949313E-02 
2284	 8.96666074398767E-02 
2285	 8.83944394208113E-02 
2286	 8.74764527863112E-02 
2287	 8.69770710641368E-02 
2288	 8.67056353593104E-02 
2289	 8.66527078510401E-02 
2290	 0.08683958772087 
2291	 8.71325684841123E-02 
2292	 0.087538546370837 
2293	 8.80367291335641E-02 
2294	 8.85447473950514E-02 
2295	 8.90422053223235E-02 
2296	 8.94614294121828E-02 
2297	 8.98184311735547E-02 
2298	 9.00823566075663E-02 
2299	 9.04157735732003E-02 
2300	 9.06685409607941E-02 
2301	 9.10399846595337E-02 
2302	 9.15061098014071E-02 
2303	 9.19583113427043E-02 
2304	 9.23915381832348E-02 
2305	 9.29761224846338E-02 
2306	 9.35961020215767E-02 
2307	 9.43708818813866E-02 
2308	 9.52511368929206E-02 
2309	 9.63359823690573E-02 
2310	 9.76697061659015E-02 
2311	 9.89262876227744E-02 
2312	 0.100387520884672 
2313	 0.10168797200937 
2314	 0.102868900712566 
2315	 0.104109044655021 
2316	 0.105467687124528 
2317	 0.106579591929498 
2318	 0.107719369573975 
2319	 0.108499415151123 
2320	 0.10893331335714 
2321	 0.109305562379915 
2322	 0.109488075162754 
2323	 0.109506663334299 
2324	 0.10946526701709 
2325	 0.109122449328846 
2326	 0.108555578824972 
2327	 0.10769482562401 
2328	 0.106442739602235 
2329	 0.105102304010525 
2330	 0.103560166921088 
2331	 0.101766565364901 
2332	 9.98519774882682E-02 
2333	 9.76719235205069E-02 
2334	 9.51823485960658E-02 
2335	 9.26045108774693E-02 
2336	 8.98903350875185E-02 
2337	 8.71611384594879E-02 
2338	 8.44703005848519E-02 
2339	 8.17000799661709E-02 
2340	 7.90570080689077E-02 
2341	 0.076578639322901 
2342	 7.42646864578741E-02 
2343	 7.23291233313218E-02 
2344	 7.06522938850592E-02 
2345	 6.94640943534334E-02 
2346	 6.86796692853603E-02 
2347	 6.80906389907996E-02 
2348	 6.76487142587288E-02 
2349	 6.72972704010593E-02 
2350	 6.70295559596597E-02 
2351	 6.67799624358251E-02 
2352	 6.66796253169649E-02 
2353	 6.65955076698778E-02 
2354	 6.67140768981778E-02 
2355	 6.70252291803399E-02 
2356	 6.76446877115079E-02 
2357	 0.068981278272384 
2358	 0.070806372093106 
2359	 7.30715490237733E-02 
2360	 7.57125961070406E-02 
2361	 7.87325928141391E-02 
2362	 8.17453409071515E-02 
2363	 8.47339274425624E-02 
2364	 8.76944216627741E-02 
2365	 9.02276749633927E-02 
2366	 9.25373886018065E-02 
2367	 0.094581191905731 
2368	 9.63393637653781E-02 
2369	 9.78350822571751E-02 
2370	 9.90701650888386E-02 
2371	 0.100149191316441 
2372	 0.101038601791841 
2373	 0.101827805128432 
2374	 0.1025305766496 
2375	 0.103051322658231 
2376	 0.103514979812682 
2377	 0.103826611352385 
2378	 0.103882035215256 
2379	 0.103981085475358 
2380	 0.104116219241716 
2381	 0.104144358875005 
2382	 0.104277687108964 
2383	 0.104509564025373 
2384	 0.10477794629381 
2385	 0.105045994245391 
2386	 0.105439922205604 
2387	 0.106067282578682 
2388	 0.106405819200418 
2389	 0.106717287407203 
2390	 0.10691218736978 
2391	 0.106841092748816 
2392	 0.107005360851267 
2393	 0.107173394032353 
2394	 0.107368151737791 
2395	 0.107688546716343 
2396	 0.107940368621408 
2397	 0.108177719879527 
2398	 0.108383290113555 
2399	 0.108581171391697 
2400	 0.108814318959574 
2401	 0.109062599799317 
2402	 0.109341983681212 
2403	 0.109444878323437 
2404	 0.109545131428758 
2405	 0.109750754025207 
2406	 0.110049557576401 
2407	 0.110405707963371 
2408	 0.110774040388343 
2409	 0.111094322682603 
2410	 0.111297347975969 
2411	 0.111386238990813 
2412	 0.111445871910294 
2413	 0.111476794883443 
2414	 0.111536810433348 
2415	 0.111739056398448 
2416	 0.111962153130884 
2417	 0.111944943452156 
2418	 0.111944849473615 
2419	 0.111963981596935 
2420	 0.111820042390483 
2421	 0.111738876750674 
2422	 0.111649919933772 
2423	 0.111676435624717 
2424	 0.111852388896667 
2425	 0.112056230608645 
2426	 0.112214053542868 
2427	 0.112034684662181 
2428	 0.111803163271708 
2429	 0.111587835871767 
2430	 0.111326536396387 
2431	 0.111385073658309 
2432	 0.111472447689993 
2433	 0.111497573785468 
2434	 0.111558049736972 
2435	 0.111419986153089 
2436	 0.111192485910988 
2437	 0.111064730661004 
2438	 0.111007397688375 
2439	 0.111009773853649 
2440	 0.111108942672561 
2441	 0.111065280166478 
2442	 0.110855494983959 
2443	 0.110493504446035 
2444	 0.109810907266145 
2445	 0.10911431648859 
2446	 0.108741498262901 
2447	 0.108544870670713 
2448	 0.108459970577284 
2449	 0.108505473460876 
2450	 0.108335310798885 
2451	 0.107911026746688 
2452	 0.107373844657139 
2453	 0.106921895396989 
2454	 0.10667110253933 
2455	 0.106534410237647 
2456	 0.106394172350594 
2457	 0.106067871213454 
2458	 0.105722481245745 
2459	 0.105358798503437 
2460	 0.105136930675269 
2461	 0.105116224077622 
2462	 0.104976835671245 
2463	 0.104689055600709 
2464	 0.104298703161113 
2465	 0.104024626909054 
2466	 0.103845805156454 
2467	 0.103707649610798 
2468	 0.103709691546368 
2469	 0.103397371164393 
2470	 0.102754833021574 
2471	 0.10212790839375 
2472	 0.101657352107208 
2473	 0.101551842880604 
2474	 0.101499483873483 
2475	 0.10147498316911 
2476	 0.101370576743778 
2477	 0.101260794442665 
2478	 0.101217166460328 
2479	 0.101024213201991 
2480	 0.101073364985598 
2481	 0.10106210093866 
2482	 0.101279446952041 
2483	 0.101273390373094 
2484	 0.101211621965042 
2485	 0.101138333664334 
2486	 0.10134608311636 
2487	 0.1011083176263 
2488	 0.100593905786664 
2489	 0.100397167782606 
2490	 0.1002352179337 
2491	 0.100416804439482 
2492	 0.100858171843337 
2493	 0.10125097963115 
2494	 0.10118672300908 
2495	 0.100713422636153 
2496	 0.100159832357196 
2497	 9.97026715922307E-02 
2498	 9.98633752325385E-02 
2499	 0.100453691080836 
2500	 0.101094100713447 
