Wavelength	spectrum00002.asd
350	 6.55412365981193E-02 
351	 6.44503888103965E-02 
352	 6.09438871404887E-02 
353	 5.48975012027876E-02 
354	 5.46421854861913E-02 
355	 5.50293191991152E-02 
356	 5.25940357134718E-02 
357	 4.76202702059462E-02 
358	 4.97123409402226E-02 
359	 5.15770095629152E-02 
360	 5.13373176766167E-02 
361	 5.00242804740439E-02 
362	 4.69325974645738E-02 
363	 4.55952023279705E-02 
364	 4.59422022658674E-02 
365	 4.29119565812047E-02 
366	 4.15107534147448E-02 
367	 4.15870430971218E-02 
368	 4.21532864718548E-02 
369	 0.044229193555258 
370	 4.34833151688531E-02 
371	 4.12685332498101E-02 
372	 4.17173498272028E-02 
373	 4.16607323923585E-02 
374	 4.10366569980176E-02 
375	 4.03790089664995E-02 
376	 4.05976220026145E-02 
377	 3.96374095508946E-02 
378	 3.91559166981994E-02 
379	 4.05669408558133E-02 
380	 4.12475227478351E-02 
381	 4.07345831146602E-02 
382	 3.97322750956682E-02 
383	 3.93861163914429E-02 
384	 3.75524585229078E-02 
385	 3.66914087629431E-02 
386	 3.79785226943215E-02 
387	 4.01156664165345E-02 
388	 3.78986173377678E-02 
389	 3.59828073449728E-02 
390	 3.86642829885851E-02 
391	 0.038337439818016 
392	 3.83611897170603E-02 
393	 3.84339749473194E-02 
394	 3.62226776768987E-02 
395	 3.62817901297711E-02 
396	 0.03651635930052 
397	 3.57167065899159E-02 
398	 0.035566511602543 
399	 3.53120447024701E-02 
400	 3.54651296933564E-02 
401	 3.61756723502226E-02 
402	 3.46451818445553E-02 
403	 3.35603656544725E-02 
404	 3.36886729933733E-02 
405	 3.41631328679328E-02 
406	 3.48332556994588E-02 
407	 3.43625311901903E-02 
408	 3.27472919617623E-02 
409	 3.27740924016169E-02 
410	 3.24408492570122E-02 
411	 3.19876393168714E-02 
412	 3.20611165470783E-02 
413	 0.031537750289066 
414	 3.16296904627683E-02 
415	 3.22251160108494E-02 
416	 3.20118706758586E-02 
417	 3.18216243947724E-02 
418	 3.15723929337718E-02 
419	 3.12888244750036E-02 
420	 3.17471348673065E-02 
421	 3.12016069690812E-02 
422	 3.05170213028644E-02 
423	 3.11588836722813E-02 
424	 3.09928462327486E-02 
425	 3.07335501446302E-02 
426	 3.07194014332363E-02 
427	 3.06114668864056E-02 
428	 3.04232605545282E-02 
429	 3.01484818194656E-02 
430	 2.98740397884503E-02 
431	 2.99744510792444E-02 
432	 3.00082324123436E-02 
433	 2.98498697729442E-02 
434	 2.95986773251604E-02 
435	 0.029540187264603 
436	 2.97107415279673E-02 
437	 2.99655433348974E-02 
438	 2.99454196392715E-02 
439	 2.97724756813423E-02 
440	 2.96759097993595E-02 
441	 2.97586112312425E-02 
442	 2.94163106853578E-02 
443	 2.93552848183699E-02 
444	 2.96008905077745E-02 
445	 2.96143099481281E-02 
446	 2.93449817628746E-02 
447	 2.92099296720792E-02 
448	 2.93872186250328E-02 
449	 2.93688964298471E-02 
450	 2.93559975184281E-02 
451	 2.93246384989889E-02 
452	 2.92209611441952E-02 
453	 2.92867455093613E-02 
454	 2.92876524655156E-02 
455	 0.029191780245317 
456	 2.92221455960852E-02 
457	 2.92482523378557E-02 
458	 2.92486846022482E-02 
459	 2.92603624980506E-02 
460	 2.94382167106832E-02 
461	 2.95680571626838E-02 
462	 2.94870413895185E-02 
463	 2.91561856640064E-02 
464	 2.92702833402878E-02 
465	 2.93407107884566E-02 
466	 2.91593519045615E-02 
467	 2.91572729952505E-02 
468	 2.92348593363112E-02 
469	 2.93702306089032E-02 
470	 2.95093967613141E-02 
471	 2.94314640624959E-02 
472	 2.92567982055498E-02 
473	 2.90830813981536E-02 
474	 2.89859300900226E-02 
475	 2.91696954123363E-02 
476	 2.93548105386875E-02 
477	 2.93331216809142E-02 
478	 2.92109726176776E-02 
479	 2.90790738250479E-02 
480	 2.90939452827095E-02 
481	 0.029344309671424 
482	 2.94390931340969E-02 
483	 2.93243686606105E-02 
484	 0.029169214207209 
485	 2.93498846222777E-02 
486	 2.94492220010606E-02 
487	 2.93987470359324E-02 
488	 2.92747991241107E-02 
489	 2.93299829932006E-02 
490	 2.93261266096229E-02 
491	 0.029317136855934 
492	 2.94740836033006E-02 
493	 2.92755012090027E-02 
494	 2.92733906541245E-02 
495	 2.96139941151887E-02 
496	 2.95532644539367E-02 
497	 2.96941741000296E-02 
498	 2.97828875312394E-02 
499	 2.95285277583419E-02 
500	 0.029692351838825 
501	 2.99131669900656E-02 
502	 3.00077727934076E-02 
503	 2.99993398657392E-02 
504	 2.99373245725154E-02 
505	 2.98991251096114E-02 
506	 2.99461928889786E-02 
507	 3.01300277683818E-02 
508	 3.01406699417472E-02 
509	 3.00574210299543E-02 
510	 3.01094305116398E-02 
511	 3.01964742628014E-02 
512	 3.02407064684938E-02 
513	 3.02397404073798E-02 
514	 3.02866028636348E-02 
515	 3.02390634125095E-02 
516	 3.02134944053554E-02 
517	 3.03234293683174E-02 
518	 3.04427952421664E-02 
519	 3.05375119779062E-02 
520	 3.05916327870805E-02 
521	 3.06052972561243E-02 
522	 3.05782707963946E-02 
523	 3.06479214944692E-02 
524	 3.08478305608217E-02 
525	 3.09896495749495E-02 
526	 3.10412770187171E-02 
527	 3.10546925227067E-02 
528	 3.11151257487004E-02 
529	 3.12681994109049E-02 
530	 3.13222990771191E-02 
531	 3.13320240305498E-02 
532	 3.16134203855401E-02 
533	 3.18073765018125E-02 
534	 3.19002802231272E-02 
535	 3.19493477019928E-02 
536	 3.19613081083349E-02 
537	 3.20694717827601E-02 
538	 0.03222915224438 
539	 3.23152823216611E-02 
540	 3.24794009794097E-02 
541	 3.26884129299828E-02 
542	 3.28792816085927E-02 
543	 3.29695735825135E-02 
544	 3.31195211202616E-02 
545	 0.033331316983363 
546	 3.35533387445432E-02 
547	 3.37417435474412E-02 
548	 3.39552580674482E-02 
549	 3.42138593037663E-02 
550	 3.44986700380807E-02 
551	 3.48190477651557E-02 
552	 3.51012823499626E-02 
553	 0.035326024886421 
554	 3.56315869164176E-02 
555	 3.60292386376839E-02 
556	 3.64640247471344E-02 
557	 3.68587448343015E-02 
558	 3.72649535887436E-02 
559	 3.77121005589503E-02 
560	 3.82272235482603E-02 
561	 3.88391423521681E-02 
562	 3.94111685700367E-02 
563	 3.99806767428365E-02 
564	 4.06189018510935E-02 
565	 4.13199767174906E-02 
566	 4.20639598960589E-02 
567	 4.28509136078286E-02 
568	 4.37077878609935E-02 
569	 4.47795489221836E-02 
570	 0.045980090530473 
571	 4.72509791664611E-02 
572	 4.86670362592118E-02 
573	 5.02751234636815E-02 
574	 5.20443252528568E-02 
575	 5.38795426802506E-02 
576	 5.55136690603963E-02 
577	 0.057062489525756 
578	 5.86828082284534E-02 
579	 6.05359871917567E-02 
580	 6.25509073646004E-02 
581	 6.48262258546929E-02 
582	 6.74561879974167E-02 
583	 7.04003167309176E-02 
584	 7.35681422339894E-02 
585	 7.69395952763406E-02 
586	 8.05627378301309E-02 
587	 8.44417712461972E-02 
588	 8.85658573378881E-02 
589	 9.29740287733241E-02 
590	 9.77305188768579E-02 
591	 0.103084542295403 
592	 0.108863288525893 
593	 0.114770114887465 
594	 0.12070486647489 
595	 0.126720051201188 
596	 0.13279770690432 
597	 0.138833071625859 
598	 0.145029171775369 
599	 0.151647008527166 
600	 0.158840550451719 
601	 0.166405318045655 
602	 0.174255594625274 
603	 0.182356268751562 
604	 0.19067680837662 
605	 0.19901451278075 
606	 0.207197049567052 
607	 0.215187305044885 
608	 0.223095687540908 
609	 0.230782026021064 
610	 0.238245461571121 
611	 0.245537469849594 
612	 0.252648053422702 
613	 0.259479524359519 
614	 0.265978241168138 
615	 0.272170085073768 
616	 0.278134030956197 
617	 0.283818118857401 
618	 0.289189733129658 
619	 0.294316016931507 
620	 0.299174711417858 
621	 0.30372511467885 
622	 0.307932784839897 
623	 0.311823807602793 
624	 0.315561835284573 
625	 0.319162864503954 
626	 0.32249315970517 
627	 0.325704881380175 
628	 0.328667266612665 
629	 0.331323438556935 
630	 0.333943455286137 
631	 0.336393122489798 
632	 0.33864900434639 
633	 0.340756898586787 
634	 0.342901710537026 
635	 0.34497466525847 
636	 0.346875440423978 
637	 0.348545227191481 
638	 0.350109003981684 
639	 0.351619859185559 
640	 0.353104744374142 
641	 0.354587998710539 
642	 0.355942039279304 
643	 0.357219556858097 
644	 0.358561120953641 
645	 0.359731927182204 
646	 0.360934879052891 
647	 0.362194236922146 
648	 0.363149335841964 
649	 0.364181459306234 
650	 0.365194637487802 
651	 0.36604869880266 
652	 0.367067146912503 
653	 0.368065185098155 
654	 0.368974025218499 
655	 0.36983528819997 
656	 0.370662322436226 
657	 0.371441421343666 
658	 0.372211512398346 
659	 0.373152083223905 
660	 0.374008953642756 
661	 0.374730143658582 
662	 0.37537154768117 
663	 0.376109983608872 
664	 0.376797427927401 
665	 0.37743081875514 
666	 0.378165319550603 
667	 0.37891053801125 
668	 0.379551484260621 
669	 0.380064759858175 
670	 0.380669848807444 
671	 0.381256812673421 
672	 0.381860256424432 
673	 0.38255317373907 
674	 0.383225236358637 
675	 0.38379821153323 
676	 0.384271758556423 
677	 0.384732657942021 
678	 0.385339856881987 
679	 0.385916972619917 
680	 0.386350187265107 
681	 0.386994026232086 
682	 0.38749706403329 
683	 0.387885006351094 
684	 0.388384195200033 
685	 0.389003687249473 
686	 0.389523725209002 
687	 0.389917405389262 
688	 0.390460934075912 
689	 0.390956272032475 
690	 0.391342099198069 
691	 0.391657161074544 
692	 0.392146252884915 
693	 0.392647717181527 
694	 0.39314130634324 
695	 0.393679027715116 
696	 0.394087318571795 
697	 0.394465529378721 
698	 0.394844397702722 
699	 0.395086404924103 
700	 0.395526269381721 
701	 0.396075494964275 
702	 0.396529383282826 
703	 0.396730267471327 
704	 0.397169769337265 
705	 0.397754569040006 
706	 0.398032768843188 
707	 0.398449614039765 
708	 0.398854044983185 
709	 0.399155153117606 
710	 0.399484538030929 
711	 0.399922203952969 
712	 0.400299162270897 
713	 0.40051065661692 
714	 0.401020417296327 
715	 0.401582893064279 
716	 0.40203135062293 
717	 0.402291938668539 
718	 0.402481399233761 
719	 0.402696495319102 
720	 0.403015705348589 
721	 0.403506240761092 
722	 0.40387827907037 
723	 0.404133213429697 
724	 0.404387070063908 
725	 0.404814443005661 
726	 0.405078698806275 
727	 0.405302028425363 
728	 0.405856761958582 
729	 0.406030808732691 
730	 0.406273526519513 
731	 0.406725068838813 
732	 0.406758290417715 
733	 0.407121160309243 
734	 0.407536359626818 
735	 0.407653946041633 
736	 0.408013140215293 
737	 0.408542460480053 
738	 0.409018963935502 
739	 0.409180394815717 
740	 0.409337249189423 
741	 0.409542380279266 
742	 0.409835563301515 
743	 0.410287544474647 
744	 0.410736929397044 
745	 0.41106947050063 
746	 0.411249638565205 
747	 0.411412012848803 
748	 0.411726023249172 
749	 0.412067885070281 
750	 0.412215023222974 
751	 0.412675166431326 
752	 0.412919958314618 
753	 0.41292702110839 
754	 0.413433676125062 
755	 0.413848318474378 
756	 0.414142745634704 
757	 0.414411466100773 
758	 0.414710767300653 
759	 0.414973142748118 
760	 0.415188436490244 
761	 0.415393792517902 
762	 0.415728725760272 
763	 0.416077239922044 
764	 0.416331607330584 
765	 0.416431965668862 
766	 0.416554753754575 
767	 0.416807900588993 
768	 0.417189327256244 
769	 0.417506698293638 
770	 0.417698355107365 
771	 0.41785978398346 
772	 0.418119432813867 
773	 0.418433539385778 
774	 0.418546605863375 
775	 0.418612588007761 
776	 0.419064802769862 
777	 0.419469058915073 
778	 0.419647008599916 
779	 0.419678133095166 
780	 0.419998067670731 
781	 0.420227249659496 
782	 0.420365998556729 
783	 0.420543860574084 
784	 0.420955010856843 
785	 0.42130430078358 
786	 0.421472625214365 
787	 0.421516765426635 
788	 0.421878642559117 
789	 0.422301831252093 
790	 0.422524162770205 
791	 0.422401839033409 
792	 0.422733448062741 
793	 0.423086121405873 
794	 0.42310375255937 
795	 0.423264070198502 
796	 0.423457914397781 
797	 0.423701510078635 
798	 0.424000852879512 
799	 0.424156679190064 
800	 0.424329388822379 
801	 0.424544423892557 
802	 0.424722843875972 
803	 0.424993244430568 
804	 0.425174759043085 
805	 0.425243877609802 
806	 0.425463470640267 
807	 0.425593979940225 
808	 0.425755279919363 
809	 0.426016017156476 
810	 0.426008276927094 
811	 0.426159746775584 
812	 0.426480793862921 
813	 0.426810805247364 
814	 0.427258727094038 
815	 0.427436217043134 
816	 0.427341260986177 
817	 0.427337337206247 
818	 0.427530866385917 
819	 0.427819106606847 
820	 0.428078112529134 
821	 0.428220944113918 
822	 0.428521045002519 
823	 0.428849373584369 
824	 0.429016478356265 
825	 0.428973653265371 
826	 0.429155351694998 
827	 0.4294317427089 
828	 0.429481453180519 
829	 0.429571358964779 
830	 0.429795952367343 
831	 0.430081870790858 
832	 0.430233316369207 
833	 0.430290882920021 
834	 0.430573929622136 
835	 0.431098156212883 
836	 0.431370631756256 
837	 0.431437964696686 
838	 0.431408082825799 
839	 0.4314422984171 
840	 0.43178432458565 
841	 0.432052649592036 
842	 0.432086754113853 
843	 0.431963344404206 
844	 0.432360307268425 
845	 0.432636379255887 
846	 0.432645563186064 
847	 0.432664149873628 
848	 0.432794322370288 
849	 0.433046624221607 
850	 0.433276973081909 
851	 0.433202685566596 
852	 0.433259819957923 
853	 0.433356125696187 
854	 0.433431438772449 
855	 0.43375070183742 
856	 0.4338080385864 
857	 0.433726519095293 
858	 0.433794561590102 
859	 0.434092555853999 
860	 0.434459761176733 
861	 0.434689581230766 
862	 0.434638854902218 
863	 0.43458255236142 
864	 0.43467204773353 
865	 0.434886840335162 
866	 0.435070879867224 
867	 0.435231621210352 
868	 0.435451661178755 
869	 0.435624010489417 
870	 0.435401515387609 
871	 0.435487660699808 
872	 0.435867231402956 
873	 0.43625305948773 
874	 0.436135110087507 
875	 0.436310592109676 
876	 0.436570678532849 
877	 0.436602608545256 
878	 0.436947282072227 
879	 0.437211779838602 
880	 0.437279337915724 
881	 0.437257035583458 
882	 0.43761808110477 
883	 0.437678040627056 
884	 0.437555140069819 
885	 0.437918751326697 
886	 0.43818920300905 
887	 0.438288339975598 
888	 0.438309738000474 
889	 0.438458387146032 
890	 0.438558699795265 
891	 0.438694942188237 
892	 0.43892712314502 
893	 0.439198688869832 
894	 0.439385885372476 
895	 0.439424583802862 
896	 0.439386361796213 
897	 0.439645403566188 
898	 0.439618143127743 
899	 0.43958177176871 
900	 0.43986475500693 
901	 0.439809609160018 
902	 0.439738798817313 
903	 0.439828617777161 
904	 0.440082190869471 
905	 0.440057784216659 
906	 0.440308846092293 
907	 0.440610402427002 
908	 0.440325996271651 
909	 0.44040565584802 
910	 0.440710156640219 
911	 0.440910593256717 
912	 0.440677958354181 
913	 0.440450697040448 
914	 0.440588893859962 
915	 0.441000611069089 
916	 0.441042578899855 
917	 0.44085261736777 
918	 0.440686268825779 
919	 0.440793530689127 
920	 0.441339765650713 
921	 0.441638265983109 
922	 0.441752063383709 
923	 0.441866851867062 
924	 0.441907142145284 
925	 0.44198167371615 
926	 0.442133320108829 
927	 0.442334481591681 
928	 0.442433181306457 
929	 0.44242136261542 
930	 0.442378409917728 
931	 0.442475577157344 
932	 0.443105660382811 
933	 0.443513189346329 
934	 0.443617097392163 
935	 0.443702982654735 
936	 0.443649159777833 
937	 0.443520274450315 
938	 0.443647421681464 
939	 0.444322390091224 
940	 0.444492722432873 
941	 0.44440334330903 
942	 0.444277868233556 
943	 0.444238927520474 
944	 0.444673513577465 
945	 0.444817707236127 
946	 0.444620003856642 
947	 0.444858796272303 
948	 0.44532896974144 
949	 0.445610968454661 
950	 0.445617706714353 
951	 0.445721278140465 
952	 0.446008408473126 
953	 0.446302376856887 
954	 0.446382165206571 
955	 0.446092782579517 
956	 0.446063928842316 
957	 0.446322823227562 
958	 0.446708817278574 
959	 0.44700033774623 
960	 0.446810376363042 
961	 0.44669607647044 
962	 0.446960995139225 
963	 0.446964018384604 
964	 0.446892155913917 
965	 0.446895895333583 
966	 0.447030423147946 
967	 0.447145294846089 
968	 0.447277765455819 
969	 0.447189785494308 
970	 0.446839059823374 
971	 0.446801051077288 
972	 0.447184647298362 
973	 0.44731154975675 
974	 0.446781727433273 
975	 0.446597192805907 
976	 0.446991304009958 
977	 0.447393741317163 
978	 0.447332789317005 
979	 0.447572543398624 
980	 0.447368176497356 
981	 0.447084349036532 
982	 0.447184887812825 
983	 0.447168868578199 
984	 0.447490998822654 
985	 0.448039205749256 
986	 0.448460649456112 
987	 0.448345439321395 
988	 0.448366369433957 
989	 0.44840475955325 
990	 0.448188341028331 
991	 0.447944124161522 
992	 0.448048392402174 
993	 0.44841168529752 
994	 0.448751289901808 
995	 0.448861464429158 
996	 0.448868209828689 
997	 0.448863298550818 
998	 0.448958276452315 
999	 0.449417248228594 
1000	 0.449310722100839 
1001	 0.458968421547318 
1002	 0.459113881725002 
1003	 0.459387731625308 
1004	 0.459640947743599 
1005	 0.460024450462336 
1006	 0.460205096962034 
1007	 0.460258385412176 
1008	 0.460436910967887 
1009	 0.460614492756666 
1010	 0.460771693309438 
1011	 0.460973107245081 
1012	 0.46119287291715 
1013	 0.461348433870438 
1014	 0.46153284319173 
1015	 0.461773098663809 
1016	 0.462073984009683 
1017	 0.462274950907767 
1018	 0.462409030806511 
1019	 0.46255396773993 
1020	 0.462729179247012 
1021	 0.462934048609991 
1022	 0.46320073197323 
1023	 0.463379734407012 
1024	 0.463594436544377 
1025	 0.463709441973237 
1026	 0.463710956021504 
1027	 0.463748970671938 
1028	 0.463775181975725 
1029	 0.463752752078171 
1030	 0.463774295267248 
1031	 0.463811596653601 
1032	 0.463806569376081 
1033	 0.463776540667859 
1034	 0.463694751612345 
1035	 0.46366172077526 
1036	 0.463589326512419 
1037	 0.463453828499409 
1038	 0.463404025495214 
1039	 0.463385457552439 
1040	 0.463332509700954 
1041	 0.463357385855479 
1042	 0.463319425563035 
1043	 0.463203692645808 
1044	 0.463149657975555 
1045	 0.463093492410933 
1046	 0.462950229423569 
1047	 0.462879143273807 
1048	 0.462731055653857 
1049	 0.46262697261495 
1050	 0.46260204771766 
1051	 0.46247731499329 
1052	 0.46243072188853 
1053	 0.462375260307997 
1054	 0.46225081257079 
1055	 0.46219963584952 
1056	 0.462191948102048 
1057	 0.462220624442198 
1058	 0.462268448266764 
1059	 0.462370371157595 
1060	 0.462533531934595 
1061	 0.462755461293829 
1062	 0.462919255018984 
1063	 0.463130005985255 
1064	 0.463388894205948 
1065	 0.463625045387268 
1066	 0.463885295733803 
1067	 0.464248318925738 
1068	 0.464646355737193 
1069	 0.464960185136841 
1070	 0.465365050455555 
1071	 0.46582822120655 
1072	 0.466296149667786 
1073	 0.466775125736027 
1074	 0.467436893239211 
1075	 0.468040189109628 
1076	 0.468596856144407 
1077	 0.469229620149328 
1078	 0.469785856944478 
1079	 0.470403201156501 
1080	 0.471140831666202 
1081	 0.471788644975664 
1082	 0.472381952836372 
1083	 0.473015526273939 
1084	 0.473640515642777 
1085	 0.47428720041921 
1086	 0.474914782828231 
1087	 0.475588819653928 
1088	 0.476192415051145 
1089	 0.476741622689401 
1090	 0.477246441602418 
1091	 0.477792598952633 
1092	 0.478350374349047 
1093	 0.478868729425683 
1094	 0.479424002506239 
1095	 0.479936434437915 
1096	 0.480390607905676 
1097	 0.480751941119346 
1098	 0.481070898949201 
1099	 0.481424781226823 
1100	 0.481721385406803 
1101	 0.481963051979049 
1102	 0.482156719913704 
1103	 0.482316331987642 
1104	 0.482384903296655 
1105	 0.482457593009422 
1106	 0.482553000723976 
1107	 0.482582059355283 
1108	 0.482542516022769 
1109	 0.482501439480425 
1110	 0.482430149169443 
1111	 0.48235793518111 
1112	 0.482343358536637 
1113	 0.482237721553033 
1114	 0.482069624062098 
1115	 0.481934689821162 
1116	 0.481739455802598 
1117	 0.481506975966005 
1118	 0.481300622903652 
1119	 0.481141201230716 
1120	 0.480886080266336 
1121	 0.480573535540094 
1122	 0.480308246078133 
1123	 0.48002798721841 
1124	 0.479748309051392 
1125	 0.479538547464361 
1126	 0.479351663202051 
1127	 0.479125751923758 
1128	 0.478883830967764 
1129	 0.478675357942546 
1130	 0.478452583771544 
1131	 0.478265835636635 
1132	 0.478111876037547 
1133	 0.478008884880825 
1134	 0.477954337285404 
1135	 0.477859450278554 
1136	 0.477748606546911 
1137	 0.477687023398592 
1138	 0.477624799603439 
1139	 0.477562799549629 
1140	 0.47753571507919 
1141	 0.477510180598255 
1142	 0.47745597734657 
1143	 0.477412920752324 
1144	 0.477408262177314 
1145	 0.477389092445411 
1146	 0.477340420055936 
1147	 0.477330822100647 
1148	 0.477328686757833 
1149	 0.477331153071389 
1150	 0.477416374971388 
1151	 0.477486263478083 
1152	 0.477522790098683 
1153	 0.477538271809702 
1154	 0.477582181645221 
1155	 0.477594242781982 
1156	 0.477648146541133 
1157	 0.477761552111963 
1158	 0.477839390831861 
1159	 0.477912026984646 
1160	 0.477970142556163 
1161	 0.478037556850514 
1162	 0.478131357407126 
1163	 0.478226341764901 
1164	 0.478295800661562 
1165	 0.478370491879347 
1166	 0.478412820160288 
1167	 0.478465999356345 
1168	 0.478567871928712 
1169	 0.478628870951497 
1170	 0.478655096070885 
1171	 0.47873466564048 
1172	 0.478832894090079 
1173	 0.478913259376485 
1174	 0.479025306466931 
1175	 0.47911422697328 
1176	 0.479156628079975 
1177	 0.479231076059545 
1178	 0.479284231266591 
1179	 0.479434833612367 
1180	 0.479603671294554 
1181	 0.479723070632469 
1182	 0.47987548054292 
1183	 0.480010652443929 
1184	 0.480124659091151 
1185	 0.480258867311599 
1186	 0.480371720719184 
1187	 0.480474796303231 
1188	 0.480583555812961 
1189	 0.480667128553029 
1190	 0.480794659350414 
1191	 0.480936877928191 
1192	 0.481104099555966 
1193	 0.48131732581748 
1194	 0.481501679564456 
1195	 0.481716081820121 
1196	 0.481896459726682 
1197	 0.482067267553136 
1198	 0.482175474174954 
1199	 0.482313521019722 
1200	 0.482469438178576 
1201	 0.482601172425647 
1202	 0.482774866507466 
1203	 0.482978502482726 
1204	 0.483192114195453 
1205	 0.4834195193269 
1206	 0.483691376093115 
1207	 0.48394375101789 
1208	 0.484199489653585 
1209	 0.484433202152648 
1210	 0.484660993933228 
1211	 0.484893937815621 
1212	 0.485097329432112 
1213	 0.485333625993024 
1214	 0.485582440531918 
1215	 0.485853361755564 
1216	 0.486149739187082 
1217	 0.486449252770476 
1218	 0.486792330774395 
1219	 0.487091184463653 
1220	 0.487381853390475 
1221	 0.487695139102498 
1222	 0.487973237444516 
1223	 0.488267513212644 
1224	 0.488527272639793 
1225	 0.4887739644382 
1226	 0.489001694654923 
1227	 0.489194444441677 
1228	 0.489399762687778 
1229	 0.489577967243647 
1230	 0.48980722083397 
1231	 0.490061311000679 
1232	 0.490312857668544 
1233	 0.490620945638185 
1234	 0.490874046072185 
1235	 0.491052283058737 
1236	 0.491300532242008 
1237	 0.491573780218207 
1238	 0.49183991260878 
1239	 0.492132325299078 
1240	 0.492469902296742 
1241	 0.492709771810461 
1242	 0.492913839469851 
1243	 0.493114155862593 
1244	 0.4932773712578 
1245	 0.493442842663067 
1246	 0.493593764980512 
1247	 0.493758067435678 
1248	 0.493921498826208 
1249	 0.49407230360636 
1250	 0.494217528614625 
1251	 0.494375179907033 
1252	 0.494543188338476 
1253	 0.494672095556191 
1254	 0.494814191018776 
1255	 0.494918104934947 
1256	 0.494970579230067 
1257	 0.495017991461037 
1258	 0.495068233190517 
1259	 0.495078128278607 
1260	 0.495048905345029 
1261	 0.495007150430784 
1262	 0.494904898183811 
1263	 0.494834617699688 
1264	 0.494797161266457 
1265	 0.494760010132054 
1266	 0.494765656436021 
1267	 0.494820845048839 
1268	 0.494871982703343 
1269	 0.494943678646005 
1270	 0.495011430032242 
1271	 0.495087939211062 
1272	 0.495176448844805 
1273	 0.495271930910244 
1274	 0.495368993398871 
1275	 0.4954803595388 
1276	 0.495594794032489 
1277	 0.495696579409778 
1278	 0.495823701060761 
1279	 0.495951561359116 
1280	 0.496120705004681 
1281	 0.496338448301605 
1282	 0.496541063272395 
1283	 0.496770924556851 
1284	 0.496995332304556 
1285	 0.497216351228537 
1286	 0.497406359189137 
1287	 0.497668132283537 
1288	 0.497946286527997 
1289	 0.498276550961075 
1290	 0.498648911665587 
1291	 0.499059790817884 
1292	 0.499515101331871 
1293	 0.499995221817376 
1294	 0.500498735734759 
1295	 0.501067264694485 
1296	 0.501668035488391 
1297	 0.502333020027768 
1298	 0.503082439337171 
1299	 0.503841805513799 
1300	 0.504689767971884 
1301	 0.505474154735001 
1302	 0.506265301671785 
1303	 0.507031690961367 
1304	 0.507728994550086 
1305	 0.508469036707668 
1306	 0.509246002333765 
1307	 0.509987076135839 
1308	 0.51070019822698 
1309	 0.511458318139161 
1310	 0.512154140914972 
1311	 0.512811184239435 
1312	 0.513461266773809 
1313	 0.514095712791119 
1314	 0.514708079863219 
1315	 0.515329326243877 
1316	 0.515842925379362 
1317	 0.516306557942386 
1318	 0.516726285435391 
1319	 0.517042143765698 
1320	 0.517382391623741 
1321	 0.5177413498228 
1322	 0.518012935224861 
1323	 0.51824894320625 
1324	 0.518425928155703 
1325	 0.518524725948695 
1326	 0.518605155807371 
1327	 0.518668013414162 
1328	 0.51866291597268 
1329	 0.518622178353719 
1330	 0.518518750906947 
1331	 0.518322796581431 
1332	 0.518127868619527 
1333	 0.517890650755192 
1334	 0.517640198868306 
1335	 0.51739189923958 
1336	 0.517154659770024 
1337	 0.516851525167342 
1338	 0.516528549991355 
1339	 0.516168255419698 
1340	 0.515766277567718 
1341	 0.515340073778013 
1342	 0.514873661566138 
1343	 0.514425974981797 
1344	 0.513956844825076 
1345	 0.513485931620975 
1346	 0.513019378312306 
1347	 0.512556871320658 
1348	 0.512047418493915 
1349	 0.511611281600494 
1350	 0.511223238712303 
1351	 0.510828327541092 
1352	 0.510461974613001 
1353	 0.510101555001976 
1354	 0.509725091172683 
1355	 0.509389767857543 
1356	 0.509095147139189 
1357	 0.508793902861035 
1358	 0.508492448350297 
1359	 0.508224448515765 
1360	 0.507970676660604 
1361	 0.507729641781412 
1362	 0.507526497653823 
1363	 0.507342247121695 
1364	 0.507150018643615 
1365	 0.506938924646129 
1366	 0.506811505905426 
1367	 0.506718503845768 
1368	 0.506630505879139 
1369	 0.506598017109422 
1370	 0.506551506257204 
1371	 0.506488148157478 
1372	 0.506461885149994 
1373	 0.506482621657593 
1374	 0.506468639267981 
1375	 0.506445791912263 
1376	 0.506435665192906 
1377	 0.506444012617628 
1378	 0.506409291538687 
1379	 0.506337083784093 
1380	 0.506311071930228 
1381	 0.506254453464335 
1382	 0.506247179916229 
1383	 0.506304472811206 
1384	 0.506356291249877 
1385	 0.506410068166425 
1386	 0.506484997254114 
1387	 0.506594796419131 
1388	 0.50669118111792 
1389	 0.506791340067565 
1390	 0.506896558561974 
1391	 0.506990663813803 
1392	 0.507106331908247 
1393	 0.507234700160106 
1394	 0.507350381603396 
1395	 0.507468994887607 
1396	 0.50758966077644 
1397	 0.507705521553853 
1398	 0.507808795854816 
1399	 0.507939990688287 
1400	 0.508104931025926 
1401	 0.508203719789486 
1402	 0.508331806259634 
1403	 0.508346157986879 
1404	 0.508251970766948 
1405	 0.50819846967799 
1406	 0.508075071462806 
1407	 0.50802062147709 
1408	 0.507999629617221 
1409	 0.507983818943688 
1410	 0.507980116422496 
1411	 0.508002281765521 
1412	 0.508050881515674 
1413	 0.508096026234683 
1414	 0.508167015134713 
1415	 0.508230511596025 
1416	 0.508304810351991 
1417	 0.508353363560698 
1418	 0.508355152563396 
1419	 0.508419155815607 
1420	 0.508492494345982 
1421	 0.508581166533075 
1422	 0.508738932967519 
1423	 0.508871816697143 
1424	 0.508979688342338 
1425	 0.509115377862461 
1426	 0.509230015753508 
1427	 0.509341528122968 
1428	 0.509475124716652 
1429	 0.50959139021551 
1430	 0.509721346031083 
1431	 0.509863378266623 
1432	 0.510016857028791 
1433	 0.510173428332511 
1434	 0.510330105283797 
1435	 0.510509297862687 
1436	 0.510667800456835 
1437	 0.510814731207419 
1438	 0.510957817439616 
1439	 0.51109470510984 
1440	 0.511236543693165 
1441	 0.511346049902981 
1442	 0.511520196029497 
1443	 0.511720344298432 
1444	 0.511942758728705 
1445	 0.512239819112167 
1446	 0.512470264060276 
1447	 0.512678522786346 
1448	 0.512899423178038 
1449	 0.513098743024349 
1450	 0.513309785919219 
1451	 0.513526652359313 
1452	 0.513761167469234 
1453	 0.513996174883662 
1454	 0.514237305267437 
1455	 0.514516699541022 
1456	 0.514769879253982 
1457	 0.515006827458007 
1458	 0.515244729555108 
1459	 0.515492853211199 
1460	 0.515711427041162 
1461	 0.515905528516502 
1462	 0.516105068237224 
1463	 0.516275367380067 
1464	 0.51646063511849 
1465	 0.516669009136162 
1466	 0.516863379741131 
1467	 0.517039425646037 
1468	 0.517227444423276 
1469	 0.517418432748373 
1470	 0.517572684383736 
1471	 0.517724785219912 
1472	 0.517862309621604 
1473	 0.518020120406841 
1474	 0.518172443936764 
1475	 0.518329776121583 
1476	 0.518515458240207 
1477	 0.518663806555026 
1478	 0.51875913056426 
1479	 0.518933805434472 
1480	 0.519123461947933 
1481	 0.519341873411733 
1482	 0.519623867731118 
1483	 0.519879666487138 
1484	 0.5201505357704 
1485	 0.520390109388799 
1486	 0.520628819310488 
1487	 0.520843238405339 
1488	 0.521009557405459 
1489	 0.521213502955961 
1490	 0.521425486070248 
1491	 0.521637922632918 
1492	 0.521868904027427 
1493	 0.522086722759186 
1494	 0.522329331568183 
1495	 0.522500052347817 
1496	 0.522607398215173 
1497	 0.52276131498251 
1498	 0.522875540771937 
1499	 0.523026405882822 
1500	 0.523251464667794 
1501	 0.523425963993501 
1502	 0.523554980396153 
1503	 0.523722699039877 
1504	 0.523879500877464 
1505	 0.524072747846962 
1506	 0.524318832064601 
1507	 0.524546650559081 
1508	 0.524795028938333 
1509	 0.525025248121587 
1510	 0.525268980007531 
1511	 0.525459989965682 
1512	 0.52559285347648 
1513	 0.525755871455198 
1514	 0.525879265457855 
1515	 0.526037099942469 
1516	 0.526248233960376 
1517	 0.526441749919404 
1518	 0.526638347320753 
1519	 0.526828565446284 
1520	 0.527031188769364 
1521	 0.527198001451145 
1522	 0.527361094513119 
1523	 0.527525166827366 
1524	 0.527659215528724 
1525	 0.527776214883968 
1526	 0.527873829879539 
1527	 0.527919765926697 
1528	 0.528065540815635 
1529	 0.528224506828644 
1530	 0.528418733118322 
1531	 0.528707959282846 
1532	 0.528898862455697 
1533	 0.52905994447005 
1534	 0.529226108046668 
1535	 0.52936647431215 
1536	 0.529509146302598 
1537	 0.529645290211899 
1538	 0.529797082941058 
1539	 0.529922644054896 
1540	 0.530115216086438 
1541	 0.530358445581856 
1542	 0.530581452916103 
1543	 0.530841239491949 
1544	 0.531061988107949 
1545	 0.5312683257699 
1546	 0.531458759797842 
1547	 0.53161899763054 
1548	 0.531810757726767 
1549	 0.532010948760242 
1550	 0.532189186114564 
1551	 0.53238539259823 
1552	 0.532548396237839 
1553	 0.532657143136712 
1554	 0.532811975137448 
1555	 0.53299816192623 
1556	 0.533140504854647 
1557	 0.533271423381399 
1558	 0.5334096887309 
1559	 0.533506543557518 
1560	 0.533649374244663 
1561	 0.533832927492477 
1562	 0.53400092938285 
1563	 0.534161147627371 
1564	 0.534351858847613 
1565	 0.5345865141573 
1566	 0.534763138704453 
1567	 0.534925703155958 
1568	 0.535096421265109 
1569	 0.535238962886042 
1570	 0.535375904455184 
1571	 0.535521041252723 
1572	 0.535669716040516 
1573	 0.535773679707306 
1574	 0.535929470303903 
1575	 0.536127729949579 
1576	 0.536328399917687 
1577	 0.536541534378821 
1578	 0.536770116450143 
1579	 0.537030252274849 
1580	 0.537271505982376 
1581	 0.537544396831273 
1582	 0.537759389108752 
1583	 0.537933379034072 
1584	 0.538108926130742 
1585	 0.538232018353001 
1586	 0.538394180820524 
1587	 0.538545928783291 
1588	 0.538754617556856 
1589	 0.539015038162257 
1590	 0.539264980404374 
1591	 0.539594755045049 
1592	 0.53983695633238 
1593	 0.540005216802462 
1594	 0.540211809810118 
1595	 0.54040236528979 
1596	 0.540584273743106 
1597	 0.540796224210616 
1598	 0.540977860633062 
1599	 0.541110144777458 
1600	 0.541261406412251 
1601	 0.541411914650949 
1602	 0.541569907556517 
1603	 0.541730451210984 
1604	 0.541898224960761 
1605	 0.54207123205922 
1606	 0.542252732032615 
1607	 0.54244564724021 
1608	 0.542634168845656 
1609	 0.542846487126264 
1610	 0.543027879499546 
1611	 0.543185789639553 
1612	 0.543346025107442 
1613	 0.543481105552375 
1614	 0.54363058571158 
1615	 0.543767864896838 
1616	 0.543946196958772 
1617	 0.544165745545426 
1618	 0.544366571656867 
1619	 0.544593230030634 
1620	 0.544800182934814 
1621	 0.544986044294857 
1622	 0.545162263630631 
1623	 0.545361849875988 
1624	 0.545507652754323 
1625	 0.545601719230148 
1626	 0.54570729256609 
1627	 0.545767083631223 
1628	 0.545854310126238 
1629	 0.545946399383197 
1630	 0.546063199394112 
1631	 0.546191691318086 
1632	 0.54634197082656 
1633	 0.546529310464578 
1634	 0.54671403602733 
1635	 0.546919266326289 
1636	 0.547115257823072 
1637	 0.547319518661161 
1638	 0.547506142850941 
1639	 0.547722748936653 
1640	 0.547857598015619 
1641	 0.547926757458932 
1642	 0.548004703000607 
1643	 0.547980518631638 
1644	 0.548048331655414 
1645	 0.548173181565474 
1646	 0.548303809819952 
1647	 0.548500599468135 
1648	 0.548659526475323 
1649	 0.548819916951964 
1650	 0.548955130988449 
1651	 0.549043775598034 
1652	 0.549163796957982 
1653	 0.549308823338992 
1654	 0.549415007694001 
1655	 0.54952453327962 
1656	 0.5496198246614 
1657	 0.549690196583285 
1658	 0.54971840873211 
1659	 0.549730138677329 
1660	 0.549723561772531 
1661	 0.549683527088791 
1662	 0.549618130537304 
1663	 0.549540232226709 
1664	 0.549429033219219 
1665	 0.549244260925989 
1666	 0.549090901517732 
1667	 0.548947635562842 
1668	 0.54879248734406 
1669	 0.548672793760964 
1670	 0.548477330008884 
1671	 0.548233190414598 
1672	 0.547967697456075 
1673	 0.547663430991322 
1674	 0.547328855801727 
1675	 0.546968710954818 
1676	 0.546593769858518 
1677	 0.546175631842985 
1678	 0.545738157766706 
1679	 0.545277182666475 
1680	 0.544827455922708 
1681	 0.544370359425289 
1682	 0.543877533127052 
1683	 0.543363070006176 
1684	 0.542863500006466 
1685	 0.542347644809745 
1686	 0.541825978371296 
1687	 0.541348904827914 
1688	 0.540793194455946 
1689	 0.540186352383373 
1690	 0.539524547766787 
1691	 0.538798829147481 
1692	 0.538104999344394 
1693	 0.537419610347883 
1694	 0.536639079528631 
1695	 0.535812369414363 
1696	 0.5349711168547 
1697	 0.534039460132344 
1698	 0.533131089630173 
1699	 0.532271475495179 
1700	 0.531360645549466 
1701	 0.530333773208344 
1702	 0.529466574967108 
1703	 0.528644346916671 
1704	 0.527860705362349 
1705	 0.52715343373966 
1706	 0.526438841612231 
1707	 0.52582690095696 
1708	 0.525281186448016 
1709	 0.52481532811032 
1710	 0.524441155926879 
1711	 0.524047760022857 
1712	 0.523667147165864 
1713	 0.523331348500194 
1714	 0.522994558408412 
1715	 0.522711036375538 
1716	 0.522455227020753 
1717	 0.522216898224495 
1718	 0.521981016217761 
1719	 0.521692196721486 
1720	 0.521441015595727 
1721	 0.521229870687148 
1722	 0.521042358470518 
1723	 0.520940047202379 
1724	 0.520879659243787 
1725	 0.520859331501221 
1726	 0.520889204376074 
1727	 0.520995630440116 
1728	 0.521185660146546 
1729	 0.521464106789132 
1730	 0.52186078007131 
1731	 0.522329727408142 
1732	 0.522899564876127 
1733	 0.523508256210547 
1734	 0.524158016092666 
1735	 0.524870559150787 
1736	 0.525525415729582 
1737	 0.526126659179516 
1738	 0.526636925387445 
1739	 0.527026516084393 
1740	 0.527308467785478 
1741	 0.527529210065156 
1742	 0.52763260530545 
1743	 0.527734339739321 
1744	 0.527755113629624 
1745	 0.527790609027707 
1746	 0.527819163953334 
1747	 0.527834106274243 
1748	 0.527808242834429 
1749	 0.527830844991209 
1750	 0.527833813843191 
1751	 0.527901668148655 
1752	 0.528036582403272 
1753	 0.528168416090647 
1754	 0.528332108582874 
1755	 0.528519880371904 
1756	 0.528704467331626 
1757	 0.528957206296377 
1758	 0.529252577779538 
1759	 0.529653085056728 
1760	 0.530113307574425 
1761	 0.530659604929704 
1762	 0.531246909136136 
1763	 0.531885749894049 
1764	 0.532627334500045 
1765	 0.533420058678747 
1766	 0.534261816011852 
1767	 0.535062525181189 
1768	 0.535806872095531 
1769	 0.536577859873399 
1770	 0.537309576367194 
1771	 0.538024360039526 
1772	 0.538732833687314 
1773	 0.539357798109575 
1774	 0.539989573676785 
1775	 0.540607377570118 
1776	 0.541179364735487 
1777	 0.5417095181814 
1778	 0.542119105295352 
1779	 0.542482074517015 
1780	 0.542801837639831 
1781	 0.543048138735477 
1782	 0.543333240490922 
1783	 0.543582074989625 
1784	 0.543816670275026 
1785	 0.544085447763741 
1786	 0.54437515773745 
1787	 0.544737344839589 
1788	 0.545033344149395 
1789	 0.545338144063873 
1790	 0.545578543730263 
1791	 0.545725314447277 
1792	 0.545889645984461 
1793	 0.546021484823549 
1794	 0.546159257334098 
1795	 0.546349461517604 
1796	 0.546469572657391 
1797	 0.546602246767141 
1798	 0.546702867100763 
1799	 0.546767967442047 
1800	 0.54688680589732 
1801	 0.550435797513599 
1802	 0.550849268435475 
1803	 0.551205582983095 
1804	 0.551499600089874 
1805	 0.551835544147408 
1806	 0.552124234936055 
1807	 0.552337351330514 
1808	 0.552627658870985 
1809	 0.552952089068961 
1810	 0.553249081968172 
1811	 0.553557532513532 
1812	 0.553874241933778 
1813	 0.554203600105664 
1814	 0.554480125634681 
1815	 0.554805012243529 
1816	 0.555127523014262 
1817	 0.555397597493844 
1818	 0.555614477608458 
1819	 0.555870792640176 
1820	 0.556070095783868 
1821	 0.556344702787957 
1822	 0.55667568305967 
1823	 0.557012197806501 
1824	 0.55732042478423 
1825	 0.557675317253354 
1826	 0.557984714611683 
1827	 0.558241946122473 
1828	 0.558526369763283 
1829	 0.558841279231545 
1830	 0.559106059500205 
1831	 0.559322086014001 
1832	 0.559613657075386 
1833	 0.559861644662277 
1834	 0.560092782112171 
1835	 0.560348659326001 
1836	 0.560616262476485 
1837	 0.56089292953354 
1838	 0.561176430434394 
1839	 0.561434849726698 
1840	 0.561698373981831 
1841	 0.561970029641221 
1842	 0.562210344101799 
1843	 0.562490920225223 
1844	 0.562812323726154 
1845	 0.563056612291763 
1846	 0.563306657477088 
1847	 0.56360819915939 
1848	 0.563903977115842 
1849	 0.564249770309703 
1850	 0.564529737031635 
1851	 0.564808796373755 
1852	 0.565016026115998 
1853	 0.565203969293542 
1854	 0.565423819959756 
1855	 0.565679815937888 
1856	 0.565952580236154 
1857	 0.566233047473016 
1858	 0.566464497659061 
1859	 0.566687996291594 
1860	 0.566912557693488 
1861	 0.567083262207384 
1862	 0.567231397426597 
1863	 0.56735276248795 
1864	 0.567385316878411 
1865	 0.567411548895101 
1866	 0.567367376198382 
1867	 0.567297843978287 
1868	 0.567234064764022 
1869	 0.567117558135432 
1870	 0.567029259485816 
1871	 0.566929192925601 
1872	 0.566881624769013 
1873	 0.566865030116034 
1874	 0.566836985193888 
1875	 0.566861795352316 
1876	 0.566870276349224 
1877	 0.566863085352053 
1878	 0.566847384919315 
1879	 0.566790495754728 
1880	 0.566676850085921 
1881	 0.566468414149553 
1882	 0.566175562857202 
1883	 0.56583691503949 
1884	 0.56539006169755 
1885	 0.56484369906091 
1886	 0.564212559013322 
1887	 0.563450717810804 
1888	 0.562643913679908 
1889	 0.561829758916191 
1890	 0.560948136094381 
1891	 0.560078930353942 
1892	 0.559093964118154 
1893	 0.558080958668823 
1894	 0.556976632800137 
1895	 0.555933645501799 
1896	 0.554839675265367 
1897	 0.553833003317516 
1898	 0.55293494335488 
1899	 0.552050765890759 
1900	 0.551269842262981 
1901	 0.550552038858105 
1902	 0.549807322833714 
1903	 0.549073377375051 
1904	 0.548370994406449 
1905	 0.547659175104998 
1906	 0.547007528341502 
1907	 0.546432555819432 
1908	 0.545899566697436 
1909	 0.545420379142518 
1910	 0.544915392712349 
1911	 0.544433780611675 
1912	 0.544045879918015 
1913	 0.543660531775061 
1914	 0.543297924642315 
1915	 0.542995099521839 
1916	 0.542754105226905 
1917	 0.542510966031095 
1918	 0.542300304572322 
1919	 0.542197368838765 
1920	 0.542122747570884 
1921	 0.542003673450894 
1922	 0.541914892568374 
1923	 0.541813245147027 
1924	 0.541678174568145 
1925	 0.5416160845125 
1926	 0.541625278871211 
1927	 0.541686984292263 
1928	 0.541797914990565 
1929	 0.541997005975821 
1930	 0.542206743885944 
1931	 0.542407084166413 
1932	 0.542645682734507 
1933	 0.542872838895958 
1934	 0.543118530978151 
1935	 0.543391579751655 
1936	 0.543602039417596 
1937	 0.543859409737895 
1938	 0.544123323478379 
1939	 0.544427018628477 
1940	 0.544740221893378 
1941	 0.545135064187785 
1942	 0.545538338773916 
1943	 0.545886923240511 
1944	 0.546253450018342 
1945	 0.546615267827221 
1946	 0.546942208599667 
1947	 0.547292537956811 
1948	 0.547659893939614 
1949	 0.548017229497174 
1950	 0.548396311638027 
1951	 0.548817697292805 
1952	 0.549215738743311 
1953	 0.549606402815186 
1954	 0.550003279263335 
1955	 0.550426240926445 
1956	 0.550811539234666 
1957	 0.551212859184956 
1958	 0.551631596034533 
1959	 0.551941137236808 
1960	 0.552235957756219 
1961	 0.552547450135884 
1962	 0.552801594714186 
1963	 0.553097990684203 
1964	 0.553435823864028 
1965	 0.553779183565168 
1966	 0.554141069411412 
1967	 0.554491799801918 
1968	 0.554817146991316 
1969	 0.555149951502705 
1970	 0.555464830730972 
1971	 0.555775653736402 
1972	 0.556130795332137 
1973	 0.556492897232918 
1974	 0.556807179177632 
1975	 0.557076824759197 
1976	 0.557360939479658 
1977	 0.557612095200942 
1978	 0.557889746786299 
1979	 0.558140398943201 
1980	 0.558477880616339 
1981	 0.558874045640471 
1982	 0.55925760911046 
1983	 0.55967438078355 
1984	 0.560081859179427 
1985	 0.560370138261965 
1986	 0.560584240764342 
1987	 0.56081509512347 
1988	 0.560954508687647 
1989	 0.561171760166385 
1990	 0.561450986677963 
1991	 0.561696602027337 
1992	 0.561937522919455 
1993	 0.56220607024411 
1994	 0.562435106317108 
1995	 0.562621850236707 
1996	 0.56284567548144 
1997	 0.563046269102214 
1998	 0.563179433376591 
1999	 0.563259221835516 
2000	 0.563350426103505 
2001	 0.563355877199752 
2002	 0.56344046128865 
2003	 0.563577259550807 
2004	 0.563710938140011 
2005	 0.563862566696256 
2006	 0.564010247469307 
2007	 0.564192557093169 
2008	 0.564335771651777 
2009	 0.564411662730094 
2010	 0.564487841638796 
2011	 0.564540384334371 
2012	 0.564518286184743 
2013	 0.564443896489731 
2014	 0.564325682800409 
2015	 0.564186978392678 
2016	 0.563934051125708 
2017	 0.563746511896018 
2018	 0.563586320682257 
2019	 0.563417034970951 
2020	 0.563219460530207 
2021	 0.563092647898105 
2022	 0.562989495938201 
2023	 0.562806169558941 
2024	 0.562585072192371 
2025	 0.562327887746008 
2026	 0.562076373797485 
2027	 0.561760343452329 
2028	 0.561489748220211 
2029	 0.561242203741557 
2030	 0.561001196924868 
2031	 0.560719142778823 
2032	 0.560518790015376 
2033	 0.560450201067347 
2034	 0.560268949017828 
2035	 0.560083976445574 
2036	 0.55985874320033 
2037	 0.559591448584207 
2038	 0.559238623223277 
2039	 0.558989019336448 
2040	 0.558768208755374 
2041	 0.558596999601287 
2042	 0.55845129456012 
2043	 0.558392774665094 
2044	 0.558443952654919 
2045	 0.55843109821526 
2046	 0.558500234583201 
2047	 0.558460409391643 
2048	 0.558334870349135 
2049	 0.558221934391844 
2050	 0.558057515524468 
2051	 0.557903350994688 
2052	 0.557779746430278 
2053	 0.557712291661096 
2054	 0.557673512483244 
2055	 0.557698053830718 
2056	 0.557706767433003 
2057	 0.557760700036532 
2058	 0.55776358127935 
2059	 0.557779374593939 
2060	 0.557726871929934 
2061	 0.557622117403152 
2062	 0.557505708988867 
2063	 0.557317258335536 
2064	 0.557179828599618 
2065	 0.557054869613803 
2066	 0.556924677190912 
2067	 0.55682087538261 
2068	 0.556694232126041 
2069	 0.556584353153303 
2070	 0.556467914686764 
2071	 0.556371782647783 
2072	 0.556310390232904 
2073	 0.556207997876627 
2074	 0.556101280847499 
2075	 0.555981369789028 
2076	 0.555822349226289 
2077	 0.555687069365178 
2078	 0.555542508857908 
2079	 0.555424952247459 
2080	 0.555342587746362 
2081	 0.55524032278458 
2082	 0.555142130824624 
2083	 0.555048198070688 
2084	 0.554924767771285 
2085	 0.554823728519848 
2086	 0.554737267734696 
2087	 0.554711012039122 
2088	 0.554576432061748 
2089	 0.554396512930915 
2090	 0.554232059769007 
2091	 0.553989353302378 
2092	 0.553804337967021 
2093	 0.553670319787501 
2094	 0.553521421708892 
2095	 0.553366860002642 
2096	 0.553220623307124 
2097	 0.553098114586808 
2098	 0.552946796084646 
2099	 0.552809088122194 
2100	 0.552672241346358 
2101	 0.552527678835075 
2102	 0.552392941168176 
2103	 0.552225819360099 
2104	 0.552021367112149 
2105	 0.55186322440204 
2106	 0.551731209691486 
2107	 0.551546089187375 
2108	 0.551384699497317 
2109	 0.55116506490602 
2110	 0.55084373500184 
2111	 0.550581729761176 
2112	 0.550362469303674 
2113	 0.550083881130099 
2114	 0.549743428666727 
2115	 0.549471434942746 
2116	 0.549184497897818 
2117	 0.548918346167207 
2118	 0.548706710252213 
2119	 0.54859152009355 
2120	 0.548423025411103 
2121	 0.54828111922185 
2122	 0.548064226490381 
2123	 0.547832788469374 
2124	 0.547552396553276 
2125	 0.547203736449876 
2126	 0.546855433635832 
2127	 0.546431116253088 
2128	 0.546099745730167 
2129	 0.545755816725189 
2130	 0.545482964951367 
2131	 0.545286612101164 
2132	 0.54512781904311 
2133	 0.544996804333602 
2134	 0.544937090143165 
2135	 0.544926258184358 
2136	 0.544931473096282 
2137	 0.544877517677406 
2138	 0.544826474588422 
2139	 0.544722694115469 
2140	 0.544580477258977 
2141	 0.544390750751588 
2142	 0.544147950267086 
2143	 0.543915487794945 
2144	 0.543589783285891 
2145	 0.543375200849649 
2146	 0.543198001676342 
2147	 0.54305668193929 
2148	 0.542995425964287 
2149	 0.542918467680136 
2150	 0.542885798020247 
2151	 0.542819086146647 
2152	 0.542783815419489 
2153	 0.542654021950161 
2154	 0.542526083604926 
2155	 0.542377152306066 
2156	 0.542267882602109 
2157	 0.542163626458638 
2158	 0.542064006479282 
2159	 0.541997439647403 
2160	 0.541908284786805 
2161	 0.541829215181625 
2162	 0.54169239714064 
2163	 0.541531123242836 
2164	 0.54135216559466 
2165	 0.541109742953071 
2166	 0.540891955721358 
2167	 0.54067495601252 
2168	 0.540464773678832 
2169	 0.54023490804812 
2170	 0.54004707816228 
2171	 0.539887947358168 
2172	 0.539731869249178 
2173	 0.5396141802982 
2174	 0.539469987375183 
2175	 0.539346800286879 
2176	 0.539196503028575 
2177	 0.539020590908019 
2178	 0.538822736479568 
2179	 0.538621939563831 
2180	 0.53838703515257 
2181	 0.538184514103784 
2182	 0.538002685705964 
2183	 0.537801055664551 
2184	 0.537576471439317 
2185	 0.537383348280857 
2186	 0.537225777988466 
2187	 0.537009439325567 
2188	 0.536752899739017 
2189	 0.536559380644235 
2190	 0.53629844022144 
2191	 0.536156584488288 
2192	 0.536192405928827 
2193	 0.536127218564319 
2194	 0.536079157139849 
2195	 0.535990578626267 
2196	 0.535855945187096 
2197	 0.535672971689633 
2198	 0.535516778124922 
2199	 0.53537059340533 
2200	 0.535214450563135 
2201	 0.535044315612566 
2202	 0.534906546799994 
2203	 0.534785272558068 
2204	 0.534651879408331 
2205	 0.534537095791811 
2206	 0.534391455203187 
2207	 0.534196713161068 
2208	 0.534071301351829 
2209	 0.53395121438823 
2210	 0.533879645805556 
2211	 0.533886819691918 
2212	 0.533860484812463 
2213	 0.533888661290282 
2214	 0.533824333739852 
2215	 0.53371580028262 
2216	 0.533580077855358 
2217	 0.533376814608111 
2218	 0.533177791764957 
2219	 0.532963564086092 
2220	 0.532738743226967 
2221	 0.532521201135203 
2222	 0.532246131939381 
2223	 0.53192215127337 
2224	 0.531597510240655 
2225	 0.531254377300321 
2226	 0.530854586374111 
2227	 0.530365477309399 
2228	 0.529844818032156 
2229	 0.529249505512171 
2230	 0.52850186379845 
2231	 0.527828735239128 
2232	 0.527168585114249 
2233	 0.526450474263564 
2234	 0.525785778122523 
2235	 0.52492220714866 
2236	 0.523966489427436 
2237	 0.522908727927013 
2238	 0.521650743218314 
2239	 0.52042073529102 
2240	 0.519175339098636 
2241	 0.517816822225758 
2242	 0.516447023208895 
2243	 0.514914846134877 
2244	 0.513217710215363 
2245	 0.511473655877446 
2246	 0.509525144670645 
2247	 0.507652426557629 
2248	 0.505764626312833 
2249	 0.503862799343971 
2250	 0.501976900515515 
2251	 0.50010935765917 
2252	 0.49804242405997 
2253	 0.496115133037057 
2254	 0.494237550395386 
2255	 0.492299294218358 
2256	 0.490517935736062 
2257	 0.488696825613524 
2258	 0.486889697429964 
2259	 0.485099966442897 
2260	 0.483269747913682 
2261	 0.48140815495128 
2262	 0.479613926145051 
2263	 0.477752151049742 
2264	 0.476031915513671 
2265	 0.474448321301422 
2266	 0.472833855896993 
2267	 0.471285524984426 
2268	 0.469698100225489 
2269	 0.468106639878421 
2270	 0.466526858366045 
2271	 0.464900854827604 
2272	 0.463367834825579 
2273	 0.461948111280862 
2274	 0.4604164083451 
2275	 0.458903569914982 
2276	 0.45734829165395 
2277	 0.455727117843004 
2278	 0.45406031653824 
2279	 0.452354529093585 
2280	 0.450625644784856 
2281	 0.448859738837825 
2282	 0.447036669872236 
2283	 0.44519253750767 
2284	 0.443304194914999 
2285	 0.441266225631624 
2286	 0.439282610082068 
2287	 0.437296890842468 
2288	 0.435332989769208 
2289	 0.433571417347092 
2290	 0.431641226266496 
2291	 0.429653563995174 
2292	 0.427755461125385 
2293	 0.425766064173814 
2294	 0.423821139307 
2295	 0.422039114060571 
2296	 0.420472331945119 
2297	 0.419225039305189 
2298	 0.418226717640014 
2299	 0.417502226203056 
2300	 0.417084483908502 
2301	 0.416966541362813 
2302	 0.417140052439289 
2303	 0.417548881244745 
2304	 0.418342407126784 
2305	 0.419233569444547 
2306	 0.420327933891521 
2307	 0.421627633385071 
2308	 0.423171616395327 
2309	 0.42484523635313 
2310	 0.426783463137617 
2311	 0.428728366960437 
2312	 0.430897864205201 
2313	 0.432952057889563 
2314	 0.435100449488584 
2315	 0.437069467138118 
2316	 0.438992956674954 
2317	 0.440736277783053 
2318	 0.442391647763996 
2319	 0.443788223226415 
2320	 0.445050833966938 
2321	 0.446001401948168 
2322	 0.446610045073054 
2323	 0.447116340555756 
2324	 0.447333177676776 
2325	 0.44748147063691 
2326	 0.447448379352675 
2327	 0.447370732028326 
2328	 0.447266689095126 
2329	 0.446922669173798 
2330	 0.446414279786631 
2331	 0.445809702343221 
2332	 0.444993371424744 
2333	 0.443981163582067 
2334	 0.44299205813064 
2335	 0.441943343648621 
2336	 0.440684968976541 
2337	 0.439337882249168 
2338	 0.438079950611117 
2339	 0.43678784312627 
2340	 0.435573262824019 
2341	 0.434593529786414 
2342	 0.433576044865753 
2343	 0.432560819256319 
2344	 0.431807922858473 
2345	 0.431271592611476 
2346	 0.431116636725977 
2347	 0.431433243388951 
2348	 0.431869283938639 
2349	 0.432768604148651 
2350	 0.434067732590972 
2351	 0.435391091559324 
2352	 0.436915201883381 
2353	 0.438453054815702 
2354	 0.43961069406674 
2355	 0.440663792846106 
2356	 0.441791338711667 
2357	 0.442795872461974 
2358	 0.443708735174775 
2359	 0.444370946118346 
2360	 0.444849229406166 
2361	 0.445119560197878 
2362	 0.445168839405387 
2363	 0.44522506102882 
2364	 0.445231930153843 
2365	 0.44520233219725 
2366	 0.445329034386626 
2367	 0.445487843208225 
2368	 0.445622064984231 
2369	 0.445751084021023 
2370	 0.445663807819467 
2371	 0.445514957911311 
2372	 0.445389007202848 
2373	 0.445204754426422 
2374	 0.445119862359955 
2375	 0.445156815642466 
2376	 0.445197681221493 
2377	 0.44521023476479 
2378	 0.445278496738745 
2379	 0.445435436638652 
2380	 0.445588475872437 
2381	 0.445793309096377 
2382	 0.445940022713979 
2383	 0.446040394605403 
2384	 0.446181802025223 
2385	 0.446277555410683 
2386	 0.446443097427926 
2387	 0.446678730624652 
2388	 0.446889923000257 
2389	 0.447177906216923 
2390	 0.447340115305236 
2391	 0.447459460013134 
2392	 0.447558657670476 
2393	 0.447613409528379 
2394	 0.447595492242823 
2395	 0.44743613882745 
2396	 0.447434484188146 
2397	 0.447372716167119 
2398	 0.447427320133194 
2399	 0.44776028506194 
2400	 0.447893236271919 
2401	 0.447948625538442 
2402	 0.448052706539616 
2403	 0.44801804821884 
2404	 0.447927746307495 
2405	 0.447924262702268 
2406	 0.447817236298372 
2407	 0.447615248646117 
2408	 0.447580736614688 
2409	 0.447679156535938 
2410	 0.447787776281309 
2411	 0.447938989037004 
2412	 0.448258379214779 
2413	 0.448570404780741 
2414	 0.448738006018263 
2415	 0.448842418674613 
2416	 0.448981743120256 
2417	 0.449036857729144 
2418	 0.448813927012209 
2419	 0.448692514476091 
2420	 0.448589860509601 
2421	 0.448284389052158 
2422	 0.448280447359385 
2423	 0.448570682476003 
2424	 0.448554951355496 
2425	 0.448422033413826 
2426	 0.448439065548144 
2427	 0.448147994733547 
2428	 0.447973937097764 
2429	 0.448225703862692 
2430	 0.44818003463738 
2431	 0.447942794243103 
2432	 0.447833097372929 
2433	 0.44746543488525 
2434	 0.447169582287935 
2435	 0.447394498940493 
2436	 0.447457422315877 
2437	 0.447262199340241 
2438	 0.447024198829782 
2439	 0.446345488873327 
2440	 0.44570795983993 
2441	 0.445410913564366 
2442	 0.445134895122303 
2443	 0.445312600646308 
2444	 0.445565664940834 
2445	 0.445257774632076 
2446	 0.444837034044701 
2447	 0.444111484144526 
2448	 0.443185666834223 
2449	 0.442788077538359 
2450	 0.442596845162915 
2451	 0.442126215489352 
2452	 0.441605022489013 
2453	 0.441130121186881 
2454	 0.44050848050658 
2455	 0.439922586371536 
2456	 0.439522233126294 
2457	 0.439092454025218 
2458	 0.438538018579778 
2459	 0.438154243235554 
2460	 0.438172933006078 
2461	 0.438138881355369 
2462	 0.437863556538552 
2463	 0.437749712629336 
2464	 0.437455589876554 
2465	 0.436679598559092 
2466	 0.436210399819423 
2467	 0.436081762125925 
2468	 0.435811441010744 
2469	 0.435678022819213 
2470	 0.435659732355817 
2471	 0.435480076333532 
2472	 0.435079893537405 
2473	 0.434644881544357 
2474	 0.434029893353023 
2475	 0.433423879840885 
2476	 0.433205070116795 
2477	 0.433131467512627 
2478	 0.433623398707567 
2479	 0.434036075398493 
2480	 0.433836143708575 
2481	 0.433949543685394 
2482	 0.43360646169411 
2483	 0.433811539364401 
2484	 0.434021678811525 
2485	 0.43395538950811 
2486	 0.43435983661749 
2487	 0.434863148275482 
2488	 0.435240070837456 
2489	 0.435783921042205 
2490	 0.436503997825317 
2491	 0.436927545571142 
2492	 0.43695365591477 
2493	 0.43699295125546 
2494	 0.436987168654681 
2495	 0.437255563945179 
2496	 0.438041277737746 
2497	 0.438621089243528 
2498	 0.438793686864492 
2499	 0.438925909163935 
2500	 0.439191900817233 
