Wavelength	spectrum00011.asd
350	 3.39579346106736E-02 
351	 2.74162832515389E-02 
352	 2.40056192188121E-02 
353	 2.71595132858811E-02 
354	 2.52063086446207E-02 
355	 2.39545422562828E-02 
356	 2.44876260390149E-02 
357	 2.59174351136156E-02 
358	 2.45322154477625E-02 
359	 2.38067628073257E-02 
360	 2.44427453733229E-02 
361	 2.53137564471361E-02 
362	 2.34294015725426E-02 
363	 2.08461912437356E-02 
364	 2.01903415221007E-02 
365	 2.41585930837377E-02 
366	 2.46882126784994E-02 
367	 2.16191992065062E-02 
368	 1.82123043751052E-02 
369	 2.19426663076506E-02 
370	 2.22241740323841E-02 
371	 2.03391124868753E-02 
372	 2.32196449127569E-02 
373	 2.19205082804614E-02 
374	 2.07387357647852E-02 
375	 2.13773097654403E-02 
376	 1.98032836507357E-02 
377	 0.020548883815467 
378	 2.18073468148342E-02 
379	 2.09842102536492E-02 
380	 1.82636940887096E-02 
381	 1.86190183911433E-02 
382	 2.10071575765411E-02 
383	 0.021008739269896 
384	 2.06873374019521E-02 
385	 0.019814015603025 
386	 1.89875839946617E-02 
387	 2.04041731609024E-02 
388	 0.021699313745151 
389	 2.17423207467485E-02 
390	 2.07139127140134E-02 
391	 2.22620572331229E-02 
392	 2.21961510166334E-02 
393	 2.05659052987648E-02 
394	 2.01804808779592E-02 
395	 2.01122295469899E-02 
396	 2.01966958229754E-02 
397	 2.03627382912707E-02 
398	 2.05141480193458E-02 
399	 2.17236940908767E-02 
400	 2.29010920553836E-02 
401	 2.28004206598718E-02 
402	 2.20881286406902E-02 
403	 2.23242342998276E-02 
404	 2.30445197946937E-02 
405	 2.24751174911038E-02 
406	 2.29343283952766E-02 
407	 2.30112107946418E-02 
408	 2.21291421158675E-02 
409	 2.22887201752488E-02 
410	 2.29057979880277E-02 
411	 0.023375914952041 
412	 2.32320245767078E-02 
413	 2.28172503784243E-02 
414	 2.27742085575249E-02 
415	 2.32481152397132E-02 
416	 2.39149624528494E-02 
417	 2.42798426309666E-02 
418	 2.44456553052794E-02 
419	 2.45436585092048E-02 
420	 2.44076283390747E-02 
421	 2.46143666256358E-02 
422	 2.51155375164017E-02 
423	 2.55334170915726E-02 
424	 2.51906319168762E-02 
425	 2.55092285813241E-02 
426	 0.026434118644531 
427	 2.61162004617937E-02 
428	 2.63564511571048E-02 
429	 0.026694752684513 
430	 2.66465397506854E-02 
431	 2.72574223523458E-02 
432	 2.74422944913466E-02 
433	 2.73887606147169E-02 
434	 2.78942001984874E-02 
435	 2.82386143800274E-02 
436	 2.86941326739437E-02 
437	 2.92874794081366E-02 
438	 2.95032320028342E-02 
439	 0.029580117867569 
440	 2.98422859466714E-02 
441	 0.030455514686406 
442	 3.08601670747698E-02 
443	 3.11474615666709E-02 
444	 0.031363355899958 
445	 3.15153021331399E-02 
446	 3.17536156499722E-02 
447	 3.22385408686517E-02 
448	 3.29396819202661E-02 
449	 3.34546935412142E-02 
450	 3.37570941002695E-02 
451	 0.033971285686317 
452	 3.42978592869136E-02 
453	 3.49127646609311E-02 
454	 3.52663727986623E-02 
455	 3.53353395038799E-02 
456	 3.57225379338299E-02 
457	 3.62949065726487E-02 
458	 0.036838488665021 
459	 3.71946877269424E-02 
460	 3.74161642681515E-02 
461	 3.78118249551721E-02 
462	 3.82486415138239E-02 
463	 3.84159607589863E-02 
464	 3.88669565189686E-02 
465	 3.91496468736638E-02 
466	 3.92063042548468E-02 
467	 3.97541390415989E-02 
468	 4.04123686917957E-02 
469	 4.08063421726715E-02 
470	 4.08088829793279E-02 
471	 4.13202434159384E-02 
472	 4.16083995941733E-02 
473	 4.16715179468771E-02 
474	 4.20984978511219E-02 
475	 4.26528029507009E-02 
476	 4.29208408860849E-02 
477	 4.28501842868915E-02 
478	 4.32526063044352E-02 
479	 4.35203459266419E-02 
480	 0.043734381875177 
481	 4.41538253638515E-02 
482	 4.44269215495795E-02 
483	 4.45720890292133E-02 
484	 0.044742730864051 
485	 4.52010207435441E-02 
486	 4.53576829334875E-02 
487	 4.55100263376494E-02 
488	 4.59078377531926E-02 
489	 4.59958371619569E-02 
490	 4.59820869192093E-02 
491	 4.60445629709967E-02 
492	 0.046305914390499 
493	 4.65536422323028E-02 
494	 4.67594042159387E-02 
495	 4.69141704600298E-02 
496	 4.69895896736697E-02 
497	 4.71598437051676E-02 
498	 4.72842627108303E-02 
499	 4.72124078637382E-02 
500	 4.72077621328118E-02 
501	 4.73519076202447E-02 
502	 4.75411078053282E-02 
503	 4.75280384279062E-02 
504	 0.047351781917525 
505	 4.72464554781532E-02 
506	 4.73071141773247E-02 
507	 4.72240953443613E-02 
508	 4.70351779517683E-02 
509	 4.68363356160158E-02 
510	 0.046724764230515 
511	 4.65437829506058E-02 
512	 4.63860351352272E-02 
513	 4.62710268518857E-02 
514	 4.60994378814259E-02 
515	 4.58019866583284E-02 
516	 4.54875625428641E-02 
517	 4.52446357250509E-02 
518	 4.49107351157262E-02 
519	 4.45591424520904E-02 
520	 4.42711359055305E-02 
521	 4.41028145860261E-02 
522	 4.37744784520226E-02 
523	 4.33798998410476E-02 
524	 4.30402697599375E-02 
525	 4.28376923845284E-02 
526	 4.25194798717084E-02 
527	 4.20962337840411E-02 
528	 4.16909776266018E-02 
529	 4.14634641033351E-02 
530	 4.11062243988732E-02 
531	 4.05887713758037E-02 
532	 4.01985241000792E-02 
533	 3.98784209635349E-02 
534	 3.95359932102063E-02 
535	 3.91187865145759E-02 
536	 0.038721146900616 
537	 3.83390993181403E-02 
538	 3.79585979908751E-02 
539	 3.75658074641659E-02 
540	 0.037230824751575 
541	 3.68419660162412E-02 
542	 3.63707155088588E-02 
543	 3.59482270622175E-02 
544	 3.55788263924938E-02 
545	 3.52355504013451E-02 
546	 3.48824730616595E-02 
547	 3.45143633554725E-02 
548	 0.034108006943033 
549	 3.37118486204039E-02 
550	 0.033430540397638 
551	 3.31890485815375E-02 
552	 3.29128072924396E-02 
553	 3.25638068343365E-02 
554	 3.21791547125346E-02 
555	 3.18670864074742E-02 
556	 3.15712213133785E-02 
557	 3.11810179499544E-02 
558	 3.08451132426888E-02 
559	 3.04992655600716E-02 
560	 3.01440563090887E-02 
561	 2.98981242772001E-02 
562	 2.95968225727358E-02 
563	 2.92969796254565E-02 
564	 2.90552368941052E-02 
565	 2.86761728617052E-02 
566	 0.028335297754378 
567	 2.80296047614151E-02 
568	 2.76360919143539E-02 
569	 2.73705215407683E-02 
570	 2.71580751140204E-02 
571	 2.69471198488226E-02 
572	 2.68338942386279E-02 
573	 2.67595131837707E-02 
574	 2.66816393826437E-02 
575	 2.65513720496239E-02 
576	 2.62579344014726E-02 
577	 2.59818633583886E-02 
578	 2.57452767926018E-02 
579	 2.53743266167793E-02 
580	 2.50453197608468E-02 
581	 2.47826545144072E-02 
582	 0.024582728260921 
583	 2.44864307771289E-02 
584	 2.43837156622268E-02 
585	 2.42529287569774E-02 
586	 2.41234113291988E-02 
587	 2.39480338820983E-02 
588	 2.37854684980135E-02 
589	 2.36529510142261E-02 
590	 2.34772874409373E-02 
591	 2.33606458943597E-02 
592	 2.32746463930496E-02 
593	 2.31640467234249E-02 
594	 2.30610067376882E-02 
595	 2.28914929099101E-02 
596	 2.26570136749531E-02 
597	 2.24244343464867E-02 
598	 2.21606797089428E-02 
599	 2.19430349978352E-02 
600	 2.18063440070933E-02 
601	 2.16479161989731E-02 
602	 2.15228831441231E-02 
603	 2.14407342433225E-02 
604	 2.13853282771782E-02 
605	 2.13106633917601E-02 
606	 2.12270114298295E-02 
607	 2.11273665306269E-02 
608	 2.09768772913976E-02 
609	 2.08883627344612E-02 
610	 2.08079522563204E-02 
611	 2.06784604289666E-02 
612	 2.05809137103512E-02 
613	 2.05057778097269E-02 
614	 2.04398979460039E-02 
615	 2.03681478973869E-02 
616	 2.02926063170983E-02 
617	 2.02205816794698E-02 
618	 2.01405127920709E-02 
619	 1.99981635428015E-02 
620	 1.99307543367711E-02 
621	 1.99230089657476E-02 
622	 1.99087811854289E-02 
623	 1.98641357807917E-02 
624	 1.98032427727221E-02 
625	 0.01972496297904 
626	 1.96173129945697E-02 
627	 1.95759106919892E-02 
628	 1.95536953791022E-02 
629	 1.95077833846256E-02 
630	 1.94776758754422E-02 
631	 0.019447553169403 
632	 1.94157845408455E-02 
633	 1.93897918714536E-02 
634	 1.93984871040091E-02 
635	 1.93882255611298E-02 
636	 1.93424989699101E-02 
637	 1.92993430974925E-02 
638	 1.92705870026247E-02 
639	 1.92739640841529E-02 
640	 1.92992362591282E-02 
641	 1.92424568038009E-02 
642	 1.92297208512187E-02 
643	 0.019267300874877 
644	 1.92863015344348E-02 
645	 1.92791430215923E-02 
646	 1.93007253168248E-02 
647	 1.93430281852438E-02 
648	 1.92777846655388E-02 
649	 1.92774047999024E-02 
650	 1.93287577211064E-02 
651	 1.93644949207747E-02 
652	 0.019354446376436 
653	 1.93418620023582E-02 
654	 1.93522231764947E-02 
655	 1.93895746181963E-02 
656	 1.94097298165918E-02 
657	 1.94111705654238E-02 
658	 0.01941330338635 
659	 1.94632363738774E-02 
660	 1.95329705594429E-02 
661	 1.95867832303058E-02 
662	 1.96027329729642E-02 
663	 1.96525283845305E-02 
664	 0.019704118032676 
665	 1.97485894320559E-02 
666	 1.98050046351448E-02 
667	 1.98400928097414E-02 
668	 1.98508120647235E-02 
669	 1.98624825280082E-02 
670	 1.99634880352509E-02 
671	 0.020026001346381 
672	 2.00538745789779E-02 
673	 2.01059919205485E-02 
674	 2.01554275161157E-02 
675	 2.02255401244151E-02 
676	 2.03104423952718E-02 
677	 2.03662560426248E-02 
678	 2.04262120982375E-02 
679	 2.04775709251802E-02 
680	 2.05132805641363E-02 
681	 2.05719381797158E-02 
682	 2.06577315036065E-02 
683	 2.07614549143261E-02 
684	 2.08600475701321E-02 
685	 2.08898877578761E-02 
686	 2.09408304091441E-02 
687	 2.10365438251146E-02 
688	 2.10858948123174E-02 
689	 0.021174457357459 
690	 2.12738187776719E-02 
691	 2.13452889104436E-02 
692	 2.14213861973988E-02 
693	 2.14969738356787E-02 
694	 0.021578811269858 
695	 2.16757523791634E-02 
696	 2.17439657119546E-02 
697	 2.18267412206218E-02 
698	 2.19286666685999E-02 
699	 2.19760765712178E-02 
700	 0.022078958344352 
701	 0.022200327870609 
702	 2.22819067668402E-02 
703	 2.23528786279245E-02 
704	 2.24522452197518E-02 
705	 2.25725815860683E-02 
706	 2.26766575477455E-02 
707	 0.022790807279274 
708	 2.28871153687705E-02 
709	 0.022961613333776 
710	 2.30607080616999E-02 
711	 2.31477562657496E-02 
712	 2.32568211895018E-02 
713	 2.34060600869805E-02 
714	 2.34636932490712E-02 
715	 2.35657774610524E-02 
716	 2.37064776123869E-02 
717	 2.37831842544218E-02 
718	 2.38664545079686E-02 
719	 0.023974926020229 
720	 0.024094874865127 
721	 2.41680512382208E-02 
722	 2.42823270856822E-02 
723	 2.44069431885737E-02 
724	 2.44973552056035E-02 
725	 2.46047154583834E-02 
726	 2.47225780137655E-02 
727	 2.48374997649963E-02 
728	 0.024934261231731 
729	 0.025020446839257 
730	 0.025116465159315 
731	 2.52267106879573E-02 
732	 2.53270725082262E-02 
733	 2.54330232184149E-02 
734	 2.55341427146142E-02 
735	 2.56234976231601E-02 
736	 2.57360962797948E-02 
737	 2.58422816029757E-02 
738	 2.59310233230133E-02 
739	 2.60091752744527E-02 
740	 2.61165593095491E-02 
741	 2.62341924953191E-02 
742	 2.63483763365546E-02 
743	 2.64660210455182E-02 
744	 2.65600740387532E-02 
745	 2.66471184574586E-02 
746	 2.67438885737676E-02 
747	 2.68231678451137E-02 
748	 2.69129294012652E-02 
749	 2.70184949696027E-02 
750	 2.71293181343819E-02 
751	 2.72326898242302E-02 
752	 2.73175697849408E-02 
753	 2.73900994702836E-02 
754	 2.74768431285089E-02 
755	 2.76008938867893E-02 
756	 2.76996958117979E-02 
757	 2.77457981892126E-02 
758	 0.027873644790614 
759	 2.79646427139251E-02 
760	 2.80293099572148E-02 
761	 2.81293488743102E-02 
762	 2.82365910410493E-02 
763	 0.028299371748738 
764	 0.028341126790869 
765	 2.84589633289668E-02 
766	 2.85490990135478E-02 
767	 2.86183425905197E-02 
768	 2.86910457466762E-02 
769	 2.87824018468836E-02 
770	 0.028857764489438 
771	 2.89303433324234E-02 
772	 2.90236723127891E-02 
773	 2.91184570355405E-02 
774	 0.029210427199764 
775	 2.92882078781664E-02 
776	 2.93420758600093E-02 
777	 2.94473247321287E-02 
778	 2.95514294674808E-02 
779	 2.96215940625361E-02 
780	 2.96889402553504E-02 
781	 2.98058954077584E-02 
782	 2.99103521155406E-02 
783	 2.99497468623618E-02 
784	 3.00277198450153E-02 
785	 3.01039565126102E-02 
786	 3.01866108405703E-02 
787	 3.03035023735332E-02 
788	 3.04149994515532E-02 
789	 0.030520673188463 
790	 3.05990919689592E-02 
791	 3.06073590141218E-02 
792	 0.030698804695467 
793	 3.08372546120091E-02 
794	 3.09584665518138E-02 
795	 3.10350428787635E-02 
796	 3.11099858808605E-02 
797	 3.11952420923143E-02 
798	 3.12886663139559E-02 
799	 3.13826222931023E-02 
800	 3.14707369741684E-02 
801	 3.15720385722476E-02 
802	 3.17136810699332E-02 
803	 3.18043472986148E-02 
804	 0.03188950412514 
805	 3.19949268536638E-02 
806	 3.20886635704425E-02 
807	 3.21955575954191E-02 
808	 3.23163590018117E-02 
809	 0.032437841275411 
810	 3.25215806923963E-02 
811	 3.26246997420848E-02 
812	 0.032747633661839 
813	 3.28708212784322E-02 
814	 3.30261013606651E-02 
815	 3.31612668683214E-02 
816	 3.32698499373123E-02 
817	 3.33907032109557E-02 
818	 3.35440398057319E-02 
819	 3.36911911755527E-02 
820	 3.38185111424142E-02 
821	 0.033969554460468 
822	 3.40721004585887E-02 
823	 3.41835420493638E-02 
824	 3.43589535783029E-02 
825	 0.034540998236262 
826	 3.46864176695441E-02 
827	 3.48200850544706E-02 
828	 3.49872020523346E-02 
829	 3.51311754867953E-02 
830	 0.035350135987614 
831	 3.55944567679794E-02 
832	 3.57031882233047E-02 
833	 3.58646204071397E-02 
834	 3.60434978010812E-02 
835	 0.03622572923818 
836	 3.64793497168198E-02 
837	 3.66780749318735E-02 
838	 3.68433243234429E-02 
839	 0.037025470177456 
840	 3.72402862595435E-02 
841	 3.74723558955894E-02 
842	 3.76998522308969E-02 
843	 3.79078853311784E-02 
844	 3.81205036269283E-02 
845	 3.83777642301455E-02 
846	 3.86442834383836E-02 
847	 3.88438994060554E-02 
848	 3.90509607520508E-02 
849	 3.92850225245917E-02 
850	 3.95533016495713E-02 
851	 3.98512888136295E-02 
852	 4.01026989330147E-02 
853	 4.03292718278772E-02 
854	 4.05906971618073E-02 
855	 0.040986320630781 
856	 4.12591325204638E-02 
857	 4.14681792186984E-02 
858	 4.17439445968902E-02 
859	 4.20666996087253E-02 
860	 4.24262984273345E-02 
861	 4.27987297669861E-02 
862	 4.31433067051028E-02 
863	 4.33534634393673E-02 
864	 4.36935634447157E-02 
865	 4.41514901735992E-02 
866	 4.44825533919396E-02 
867	 4.48699770757007E-02 
868	 4.52427636638441E-02 
869	 4.55809008788805E-02 
870	 4.59754200069272E-02 
871	 0.046440642382333 
872	 0.046878039409624 
873	 4.72473010450784E-02 
874	 4.76928622799499E-02 
875	 4.81626233483019E-02 
876	 4.86248796584582E-02 
877	 0.049062115396373 
878	 0.049480562671453 
879	 5.00295288388617E-02 
880	 5.05960513303515E-02 
881	 0.051011151722423 
882	 0.051567608048055 
883	 5.20853326203457E-02 
884	 5.25795152845177E-02 
885	 0.053203407040693 
886	 5.37779119571891E-02 
887	 0.054306268559487 
888	 5.48426984843392E-02 
889	 5.54637771949452E-02 
890	 5.61065879400795E-02 
891	 5.66901078858925E-02 
892	 0.057240739259486 
893	 5.79597297078236E-02 
894	 5.86468294183734E-02 
895	 5.92681887143518E-02 
896	 5.98860593190787E-02 
897	 6.06986498847236E-02 
898	 6.14191965888932E-02 
899	 6.20691678231532E-02 
900	 6.27682310105917E-02 
901	 6.35578151195554E-02 
902	 6.43208923598816E-02 
903	 6.50504858627774E-02 
904	 0.065805955791869 
905	 6.66517910029596E-02 
906	 6.75057596708862E-02 
907	 6.83178839932959E-02 
908	 6.90921027296664E-02 
909	 6.99709070734105E-02 
910	 7.08751552367873E-02 
911	 7.17297359810523E-02 
912	 7.25124039395209E-02 
913	 0.073408564933491 
914	 7.44006693900541E-02 
915	 7.54249953077605E-02 
916	 7.64060534934497E-02 
917	 7.73132281664015E-02 
918	 7.82552248920198E-02 
919	 7.92811548992885E-02 
920	 0.080276613697995 
921	 8.13535383795907E-02 
922	 0.082478774073351 
923	 8.35811120671236E-02 
924	 8.45972089156238E-02 
925	 8.56929924667439E-02 
926	 0.08683162162343 
927	 8.79310556932906E-02 
928	 8.89895876861375E-02 
929	 9.01782455751166E-02 
930	 9.14657360358053E-02 
931	 9.27372804397309E-02 
932	 9.39590328685569E-02 
933	 9.52069301296688E-02 
934	 9.64570684979409E-02 
935	 9.76563824362703E-02 
936	 9.88861943508677E-02 
937	 0.100245153885155 
938	 0.101644380770164 
939	 0.102911592127913 
940	 0.104263021145912 
941	 0.105593209137647 
942	 0.106898642834333 
943	 0.108273491327834 
944	 0.10960601740143 
945	 0.111005630335622 
946	 0.11249724912017 
947	 0.113990035212178 
948	 0.115404791772196 
949	 0.116871797788544 
950	 0.118383601468718 
951	 0.11975254266225 
952	 0.121333864834451 
953	 0.122854092606438 
954	 0.124222335526911 
955	 0.125771719882024 
956	 0.127304904138428 
957	 0.128884331468221 
958	 0.130513351839469 
959	 0.132018952761269 
960	 0.133430531293699 
961	 0.13495539724695 
962	 0.136612658279896 
963	 0.137981999111795 
964	 0.139567997078315 
965	 0.141210702305736 
966	 0.142754605158252 
967	 0.144466736780637 
968	 0.146121285982068 
969	 0.147718043289494 
970	 0.149321146895382 
971	 0.150994256420436 
972	 0.152565934713688 
973	 0.154102879468492 
974	 0.155705349502141 
975	 0.157353090730762 
976	 0.158869991061597 
977	 0.16053695101162 
978	 0.162514675178968 
979	 0.164164533619562 
980	 0.16574333985796 
981	 0.167327988367233 
982	 0.168959288725536 
983	 0.170755890930081 
984	 0.172426822178362 
985	 0.174096847784262 
986	 0.175900581880997 
987	 0.177497033907072 
988	 0.179277777403083 
989	 0.181044441124432 
990	 0.182577860280521 
991	 0.184350552063392 
992	 0.186035340974507 
993	 0.187722847174513 
994	 0.189531206526549 
995	 0.191129068298824 
996	 0.19283664664252 
997	 0.19454355036134 
998	 0.196126425920778 
999	 0.197972972529167 
1000	 0.19968009998888 
1001	 0.206717533194141 
1002	 0.208462519283302 
1003	 0.210348509690942 
1004	 0.212045517497724 
1005	 0.2135764164656 
1006	 0.215284533824536 
1007	 0.21697450032999 
1008	 0.218751661251691 
1009	 0.220660115060853 
1010	 0.222477694788032 
1011	 0.224404234792167 
1012	 0.226142002739836 
1013	 0.227691338606916 
1014	 0.229369506128837 
1015	 0.231038724785921 
1016	 0.232585534644858 
1017	 0.234380892662703 
1018	 0.236174575367374 
1019	 0.23789152416991 
1020	 0.239631561978242 
1021	 0.241296066068047 
1022	 0.242879143974558 
1023	 0.244515765666422 
1024	 0.246114103345228 
1025	 0.247763278362211 
1026	 0.249476514611303 
1027	 0.251097917200933 
1028	 0.252690413516137 
1029	 0.254333686741981 
1030	 0.255787548359081 
1031	 0.257271034850745 
1032	 0.258748791016949 
1033	 0.260128510548529 
1034	 0.261629997094319 
1035	 0.263150313037365 
1036	 0.264642888144739 
1037	 0.266202692605283 
1038	 0.267653692476574 
1039	 0.269036774373312 
1040	 0.270422541626799 
1041	 0.271719348908499 
1042	 0.273088178517404 
1043	 0.274487344032242 
1044	 0.27587627519992 
1045	 0.277316409582331 
1046	 0.278777643793749 
1047	 0.280016118932625 
1048	 0.28118868495554 
1049	 0.282385469070519 
1050	 0.283526077800679 
1051	 0.284735385257833 
1052	 0.286047055081503 
1053	 0.287350322129057 
1054	 0.288681867297684 
1055	 0.289959525843526 
1056	 0.291211316092575 
1057	 0.292522843062498 
1058	 0.293833572468352 
1059	 0.295121987516725 
1060	 0.296508723227889 
1061	 0.297901789423056 
1062	 0.29916159897141 
1063	 0.300465120655531 
1064	 0.301781273690928 
1065	 0.303106906193167 
1066	 0.30454886020349 
1067	 0.306040426687475 
1068	 0.307535680963691 
1069	 0.309023044930697 
1070	 0.310524969466266 
1071	 0.312038501747905 
1072	 0.313510316062481 
1073	 0.314939286556968 
1074	 0.316473133455659 
1075	 0.318019464378486 
1076	 0.319575134984729 
1077	 0.321286803208767 
1078	 0.322923394423815 
1079	 0.32452547614501 
1080	 0.326190887116675 
1081	 0.327714189033556 
1082	 0.329228182490089 
1083	 0.330778789334891 
1084	 0.332310341553471 
1085	 0.333901636262596 
1086	 0.3354331423768 
1087	 0.336964402670117 
1088	 0.338488314607028 
1089	 0.33998174503365 
1090	 0.341340036414603 
1091	 0.342763896497234 
1092	 0.344145497804052 
1093	 0.345424592878901 
1094	 0.346834340700277 
1095	 0.34818026447829 
1096	 0.34943025939322 
1097	 0.350705009218535 
1098	 0.351849833731029 
1099	 0.353007088696999 
1100	 0.35415557656239 
1101	 0.355179230997859 
1102	 0.356264164023852 
1103	 0.357271102830818 
1104	 0.358218580359036 
1105	 0.35910616822991 
1106	 0.359990613497729 
1107	 0.360745591343353 
1108	 0.361472273526176 
1109	 0.362188958952038 
1110	 0.362893018743273 
1111	 0.363558096946809 
1112	 0.364140905431034 
1113	 0.364727307122509 
1114	 0.365263848224015 
1115	 0.365745387472842 
1116	 0.366268310518722 
1117	 0.366764756275324 
1118	 0.367223393084558 
1119	 0.367687238999019 
1120	 0.36809331587156 
1121	 0.368445380309127 
1122	 0.368770805799344 
1123	 0.369097621315864 
1124	 0.369419359737373 
1125	 0.369767381626459 
1126	 0.370091781308438 
1127	 0.370423743064277 
1128	 0.370758703964941 
1129	 0.371047068075228 
1130	 0.371321694079279 
1131	 0.371531841765594 
1132	 0.371688978948077 
1133	 0.37189611168596 
1134	 0.372115648232838 
1135	 0.372344887025765 
1136	 0.372626797644776 
1137	 0.372891890495282 
1138	 0.373135233630263 
1139	 0.373386454682692 
1140	 0.373661240089199 
1141	 0.373907802753759 
1142	 0.374135949286654 
1143	 0.374355749882133 
1144	 0.374582181334407 
1145	 0.374799786154158 
1146	 0.374975630666869 
1147	 0.375185082654306 
1148	 0.375387441775417 
1149	 0.375540554111437 
1150	 0.375718890296507 
1151	 0.375910878594069 
1152	 0.376104015664772 
1153	 0.376324206340865 
1154	 0.376500934552943 
1155	 0.376656474417286 
1156	 0.376816701916975 
1157	 0.376946407258913 
1158	 0.377075998384433 
1159	 0.377228818853244 
1160	 0.377364953815094 
1161	 0.377419352694457 
1162	 0.377493935144056 
1163	 0.377512643231777 
1164	 0.377519513969707 
1165	 0.377592408710621 
1166	 0.377637194065348 
1167	 0.377690770304784 
1168	 0.377753983300903 
1169	 0.377812138456533 
1170	 0.377861473657135 
1171	 0.377905854925382 
1172	 0.377978974456417 
1173	 0.377999657334017 
1174	 0.377969160569463 
1175	 0.377961213962875 
1176	 0.377918729478176 
1177	 0.377911466541283 
1178	 0.377938919535559 
1179	 0.377955463801584 
1180	 0.37794246229445 
1181	 0.377948354905207 
1182	 0.377944420756829 
1183	 0.377917323946193 
1184	 0.377948515567124 
1185	 0.378007811523016 
1186	 0.378036765769535 
1187	 0.378046717163924 
1188	 0.378106747830564 
1189	 0.378162742055217 
1190	 0.378252301784736 
1191	 0.378388415672177 
1192	 0.378530229060149 
1193	 0.378693685443291 
1194	 0.378847692800608 
1195	 0.378995595593561 
1196	 0.379190997300178 
1197	 0.3794043032504 
1198	 0.379619274878181 
1199	 0.379909219189134 
1200	 0.380201377433141 
1201	 0.380435732100361 
1202	 0.380698205677642 
1203	 0.380984921927891 
1204	 0.381294006173166 
1205	 0.381640831818799 
1206	 0.382031415103916 
1207	 0.382464727923571 
1208	 0.382889912670532 
1209	 0.383424897270161 
1210	 0.384029844002924 
1211	 0.384705189303654 
1212	 0.385474577682806 
1213	 0.386284371556515 
1214	 0.387174331199423 
1215	 0.388088063151983 
1216	 0.389055654574127 
1217	 0.390026889568709 
1218	 0.391019978930927 
1219	 0.392045889161497 
1220	 0.393107248522374 
1221	 0.39424954206471 
1222	 0.395343691925241 
1223	 0.396458914908749 
1224	 0.397523374056754 
1225	 0.398540534629481 
1226	 0.399535636627073 
1227	 0.400520439729231 
1228	 0.401463737864432 
1229	 0.402378933933116 
1230	 0.403252757549143 
1231	 0.404103003443761 
1232	 0.404906443328351 
1233	 0.40562649192808 
1234	 0.406364550723213 
1235	 0.407096016442339 
1236	 0.407794011850832 
1237	 0.408494451424619 
1238	 0.409149664906634 
1239	 0.409742386325038 
1240	 0.410331416525425 
1241	 0.410957516327366 
1242	 0.411520397455842 
1243	 0.412063880716583 
1244	 0.412609450352274 
1245	 0.413097543509981 
1246	 0.413497267870916 
1247	 0.413975675792695 
1248	 0.414472197995656 
1249	 0.414941292764499 
1250	 0.415476167920425 
1251	 0.415876674983446 
1252	 0.416194004053794 
1253	 0.416502154779336 
1254	 0.416756381711889 
1255	 0.416973096213687 
1256	 0.417139899467172 
1257	 0.417315530229727 
1258	 0.417430438861743 
1259	 0.41756972646282 
1260	 0.41775346267116 
1261	 0.41789491169152 
1262	 0.417998504795384 
1263	 0.418109948372391 
1264	 0.418238599859614 
1265	 0.418358327952887 
1266	 0.418488411851098 
1267	 0.418641153587768 
1268	 0.41878908077258 
1269	 0.418930232551297 
1270	 0.419074307487664 
1271	 0.419240412177351 
1272	 0.41938158238062 
1273	 0.419486169429591 
1274	 0.419632022940379 
1275	 0.419794946501644 
1276	 0.419952138134292 
1277	 0.420141229524365 
1278	 0.420302161496657 
1279	 0.420422854501768 
1280	 0.420579794015726 
1281	 0.420699153803827 
1282	 0.420901483037678 
1283	 0.4211670262201 
1284	 0.421448587182808 
1285	 0.421766963177489 
1286	 0.422151851866135 
1287	 0.422515299551698 
1288	 0.422879600352121 
1289	 0.423283498186898 
1290	 0.42369835999393 
1291	 0.42416894535713 
1292	 0.424689922607331 
1293	 0.425211140196682 
1294	 0.4257344779627 
1295	 0.426346159961488 
1296	 0.427004636060443 
1297	 0.427686887199393 
1298	 0.428486772566474 
1299	 0.429214095106959 
1300	 0.429905868117664 
1301	 0.430622231270353 
1302	 0.431336514501248 
1303	 0.432053828977314 
1304	 0.43279027869706 
1305	 0.433512766484704 
1306	 0.434244128649701 
1307	 0.434940513942351 
1308	 0.435582761876022 
1309	 0.436285502626752 
1310	 0.436902943912354 
1311	 0.437479730103464 
1312	 0.438035621037809 
1313	 0.438556005627448 
1314	 0.439057797435264 
1315	 0.439527330053655 
1316	 0.439989202324108 
1317	 0.440419708506134 
1318	 0.440859435263922 
1319	 0.441333813231933 
1320	 0.441702009900757 
1321	 0.44205271937564 
1322	 0.442318551278224 
1323	 0.442517278169235 
1324	 0.442629166287 
1325	 0.442686440166713 
1326	 0.442657409482505 
1327	 0.442535534918637 
1328	 0.442344758109379 
1329	 0.442070622798604 
1330	 0.441757740595633 
1331	 0.441395569724295 
1332	 0.440957145489859 
1333	 0.440453194713536 
1334	 0.439901654346848 
1335	 0.439351768770363 
1336	 0.43872624831242 
1337	 0.43816358310544 
1338	 0.43763647742952 
1339	 0.43707410747445 
1340	 0.436510727220245 
1341	 0.435924152323098 
1342	 0.435329156981592 
1343	 0.434704347216934 
1344	 0.434076823396297 
1345	 0.433391001707377 
1346	 0.432667359071841 
1347	 0.431926713667024 
1348	 0.431135015655091 
1349	 0.430352382815182 
1350	 0.42954045579305 
1351	 0.428754829846192 
1352	 0.427981536348041 
1353	 0.427193134473531 
1354	 0.426390988654098 
1355	 0.425621356730202 
1356	 0.424852856277029 
1357	 0.424090674537408 
1358	 0.423340022278138 
1359	 0.422617001220994 
1360	 0.421889063244597 
1361	 0.421189816577647 
1362	 0.420536499476982 
1363	 0.419947629588088 
1364	 0.419339814919354 
1365	 0.418758707778736 
1366	 0.418170064242065 
1367	 0.417590850471754 
1368	 0.416993564465885 
1369	 0.416413799772724 
1370	 0.415780520903124 
1371	 0.415120261898072 
1372	 0.41444353769783 
1373	 0.413759414531794 
1374	 0.41301044430654 
1375	 0.412237924360249 
1376	 0.411397397439465 
1377	 0.410483493063819 
1378	 0.409538718654965 
1379	 0.408506519681096 
1380	 0.407520495536163 
1381	 0.406518360632873 
1382	 0.405512172929625 
1383	 0.404508440761165 
1384	 0.403521826556945 
1385	 0.402522837943717 
1386	 0.401544325266629 
1387	 0.400572330790172 
1388	 0.399653309440648 
1389	 0.398716087467655 
1390	 0.397869236709856 
1391	 0.397102078485409 
1392	 0.396351931635646 
1393	 0.395763346055567 
1394	 0.39517563085608 
1395	 0.394593632313259 
1396	 0.394099942022983 
1397	 0.393505859974737 
1398	 0.392925524419321 
1399	 0.392169920069651 
1400	 0.391372142129931 
1401	 0.390397071045888 
1402	 0.389263721556589 
1403	 0.38803503337814 
1404	 0.386684893333602 
1405	 0.385259340387697 
1406	 0.383675971002106 
1407	 0.382110590370373 
1408	 0.380400170547063 
1409	 0.378839921838033 
1410	 0.37719921516474 
1411	 0.375823412792855 
1412	 0.374527488952248 
1413	 0.37349657964755 
1414	 0.372702123313511 
1415	 0.372040118582788 
1416	 0.371653994241067 
1417	 0.371272391545125 
1418	 0.371041235602477 
1419	 0.370805774072806 
1420	 0.370659670306843 
1421	 0.370473046324106 
1422	 0.370310131307764 
1423	 0.370117968790963 
1424	 0.369890635750996 
1425	 0.369652688293005 
1426	 0.369453039083828 
1427	 0.36922468770302 
1428	 0.36902272719744 
1429	 0.368871270303206 
1430	 0.368739206137785 
1431	 0.368623115089223 
1432	 0.368550316630128 
1433	 0.368525555814453 
1434	 0.36849927519435 
1435	 0.36849435434166 
1436	 0.368504943789458 
1437	 0.36852724801321 
1438	 0.368571615339991 
1439	 0.368639854522801 
1440	 0.368723558187829 
1441	 0.368820270790135 
1442	 0.368942736870947 
1443	 0.369096106303038 
1444	 0.369245341469303 
1445	 0.369426548225729 
1446	 0.369581118014543 
1447	 0.369726771673637 
1448	 0.369870724668947 
1449	 0.370013481932879 
1450	 0.370138310448365 
1451	 0.370259527849387 
1452	 0.370365844371542 
1453	 0.370455164944249 
1454	 0.37053166186046 
1455	 0.370614249788328 
1456	 0.370650888155286 
1457	 0.370648004846579 
1458	 0.370641682519377 
1459	 0.370604306479124 
1460	 0.370561244327425 
1461	 0.370517617793625 
1462	 0.370453290595373 
1463	 0.370420747732257 
1464	 0.370292618117355 
1465	 0.37011385691962 
1466	 0.369882097981259 
1467	 0.369622821082666 
1468	 0.369270002105409 
1469	 0.36890162127246 
1470	 0.368553765341533 
1471	 0.368102170641104 
1472	 0.367594718788064 
1473	 0.36700353986475 
1474	 0.366342470751326 
1475	 0.365620296926293 
1476	 0.364818085627491 
1477	 0.363963038836202 
1478	 0.363057593395707 
1479	 0.362083311625118 
1480	 0.361019587597902 
1481	 0.359946031452019 
1482	 0.358793428552056 
1483	 0.357681539382536 
1484	 0.356564913878313 
1485	 0.355427097202734 
1486	 0.354271101247707 
1487	 0.353152346146826 
1488	 0.351984881479133 
1489	 0.350924417657554 
1490	 0.34985608917663 
1491	 0.348984299814374 
1492	 0.348195767506161 
1493	 0.347568299196451 
1494	 0.347130157836997 
1495	 0.346770901248018 
1496	 0.346499957722706 
1497	 0.346386093064856 
1498	 0.346363484191883 
1499	 0.346550098546464 
1500	 0.346831890370672 
1501	 0.347423525658426 
1502	 0.348184818601231 
1503	 0.349290261596396 
1504	 0.350711480451799 
1505	 0.352384954108736 
1506	 0.354558801297526 
1507	 0.356630817369991 
1508	 0.359016336880578 
1509	 0.361180126893156 
1510	 0.363382075307366 
1511	 0.365290437846541 
1512	 0.367045931807393 
1513	 0.368594934871502 
1514	 0.36981744954739 
1515	 0.37099324612019 
1516	 0.371960510729086 
1517	 0.372936375665449 
1518	 0.373811812239633 
1519	 0.374696082318158 
1520	 0.375566016950706 
1521	 0.376419653102549 
1522	 0.37727181639885 
1523	 0.378182696911224 
1524	 0.379051101336446 
1525	 0.379936206693469 
1526	 0.380782182318758 
1527	 0.381612135739255 
1528	 0.38238521252732 
1529	 0.383141337212718 
1530	 0.383833564768151 
1531	 0.384449629878965 
1532	 0.385087863419185 
1533	 0.385696529935235 
1534	 0.386309790139494 
1535	 0.386932424188559 
1536	 0.387501418075688 
1537	 0.388033183449358 
1538	 0.388580719228158 
1539	 0.389097210730086 
1540	 0.389633738991334 
1541	 0.39021312216995 
1542	 0.390713014569207 
1543	 0.391188829629774 
1544	 0.391621745457967 
1545	 0.391995045252509 
1546	 0.392372388794377 
1547	 0.392739564431549 
1548	 0.393059838755824 
1549	 0.393354813750801 
1550	 0.393618174134263 
1551	 0.393832225366787 
1552	 0.394040424119305 
1553	 0.394238629082845 
1554	 0.394396887877792 
1555	 0.394505831465361 
1556	 0.3946373263013 
1557	 0.394738219216576 
1558	 0.394869441909514 
1559	 0.395018777508279 
1560	 0.395174123681078 
1561	 0.395321490918347 
1562	 0.395511970318319 
1563	 0.395747802619232 
1564	 0.395956912099658 
1565	 0.396193363858992 
1566	 0.396398838308298 
1567	 0.396564101509178 
1568	 0.396756923654743 
1569	 0.396950654809789 
1570	 0.397155095081566 
1571	 0.397370312641415 
1572	 0.397591000300589 
1573	 0.397822091560919 
1574	 0.398052420806951 
1575	 0.398289897082076 
1576	 0.398527125031012 
1577	 0.398775292602613 
1578	 0.399002007462658 
1579	 0.399232223133286 
1580	 0.399435761223172 
1581	 0.399603036330373 
1582	 0.399784596922648 
1583	 0.399943563161643 
1584	 0.40013162467638 
1585	 0.400342488769859 
1586	 0.400546127641579 
1587	 0.400779550592557 
1588	 0.400974849096915 
1589	 0.401153513823695 
1590	 0.401319016711959 
1591	 0.401449460348741 
1592	 0.401593448352017 
1593	 0.401723463159231 
1594	 0.401872350443666 
1595	 0.402031358475755 
1596	 0.402196565653513 
1597	 0.402379564419616 
1598	 0.402555443631626 
1599	 0.402753580604211 
1600	 0.402912513247558 
1601	 0.40305557087624 
1602	 0.403181785417337 
1603	 0.403261723125483 
1604	 0.403362397225624 
1605	 0.403467254512594 
1606	 0.403563903482767 
1607	 0.403668252530305 
1608	 0.403757890683845 
1609	 0.403839224874009 
1610	 0.403905410932881 
1611	 0.403966561362769 
1612	 0.404005586994634 
1613	 0.404001904548614 
1614	 0.404025830412277 
1615	 0.404036672194498 
1616	 0.404071652353793 
1617	 0.404149686207368 
1618	 0.404205679441107 
1619	 0.404274120554287 
1620	 0.40431445466953 
1621	 0.404348820951668 
1622	 0.404344721177189 
1623	 0.404304968698831 
1624	 0.40425666600369 
1625	 0.404170319642488 
1626	 0.404087334958858 
1627	 0.403995983447098 
1628	 0.403905907820739 
1629	 0.403790430424863 
1630	 0.403708307017909 
1631	 0.403644968914338 
1632	 0.403585931359991 
1633	 0.403570456938922 
1634	 0.403519181032073 
1635	 0.403457818628869 
1636	 0.403377303705726 
1637	 0.403265499982914 
1638	 0.403157989719122 
1639	 0.4030317223087 
1640	 0.40292080275678 
1641	 0.402824588993528 
1642	 0.402712621831985 
1643	 0.402596448634323 
1644	 0.402483934925047 
1645	 0.402402790116346 
1646	 0.402249742132072 
1647	 0.4020717355687 
1648	 0.401860983737499 
1649	 0.40157678243958 
1650	 0.401287731993474 
1651	 0.400992574511652 
1652	 0.40067618268749 
1653	 0.40032800713906 
1654	 0.399972222032324 
1655	 0.399625906459471 
1656	 0.399213726898232 
1657	 0.39878799930703 
1658	 0.398278818585966 
1659	 0.39767709467195 
1660	 0.397079981665943 
1661	 0.396464507678441 
1662	 0.39577298041892 
1663	 0.395046080316915 
1664	 0.394251296216272 
1665	 0.393389717234463 
1666	 0.39244186098345 
1667	 0.391459596725083 
1668	 0.390377972879479 
1669	 0.389202733684743 
1670	 0.387923823500613 
1671	 0.386517661750459 
1672	 0.385081970326075 
1673	 0.383573828273305 
1674	 0.381980733239821 
1675	 0.380356360082064 
1676	 0.378639778485448 
1677	 0.376798414581249 
1678	 0.374932184242921 
1679	 0.37296601717417 
1680	 0.371021966963766 
1681	 0.369038622922895 
1682	 0.367039755342565 
1683	 0.365050732289037 
1684	 0.363055105047468 
1685	 0.361044343691586 
1686	 0.359001392620945 
1687	 0.356913780670776 
1688	 0.354849796412344 
1689	 0.352772299759986 
1690	 0.350658243229141 
1691	 0.348584761684755 
1692	 0.346474736523737 
1693	 0.344309622934173 
1694	 0.342136668509961 
1695	 0.339934683439325 
1696	 0.337726235700932 
1697	 0.335509411161019 
1698	 0.333235380487583 
1699	 0.33095035955781 
1700	 0.328682880550949 
1701	 0.326328199010122 
1702	 0.324090373858569 
1703	 0.321877400108306 
1704	 0.319772436115928 
1705	 0.317704259715888 
1706	 0.315760338901294 
1707	 0.31401445293114 
1708	 0.312330263167344 
1709	 0.310800206152056 
1710	 0.309379707065732 
1711	 0.307954117701129 
1712	 0.306664642146922 
1713	 0.305389695267248 
1714	 0.30411831751364 
1715	 0.302979242370307 
1716	 0.301844075811799 
1717	 0.300770367042474 
1718	 0.299730174760305 
1719	 0.298721459040929 
1720	 0.297846079275841 
1721	 0.297021639616354 
1722	 0.296302070853638 
1723	 0.295767403376777 
1724	 0.295328226966344 
1725	 0.295040480303604 
1726	 0.294990092856375 
1727	 0.295143331637135 
1728	 0.295506242008993 
1729	 0.29610501149735 
1730	 0.296959751532918 
1731	 0.297955916625865 
1732	 0.299106245363587 
1733	 0.300372386450901 
1734	 0.301710903171601 
1735	 0.303084658227649 
1736	 0.30442197962179 
1737	 0.305688055361159 
1738	 0.306813384849388 
1739	 0.307721707145665 
1740	 0.308446075414628 
1741	 0.309000262499497 
1742	 0.309377086236361 
1743	 0.309600111819876 
1744	 0.309603331512445 
1745	 0.309561439933001 
1746	 0.30931078966634 
1747	 0.309110706860801 
1748	 0.308857908176207 
1749	 0.308656304389892 
1750	 0.308429064869015 
1751	 0.308276969096356 
1752	 0.308156633558211 
1753	 0.308116987787659 
1754	 0.308127713331269 
1755	 0.308235533101063 
1756	 0.308396846717301 
1757	 0.308675186657768 
1758	 0.309093828540254 
1759	 0.309643130896097 
1760	 0.310337701034091 
1761	 0.311187448549671 
1762	 0.312110145365943 
1763	 0.313214077576028 
1764	 0.314413034224709 
1765	 0.315704812317498 
1766	 0.317212698700486 
1767	 0.318723730678186 
1768	 0.320258582790483 
1769	 0.321800052019192 
1770	 0.323221707306291 
1771	 0.324625947277543 
1772	 0.325965992365963 
1773	 0.32722060180011 
1774	 0.328434214423342 
1775	 0.329527756906222 
1776	 0.330573499461248 
1777	 0.331545287751726 
1778	 0.332365137973124 
1779	 0.333109627685962 
1780	 0.333750639245069 
1781	 0.334292790303854 
1782	 0.334820540940792 
1783	 0.335282462541771 
1784	 0.33569962368737 
1785	 0.336104644861168 
1786	 0.336487870095758 
1787	 0.336885614856151 
1788	 0.337212627276875 
1789	 0.337513606973412 
1790	 0.337709381587554 
1791	 0.337789118227455 
1792	 0.337903736472265 
1793	 0.337910193736361 
1794	 0.338020555291837 
1795	 0.338217706917158 
1796	 0.338384408949527 
1797	 0.338602467869719 
1798	 0.338813432750099 
1799	 0.338959065430988 
1800	 0.339129370141118 
1801	 0.340620905376508 
1802	 0.340936753754592 
1803	 0.341230317149203 
1804	 0.341507756265967 
1805	 0.341844660624919 
1806	 0.342109924927049 
1807	 0.342339484438577 
1808	 0.342551203784159 
1809	 0.342716990832571 
1810	 0.34291109540801 
1811	 0.343082597261154 
1812	 0.343288419108388 
1813	 0.343530291858143 
1814	 0.343752115916983 
1815	 0.343999150518069 
1816	 0.344244711172355 
1817	 0.34448034887526 
1818	 0.344691965871798 
1819	 0.344951611368287 
1820	 0.345226575344721 
1821	 0.345503161090537 
1822	 0.345787033921334 
1823	 0.346126417974257 
1824	 0.346470286432532 
1825	 0.346772013044215 
1826	 0.347067570918113 
1827	 0.347400491508325 
1828	 0.34764155327773 
1829	 0.347818609895925 
1830	 0.348011678783087 
1831	 0.348164405721745 
1832	 0.348317535487503 
1833	 0.348498361560144 
1834	 0.348672691797063 
1835	 0.34886766787281 
1836	 0.349102082294694 
1837	 0.349380470923731 
1838	 0.349746323469747 
1839	 0.350012833333559 
1840	 0.350277425631627 
1841	 0.350542379389414 
1842	 0.350776289105035 
1843	 0.350986284539809 
1844	 0.351201972759374 
1845	 0.351391478313059 
1846	 0.351502510191382 
1847	 0.351642848447744 
1848	 0.351796787647771 
1849	 0.351986010657886 
1850	 0.352116274021486 
1851	 0.352246886990668 
1852	 0.352338298898209 
1853	 0.35238262632321 
1854	 0.352426286734932 
1855	 0.352470852496388 
1856	 0.352444235727407 
1857	 0.352350027712867 
1858	 0.352264356941692 
1859	 0.352130474596944 
1860	 0.351954021787625 
1861	 0.351737393531135 
1862	 0.351517223679431 
1863	 0.351198106311724 
1864	 0.350784900696256 
1865	 0.35034450540901 
1866	 0.349840106599452 
1867	 0.349263174062918 
1868	 0.3486632942696 
1869	 0.348001323975862 
1870	 0.347312936388442 
1871	 0.346606951127332 
1872	 0.34584373722715 
1873	 0.345037102932455 
1874	 0.344202739757883 
1875	 0.343365480494702 
1876	 0.342372461755573 
1877	 0.341374826623792 
1878	 0.340273981241832 
1879	 0.338982647469918 
1880	 0.337643155585247 
1881	 0.336123088564186 
1882	 0.334444960299995 
1883	 0.332664542106442 
1884	 0.330681536028634 
1885	 0.328436654350476 
1886	 0.32613504446351 
1887	 0.323676064825579 
1888	 0.321129400934915 
1889	 0.318706271521533 
1890	 0.316179943925776 
1891	 0.313656060319547 
1892	 0.311219315664314 
1893	 0.308702305871382 
1894	 0.306103698632378 
1895	 0.303617983670021 
1896	 0.301071270723024 
1897	 0.298434890995812 
1898	 0.296033053841602 
1899	 0.293579103606319 
1900	 0.291187024029494 
1901	 0.288937288941646 
1902	 0.286551728269308 
1903	 0.284324432093592 
1904	 0.282212123436201 
1905	 0.280178277263827 
1906	 0.278222501790518 
1907	 0.276534051642955 
1908	 0.2748930497117 
1909	 0.273330766105428 
1910	 0.271878852043235 
1911	 0.270411669885556 
1912	 0.269055090323298 
1913	 0.267748851163423 
1914	 0.266447679599652 
1915	 0.265282096036046 
1916	 0.264234693721381 
1917	 0.263210766077266 
1918	 0.262293490145411 
1919	 0.261528955534283 
1920	 0.260758449044638 
1921	 0.260069330708327 
1922	 0.259382667293016 
1923	 0.258733983564743 
1924	 0.258217062581318 
1925	 0.257689658333351 
1926	 0.257216760165156 
1927	 0.256813756493654 
1928	 0.256436970882661 
1929	 0.256077181035616 
1930	 0.255781301199456 
1931	 0.255544185699131 
1932	 0.255355344185558 
1933	 0.255206140820397 
1934	 0.255123086803441 
1935	 0.255093627414483 
1936	 0.255117383927135 
1937	 0.255181864713558 
1938	 0.255291820322332 
1939	 0.25545913684355 
1940	 0.255683044997352 
1941	 0.255940362483775 
1942	 0.25622815445857 
1943	 0.25653838214878 
1944	 0.256871096862831 
1945	 0.257178701001065 
1946	 0.257531253011118 
1947	 0.257910378940382 
1948	 0.258280345741515 
1949	 0.258720206717292 
1950	 0.259157935663189 
1951	 0.259626769161045 
1952	 0.260089617649525 
1953	 0.260568096517333 
1954	 0.26102449311843 
1955	 0.261528193090535 
1956	 0.262035406278253 
1957	 0.262503705984846 
1958	 0.262986372389581 
1959	 0.263420440258163 
1960	 0.263788049807735 
1961	 0.264167878123609 
1962	 0.264527827134674 
1963	 0.264897300295015 
1964	 0.265233135363502 
1965	 0.265610067256414 
1966	 0.266011827895829 
1967	 0.266436840936676 
1968	 0.266813899669939 
1969	 0.267214064490287 
1970	 0.2675891294183 
1971	 0.267913770616845 
1972	 0.268244135547378 
1973	 0.268566628978871 
1974	 0.268892028970182 
1975	 0.269202244926628 
1976	 0.269517126035384 
1977	 0.269805873477649 
1978	 0.270158721709574 
1979	 0.270521010906824 
1980	 0.270921051083637 
1981	 0.271397822716225 
1982	 0.27191650841551 
1983	 0.272460610381127 
1984	 0.273031872302438 
1985	 0.273558799265752 
1986	 0.274076033623086 
1987	 0.274562870916742 
1988	 0.275014348826991 
1989	 0.275448500541055 
1990	 0.275875273084745 
1991	 0.276249016653695 
1992	 0.276590149251704 
1993	 0.27689881443774 
1994	 0.277146053455124 
1995	 0.277384558470987 
1996	 0.277595262807827 
1997	 0.277783830035451 
1998	 0.277990859469255 
1999	 0.278195422959681 
2000	 0.278401887475321 
2001	 0.278628644686925 
2002	 0.278815345672355 
2003	 0.279004176440037 
2004	 0.279151633417774 
2005	 0.279285104959017 
2006	 0.279367169717676 
2007	 0.27943315230631 
2008	 0.279420437493272 
2009	 0.27932001572001 
2010	 0.279173964956444 
2011	 0.278980695503581 
2012	 0.278736506461632 
2013	 0.278463925764701 
2014	 0.278181757098737 
2015	 0.277816574639668 
2016	 0.277388470544246 
2017	 0.27691941906527 
2018	 0.276385924052714 
2019	 0.275834668318777 
2020	 0.275239377170175 
2021	 0.274604929600595 
2022	 0.27400476227084 
2023	 0.273312155326629 
2024	 0.272563468934052 
2025	 0.271845349586341 
2026	 0.271085841716198 
2027	 0.270222038674826 
2028	 0.269471090443823 
2029	 0.268772411670069 
2030	 0.268052437868435 
2031	 0.267403573707262 
2032	 0.266689139660689 
2033	 0.265947432835363 
2034	 0.265176838679927 
2035	 0.264378495653873 
2036	 0.263512438036958 
2037	 0.262708465607293 
2038	 0.261889766663747 
2039	 0.261182247191826 
2040	 0.260499096757717 
2041	 0.259977060758224 
2042	 0.259504326618984 
2043	 0.259247599466833 
2044	 0.259170359259594 
2045	 0.25919410429686 
2046	 0.259417844408473 
2047	 0.259672629318179 
2048	 0.260058824857982 
2049	 0.260450471074042 
2050	 0.26096633686162 
2051	 0.2614181857548 
2052	 0.261858991657043 
2053	 0.262286065240938 
2054	 0.262645058325614 
2055	 0.262920822636326 
2056	 0.263244510374101 
2057	 0.26350899657761 
2058	 0.26385637203433 
2059	 0.264237599974072 
2060	 0.264642145753235 
2061	 0.265094128191355 
2062	 0.265557174640997 
2063	 0.266050090428674 
2064	 0.26654685222924 
2065	 0.267050787785499 
2066	 0.267589610540441 
2067	 0.268157469490882 
2068	 0.268670595939079 
2069	 0.269173737443165 
2070	 0.269694807458566 
2071	 0.270143248831924 
2072	 0.270544343151725 
2073	 0.270919463581989 
2074	 0.271276725547089 
2075	 0.271567714743604 
2076	 0.271800609092656 
2077	 0.272006173037425 
2078	 0.272145079786912 
2079	 0.272271792005129 
2080	 0.272381387544039 
2081	 0.272461377836299 
2082	 0.272490154004904 
2083	 0.272518774849387 
2084	 0.272557882179883 
2085	 0.272599112063467 
2086	 0.272630927171396 
2087	 0.27268301971516 
2088	 0.272710966880984 
2089	 0.272713620114753 
2090	 0.272713340257699 
2091	 0.27273079523113 
2092	 0.27269820385096 
2093	 0.272636015701759 
2094	 0.272558405511864 
2095	 0.272437174101406 
2096	 0.272323591095277 
2097	 0.272221875708847 
2098	 0.272067382213031 
2099	 0.271915912352938 
2100	 0.271770247829081 
2101	 0.271587047034775 
2102	 0.271383815808972 
2103	 0.271161071150323 
2104	 0.270907375511738 
2105	 0.270652994227568 
2106	 0.270369298961707 
2107	 0.270101513552116 
2108	 0.269864471930591 
2109	 0.26956275969727 
2110	 0.26924247343044 
2111	 0.268901731755334 
2112	 0.268499853424052 
2113	 0.268102323564771 
2114	 0.267707999965342 
2115	 0.267285228272938 
2116	 0.266814259563742 
2117	 0.266388798426305 
2118	 0.265918542462861 
2119	 0.265408049133524 
2120	 0.264946475527748 
2121	 0.264468620706324 
2122	 0.264043424975466 
2123	 0.263681543995421 
2124	 0.263282140365778 
2125	 0.262903816884568 
2126	 0.262502739158994 
2127	 0.262078281025901 
2128	 0.261657843426559 
2129	 0.261219769645254 
2130	 0.26080089847525 
2131	 0.260373865014155 
2132	 0.259970245215728 
2133	 0.259567275342842 
2134	 0.259222124787099 
2135	 0.258867245121725 
2136	 0.258580459635084 
2137	 0.258221619302326 
2138	 0.257861932967421 
2139	 0.257475301085996 
2140	 0.257040416172662 
2141	 0.256617834263311 
2142	 0.256192263233573 
2143	 0.255768890386391 
2144	 0.25530592362715 
2145	 0.254912430940043 
2146	 0.254538826451792 
2147	 0.254209902749549 
2148	 0.253940450407728 
2149	 0.253669246394579 
2150	 0.253462339630631 
2151	 0.253203297089559 
2152	 0.252927273717446 
2153	 0.252656121174486 
2154	 0.252363408428619 
2155	 0.252014347674738 
2156	 0.251681306649427 
2157	 0.251332736341248 
2158	 0.251005494951635 
2159	 0.250675184064479 
2160	 0.250355240753819 
2161	 0.250042708463736 
2162	 0.249755255380546 
2163	 0.249469885149943 
2164	 0.249203154851889 
2165	 0.248950728146122 
2166	 0.248738204127758 
2167	 0.248540940461793 
2168	 0.248378473557182 
2169	 0.248288692570329 
2170	 0.248172599031182 
2171	 0.248033038941034 
2172	 0.247941855396888 
2173	 0.247875054096638 
2174	 0.247815829049511 
2175	 0.247797226343246 
2176	 0.247815356037968 
2177	 0.2478409296845 
2178	 0.247878602494974 
2179	 0.2479445367755 
2180	 0.248056812097074 
2181	 0.248137094139268 
2182	 0.248228142372592 
2183	 0.248296443571673 
2184	 0.248339811790984 
2185	 0.248390422204818 
2186	 0.24842584480717 
2187	 0.248488091740135 
2188	 0.24855502888267 
2189	 0.248642937912137 
2190	 0.248774136655939 
2191	 0.248875101890224 
2192	 0.249003514776164 
2193	 0.249073476956163 
2194	 0.249100605638932 
2195	 0.249114782408196 
2196	 0.249115219195271 
2197	 0.249075205612289 
2198	 0.24897068668538 
2199	 0.248797055774144 
2200	 0.248561520661374 
2201	 0.248215817637314 
2202	 0.247885545118665 
2203	 0.247530227030533 
2204	 0.247124444606777 
2205	 0.246665282570383 
2206	 0.246195325975181 
2207	 0.245607163505825 
2208	 0.245187938624283 
2209	 0.244762516480586 
2210	 0.244499793783853 
2211	 0.244350428363174 
2212	 0.244335374987688 
2213	 0.244484288161901 
2214	 0.244657043889096 
2215	 0.245049733911477 
2216	 0.245296151737963 
2217	 0.245526383457067 
2218	 0.245718348942281 
2219	 0.245904841132448 
2220	 0.245972027598963 
2221	 0.246000698496053 
2222	 0.24593368689278 
2223	 0.245719320695072 
2224	 0.245416250504879 
2225	 0.245024343003972 
2226	 0.244542779012693 
2227	 0.243952973123063 
2228	 0.243255492863996 
2229	 0.242458379422686 
2230	 0.241545220367455 
2231	 0.240563601198259 
2232	 0.239458244357709 
2233	 0.238334646896684 
2234	 0.237189820579316 
2235	 0.235885496588128 
2236	 0.234522383209668 
2237	 0.232997840202784 
2238	 0.231260007654883 
2239	 0.229514519668962 
2240	 0.227707014005573 
2241	 0.225766785441612 
2242	 0.223769877341443 
2243	 0.221625804331156 
2244	 0.219267620424623 
2245	 0.21692363179689 
2246	 0.214438342828642 
2247	 0.211988183929427 
2248	 0.209545442231297 
2249	 0.207054418870918 
2250	 0.204524656413505 
2251	 0.202041925543453 
2252	 0.1993480492274 
2253	 0.196765481249997 
2254	 0.194180397574548 
2255	 0.191498122755946 
2256	 0.18901439872061 
2257	 0.186540591765138 
2258	 0.184098700098061 
2259	 0.181755044970685 
2260	 0.179295566061213 
2261	 0.176786407104647 
2262	 0.174344880449192 
2263	 0.171850981221411 
2264	 0.169432453920476 
2265	 0.167185832174923 
2266	 0.164700457654148 
2267	 0.162288390883674 
2268	 0.159483613787475 
2269	 0.15648343756743 
2270	 0.153238582921135 
2271	 0.14961641287439 
2272	 0.145929571908296 
2273	 0.142076539720132 
2274	 0.138010232707755 
2275	 0.133711430407905 
2276	 0.12936155200048 
2277	 0.124563360524454 
2278	 0.120196453723783 
2279	 0.115576637879185 
2280	 0.111697476536941 
2281	 0.108256874500849 
2282	 0.105270604579187 
2283	 0.102725013690141 
2284	 0.100895704151867 
2285	 9.94065792653955E-02 
2286	 9.83587561401798E-02 
2287	 9.78429151361789E-02 
2288	 9.77696426245527E-02 
2289	 9.79428552728282E-02 
2290	 9.84241835835809E-02 
2291	 0.099258899463887 
2292	 0.100229130597863 
2293	 0.101390490788438 
2294	 0.102613106729753 
2295	 0.103766966754639 
2296	 0.104838666566332 
2297	 0.105790146622808 
2298	 0.106625274498635 
2299	 0.107468046880003 
2300	 0.108161090984606 
2301	 0.108978980314804 
2302	 0.109832938934486 
2303	 0.110699594468243 
2304	 0.111580841171196 
2305	 0.112528065193168 
2306	 0.113476211303789 
2307	 0.114571541946023 
2308	 0.11572796096113 
2309	 0.117027930432604 
2310	 0.11849162306355 
2311	 0.119978360584694 
2312	 0.121681238156542 
2313	 0.123223477793412 
2314	 0.124831085902316 
2315	 0.126224645283816 
2316	 0.127511992396585 
2317	 0.128621544477751 
2318	 0.129582302265715 
2319	 0.13034604436885 
2320	 0.131006117233327 
2321	 0.131337573342513 
2322	 0.131396019742407 
2323	 0.131273350413539 
2324	 0.130938875730752 
2325	 0.130257131729375 
2326	 0.129297421654096 
2327	 0.128085862136228 
2328	 0.126462137657228 
2329	 0.124677923310276 
2330	 0.122749940562624 
2331	 0.120454879312093 
2332	 0.117882358560772 
2333	 0.115001492032156 
2334	 0.111743044446932 
2335	 0.108391190221476 
2336	 0.104739246295042 
2337	 0.100944162665607 
2338	 9.74219397550905E-02 
2339	 9.38086970688725E-02 
2340	 9.04262125181609E-02 
2341	 8.74190783290379E-02 
2342	 8.45223244442179E-02 
2343	 8.20831532930727E-02 
2344	 0.080030793102259 
2345	 7.84907232505873E-02 
2346	 7.73377820728491E-02 
2347	 7.65532886859476E-02 
2348	 7.59912395857497E-02 
2349	 7.55954337359726E-02 
2350	 7.53215464035648E-02 
2351	 7.47285601963495E-02 
2352	 0.07425256346214 
2353	 7.38175738856561E-02 
2354	 7.35396003239996E-02 
2355	 7.37692104923866E-02 
2356	 7.44910747026998E-02 
2357	 7.59211389722006E-02 
2358	 7.81332218869837E-02 
2359	 8.10907971227823E-02 
2360	 8.46133626288943E-02 
2361	 8.87188972477125E-02 
2362	 9.26815524882981E-02 
2363	 9.66856635797325E-02 
2364	 0.100580290069531 
2365	 0.103905947291226 
2366	 0.107265545846334 
2367	 0.110216292060703 
2368	 0.112795775710148 
2369	 0.115194758016884 
2370	 0.117104534925284 
2371	 0.118740070039416 
2372	 0.120203876561612 
2373	 0.121310044687621 
2374	 0.122107051602179 
2375	 0.1227035043954 
2376	 0.12313691346712 
2377	 0.123454486281229 
2378	 0.123849214236228 
2379	 0.124261522312472 
2380	 0.124477805774942 
2381	 0.124616723102703 
2382	 0.124858587460394 
2383	 0.125022331566102 
2384	 0.125368928109745 
2385	 0.125922462863006 
2386	 0.126375376763672 
2387	 0.126861459268355 
2388	 0.127332956780257 
2389	 0.12778366177219 
2390	 0.128252241967323 
2391	 0.128786921520004 
2392	 0.129130024595506 
2393	 0.129351662398108 
2394	 0.129632181952309 
2395	 0.12979122841977 
2396	 0.130116903359263 
2397	 0.130587435927084 
2398	 0.130924284441994 
2399	 0.131247172805913 
2400	 0.131567450199147 
2401	 0.131843345355255 
2402	 0.132171056357393 
2403	 0.132532992828715 
2404	 0.133077927288907 
2405	 0.133443876010592 
2406	 0.133747112823028 
2407	 0.134072083091521 
2408	 0.134102069614555 
2409	 0.134208468577124 
2410	 0.134617111396979 
2411	 0.134907097841506 
2412	 0.1349719316606 
2413	 0.135198787685812 
2414	 0.135566697111062 
2415	 0.135683936509789 
2416	 0.135791925716069 
2417	 0.135823169594526 
2418	 0.135633418464136 
2419	 0.135646271578527 
2420	 0.135868489330047 
2421	 0.136214632632121 
2422	 0.13650108878969 
2423	 0.136489410287031 
2424	 0.136324010532732 
2425	 0.136111086153289 
2426	 0.135838348569921 
2427	 0.135601747924217 
2428	 0.135631121317613 
2429	 0.135799257605884 
2430	 0.135916418645647 
2431	 0.13603801225431 
2432	 0.136075036276844 
2433	 0.135904445829993 
2434	 0.135622859133732 
2435	 0.135436089512688 
2436	 0.135297999014134 
2437	 0.135192785907257 
2438	 0.13514250846011 
2439	 0.134915844384594 
2440	 0.134524670896131 
2441	 0.1343894131931 
2442	 0.134325387302039 
2443	 0.134122475277033 
2444	 0.134189138377577 
2445	 0.134132249589297 
2446	 0.133617116640439 
2447	 0.133314869888015 
2448	 0.133176145632932 
2449	 0.132761441039475 
2450	 0.1325278937532 
2451	 0.132307716738063 
2452	 0.131649229440641 
2453	 0.131067176014362 
2454	 0.130469697094581 
2455	 0.129643233075719 
2456	 0.128993615334295 
2457	 0.12853552441773 
2458	 0.128280723531502 
2459	 0.12833463174568 
2460	 0.128305016125207 
2461	 0.127885787977365 
2462	 0.127306938673703 
2463	 0.12679211439649 
2464	 0.126568694127649 
2465	 0.126612060147186 
2466	 0.126563636295135 
2467	 0.126412401894558 
2468	 0.126268368603712 
2469	 0.125741799398629 
2470	 0.125157687419991 
2471	 0.12506279675945 
2472	 0.124887473944764 
2473	 0.124869432668916 
2474	 0.125177987979023 
2475	 0.125035831164587 
2476	 0.124540789949907 
2477	 0.124500298428448 
2478	 0.124725128659464 
2479	 0.124588608249132 
2480	 0.124507292709574 
2481	 0.124010874740282 
2482	 0.122920314160587 
2483	 0.12240501021137 
2484	 0.122046815002943 
2485	 0.122438924013517 
2486	 0.1224224244315 
2487	 0.122157913056006 
2488	 0.122268399346427 
2489	 0.122095859585456 
2490	 0.122155354808772 
2491	 0.122984690992095 
2492	 0.123322229794477 
2493	 0.122988039650653 
2494	 0.122807254500283 
2495	 0.122871610833982 
2496	 0.122941584486469 
2497	 0.123375272245893 
2498	 0.123763212413483 
2499	 0.123396181901685 
2500	 0.123187898923344 
