Wavelength	spectrum00024.asd
350	 0.314617100273997 
351	 0.319551861113299 
352	 0.320740322686514 
353	 0.320023074152548 
354	 0.318732656372024 
355	 0.317366730624041 
356	 0.318080604409593 
357	 0.321454953736549 
358	 0.323057355240848 
359	 0.324351835138385 
360	 0.325826902867788 
361	 0.32724606655682 
362	 0.326575776421818 
363	 0.328358805110084 
364	 0.333221636070882 
365	 0.336125983170624 
366	 0.336391295423281 
367	 0.337588057943751 
368	 0.341843846504934 
369	 0.343081717944643 
370	 0.344053900398465 
371	 0.347250883844286 
372	 0.353825126617903 
373	 0.3563194095951 
374	 0.358291345326933 
375	 0.360863983245303 
376	 0.359886793635423 
377	 0.361435990648323 
378	 0.366625746581498 
379	 0.373526543845075 
380	 0.374955616149202 
381	 0.377190874437381 
382	 0.380694908183863 
383	 0.382405238992985 
384	 0.38289929659644 
385	 0.384537696493423 
386	 0.388095389035043 
387	 0.391764599846922 
388	 0.394438281697119 
389	 0.3975521917844 
390	 0.401958094385593 
391	 0.40342221519922 
392	 0.405896320050462 
393	 0.40906863855129 
394	 0.410140321351199 
395	 0.412662901780677 
396	 0.415563705990897 
397	 0.417794624818559 
398	 0.419220377429643 
399	 0.421657948115228 
400	 0.425084497756906 
401	 0.428586378767038 
402	 0.430194327260068 
403	 0.432454347652914 
404	 0.435290791086151 
405	 0.43676024383679 
406	 0.438989767605635 
407	 0.441457795629402 
408	 0.443661648926317 
409	 0.445840273796051 
410	 0.448395546259167 
411	 0.451460610666062 
412	 0.454715992499055 
413	 0.456200617796812 
414	 0.45803743777357 
415	 0.460872215350088 
416	 0.46379748161095 
417	 0.465575546037803 
418	 0.467528010280267 
419	 0.470415740531268 
420	 0.472638598354289 
421	 0.474712697388428 
422	 0.476838789270104 
423	 0.479074879964801 
424	 0.481306571200523 
425	 0.48380790105535 
426	 0.486273794519253 
427	 0.487752279696062 
428	 0.490036965024236 
429	 0.492579212763195 
430	 0.494677604424967 
431	 0.496850533312085 
432	 0.499134814979892 
433	 0.501314072963695 
434	 0.50312709764849 
435	 0.505198353796226 
436	 0.507441712403625 
437	 0.509629536287988 
438	 0.511437682075227 
439	 0.513374314946836 
440	 0.515367734388909 
441	 0.517262998715864 
442	 0.519354803528166 
443	 0.521356730346027 
444	 0.523269409890334 
445	 0.525317543687309 
446	 0.52709779798999 
447	 0.528995684228267 
448	 0.531220183284209 
449	 0.533376356984308 
450	 0.535058759361065 
451	 0.53668991473018 
452	 0.538804422940111 
453	 0.540361802950964 
454	 0.54205982332335 
455	 0.544087708052417 
456	 0.545952002697592 
457	 0.547489072744111 
458	 0.549122153370286 
459	 0.55107157799528 
460	 0.552469819663003 
461	 0.554342509218662 
462	 0.556449706456749 
463	 0.557929168661803 
464	 0.559246801028326 
465	 0.560641288272291 
466	 0.562241005792474 
467	 0.564066457694264 
468	 0.565545390850908 
469	 0.566853370147374 
470	 0.568322014911239 
471	 0.569856709993262 
472	 0.571360227573806 
473	 0.572733358347387 
474	 0.57390921782719 
475	 0.575255672684794 
476	 0.576723857091203 
477	 0.578223519925339 
478	 0.579766589160255 
479	 0.581141782116339 
480	 0.582393454800654 
481	 0.583657535384695 
482	 0.584837272395393 
483	 0.586428880702522 
484	 0.588199065921269 
485	 0.589071700434831 
486	 0.590194516584036 
487	 0.591654722841043 
488	 0.593217127911422 
489	 0.594494130060005 
490	 0.595659680111981 
491	 0.596826582322223 
492	 0.59804299624846 
493	 0.599060202694983 
494	 0.600235999230293 
495	 0.601684723067951 
496	 0.603013983123093 
497	 0.604248284210388 
498	 0.605169193912483 
499	 0.605764738280055 
500	 0.60720553502212 
501	 0.608538666621236 
502	 0.609543007021345 
503	 0.610701333261663 
504	 0.611571840281541 
505	 0.612556018119278 
506	 0.613857658822267 
507	 0.614873624117425 
508	 0.615687868062258 
509	 0.616587219536456 
510	 0.617855549102187 
511	 0.61902839525427 
512	 0.619886660574527 
513	 0.620589262232745 
514	 0.621742803561793 
515	 0.6226253741755 
516	 0.623406461300447 
517	 0.624400651437872 
518	 0.625649406310339 
519	 0.626416696754163 
520	 0.626990250358696 
521	 0.628272976025056 
522	 0.629364588189016 
523	 0.630265861782252 
524	 0.631114714399262 
525	 0.632098176013802 
526	 0.632627869025599 
527	 0.633124503465901 
528	 0.634199714321977 
529	 0.635361962646195 
530	 0.636167369431376 
531	 0.636737852153316 
532	 0.6377592726927 
533	 0.638484104521953 
534	 0.639125870327361 
535	 0.639975653939631 
536	 0.640904420474237 
537	 0.64210702203996 
538	 0.643210012804439 
539	 0.643648818396255 
540	 0.64419767093284 
541	 0.644730887659677 
542	 0.645238236760261 
543	 0.64607630843262 
544	 0.646946938017138 
545	 0.647807808670648 
546	 0.648648983397226 
547	 0.649255557123285 
548	 0.649759560474461 
549	 0.650165620184217 
550	 0.650393296813021 
551	 0.651319156555892 
552	 0.652372921567353 
553	 0.653072618727461 
554	 0.653860628493486 
555	 0.654631538029971 
556	 0.65538273951937 
557	 0.656099446257512 
558	 0.656288100441473 
559	 0.656965184762256 
560	 0.658256493084998 
561	 0.658862290063252 
562	 0.659560833959001 
563	 0.660333300087824 
564	 0.661099908683169 
565	 0.662371599258107 
566	 0.663665263946113 
567	 0.664473175494959 
568	 0.66438722715119 
569	 0.664158865749699 
570	 0.664045786662052 
571	 0.664224155722387 
572	 0.664902846779852 
573	 0.666007880019258 
574	 0.667269602448345 
575	 0.668362885263526 
576	 0.669247945748616 
577	 0.669685918221632 
578	 0.669836279472525 
579	 0.670306240082759 
580	 0.670645195533915 
581	 0.670858610425803 
582	 0.671026628918492 
583	 0.671117105991912 
584	 0.671172207604705 
585	 0.671482086710943 
586	 0.672354512066083 
587	 0.67286057574283 
588	 0.673499884273492 
589	 0.674401166722531 
590	 0.674784325373336 
591	 0.675230179926108 
592	 0.675786581360853 
593	 0.676373897968421 
594	 0.677086325878876 
595	 0.677874761322735 
596	 0.678639329241616 
597	 0.67925554064141 
598	 0.680042312958811 
599	 0.680486737902642 
600	 0.680484312980303 
601	 0.681304078910345 
602	 0.681969300828159 
603	 0.682302928281508 
604	 0.68249443852037 
605	 0.682642715475716 
606	 0.68319005000819 
607	 0.683981977480834 
608	 0.684115778129728 
609	 0.684519007585782 
610	 0.684937704449973 
611	 0.685121265649324 
612	 0.685853675804547 
613	 0.686548536400933 
614	 0.68698430082676 
615	 0.68722664856192 
616	 0.687522861721132 
617	 0.688010739609405 
618	 0.688649727820377 
619	 0.689151094698885 
620	 0.68925475024319 
621	 0.689538538650865 
622	 0.690490841338507 
623	 0.690700564306108 
624	 0.690969984415937 
625	 0.691438856816341 
626	 0.691580275046291 
627	 0.692015804618731 
628	 0.692583716071134 
629	 0.693039961816141 
630	 0.693258147722389 
631	 0.693924378374997 
632	 0.694581723083933 
633	 0.694493373742312 
634	 0.694930093011278 
635	 0.695327521046505 
636	 0.69550501468786 
637	 0.695943113425351 
638	 0.696651537342617 
639	 0.697115795903464 
640	 0.697074490004466 
641	 0.697502174631717 
642	 0.698101513159408 
643	 0.69854439552013 
644	 0.698587228201301 
645	 0.698954032290598 
646	 0.699468322403394 
647	 0.699965952503734 
648	 0.700525014262774 
649	 0.700514597293515 
650	 0.70058757279891 
651	 0.701369004746538 
652	 0.701557146638215 
653	 0.701875540271365 
654	 0.702328008818028 
655	 0.702381218000715 
656	 0.703233988699209 
657	 0.70393908103047 
658	 0.703891674962402 
659	 0.703867173331356 
660	 0.70434573933388 
661	 0.704943980377411 
662	 0.705097858696467 
663	 0.705453414308798 
664	 0.705512414455244 
665	 0.705569544358912 
666	 0.706682163574344 
667	 0.707217258157534 
668	 0.707352176984667 
669	 0.707500645629343 
670	 0.707647271839399 
671	 0.708023901650524 
672	 0.708378796211312 
673	 0.708390752621258 
674	 0.708948339754909 
675	 0.709302628549902 
676	 0.709377206166504 
677	 0.710044095180865 
678	 0.710214430447451 
679	 0.710476342113746 
680	 0.711206953272526 
681	 0.710802567314746 
682	 0.711365556766449 
683	 0.712196641172451 
684	 0.711474141020539 
685	 0.711855166313343 
686	 0.712676154114359 
687	 0.71325595753872 
688	 0.713409494272771 
689	 0.713029909824498 
690	 0.713066659747723 
691	 0.714080750167951 
692	 0.714398046592459 
693	 0.714434544557142 
694	 0.714524119150418 
695	 0.714880169161486 
696	 0.715122477892097 
697	 0.715385719056389 
698	 0.71571222165755 
699	 0.715906079716899 
700	 0.715966772643376 
701	 0.716138114298433 
702	 0.716595083253744 
703	 0.716964718250051 
704	 0.717556893174169 
705	 0.718001105753459 
706	 0.717637635635278 
707	 0.717953149790332 
708	 0.718357207832496 
709	 0.718387759753554 
710	 0.718227930874568 
711	 0.718928788386789 
712	 0.719589721878749 
713	 0.719295454417254 
714	 0.719617826890706 
715	 0.719875047504244 
716	 0.719994647137104 
717	 0.720346747885926 
718	 0.720779171271554 
719	 0.720942352241138 
720	 0.720807467884187 
721	 0.720900091959125 
722	 0.72138092733583 
723	 0.721835957101248 
724	 0.721877803246354 
725	 0.722009453158876 
726	 0.722263694838572 
727	 0.722386099264437 
728	 0.722088073372368 
729	 0.722929498773681 
730	 0.723504804853036 
731	 0.723225393422364 
732	 0.723480258457838 
733	 0.723497289110407 
734	 0.723610068418881 
735	 0.72422566080361 
736	 0.725019290003625 
737	 0.724651573595966 
738	 0.723838484402592 
739	 0.724404224096912 
740	 0.724798090821576 
741	 0.724693000406145 
742	 0.724550383160766 
743	 0.725777757239682 
744	 0.725841237375546 
745	 0.7255340756232 
746	 0.725981662962493 
747	 0.726160096912003 
748	 0.726510335793633 
749	 0.72696785502334 
750	 0.727199480494077 
751	 0.727280841918045 
752	 0.727083116929286 
753	 0.726896681650219 
754	 0.727528125283678 
755	 0.727540685193646 
756	 0.727229392273934 
757	 0.727235418651509 
758	 0.727978110456612 
759	 0.728624368091029 
760	 0.728621062829917 
761	 0.727942078633164 
762	 0.728716029771691 
763	 0.729229626897502 
764	 0.729068672708449 
765	 0.729467907665143 
766	 0.729631278085777 
767	 0.72972856786552 
768	 0.729969913923266 
769	 0.730262654113787 
770	 0.730461621780725 
771	 0.730426881206229 
772	 0.730189814330175 
773	 0.730460721869351 
774	 0.731084212581769 
775	 0.731563823750343 
776	 0.731289626756098 
777	 0.731229091151664 
778	 0.731181956871723 
779	 0.731160849663903 
780	 0.731847731369886 
781	 0.732037058453734 
782	 0.731983422773521 
783	 0.732216327136992 
784	 0.732632555114752 
785	 0.732983288550085 
786	 0.733090088255587 
787	 0.732985418687933 
788	 0.733873480297536 
789	 0.734071589173824 
790	 0.733318159050145 
791	 0.733291071495693 
792	 0.733350731863221 
793	 0.733661328728102 
794	 0.73420648730452 
795	 0.734189318021927 
796	 0.734215308199772 
797	 0.734350857472635 
798	 0.73447794432408 
799	 0.734607136094532 
800	 0.734601782311563 
801	 0.73453175977174 
802	 0.734661210873256 
803	 0.735569373636792 
804	 0.735902367376818 
805	 0.735284876028567 
806	 0.73515160903047 
807	 0.735409782202973 
808	 0.735735909581344 
809	 0.735838426439873 
810	 0.735789974582912 
811	 0.735835649334593 
812	 0.73602893221177 
813	 0.736313759683052 
814	 0.736652602296904 
815	 0.73688469395606 
816	 0.736836146035881 
817	 0.736446887360745 
818	 0.737025778216104 
819	 0.73762758627135 
820	 0.737565886544029 
821	 0.737168598387586 
822	 0.737246178910535 
823	 0.737386147945799 
824	 0.737195355030654 
825	 0.737489644853697 
826	 0.737731499790832 
827	 0.737901992661488 
828	 0.738147539384166 
829	 0.7380713870139 
830	 0.738132205908729 
831	 0.738370667278283 
832	 0.738443075744192 
833	 0.738493956111999 
834	 0.7388130667162 
835	 0.739236136296184 
836	 0.738905503833883 
837	 0.738777424207232 
838	 0.738866747631423 
839	 0.738995640699665 
840	 0.739163739925714 
841	 0.739386551078142 
842	 0.739333161311274 
843	 0.73889534017413 
844	 0.739711092131627 
845	 0.740162580909783 
846	 0.740112968436299 
847	 0.740446466391256 
848	 0.73974600932194 
849	 0.739436220914963 
850	 0.73984245304886 
851	 0.73959662201558 
852	 0.740039790538684 
853	 0.740473793991446 
854	 0.740365447472182 
855	 0.740431085666349 
856	 0.739948333192993 
857	 0.739578628385195 
858	 0.74007044472093 
859	 0.740898226783341 
860	 0.741745926469063 
861	 0.742131324925929 
862	 0.741719744473464 
863	 0.741254554111343 
864	 0.741051103600939 
865	 0.740954087510859 
866	 0.740552370375759 
867	 0.740940125179555 
868	 0.741575966380901 
869	 0.74183337735493 
870	 0.741358340022158 
871	 0.74099705992661 
872	 0.741113666467658 
873	 0.74157294024432 
874	 0.741421088312988 
875	 0.741894139222724 
876	 0.742296455941837 
877	 0.741769979224824 
878	 0.741004489147561 
879	 0.741236282671851 
880	 0.742263332879369 
881	 0.74299014748083 
882	 0.742092043754156 
883	 0.741223231951468 
884	 0.741167589887646 
885	 0.741765548471019 
886	 0.742550438154815 
887	 0.742564946511677 
888	 0.741788630805784 
889	 0.741297448916396 
890	 0.741423077031516 
891	 0.741864258241723 
892	 0.742237063815158 
893	 0.742303593739089 
894	 0.741780524544585 
895	 0.741124040883401 
896	 0.740881249180533 
897	 0.741346330272645 
898	 0.741573493427089 
899	 0.741653825112911 
900	 0.741773786566797 
901	 0.740842666845846 
902	 0.74110000486543 
903	 0.741841364910816 
904	 0.741310107711805 
905	 0.740877205928098 
906	 0.740829237165428 
907	 0.741076916810998 
908	 0.741300508673317 
909	 0.741588038820145 
910	 0.741342995075875 
911	 0.740747205787526 
912	 0.740743798863257 
913	 0.741189865264729 
914	 0.741146229092693 
915	 0.740623802805294 
916	 0.740997841281798 
917	 0.741294037695436 
918	 0.741252022913643 
919	 0.740954802565144 
920	 0.740829463212679 
921	 0.740439513311633 
922	 0.740377299747102 
923	 0.740912856688475 
924	 0.740840013064505 
925	 0.741205737452333 
926	 0.741809113970334 
927	 0.742071999642097 
928	 0.741520416495578 
929	 0.741783588011443 
930	 0.742198862310008 
931	 0.741654146768469 
932	 0.74161022187434 
933	 0.742268311668717 
934	 0.742879128367614 
935	 0.742520706429675 
936	 0.742205453348281 
937	 0.742178975643473 
938	 0.742570470147422 
939	 0.743351747315541 
940	 0.744107647900617 
941	 0.744657075648773 
942	 0.744880324864911 
943	 0.744735109996296 
944	 0.744380526334797 
945	 0.743959523968281 
946	 0.743884329983396 
947	 0.744697774481052 
948	 0.745564096022592 
949	 0.745579470815868 
950	 0.744907172012629 
951	 0.744924084865866 
952	 0.745126270603777 
953	 0.745165451353766 
954	 0.745106921908274 
955	 0.745539539406298 
956	 0.745460110316703 
957	 0.744690794612318 
958	 0.743810827927275 
959	 0.744236287146509 
960	 0.745219863246387 
961	 0.746049182729025 
962	 0.746221731366479 
963	 0.745681979934346 
964	 0.74520776455557 
965	 0.745084669273918 
966	 0.745183301559689 
967	 0.744854829267741 
968	 0.744491845186009 
969	 0.744199658700866 
970	 0.744088944853975 
971	 0.744493541722377 
972	 0.744681032181936 
973	 0.74428805512902 
974	 0.743525262468421 
975	 0.743694893895501 
976	 0.744097043399165 
977	 0.743956646993886 
978	 0.743128587139047 
979	 0.743431891659487 
980	 0.742765307849888 
981	 0.742224138681931 
982	 0.742938687973126 
983	 0.742628781956126 
984	 0.741763361016957 
985	 0.741824873425934 
986	 0.743408226220575 
987	 0.743088447866931 
988	 0.742654086604014 
989	 0.742586257689905 
990	 0.742814811011906 
991	 0.743134516493479 
992	 0.74292866194053 
993	 0.742789802564332 
994	 0.743301994366546 
995	 0.743382654989858 
996	 0.743895266430402 
997	 0.744534848646863 
998	 0.744783135027779 
999	 0.744840375010989 
1000	 0.745493002973362 
1001	 0.741766623454673 
1002	 0.741925421534566 
1003	 0.742015639196064 
1004	 0.742130770798437 
1005	 0.742185018510846 
1006	 0.74228260653107 
1007	 0.742408162297376 
1008	 0.742529862794287 
1009	 0.742691176341853 
1010	 0.742790510062993 
1011	 0.742845352983244 
1012	 0.74291880700984 
1013	 0.742935706752202 
1014	 0.743006289287191 
1015	 0.743215260614551 
1016	 0.743238903806286 
1017	 0.743230157065552 
1018	 0.743245301383886 
1019	 0.743168022283092 
1020	 0.743265337135073 
1021	 0.743363487389745 
1022	 0.743572102278812 
1023	 0.743661557881872 
1024	 0.743756297266863 
1025	 0.743776226404354 
1026	 0.743658204058633 
1027	 0.743658489033092 
1028	 0.743639610361574 
1029	 0.743752413823329 
1030	 0.743840180163888 
1031	 0.743857922422831 
1032	 0.743948731810117 
1033	 0.744073469825089 
1034	 0.744249797253393 
1035	 0.744439171319784 
1036	 0.7444903366773 
1037	 0.744392914424089 
1038	 0.744379880148918 
1039	 0.744297984540342 
1040	 0.744342766367636 
1041	 0.744491089541395 
1042	 0.744611821331504 
1043	 0.744788666324213 
1044	 0.744881146041321 
1045	 0.744987988792966 
1046	 0.745054838851405 
1047	 0.745035717169075 
1048	 0.745050396538969 
1049	 0.744972058098837 
1050	 0.744921215472416 
1051	 0.744922485960331 
1052	 0.744919952503164 
1053	 0.744964466258016 
1054	 0.745053654181355 
1055	 0.745177349692053 
1056	 0.745337563769401 
1057	 0.745469102240786 
1058	 0.745620323136026 
1059	 0.745836030806243 
1060	 0.74593860935817 
1061	 0.746100391503741 
1062	 0.746235122477906 
1063	 0.74627432914559 
1064	 0.746303557274623 
1065	 0.746335781544456 
1066	 0.746458944030455 
1067	 0.746601517965987 
1068	 0.746710257855147 
1069	 0.746846327713174 
1070	 0.746941210113923 
1071	 0.746976506937888 
1072	 0.747004325056785 
1073	 0.747127734267557 
1074	 0.747253032469517 
1075	 0.747396054555665 
1076	 0.747608500761516 
1077	 0.747849957649276 
1078	 0.748001363911603 
1079	 0.748122407722421 
1080	 0.748345767624313 
1081	 0.748465560343847 
1082	 0.748539681526995 
1083	 0.74868020920757 
1084	 0.74881554506418 
1085	 0.749010184542837 
1086	 0.749153513098667 
1087	 0.749329286438807 
1088	 0.749507328475101 
1089	 0.74963303783404 
1090	 0.74962771253581 
1091	 0.749707069536332 
1092	 0.749831870688415 
1093	 0.749910687288483 
1094	 0.750037358132563 
1095	 0.750159488410466 
1096	 0.750243984058836 
1097	 0.750299317789318 
1098	 0.750349939322634 
1099	 0.750308760908971 
1100	 0.750174514543237 
1101	 0.750096939301995 
1102	 0.750053509929065 
1103	 0.750048578450101 
1104	 0.750101436245025 
1105	 0.750245042780005 
1106	 0.750328196662052 
1107	 0.750337660810831 
1108	 0.750349526425187 
1109	 0.75040031211157 
1110	 0.750436699103792 
1111	 0.750440935939724 
1112	 0.750457778588788 
1113	 0.750407193520235 
1114	 0.750371590501242 
1115	 0.750389362864493 
1116	 0.750365914197462 
1117	 0.750338387418451 
1118	 0.750241922053984 
1119	 0.750057495694863 
1120	 0.749881295733406 
1121	 0.749675575984961 
1122	 0.749456984562032 
1123	 0.749242346028255 
1124	 0.749101640082021 
1125	 0.748931208984001 
1126	 0.748757769902932 
1127	 0.748578390301617 
1128	 0.748283387157468 
1129	 0.747945417197671 
1130	 0.747583680000945 
1131	 0.747230598160205 
1132	 0.746941673692752 
1133	 0.746613850263838 
1134	 0.746218269265219 
1135	 0.745796580635978 
1136	 0.745294102873167 
1137	 0.744808792488827 
1138	 0.744308968008677 
1139	 0.743805615929633 
1140	 0.743294803217245 
1141	 0.742772739405065 
1142	 0.742230466816101 
1143	 0.741737469217038 
1144	 0.741219355586684 
1145	 0.740640993466637 
1146	 0.74005460450058 
1147	 0.739448297703973 
1148	 0.738784281954337 
1149	 0.738099893521495 
1150	 0.737429062267309 
1151	 0.73673747958279 
1152	 0.73604062385903 
1153	 0.735330389336285 
1154	 0.734647170028106 
1155	 0.733982346886905 
1156	 0.733289702913925 
1157	 0.732654168541204 
1158	 0.731934146146646 
1159	 0.731164931801335 
1160	 0.730336496554267 
1161	 0.729452048742431 
1162	 0.728552415015541 
1163	 0.727742501151432 
1164	 0.726868730064494 
1165	 0.725983299433587 
1166	 0.725159947385598 
1167	 0.724276429903269 
1168	 0.72344862054655 
1169	 0.722681705572602 
1170	 0.722019031406874 
1171	 0.721282228400408 
1172	 0.720566664277318 
1173	 0.719809896797504 
1174	 0.719022606849418 
1175	 0.718246102423737 
1176	 0.717455659227008 
1177	 0.716674433898572 
1178	 0.715948423586267 
1179	 0.715082603189652 
1180	 0.714205170747329 
1181	 0.713356255775082 
1182	 0.712421391376537 
1183	 0.711562283739459 
1184	 0.710775507845258 
1185	 0.709977205422038 
1186	 0.709198344967092 
1187	 0.708431410395254 
1188	 0.707708656480973 
1189	 0.706983520389835 
1190	 0.706335100938394 
1191	 0.705781458414592 
1192	 0.70520180853069 
1193	 0.70462143940754 
1194	 0.704099293741143 
1195	 0.703566480321183 
1196	 0.70311950399338 
1197	 0.702772714277712 
1198	 0.702419307159244 
1199	 0.702070782610282 
1200	 0.701769952149812 
1201	 0.701507990554283 
1202	 0.701313579281041 
1203	 0.701156958117261 
1204	 0.701035551205485 
1205	 0.700967806149697 
1206	 0.700890047661359 
1207	 0.700950895474256 
1208	 0.701084522009361 
1209	 0.701328354937008 
1210	 0.701614522666381 
1211	 0.702093975891726 
1212	 0.702705905172521 
1213	 0.703469772735859 
1214	 0.704423891009723 
1215	 0.705467150047956 
1216	 0.706678361907489 
1217	 0.707905033632492 
1218	 0.709237367699547 
1219	 0.710609445635942 
1220	 0.711984798027701 
1221	 0.713525462944259 
1222	 0.714987391394953 
1223	 0.71642348796118 
1224	 0.717803441296662 
1225	 0.719126689928019 
1226	 0.720385722686737 
1227	 0.721598189907128 
1228	 0.722783040903921 
1229	 0.723921840814671 
1230	 0.725011829402488 
1231	 0.726099844273102 
1232	 0.727084158491141 
1233	 0.727977039906929 
1234	 0.728811930498603 
1235	 0.729559666887582 
1236	 0.730284479696157 
1237	 0.730950855652807 
1238	 0.731586111039911 
1239	 0.732154447991355 
1240	 0.732747805119058 
1241	 0.733331418354204 
1242	 0.733818378051507 
1243	 0.734315381431839 
1244	 0.734813790880771 
1245	 0.73524550726931 
1246	 0.735623598664936 
1247	 0.73600532040907 
1248	 0.736357884537676 
1249	 0.736682794635372 
1250	 0.736979085717294 
1251	 0.737280753664892 
1252	 0.737554568231998 
1253	 0.737827909395731 
1254	 0.738128707912464 
1255	 0.738372816670248 
1256	 0.738570745417255 
1257	 0.738776881479807 
1258	 0.738989878769647 
1259	 0.739142137869943 
1260	 0.73922773409898 
1261	 0.739351203640529 
1262	 0.739466432838264 
1263	 0.739532915097888 
1264	 0.739672153420929 
1265	 0.73986907670624 
1266	 0.740048092332255 
1267	 0.74026073687562 
1268	 0.740408111805982 
1269	 0.740561989712698 
1270	 0.740649825427745 
1271	 0.740652320218935 
1272	 0.740691780269595 
1273	 0.740727285184724 
1274	 0.740738922514794 
1275	 0.740746373817949 
1276	 0.740737414743686 
1277	 0.740665327083287 
1278	 0.740648164895144 
1279	 0.740648997073507 
1280	 0.740661319492829 
1281	 0.740740731964727 
1282	 0.740762905733233 
1283	 0.740699946971084 
1284	 0.74072507388541 
1285	 0.740778652982451 
1286	 0.740820812582767 
1287	 0.740932100707951 
1288	 0.741153805047554 
1289	 0.741285041571148 
1290	 0.741382086975835 
1291	 0.741530386919785 
1292	 0.741693718940544 
1293	 0.741837763072363 
1294	 0.74201634511615 
1295	 0.742154349068826 
1296	 0.742253267143779 
1297	 0.74235594542809 
1298	 0.742446859176241 
1299	 0.742547047152691 
1300	 0.742652056608361 
1301	 0.742733147347932 
1302	 0.742814560826998 
1303	 0.742882932466943 
1304	 0.74291704492342 
1305	 0.742959957854038 
1306	 0.743003261936682 
1307	 0.743048112773957 
1308	 0.743080460843657 
1309	 0.743136225693576 
1310	 0.74316810814946 
1311	 0.743192068757493 
1312	 0.743233453727714 
1313	 0.743270393060062 
1314	 0.743312693214706 
1315	 0.743394401313547 
1316	 0.743407999486613 
1317	 0.743393307596169 
1318	 0.743366373644363 
1319	 0.743317253040916 
1320	 0.743237015945098 
1321	 0.743143499570377 
1322	 0.743018884774291 
1323	 0.742833804573858 
1324	 0.742675571690755 
1325	 0.742522801985959 
1326	 0.742350112491073 
1327	 0.742189875118621 
1328	 0.741991809957279 
1329	 0.741761520674377 
1330	 0.74152120655457 
1331	 0.741283420495673 
1332	 0.74099789873143 
1333	 0.740712375700127 
1334	 0.740341059278859 
1335	 0.739977343275674 
1336	 0.739570763514946 
1337	 0.7391629580904 
1338	 0.738764661219887 
1339	 0.738296491121897 
1340	 0.737764493750126 
1341	 0.737276990152061 
1342	 0.736764729368202 
1343	 0.736267006448331 
1344	 0.735829496919145 
1345	 0.735300641653276 
1346	 0.734723550674758 
1347	 0.7341374784176 
1348	 0.733561077132233 
1349	 0.732874617229236 
1350	 0.732118302250868 
1351	 0.731351942307041 
1352	 0.730479544486783 
1353	 0.729642484269911 
1354	 0.728824740689265 
1355	 0.727993910158596 
1356	 0.727129573774804 
1357	 0.726289296544317 
1358	 0.725441245996351 
1359	 0.72462179524115 
1360	 0.723864967733073 
1361	 0.72305302969761 
1362	 0.722195872197321 
1363	 0.721407427502033 
1364	 0.720577297226944 
1365	 0.719725514500251 
1366	 0.718844256497512 
1367	 0.717965344508645 
1368	 0.717060504029219 
1369	 0.716133846085614 
1370	 0.715141064491293 
1371	 0.714139367573253 
1372	 0.713081328395812 
1373	 0.71192675248979 
1374	 0.710798428901545 
1375	 0.709635525537508 
1376	 0.708497220695669 
1377	 0.707387162312521 
1378	 0.706189296682963 
1379	 0.704956568115252 
1380	 0.703725088523696 
1381	 0.702450026058069 
1382	 0.701137850081413 
1383	 0.699744923022179 
1384	 0.698474937126191 
1385	 0.697135989960281 
1386	 0.695967024107696 
1387	 0.694973179752866 
1388	 0.694025991196177 
1389	 0.693152944380532 
1390	 0.692351999431588 
1391	 0.691660527784894 
1392	 0.690984570377713 
1393	 0.69035899560592 
1394	 0.689725057161794 
1395	 0.689032795000792 
1396	 0.688337092250606 
1397	 0.687548102280582 
1398	 0.686753816465492 
1399	 0.685764890242955 
1400	 0.684691152949866 
1401	 0.683449114163757 
1402	 0.682045176426934 
1403	 0.680534593168266 
1404	 0.678910618438594 
1405	 0.677156355291857 
1406	 0.675199574679502 
1407	 0.673289938477889 
1408	 0.671220146503396 
1409	 0.669279722744107 
1410	 0.667346022965078 
1411	 0.665507569666354 
1412	 0.663657851116223 
1413	 0.662021419256341 
1414	 0.660561223187566 
1415	 0.659109075824032 
1416	 0.65787720298014 
1417	 0.656512648874043 
1418	 0.655239338561144 
1419	 0.653716794401288 
1420	 0.652141394836877 
1421	 0.650341207503451 
1422	 0.648271568011722 
1423	 0.646120298646202 
1424	 0.643841686463186 
1425	 0.641345651871966 
1426	 0.638897305915483 
1427	 0.636398988584593 
1428	 0.63387904279232 
1429	 0.631570178139342 
1430	 0.62932376204322 
1431	 0.627129746090668 
1432	 0.62507406500314 
1433	 0.623145385757958 
1434	 0.621304098362357 
1435	 0.619548706433241 
1436	 0.617914960367752 
1437	 0.616417084473438 
1438	 0.614981584270293 
1439	 0.613653163934271 
1440	 0.612374439233951 
1441	 0.611116660839676 
1442	 0.610044327735002 
1443	 0.609011641481065 
1444	 0.608247102981535 
1445	 0.607555927350712 
1446	 0.607313945065253 
1447	 0.607215004000108 
1448	 0.60769896260618 
1449	 0.608661498421835 
1450	 0.609982825922135 
1451	 0.611822283661333 
1452	 0.613906475011854 
1453	 0.616535251352742 
1454	 0.619078122909885 
1455	 0.621960033448046 
1456	 0.624690475361318 
1457	 0.627479256584656 
1458	 0.63010766728218 
1459	 0.632724344250059 
1460	 0.635160226400483 
1461	 0.637450404683809 
1462	 0.639572828194565 
1463	 0.64156349825998 
1464	 0.643383026621125 
1465	 0.644981653147366 
1466	 0.646522368287441 
1467	 0.647832680765341 
1468	 0.648991893104765 
1469	 0.650094201849311 
1470	 0.651070811223714 
1471	 0.652009391035571 
1472	 0.65288232465997 
1473	 0.653721108165882 
1474	 0.654471095988948 
1475	 0.655229099587527 
1476	 0.655982516756922 
1477	 0.656672798542338 
1478	 0.657328644824593 
1479	 0.657905531929384 
1480	 0.658429331912744 
1481	 0.658892718306482 
1482	 0.659250450519663 
1483	 0.659660486178352 
1484	 0.66004450166407 
1485	 0.660426535690735 
1486	 0.660804928477266 
1487	 0.661195801966452 
1488	 0.661538607325869 
1489	 0.661970868531305 
1490	 0.662502697731615 
1491	 0.662952354368858 
1492	 0.663419412128158 
1493	 0.663852145208102 
1494	 0.664229983748967 
1495	 0.664601967732932 
1496	 0.665018711514329 
1497	 0.665321138577435 
1498	 0.665487972113729 
1499	 0.665750372316731 
1500	 0.665982644206154 
1501	 0.666244117637732 
1502	 0.666583618864187 
1503	 0.66689315461541 
1504	 0.667207987406632 
1505	 0.667476998701543 
1506	 0.667740980001939 
1507	 0.667975775036236 
1508	 0.66814086533381 
1509	 0.668324708026769 
1510	 0.668523178036793 
1511	 0.668691226560862 
1512	 0.668830839785406 
1513	 0.668977226697995 
1514	 0.669097792910198 
1515	 0.669236315035045 
1516	 0.669328208042521 
1517	 0.669519977128701 
1518	 0.669789059044389 
1519	 0.670054968477215 
1520	 0.670399372060689 
1521	 0.670750302218323 
1522	 0.671057634164832 
1523	 0.671309745434388 
1524	 0.671545691803944 
1525	 0.671782197586158 
1526	 0.671905241976191 
1527	 0.671941810492122 
1528	 0.672020544696014 
1529	 0.672019739617486 
1530	 0.672109414243625 
1531	 0.672259145410313 
1532	 0.672382185168823 
1533	 0.67251099246656 
1534	 0.67264249907264 
1535	 0.672777297031466 
1536	 0.672916785009445 
1537	 0.673077295395298 
1538	 0.673193639008601 
1539	 0.673295237643123 
1540	 0.673394650693043 
1541	 0.673447697804696 
1542	 0.673558272389668 
1543	 0.673707803597388 
1544	 0.673826170463492 
1545	 0.673987592135574 
1546	 0.674049398279892 
1547	 0.674072938492509 
1548	 0.674039808727328 
1549	 0.673926145277687 
1550	 0.673819478652323 
1551	 0.673624499803366 
1552	 0.673547618635065 
1553	 0.673491219920914 
1554	 0.673484223003731 
1555	 0.673589440306719 
1556	 0.673621951501077 
1557	 0.67366724657359 
1558	 0.673661550786184 
1559	 0.673592488983956 
1560	 0.673575042899018 
1561	 0.673519563642576 
1562	 0.673544073936096 
1563	 0.67363351415131 
1564	 0.673723084605151 
1565	 0.673863647713116 
1566	 0.673978192112477 
1567	 0.674104594011231 
1568	 0.674209739221479 
1569	 0.674304840535368 
1570	 0.674388777987654 
1571	 0.674491130451924 
1572	 0.674518014609344 
1573	 0.674495204299219 
1574	 0.674468155395278 
1575	 0.674345804644968 
1576	 0.674310387137798 
1577	 0.67427389370683 
1578	 0.674324027940352 
1579	 0.674447637404575 
1580	 0.674591707568913 
1581	 0.67488817791922 
1582	 0.675025392011529 
1583	 0.675109718947845 
1584	 0.675170155740429 
1585	 0.675100206595186 
1586	 0.675099471928781 
1587	 0.675111408305348 
1588	 0.675151224280008 
1589	 0.67521018695902 
1590	 0.675284284461848 
1591	 0.675406205589026 
1592	 0.675499997844634 
1593	 0.675600093238287 
1594	 0.675682238187147 
1595	 0.675705777942724 
1596	 0.675801626232778 
1597	 0.675949893136702 
1598	 0.676060057240136 
1599	 0.676253375641059 
1600	 0.676333268911338 
1601	 0.6763231560513 
1602	 0.676296761647898 
1603	 0.676177464828236 
1604	 0.676103689853483 
1605	 0.675948256294259 
1606	 0.675945476943069 
1607	 0.676062827477182 
1608	 0.676160594936674 
1609	 0.676412724918826 
1610	 0.676537464632098 
1611	 0.676589727065873 
1612	 0.676616374625873 
1613	 0.676602303922582 
1614	 0.676539467734076 
1615	 0.676437292034335 
1616	 0.676293790823307 
1617	 0.67606650387885 
1618	 0.675854957610625 
1619	 0.675637991501672 
1620	 0.67538547361791 
1621	 0.675118565821996 
1622	 0.674833445806974 
1623	 0.674471967811897 
1624	 0.67416587162624 
1625	 0.673870953242326 
1626	 0.673595109369581 
1627	 0.673406568663547 
1628	 0.673132481884133 
1629	 0.672820646474298 
1630	 0.672501147438845 
1631	 0.672083879186425 
1632	 0.671746356733021 
1633	 0.671446018929835 
1634	 0.671162048131532 
1635	 0.670883029203618 
1636	 0.670681754993342 
1637	 0.670557228902128 
1638	 0.670419663597295 
1639	 0.670375652947247 
1640	 0.670247366040518 
1641	 0.670086556244518 
1642	 0.669872829320988 
1643	 0.669595890289064 
1644	 0.66932612753225 
1645	 0.669026288476573 
1646	 0.668706645496398 
1647	 0.668381437887567 
1648	 0.66802319811598 
1649	 0.667668211085145 
1650	 0.667216279488932 
1651	 0.666702093084851 
1652	 0.666160548696039 
1653	 0.665528388611424 
1654	 0.664893068477804 
1655	 0.664247702868849 
1656	 0.663567731766286 
1657	 0.662856872357706 
1658	 0.662104394594423 
1659	 0.661355455164372 
1660	 0.660514953724928 
1661	 0.659622156612003 
1662	 0.65863935375177 
1663	 0.657583315686868 
1664	 0.65642367521468 
1665	 0.655153826248949 
1666	 0.653832822490092 
1667	 0.652412753475241 
1668	 0.650970318325617 
1669	 0.649515761957177 
1670	 0.647939156533527 
1671	 0.646274644464587 
1672	 0.644538027429558 
1673	 0.642743819780276 
1674	 0.64080084568604 
1675	 0.63872230654437 
1676	 0.63665374451564 
1677	 0.634443598272933 
1678	 0.63228217837651 
1679	 0.630148417484029 
1680	 0.627957161332694 
1681	 0.625771439966539 
1682	 0.623434952737438 
1683	 0.621010425505958 
1684	 0.618601327604445 
1685	 0.616105840707171 
1686	 0.61359352798284 
1687	 0.611060487944185 
1688	 0.608499349911435 
1689	 0.605857336220847 
1690	 0.603244396302789 
1691	 0.600691816777152 
1692	 0.598092272179315 
1693	 0.595463263059461 
1694	 0.592801120540907 
1695	 0.590061814946018 
1696	 0.587373286967354 
1697	 0.584677418027104 
1698	 0.581978712198828 
1699	 0.579306566039059 
1700	 0.576720904304275 
1701	 0.574099385426262 
1702	 0.571643979247486 
1703	 0.569284993791642 
1704	 0.567009726448088 
1705	 0.56483535215786 
1706	 0.562652801451961 
1707	 0.560702100635639 
1708	 0.558764288909854 
1709	 0.55692586417929 
1710	 0.5552578363304 
1711	 0.5536269606189 
1712	 0.552142896307213 
1713	 0.550750040872286 
1714	 0.54941843033471 
1715	 0.548169719708018 
1716	 0.546969291375727 
1717	 0.54588651191002 
1718	 0.544902164079519 
1719	 0.543984682496683 
1720	 0.543133147539698 
1721	 0.542342912568598 
1722	 0.541655577345257 
1723	 0.541114576489428 
1724	 0.540711113620208 
1725	 0.540453037296492 
1726	 0.540424959610834 
1727	 0.540669829689796 
1728	 0.541147230056155 
1729	 0.541916490891137 
1730	 0.542975106800497 
1731	 0.54414278955173 
1732	 0.545481926264117 
1733	 0.546916098111569 
1734	 0.548388764125314 
1735	 0.549807425437098 
1736	 0.551109979765282 
1737	 0.552375277155694 
1738	 0.553358793606137 
1739	 0.554148176860789 
1740	 0.554741963538062 
1741	 0.555205390531031 
1742	 0.555451712515481 
1743	 0.55568013768491 
1744	 0.555833080517092 
1745	 0.555822282339663 
1746	 0.555664775921852 
1747	 0.555439990524327 
1748	 0.555047756418885 
1749	 0.554719458098956 
1750	 0.55432100925052 
1751	 0.553991337197852 
1752	 0.553598960106863 
1753	 0.553413569098209 
1754	 0.553312006817846 
1755	 0.553409224291097 
1756	 0.553705007385588 
1757	 0.554089603753499 
1758	 0.554608663611778 
1759	 0.555214882005074 
1760	 0.555896912003019 
1761	 0.556676143300806 
1762	 0.557544686126959 
1763	 0.558646917202513 
1764	 0.559866404932946 
1765	 0.561300894272577 
1766	 0.563043730507179 
1767	 0.564736373248024 
1768	 0.566465801563634 
1769	 0.568225050354546 
1770	 0.569728697755676 
1771	 0.571183854952785 
1772	 0.572680935848855 
1773	 0.574026625041834 
1774	 0.57525478056016 
1775	 0.576336617199093 
1776	 0.57735067107052 
1777	 0.57833856678075 
1778	 0.579248314972325 
1779	 0.580204677292453 
1780	 0.581079788617322 
1781	 0.581848808838557 
1782	 0.582597435194191 
1783	 0.583228609348494 
1784	 0.583787573374559 
1785	 0.584180030445606 
1786	 0.584535422051469 
1787	 0.584788873688292 
1788	 0.585041557902311 
1789	 0.585273797205067 
1790	 0.585479089539755 
1791	 0.585676058018008 
1792	 0.585764132924582 
1793	 0.585756021885958 
1794	 0.585686801607708 
1795	 0.585667401205218 
1796	 0.585676725539745 
1797	 0.58566330457545 
1798	 0.585604548681948 
1799	 0.585542712279808 
1800	 0.585557508591345 
1801	 0.589338659459348 
1802	 0.58947701970643 
1803	 0.58964232457331 
1804	 0.589868394274056 
1805	 0.590126376781342 
1806	 0.590355146859177 
1807	 0.590597613773003 
1808	 0.590813684384383 
1809	 0.591043435161041 
1810	 0.591219458603096 
1811	 0.591361624187402 
1812	 0.591488199502623 
1813	 0.59158622211914 
1814	 0.591657347301262 
1815	 0.591696865625106 
1816	 0.591780358141841 
1817	 0.591863352657022 
1818	 0.591891418783655 
1819	 0.592034678533385 
1820	 0.592204062944726 
1821	 0.592450033961515 
1822	 0.592794788902445 
1823	 0.59317528018225 
1824	 0.593529284041248 
1825	 0.593891958616002 
1826	 0.594178666338646 
1827	 0.594398730373023 
1828	 0.594627005539347 
1829	 0.594812303073427 
1830	 0.595014488131463 
1831	 0.595211652358639 
1832	 0.59540847496986 
1833	 0.595574097537407 
1834	 0.595757319853909 
1835	 0.595897598894822 
1836	 0.596015440560834 
1837	 0.596213030923072 
1838	 0.596444827825654 
1839	 0.59668932799119 
1840	 0.596971254728551 
1841	 0.597300674056588 
1842	 0.597673458497397 
1843	 0.598011939395083 
1844	 0.598462046821507 
1845	 0.598887249575013 
1846	 0.599262028555143 
1847	 0.599597849425937 
1848	 0.599843349452958 
1849	 0.600037164691329 
1850	 0.600154158143947 
1851	 0.600126674485352 
1852	 0.600161207958743 
1853	 0.600297563487521 
1854	 0.600343662915367 
1855	 0.600560841657379 
1856	 0.600796106523064 
1857	 0.600964371666533 
1858	 0.601142865394184 
1859	 0.60122484623832 
1860	 0.601298470134371 
1861	 0.601248943159868 
1862	 0.601110899187395 
1863	 0.600856821484825 
1864	 0.600566690342822 
1865	 0.600249684439043 
1866	 0.599943528865461 
1867	 0.599651795323906 
1868	 0.599411011271726 
1869	 0.59910279684891 
1870	 0.598667123463379 
1871	 0.598154566633083 
1872	 0.597598149405478 
1873	 0.59694352960043 
1874	 0.596232955970372 
1875	 0.595470483979218 
1876	 0.594663116261189 
1877	 0.593851274185246 
1878	 0.59286928450571 
1879	 0.591899740832371 
1880	 0.590980721849857 
1881	 0.589961662761603 
1882	 0.588859124446823 
1883	 0.58776643192086 
1884	 0.586526182717852 
1885	 0.585032941844555 
1886	 0.583394280558853 
1887	 0.581620220684249 
1888	 0.579745814937615 
1889	 0.577930762839749 
1890	 0.576083163017303 
1891	 0.574215747569363 
1892	 0.572367468208709 
1893	 0.570459000450352 
1894	 0.568483917576049 
1895	 0.566559562929533 
1896	 0.564549015945218 
1897	 0.562472870380536 
1898	 0.560591939694216 
1899	 0.558640201603861 
1900	 0.556760533237244 
1901	 0.555062620200504 
1902	 0.553292399315354 
1903	 0.551644337699786 
1904	 0.55009952761594 
1905	 0.548628856685069 
1906	 0.547285707176437 
1907	 0.546139732727977 
1908	 0.545011845399136 
1909	 0.543975189146267 
1910	 0.542966933585493 
1911	 0.541855796371348 
1912	 0.540771902829415 
1913	 0.539709938458743 
1914	 0.538614930989251 
1915	 0.537572148162378 
1916	 0.536569971492507 
1917	 0.535570850438382 
1918	 0.534633978422369 
1919	 0.533798317447611 
1920	 0.533019202474944 
1921	 0.532422075007033 
1922	 0.531894208152436 
1923	 0.531381735722988 
1924	 0.530916170161808 
1925	 0.530394890913766 
1926	 0.52987853784648 
1927	 0.529324401676658 
1928	 0.528801913165486 
1929	 0.52827119797785 
1930	 0.527803331306907 
1931	 0.527336432535431 
1932	 0.526966967615584 
1933	 0.526670906777466 
1934	 0.526410747029597 
1935	 0.526219520727936 
1936	 0.526032279901897 
1937	 0.525898943704433 
1938	 0.525823654632586 
1939	 0.525753188212263 
1940	 0.525699508945857 
1941	 0.52570242982233 
1942	 0.525768366007427 
1943	 0.525871884556955 
1944	 0.526021456743597 
1945	 0.526271339475394 
1946	 0.526520717384483 
1947	 0.526767564438022 
1948	 0.527068280403651 
1949	 0.527358810813422 
1950	 0.52763801980122 
1951	 0.527895909841555 
1952	 0.528183678180218 
1953	 0.528486850413101 
1954	 0.528777400471592 
1955	 0.529063844903428 
1956	 0.529366191488693 
1957	 0.529645110377534 
1958	 0.529891722984512 
1959	 0.530199387702961 
1960	 0.530515830842419 
1961	 0.530751800412127 
1962	 0.530940852742021 
1963	 0.53115168327597 
1964	 0.531301022221913 
1965	 0.531459220553087 
1966	 0.531625004075386 
1967	 0.531836101500096 
1968	 0.53196331557817 
1969	 0.532106400099845 
1970	 0.532315666203481 
1971	 0.53254231349001 
1972	 0.532721474889059 
1973	 0.532888739700884 
1974	 0.533029274042066 
1975	 0.533110187706043 
1976	 0.533183304860285 
1977	 0.533224526690731 
1978	 0.533296317292945 
1979	 0.533365332545052 
1980	 0.53343213601575 
1981	 0.533463202214485 
1982	 0.533561101349949 
1983	 0.533629472890274 
1984	 0.533627486055633 
1985	 0.53362566120173 
1986	 0.533588456607637 
1987	 0.533521583535602 
1988	 0.533393036191555 
1989	 0.533253531970243 
1990	 0.533083353545891 
1991	 0.532924559733439 
1992	 0.532728385997367 
1993	 0.532545218686751 
1994	 0.532375357342986 
1995	 0.532254428502842 
1996	 0.532212640532207 
1997	 0.532190833997937 
1998	 0.532121590574716 
1999	 0.532119113122457 
2000	 0.532017855312288 
2001	 0.531788293145479 
2002	 0.53162807576539 
2003	 0.531469750403714 
2004	 0.531319122485611 
2005	 0.53117154011417 
2006	 0.531065612072465 
2007	 0.530994014509657 
2008	 0.530921816291621 
2009	 0.530810876484458 
2010	 0.530686330275579 
2011	 0.530620132952665 
2012	 0.530447485551099 
2013	 0.530322627604769 
2014	 0.530258754624174 
2015	 0.530148321777058 
2016	 0.529995229164133 
2017	 0.52987191018341 
2018	 0.529771828174761 
2019	 0.529624724944607 
2020	 0.529480208832826 
2021	 0.529290916819535 
2022	 0.529053194182801 
2023	 0.528765886007527 
2024	 0.528433002965369 
2025	 0.528066827329436 
2026	 0.527768544845336 
2027	 0.527500494124077 
2028	 0.52721315175075 
2029	 0.526968885473332 
2030	 0.526697322782352 
2031	 0.526363700284255 
2032	 0.526088696396072 
2033	 0.525886247355641 
2034	 0.525608484765959 
2035	 0.525314783937109 
2036	 0.525002758487458 
2037	 0.524691756084395 
2038	 0.524351400718663 
2039	 0.524087555386628 
2040	 0.523898448792001 
2041	 0.523683863228237 
2042	 0.523470189662529 
2043	 0.523307422202678 
2044	 0.52316214069941 
2045	 0.523035473767295 
2046	 0.522961873744442 
2047	 0.522874524642378 
2048	 0.522814833865227 
2049	 0.522731483036282 
2050	 0.522664453548395 
2051	 0.522529736521795 
2052	 0.522419706431212 
2053	 0.522357049626999 
2054	 0.522298347630183 
2055	 0.522283288598681 
2056	 0.522244520672642 
2057	 0.522204660599813 
2058	 0.522148755707516 
2059	 0.52210457741173 
2060	 0.522032751964576 
2061	 0.521937287203572 
2062	 0.521838485142836 
2063	 0.521737564420392 
2064	 0.521592764357981 
2065	 0.521364663703934 
2066	 0.521219082214534 
2067	 0.521148646658304 
2068	 0.521062093406892 
2069	 0.520993432979261 
2070	 0.521003092126713 
2071	 0.520993554244169 
2072	 0.520956039830629 
2073	 0.520933930522972 
2074	 0.521009268010272 
2075	 0.520972750344125 
2076	 0.520855074319888 
2077	 0.5207432100487 
2078	 0.520637906426002 
2079	 0.520447933450034 
2080	 0.520166109301923 
2081	 0.51992361898043 
2082	 0.519658073725255 
2083	 0.5193349312454 
2084	 0.519044003658321 
2085	 0.51891308589753 
2086	 0.518752194478823 
2087	 0.518599180014878 
2088	 0.51850898247532 
2089	 0.518491935467611 
2090	 0.518444649471907 
2091	 0.518439412484001 
2092	 0.518401265450715 
2093	 0.518354254504605 
2094	 0.518298465312363 
2095	 0.518239385352487 
2096	 0.518164673845335 
2097	 0.518129458728757 
2098	 0.517995502822761 
2099	 0.517772313973822 
2100	 0.517518186515124 
2101	 0.517273139772359 
2102	 0.516950912916214 
2103	 0.516676465280428 
2104	 0.51643885730651 
2105	 0.516188722467926 
2106	 0.515929090670361 
2107	 0.515649555387327 
2108	 0.515394993627224 
2109	 0.515090572468984 
2110	 0.514780943396985 
2111	 0.514381858275607 
2112	 0.513874993653872 
2113	 0.513427073037091 
2114	 0.512877822813753 
2115	 0.512428379411253 
2116	 0.512042279130423 
2117	 0.511740479977574 
2118	 0.511422859534249 
2119	 0.511166645081848 
2120	 0.510855783288748 
2121	 0.510530970346323 
2122	 0.510218635001043 
2123	 0.509903001085961 
2124	 0.50955826143016 
2125	 0.509211935705747 
2126	 0.508871707743563 
2127	 0.508436483785842 
2128	 0.508142496461313 
2129	 0.507926960304562 
2130	 0.507732693508989 
2131	 0.507642062659065 
2132	 0.507530161411747 
2133	 0.507467320208149 
2134	 0.507343223015563 
2135	 0.50722459035052 
2136	 0.507049212826414 
2137	 0.506839064521484 
2138	 0.506538785463652 
2139	 0.506318148148615 
2140	 0.506073845816278 
2141	 0.505906152033702 
2142	 0.505826683193071 
2143	 0.505692137256638 
2144	 0.505559588773622 
2145	 0.505442405275257 
2146	 0.50531638904962 
2147	 0.505182787424601 
2148	 0.50505643000006 
2149	 0.504945081890408 
2150	 0.504793271943314 
2151	 0.504708042872792 
2152	 0.504640939760791 
2153	 0.504685660956969 
2154	 0.504689393796664 
2155	 0.504670337369798 
2156	 0.504622353835007 
2157	 0.504569557580807 
2158	 0.504418151609222 
2159	 0.504200585698983 
2160	 0.503999163600497 
2161	 0.503716499722724 
2162	 0.503487205513683 
2163	 0.503278649299835 
2164	 0.503078405658087 
2165	 0.502889129551796 
2166	 0.502693513168435 
2167	 0.502538477390862 
2168	 0.502333779656549 
2169	 0.502078898453721 
2170	 0.501839657139764 
2171	 0.501526321669142 
2172	 0.501319590840677 
2173	 0.5011814899814 
2174	 0.501064335110265 
2175	 0.500951257441947 
2176	 0.500836253914427 
2177	 0.500645144201306 
2178	 0.500354510864966 
2179	 0.500143900759623 
2180	 0.499908920674119 
2181	 0.49975923051808 
2182	 0.499651609577458 
2183	 0.499571647026326 
2184	 0.4995885026247 
2185	 0.499520498872392 
2186	 0.499477870146689 
2187	 0.499358859872532 
2188	 0.499187100353877 
2189	 0.498965927353354 
2190	 0.498640716934865 
2191	 0.498369944014731 
2192	 0.498107451862672 
2193	 0.497815067039534 
2194	 0.497483109697646 
2195	 0.497214978852433 
2196	 0.496950076310424 
2197	 0.496678727261028 
2198	 0.496452640671027 
2199	 0.496335988797613 
2200	 0.496155240071405 
2201	 0.495968094996673 
2202	 0.495743677072797 
2203	 0.495539321774317 
2204	 0.4952551033125 
2205	 0.494907597397138 
2206	 0.494537788290676 
2207	 0.494093601449614 
2208	 0.493693248469709 
2209	 0.49325885246155 
2210	 0.492892602925134 
2211	 0.492602998364195 
2212	 0.492259354485276 
2213	 0.491962846872664 
2214	 0.491559209276291 
2215	 0.491145116262368 
2216	 0.490597163316273 
2217	 0.489928805979056 
2218	 0.489232326613198 
2219	 0.488351136781258 
2220	 0.487563049459271 
2221	 0.486742864517524 
2222	 0.486028829660045 
2223	 0.48532805522881 
2224	 0.484699512606092 
2225	 0.484002901097877 
2226	 0.483148785495821 
2227	 0.482144208205025 
2228	 0.480972437409929 
2229	 0.479744572538887 
2230	 0.478361887779418 
2231	 0.476966303552073 
2232	 0.475518340460673 
2233	 0.474004005429564 
2234	 0.472475524341871 
2235	 0.470751873228163 
2236	 0.468892752882863 
2237	 0.466963917360823 
2238	 0.464820595517602 
2239	 0.462726931902858 
2240	 0.460618565742694 
2241	 0.458457103204706 
2242	 0.456355067014873 
2243	 0.454028209211542 
2244	 0.451569608857338 
2245	 0.449024981682508 
2246	 0.446235499743709 
2247	 0.443490669782908 
2248	 0.44074504892492 
2249	 0.437900006372529 
2250	 0.435036433599393 
2251	 0.432033201685001 
2252	 0.428883323136481 
2253	 0.425909362162418 
2254	 0.422803313201994 
2255	 0.419764794324577 
2256	 0.416984706410157 
2257	 0.414144891691467 
2258	 0.41145636194623 
2259	 0.408965573466388 
2260	 0.406431306913552 
2261	 0.403931762569578 
2262	 0.401472899066281 
2263	 0.399000837386445 
2264	 0.396690777626592 
2265	 0.394454351516148 
2266	 0.392284554489586 
2267	 0.390279624324204 
2268	 0.388292624654682 
2269	 0.386352864450888 
2270	 0.384461120364726 
2271	 0.382613511076686 
2272	 0.380842019316076 
2273	 0.379141559935789 
2274	 0.377439927541132 
2275	 0.375908936985239 
2276	 0.374238586541131 
2277	 0.372496121070845 
2278	 0.370749931477598 
2279	 0.368934609217783 
2280	 0.367098808527442 
2281	 0.365332595542448 
2282	 0.363396548826994 
2283	 0.361388291611083 
2284	 0.359281109768672 
2285	 0.356946122501188 
2286	 0.354587488222833 
2287	 0.352114568094851 
2288	 0.349501889729854 
2289	 0.34690260929422 
2290	 0.344185211358916 
2291	 0.341561663637228 
2292	 0.338850333781512 
2293	 0.336008320869738 
2294	 0.333371714356644 
2295	 0.33053598406867 
2296	 0.327738886431662 
2297	 0.325317188580194 
2298	 0.323032705309699 
2299	 0.321028428428491 
2300	 0.319400926968508 
2301	 0.31789089190485 
2302	 0.316502300366843 
2303	 0.315499206080034 
2304	 0.314792448435625 
2305	 0.31427528953068 
2306	 0.314148850299966 
2307	 0.314067637416747 
2308	 0.314084359138993 
2309	 0.31444240856315 
2310	 0.315033181285619 
2311	 0.315818413261533 
2312	 0.317036544844387 
2313	 0.318164376014034 
2314	 0.319484038965052 
2315	 0.320708619040707 
2316	 0.322050385647591 
2317	 0.323098963220066 
2318	 0.324018507278196 
2319	 0.324827688627924 
2320	 0.325386418906263 
2321	 0.325959601696362 
2322	 0.326521892251493 
2323	 0.326958364782828 
2324	 0.327298415589939 
2325	 0.327547859298754 
2326	 0.327678851764044 
2327	 0.327745136336982 
2328	 0.327624689497718 
2329	 0.327557528057899 
2330	 0.327524955386979 
2331	 0.327374266007281 
2332	 0.327060006455031 
2333	 0.326800940212512 
2334	 0.326388237608928 
2335	 0.325839412691322 
2336	 0.325306418233663 
2337	 0.32476201789493 
2338	 0.324381967528897 
2339	 0.323880852571244 
2340	 0.323262045318842 
2341	 0.322811360401124 
2342	 0.322155442395654 
2343	 0.321525038904751 
2344	 0.321293105391433 
2345	 0.321276118915872 
2346	 0.321443113961232 
2347	 0.321927530504835 
2348	 0.322680795676439 
2349	 0.323717371477638 
2350	 0.325137832359103 
2351	 0.32678342074005 
2352	 0.328575972803718 
2353	 0.330457274538312 
2354	 0.332048935427713 
2355	 0.333613036170912 
2356	 0.335008470114301 
2357	 0.336148984138824 
2358	 0.337511843483719 
2359	 0.338485777481922 
2360	 0.339311066817986 
2361	 0.34016442047272 
2362	 0.340535448654501 
2363	 0.340925069922159 
2364	 0.341231291895184 
2365	 0.341393530855065 
2366	 0.341753635160671 
2367	 0.341979221734943 
2368	 0.342137905251787 
2369	 0.342274816044924 
2370	 0.342248631302107 
2371	 0.342219550295285 
2372	 0.342187939060202 
2373	 0.342180788953247 
2374	 0.342297533228119 
2375	 0.342528339792221 
2376	 0.342840521383071 
2377	 0.343169616436857 
2378	 0.343249100839029 
2379	 0.343228471752571 
2380	 0.343342545415401 
2381	 0.343318568745775 
2382	 0.343387486360896 
2383	 0.343587321277806 
2384	 0.343747577577271 
2385	 0.34385389126125 
2386	 0.344125747850427 
2387	 0.344450878648587 
2388	 0.344793530011556 
2389	 0.345323212318224 
2390	 0.345715418159608 
2391	 0.346101691791469 
2392	 0.346363142910936 
2393	 0.346549788519839 
2394	 0.346605266313438 
2395	 0.346442695695767 
2396	 0.346497668389644 
2397	 0.34658768774863 
2398	 0.346461686643794 
2399	 0.346387760032807 
2400	 0.346276784686541 
2401	 0.345877364294499 
2402	 0.345946458993783 
2403	 0.345858143331064 
2404	 0.345801062674777 
2405	 0.345993399128951 
2406	 0.345822078486793 
2407	 0.345609946852487 
2408	 0.345527520949163 
2409	 0.345542082785406 
2410	 0.345934302774181 
2411	 0.346327031765167 
2412	 0.346411668465998 
2413	 0.346283417089454 
2414	 0.346140098875451 
2415	 0.346026776735008 
2416	 0.345973911669329 
2417	 0.346039088504223 
2418	 0.345933678997971 
2419	 0.345719034394866 
2420	 0.345769868522674 
2421	 0.345821990905019 
2422	 0.345923358816285 
2423	 0.346017987459396 
2424	 0.345677563746089 
2425	 0.345230975221977 
2426	 0.344799356937701 
2427	 0.344384843858377 
2428	 0.34443407705718 
2429	 0.344831325950372 
2430	 0.344997627784046 
2431	 0.344882008172627 
2432	 0.34445611916127 
2433	 0.344075137995883 
2434	 0.343916152009518 
2435	 0.343717770680063 
2436	 0.343685554330933 
2437	 0.34318243696895 
2438	 0.342730922368354 
2439	 0.342720410939096 
2440	 0.342496202790913 
2441	 0.342538428700766 
2442	 0.342363455187553 
2443	 0.342070037881523 
2444	 0.341913357551789 
2445	 0.341654541836992 
2446	 0.341566989466687 
2447	 0.341226291412599 
2448	 0.340800396874474 
2449	 0.340288027350515 
2450	 0.339417991272691 
2451	 0.33878371383993 
2452	 0.338673763279211 
2453	 0.338907273334519 
2454	 0.339093156071962 
2455	 0.339003983495132 
2456	 0.338716600236272 
2457	 0.338200200790815 
2458	 0.337656986057837 
2459	 0.337383246218009 
2460	 0.33688996914037 
2461	 0.336329344787572 
2462	 0.336228416980628 
2463	 0.33593972765337 
2464	 0.335783393863123 
2465	 0.335785846001533 
2466	 0.335447301693142 
2467	 0.335328930499646 
2468	 0.335060531504351 
2469	 0.334559564001946 
2470	 0.334156737970364 
2471	 0.333786542119565 
2472	 0.333825199614018 
2473	 0.334099958978594 
2474	 0.334544816224131 
2475	 0.334855050845568 
2476	 0.334606411241423 
2477	 0.3340321105471 
2478	 0.333902924326226 
2479	 0.334576571173396 
2480	 0.335037018034093 
2481	 0.33516974065694 
2482	 0.334857222021762 
2483	 0.334497080446905 
2484	 0.334350829437058 
2485	 0.334975848767673 
2486	 0.335096774147484 
2487	 0.334987596477607 
2488	 0.335892813049697 
2489	 0.337056014739089 
2490	 0.337715238201813 
2491	 0.338074178562774 
2492	 0.338247586328358 
2493	 0.338102748074679 
2494	 0.338132394007008 
2495	 0.338365693574818 
2496	 0.339051089230131 
2497	 0.34000040856825 
2498	 0.340062215756394 
2499	 0.340935832007689 
2500	 0.342193521712867 
