Wavelength	spectrum00012.asd
350	 3.82072017426725E-02 
351	 3.00126720391821E-02 
352	 2.62044805162618E-02 
353	 2.82259748424762E-02 
354	 3.05619921001345E-02 
355	 3.02932186788366E-02 
356	 2.93093226780124E-02 
357	 2.98254531467294E-02 
358	 3.19054983671039E-02 
359	 0.030365088964534 
360	 2.77527755082808E-02 
361	 2.92411140783044E-02 
362	 2.74238000796108E-02 
363	 2.59982212964236E-02 
364	 2.66951000721988E-02 
365	 2.74495080913218E-02 
366	 2.48747465712109E-02 
367	 0.022754211378843 
368	 2.43142941435798E-02 
369	 2.51709611703337E-02 
370	 2.56660526863917E-02 
371	 2.59743149986385E-02 
372	 2.60603835741977E-02 
373	 2.44942652880652E-02 
374	 2.41055356510208E-02 
375	 2.54469571506903E-02 
376	 0.025288707204502 
377	 2.39691911076607E-02 
378	 2.38565791555882E-02 
379	 2.58608542399259E-02 
380	 2.38208261141629E-02 
381	 2.34188458843743E-02 
382	 0.025316938862046 
383	 0.026695945578459 
384	 2.43018017237435E-02 
385	 2.28948495746814E-02 
386	 2.39526184239771E-02 
387	 2.25332510121278E-02 
388	 2.38811782579196E-02 
389	 2.55805055886516E-02 
390	 0.024842558305993 
391	 2.54490823376587E-02 
392	 2.55425681385777E-02 
393	 2.49171175180869E-02 
394	 2.45119061989379E-02 
395	 2.41098296179467E-02 
396	 2.51959007582422E-02 
397	 2.71325540093945E-02 
398	 0.025411929955434 
399	 2.51226996719332E-02 
400	 2.58932503446788E-02 
401	 2.60810079304786E-02 
402	 0.025965496364512 
403	 2.57117204631418E-02 
404	 2.56054548413489E-02 
405	 2.59865910686811E-02 
406	 0.027056788281816 
407	 0.027384721839726 
408	 2.66046010766733E-02 
409	 2.67156465712601E-02 
410	 0.027315482424894 
411	 2.75386363500719E-02 
412	 2.68369587864854E-02 
413	 0.027208485105513 
414	 2.71325655283213E-02 
415	 2.66663821669025E-02 
416	 2.73287493270083E-02 
417	 2.78583524859347E-02 
418	 0.028029106638665 
419	 2.79877883493736E-02 
420	 2.82946805802581E-02 
421	 2.83325624913768E-02 
422	 2.84016708714345E-02 
423	 0.028980076036807 
424	 2.91119075623939E-02 
425	 2.94238032215161E-02 
426	 0.029938371243515 
427	 2.98770674903517E-02 
428	 3.01145835509488E-02 
429	 3.02877908643233E-02 
430	 3.01372960810242E-02 
431	 3.05402398703537E-02 
432	 3.10740920793142E-02 
433	 3.16232169040238E-02 
434	 3.21893249622398E-02 
435	 3.21484378677027E-02 
436	 3.21205439130972E-02 
437	 3.24536419144575E-02 
438	 3.28709447933791E-02 
439	 3.33540747733517E-02 
440	 3.38299113980938E-02 
441	 3.42712877316952E-02 
442	 3.49299654023202E-02 
443	 3.51536350015988E-02 
444	 3.50366933668643E-02 
445	 3.52629680573348E-02 
446	 3.56770784849866E-02 
447	 3.62770454210083E-02 
448	 3.69198244079786E-02 
449	 3.70841655413988E-02 
450	 3.73915509221565E-02 
451	 3.79360800412326E-02 
452	 3.85658279390157E-02 
453	 3.90323590303797E-02 
454	 3.94375025622105E-02 
455	 3.97902947884365E-02 
456	 3.99756854981448E-02 
457	 4.03020243615661E-02 
458	 4.07701518481168E-02 
459	 4.12759991433732E-02 
460	 4.16254190635332E-02 
461	 4.21232621267687E-02 
462	 4.26943451244526E-02 
463	 0.043061596511725 
464	 4.31964173011127E-02 
465	 4.34146091086652E-02 
466	 4.38739044067269E-02 
467	 4.44399019804167E-02 
468	 4.49327587481258E-02 
469	 4.51818782390637E-02 
470	 4.52155716966648E-02 
471	 0.045794468213948 
472	 4.62620950457383E-02 
473	 4.64741796736223E-02 
474	 4.67431303608115E-02 
475	 4.72482967257431E-02 
476	 0.047776890262222 
477	 4.81388745583224E-02 
478	 0.048332064710708 
479	 4.84730581901814E-02 
480	 4.87621489885323E-02 
481	 4.93307084956812E-02 
482	 4.97376044681368E-02 
483	 5.00668446172207E-02 
484	 5.03409467332604E-02 
485	 5.04698041230446E-02 
486	 5.07951660595142E-02 
487	 5.11582662718009E-02 
488	 5.13766355383883E-02 
489	 5.15796531207673E-02 
490	 5.17887682473813E-02 
491	 5.19894048518752E-02 
492	 5.21677929509256E-02 
493	 5.25596432265578E-02 
494	 5.29219599217223E-02 
495	 5.31116642744995E-02 
496	 5.32391777872765E-02 
497	 5.33654284661639E-02 
498	 5.35261269918581E-02 
499	 5.37195609362567E-02 
500	 5.38554355260109E-02 
501	 5.39530659130783E-02 
502	 5.40242350047432E-02 
503	 5.40660039566369E-02 
504	 5.39757051454117E-02 
505	 5.39195497597016E-02 
506	 5.39875542318923E-02 
507	 5.39822475861232E-02 
508	 5.38965057706253E-02 
509	 5.38044279785337E-02 
510	 0.053790573994246 
511	 5.37020651836746E-02 
512	 5.35592759137528E-02 
513	 5.34141978782216E-02 
514	 5.33386418365515E-02 
515	 5.31740278459053E-02 
516	 5.29498857787623E-02 
517	 5.27152357449268E-02 
518	 5.23827398981076E-02 
519	 5.21303715914987E-02 
520	 5.19646874969325E-02 
521	 5.17652570967703E-02 
522	 5.14549886978246E-02 
523	 5.10948047630816E-02 
524	 5.07669359785088E-02 
525	 5.05720400326826E-02 
526	 5.02405915079632E-02 
527	 4.98053915289708E-02 
528	 4.94129050426085E-02 
529	 4.91642404557949E-02 
530	 4.88361664105356E-02 
531	 4.83932107640009E-02 
532	 4.80174229873843E-02 
533	 4.76735177276029E-02 
534	 4.73178553383669E-02 
535	 4.69254032704225E-02 
536	 4.65394544386116E-02 
537	 0.046144297542386 
538	 4.57357840553934E-02 
539	 4.53210304850638E-02 
540	 4.49516932940914E-02 
541	 4.45832759449393E-02 
542	 4.41757331831199E-02 
543	 4.37094607719594E-02 
544	 4.32686158461558E-02 
545	 4.28741792353185E-02 
546	 4.25122377764815E-02 
547	 4.21171279461271E-02 
548	 0.041729194997371 
549	 4.13565851736396E-02 
550	 4.09768762548226E-02 
551	 4.06111732570728E-02 
552	 4.02523892667368E-02 
553	 3.98884079545425E-02 
554	 0.039508187740201 
555	 3.91353710939406E-02 
556	 3.87823414575032E-02 
557	 3.84436989051049E-02 
558	 3.80219837043098E-02 
559	 3.76541389435535E-02 
560	 3.73828033573622E-02 
561	 3.70905239809015E-02 
562	 3.67291206872347E-02 
563	 3.63273708180857E-02 
564	 3.59280809075017E-02 
565	 3.55099981301153E-02 
566	 3.51322825541021E-02 
567	 3.47592449715102E-02 
568	 3.43032313533696E-02 
569	 3.39841437197231E-02 
570	 3.37312295406956E-02 
571	 3.34929818809899E-02 
572	 3.33616458657085E-02 
573	 3.32498240049617E-02 
574	 0.033167425861729 
575	 3.31177253799407E-02 
576	 3.28721730361227E-02 
577	 3.24611666164101E-02 
578	 3.19825597673535E-02 
579	 3.15828775858076E-02 
580	 3.12319738923041E-02 
581	 3.09465196553852E-02 
582	 3.07323317034966E-02 
583	 0.030553022994368 
584	 3.03863824465665E-02 
585	 3.02357212882372E-02 
586	 3.01109995124184E-02 
587	 2.99376982977417E-02 
588	 2.97250223636539E-02 
589	 2.94900269394636E-02 
590	 2.92377318064087E-02 
591	 2.91096696953001E-02 
592	 2.90477883007584E-02 
593	 2.89344968454446E-02 
594	 2.87076602712002E-02 
595	 2.85072036671896E-02 
596	 2.83273420144021E-02 
597	 2.80402675545592E-02 
598	 2.77032192135439E-02 
599	 2.74140692278766E-02 
600	 2.72260789385229E-02 
601	 2.70912098594743E-02 
602	 2.69040032897844E-02 
603	 2.67257061750574E-02 
604	 2.66653565563059E-02 
605	 2.65881431940909E-02 
606	 2.64666374737474E-02 
607	 2.63338187596782E-02 
608	 2.62841674684017E-02 
609	 2.61149069338946E-02 
610	 2.59294269417163E-02 
611	 2.58476563428378E-02 
612	 2.57818162120118E-02 
613	 2.56914451906767E-02 
614	 2.55631828018161E-02 
615	 2.54122917135476E-02 
616	 2.53363576355043E-02 
617	 2.52387485738604E-02 
618	 0.025098449044957 
619	 2.50809539635864E-02 
620	 2.50024246792947E-02 
621	 2.48901037152129E-02 
622	 2.48237050918545E-02 
623	 2.47703926543486E-02 
624	 2.47164540961889E-02 
625	 2.46635205331143E-02 
626	 2.46260380116395E-02 
627	 2.45864443659562E-02 
628	 2.45158115068778E-02 
629	 0.024421256869923 
630	 2.44061096096552E-02 
631	 2.43763634346521E-02 
632	 2.43280643688117E-02 
633	 2.42928647927543E-02 
634	 2.42489866040469E-02 
635	 2.42105691608512E-02 
636	 2.41872743464867E-02 
637	 2.41795583959999E-02 
638	 2.41585370386448E-02 
639	 2.41338508443352E-02 
640	 2.41228079618621E-02 
641	 2.41297294509512E-02 
642	 2.41751778529526E-02 
643	 2.42145246869244E-02 
644	 2.41765112536247E-02 
645	 0.02413554989635 
646	 2.41512425685945E-02 
647	 2.42126931164971E-02 
648	 2.41969174661104E-02 
649	 2.42344813989354E-02 
650	 2.42986945739092E-02 
651	 2.43252626329873E-02 
652	 2.42973663106213E-02 
653	 2.43495854259099E-02 
654	 2.44538066613305E-02 
655	 2.44582919305137E-02 
656	 2.44663014248948E-02 
657	 2.45093572071047E-02 
658	 2.45770720681683E-02 
659	 2.45926440929034E-02 
660	 2.46305133820572E-02 
661	 0.024677364935387 
662	 2.47014229687676E-02 
663	 2.47551207750655E-02 
664	 2.48218603177671E-02 
665	 2.49057696725524E-02 
666	 2.50310351253064E-02 
667	 2.50850520199516E-02 
668	 2.51395270624553E-02 
669	 2.52414759300528E-02 
670	 2.52686092866702E-02 
671	 0.025339511900255 
672	 2.54528827161282E-02 
673	 2.55536330017855E-02 
674	 2.56299900659607E-02 
675	 0.025710032111934 
676	 2.58003583703215E-02 
677	 0.025877450095652 
678	 2.59722833624473E-02 
679	 2.60662436693695E-02 
680	 2.61415863278457E-02 
681	 2.62157943278214E-02 
682	 2.63163690920277E-02 
683	 2.64422176016563E-02 
684	 2.65723936096959E-02 
685	 2.66785846690275E-02 
686	 2.67627606587676E-02 
687	 2.68475025650937E-02 
688	 2.69777911333482E-02 
689	 2.71171208338465E-02 
690	 2.72415005959112E-02 
691	 2.73452678777227E-02 
692	 0.02747545754563 
693	 0.027571990636614 
694	 2.76602084744625E-02 
695	 2.78092260355608E-02 
696	 2.79515936151597E-02 
697	 2.80919482098024E-02 
698	 2.82264132990105E-02 
699	 2.83224842857036E-02 
700	 2.84656828752294E-02 
701	 2.86210707044503E-02 
702	 2.87451240228966E-02 
703	 2.89084414732386E-02 
704	 2.90532711387644E-02 
705	 2.91691363721157E-02 
706	 2.92825705364128E-02 
707	 2.94205027405457E-02 
708	 0.029583248484938 
709	 2.97507108522732E-02 
710	 2.98766959561616E-02 
711	 0.030001361855093 
712	 3.01450601570875E-02 
713	 3.03107379516855E-02 
714	 3.04558646733927E-02 
715	 3.06336528349054E-02 
716	 3.08179390529829E-02 
717	 3.09346802625709E-02 
718	 3.10564470918702E-02 
719	 3.12070067230727E-02 
720	 3.13742656299415E-02 
721	 3.14970020384924E-02 
722	 0.031642636568356 
723	 3.18000317120746E-02 
724	 3.19461659535945E-02 
725	 3.21132079459138E-02 
726	 3.22579835481516E-02 
727	 3.23900173329316E-02 
728	 3.25519523594454E-02 
729	 3.27035604006762E-02 
730	 3.28414985770006E-02 
731	 0.032975509253506 
732	 0.033128075524192 
733	 3.32735080580391E-02 
734	 3.34166179415684E-02 
735	 3.35625708928083E-02 
736	 0.0336794770814 
737	 3.38312038263982E-02 
738	 3.40067794948497E-02 
739	 3.41486811727271E-02 
740	 3.42770557018842E-02 
741	 3.44187644171772E-02 
742	 3.45743909859337E-02 
743	 3.47044807199355E-02 
744	 3.48500787859784E-02 
745	 3.49953138408619E-02 
746	 3.51214054981326E-02 
747	 3.52546388728126E-02 
748	 3.53765466223573E-02 
749	 3.54953597221456E-02 
750	 3.56323354098137E-02 
751	 0.035783699596567 
752	 3.59237371635141E-02 
753	 3.60411637516874E-02 
754	 3.61465954711249E-02 
755	 3.62610785056351E-02 
756	 3.63805587396399E-02 
757	 3.64929065558423E-02 
758	 3.65779239314243E-02 
759	 3.66956662168859E-02 
760	 3.68389011369671E-02 
761	 3.69701417206424E-02 
762	 3.70933427807534E-02 
763	 3.72160756844237E-02 
764	 3.73306992490398E-02 
765	 0.037416123520837 
766	 3.75076151109323E-02 
767	 3.76178283834072E-02 
768	 3.77467203871925E-02 
769	 3.78811087552849E-02 
770	 3.79862940210759E-02 
771	 3.80767305752453E-02 
772	 3.81862736940734E-02 
773	 3.83387957467063E-02 
774	 3.84794325503331E-02 
775	 0.038585277401512 
776	 3.86679391174424E-02 
777	 3.87646850669612E-02 
778	 3.88681806876037E-02 
779	 3.89775622491933E-02 
780	 3.91157656676918E-02 
781	 0.039242766129637 
782	 3.93615910663871E-02 
783	 3.94778993572446E-02 
784	 3.95561444329431E-02 
785	 0.039645302843758 
786	 3.97624203512433E-02 
787	 3.99006405294164E-02 
788	 4.00447489061747E-02 
789	 4.01547946021541E-02 
790	 0.0402369908342 
791	 4.03516223019097E-02 
792	 4.04686657413167E-02 
793	 4.05979094727525E-02 
794	 4.07423365277533E-02 
795	 4.08741138161981E-02 
796	 4.09856085766699E-02 
797	 4.10960102738255E-02 
798	 4.12232465937524E-02 
799	 4.13157367499917E-02 
800	 4.14557504296305E-02 
801	 4.16342383215786E-02 
802	 4.17706349922688E-02 
803	 4.18647654944945E-02 
804	 4.19813101428832E-02 
805	 4.21419142744851E-02 
806	 4.22910657694204E-02 
807	 4.24231698640093E-02 
808	 4.25537203112747E-02 
809	 4.27000380784686E-02 
810	 4.28674070525054E-02 
811	 0.042998412164759 
812	 4.31279090827301E-02 
813	 4.33129459865307E-02 
814	 4.34797336804676E-02 
815	 4.36043030298686E-02 
816	 4.37236550964127E-02 
817	 4.39146747977143E-02 
818	 0.044096822930095 
819	 4.42834315941023E-02 
820	 4.44863285143074E-02 
821	 4.46932587973448E-02 
822	 4.48540792959379E-02 
823	 4.50029245155192E-02 
824	 4.51810234893874E-02 
825	 4.53698031058492E-02 
826	 4.55939639670967E-02 
827	 4.58262427171009E-02 
828	 4.60222825403313E-02 
829	 4.61892289761276E-02 
830	 4.64066506061797E-02 
831	 4.66567828752296E-02 
832	 4.68454768325941E-02 
833	 4.70795338548195E-02 
834	 4.73194425880901E-02 
835	 4.75499486008134E-02 
836	 4.78249730791836E-02 
837	 4.81388329293364E-02 
838	 4.83951596252862E-02 
839	 4.85572575745716E-02 
840	 4.88078880550115E-02 
841	 4.91064867305868E-02 
842	 4.94067762726734E-02 
843	 0.049666480796994 
844	 4.98872845573863E-02 
845	 5.01792694013239E-02 
846	 5.05167948209258E-02 
847	 5.07866295103801E-02 
848	 5.10743435902017E-02 
849	 5.13535822295242E-02 
850	 5.16389327900546E-02 
851	 5.20016571223012E-02 
852	 5.23159158642661E-02 
853	 5.26434088206946E-02 
854	 0.053019222897816 
855	 5.33362144511269E-02 
856	 5.37076535349001E-02 
857	 5.40594770623265E-02 
858	 5.43370292249859E-02 
859	 0.054773036061127 
860	 5.51786320224277E-02 
861	 5.55520879871973E-02 
862	 5.59749796071864E-02 
863	 0.056384889818619 
864	 5.68060178787019E-02 
865	 5.72366255767919E-02 
866	 5.76533010388584E-02 
867	 5.80930672818345E-02 
868	 5.85906448810785E-02 
869	 5.90975853555012E-02 
870	 5.94661370590835E-02 
871	 5.99173245553363E-02 
872	 6.04394500644156E-02 
873	 0.06096718100653 
874	 6.14403648093325E-02 
875	 6.19552459374265E-02 
876	 0.062484611665581 
877	 6.29908114927497E-02 
878	 6.35443587456216E-02 
879	 6.41681927208198E-02 
880	 6.47839224236601E-02 
881	 6.53092269785998E-02 
882	 6.59308799311534E-02 
883	 6.65168739567914E-02 
884	 6.70932058311534E-02 
885	 6.77952770133439E-02 
886	 6.84940405869685E-02 
887	 6.91479732907801E-02 
888	 6.97645349984298E-02 
889	 7.03955532765988E-02 
890	 7.11136945223274E-02 
891	 7.18375440727575E-02 
892	 0.07251859462685 
893	 0.073211700852039 
894	 7.39706251002996E-02 
895	 7.47539586484722E-02 
896	 7.55197872358719E-02 
897	 7.62995796359017E-02 
898	 7.70257104808389E-02 
899	 0.077769706354329 
900	 7.86079057124785E-02 
901	 7.94426373864008E-02 
902	 8.02734918674897E-02 
903	 8.10930841313804E-02 
904	 8.19059250240776E-02 
905	 8.27783315233167E-02 
906	 8.37016868804439E-02 
907	 8.46063801688081E-02 
908	 8.54153907861842E-02 
909	 8.62847929702897E-02 
910	 8.72332126268494E-02 
911	 8.82150068781306E-02 
912	 8.91497000296595E-02 
913	 9.01062833826011E-02 
914	 9.11035734220564E-02 
915	 9.21204666395622E-02 
916	 9.30958302948053E-02 
917	 9.40685687802004E-02 
918	 9.50704273694645E-02 
919	 0.096125836731891 
920	 0.097247513339837 
921	 9.83770428089829E-02 
922	 9.94717154712148E-02 
923	 0.100539891504823 
924	 0.10170817711066 
925	 0.102839183578328 
926	 0.103962770228023 
927	 0.105126072472913 
928	 0.106231113538431 
929	 0.107416473252878 
930	 0.108592833876661 
931	 0.109671629389988 
932	 0.111007658116772 
933	 0.112325174433296 
934	 0.11356830535466 
935	 0.114812547808471 
936	 0.116038411035322 
937	 0.117274611083962 
938	 0.118596671684627 
939	 0.120048773158017 
940	 0.121312508098676 
941	 0.12252867166766 
942	 0.123795096224786 
943	 0.125126041191941 
944	 0.12645773789623 
945	 0.12782171001045 
946	 0.129178280959632 
947	 0.130437161828406 
948	 0.131889463738667 
949	 0.133367098062756 
950	 0.134756129882894 
951	 0.136106220006146 
952	 0.137403678786561 
953	 0.138729558884479 
954	 0.140127219124694 
955	 0.14156471750221 
956	 0.142986649974055 
957	 0.144428667636224 
958	 0.145834051125536 
959	 0.146973759397725 
960	 0.148332113266701 
961	 0.149834427424231 
962	 0.151279481684062 
963	 0.152511515833078 
964	 0.153860821741017 
965	 0.155212682594168 
966	 0.156520987395093 
967	 0.158171396468883 
968	 0.159644743720952 
969	 0.161021548738068 
970	 0.162403333930779 
971	 0.16346962974557 
972	 0.164958463981829 
973	 0.166499096226918 
974	 0.167716139279876 
975	 0.169229523296078 
976	 0.170646261148939 
977	 0.17204354409337 
978	 0.173538699161824 
979	 0.174906382609817 
980	 0.176315007533707 
981	 0.177674763103282 
982	 0.178915638997382 
983	 0.180325743494192 
984	 0.181570052603113 
985	 0.182891390812706 
986	 0.184536715114512 
987	 0.186127589626566 
988	 0.187474827919931 
989	 0.188671043691282 
990	 0.189903847462748 
991	 0.19124693482454 
992	 0.192526950956722 
993	 0.19380956524326 
994	 0.195186515210971 
995	 0.19650996201005 
996	 0.197903291435518 
997	 0.199303906552221 
998	 0.200628592064554 
999	 0.201968691185228 
1000	 0.203205239114529 
1001	 0.210218613259567 
1002	 0.211626737100092 
1003	 0.212960810237155 
1004	 0.214296627646359 
1005	 0.215579956361747 
1006	 0.216884018541858 
1007	 0.21820600778115 
1008	 0.219509760374626 
1009	 0.220768844757118 
1010	 0.222047330873079 
1011	 0.223349048125616 
1012	 0.224644715530498 
1013	 0.225931858410535 
1014	 0.227211214056571 
1015	 0.228509932835877 
1016	 0.229760234043662 
1017	 0.230983437405369 
1018	 0.232205085648446 
1019	 0.233471742746536 
1020	 0.234739722900975 
1021	 0.235950303837264 
1022	 0.237181623391894 
1023	 0.238346768457842 
1024	 0.239397062342869 
1025	 0.240515185929543 
1026	 0.241648581564372 
1027	 0.242760705317505 
1028	 0.24391530036741 
1029	 0.245001288280699 
1030	 0.245980609708173 
1031	 0.246949683119739 
1032	 0.247934336819495 
1033	 0.248938116432369 
1034	 0.249996841696901 
1035	 0.25098605556643 
1036	 0.251937492062673 
1037	 0.252862432882952 
1038	 0.253730728599771 
1039	 0.254557914454512 
1040	 0.255387101500761 
1041	 0.256080286236705 
1042	 0.256903488007546 
1043	 0.257824109833981 
1044	 0.258663676355121 
1045	 0.259508823166071 
1046	 0.260443025290234 
1047	 0.261179205268003 
1048	 0.261890999976193 
1049	 0.262694819027853 
1050	 0.263369998139149 
1051	 0.264054100420037 
1052	 0.264797695262096 
1053	 0.265547772874312 
1054	 0.26629688164359 
1055	 0.267089238869303 
1056	 0.267914342133534 
1057	 0.268725623875349 
1058	 0.269540929639378 
1059	 0.270362198341546 
1060	 0.271163557315126 
1061	 0.272072943128077 
1062	 0.27306427323047 
1063	 0.273932118738777 
1064	 0.27479600013097 
1065	 0.275691185499125 
1066	 0.276500618610996 
1067	 0.277419833259738 
1068	 0.278434992196534 
1069	 0.279397223847193 
1070	 0.280399974895184 
1071	 0.281438012024571 
1072	 0.28247252785919 
1073	 0.283511562105015 
1074	 0.28462237766769 
1075	 0.285679393068978 
1076	 0.286691296048359 
1077	 0.287753890443325 
1078	 0.28881773697333 
1079	 0.289927952248389 
1080	 0.291081341407612 
1081	 0.292164687058634 
1082	 0.293191071247915 
1083	 0.294236734734621 
1084	 0.295335441651456 
1085	 0.296422249430092 
1086	 0.297463157316695 
1087	 0.29849685126624 
1088	 0.299547679546498 
1089	 0.300531307795248 
1090	 0.301432845492816 
1091	 0.302406344362818 
1092	 0.303315489934397 
1093	 0.304134511880558 
1094	 0.305056506155817 
1095	 0.305873817223795 
1096	 0.306655477472144 
1097	 0.307507578209301 
1098	 0.308203228380774 
1099	 0.308921404936747 
1100	 0.309635561661538 
1101	 0.310211320396635 
1102	 0.310799856575386 
1103	 0.311350053144102 
1104	 0.311862723492558 
1105	 0.312335915729684 
1106	 0.312785516774982 
1107	 0.313169182373233 
1108	 0.313533595963996 
1109	 0.313797154729312 
1110	 0.314038059023834 
1111	 0.314351309967308 
1112	 0.314566452017023 
1113	 0.314765326314798 
1114	 0.315017363784152 
1115	 0.315161025768187 
1116	 0.315287898733716 
1117	 0.315419157340555 
1118	 0.315500366692622 
1119	 0.315511783368482 
1120	 0.315548777660294 
1121	 0.315573472468169 
1122	 0.315592885765215 
1123	 0.315604827577382 
1124	 0.315611676420411 
1125	 0.315582708346932 
1126	 0.315524679627252 
1127	 0.315518909146926 
1128	 0.315507668129247 
1129	 0.315475906015199 
1130	 0.315445545393206 
1131	 0.315392158445448 
1132	 0.315341751822608 
1133	 0.315302209477101 
1134	 0.315279890042176 
1135	 0.31524091668601 
1136	 0.315188544767001 
1137	 0.31512732550067 
1138	 0.315050893238102 
1139	 0.31499441642582 
1140	 0.314930685746292 
1141	 0.314895521475577 
1142	 0.314894150004073 
1143	 0.314855220065549 
1144	 0.314803082474463 
1145	 0.314724083904673 
1146	 0.314633540445316 
1147	 0.314592998422858 
1148	 0.314552436792982 
1149	 0.314514047965868 
1150	 0.314458686578759 
1151	 0.314376059568393 
1152	 0.314305020792693 
1153	 0.314244446376217 
1154	 0.314161555149627 
1155	 0.314059146859649 
1156	 0.313970005356028 
1157	 0.313869249811819 
1158	 0.313780036193404 
1159	 0.313708280878792 
1160	 0.313637606640809 
1161	 0.313536478019642 
1162	 0.313436528291964 
1163	 0.313335244991856 
1164	 0.313203690774584 
1165	 0.31306619238953 
1166	 0.312948450215702 
1167	 0.312810929307856 
1168	 0.312675913934397 
1169	 0.31255891088767 
1170	 0.312461766899852 
1171	 0.312342642533182 
1172	 0.312231805580148 
1173	 0.312112660572123 
1174	 0.311975760060514 
1175	 0.31184655268301 
1176	 0.311738592193366 
1177	 0.311596343634501 
1178	 0.3114311751639 
1179	 0.3112642970428 
1180	 0.311117068187122 
1181	 0.310927182473926 
1182	 0.310769215969502 
1183	 0.310652762023562 
1184	 0.310505932664178 
1185	 0.310366938859259 
1186	 0.310240398587937 
1187	 0.310117526922563 
1188	 0.31000436646227 
1189	 0.309882529148714 
1190	 0.309823797846258 
1191	 0.309791065589315 
1192	 0.309785760499904 
1193	 0.309872527943026 
1194	 0.309879810062567 
1195	 0.309841085130585 
1196	 0.309849427044513 
1197	 0.309836114748011 
1198	 0.309854392967146 
1199	 0.309937084971871 
1200	 0.310022484218865 
1201	 0.310105626817177 
1202	 0.310184449596874 
1203	 0.310305234290711 
1204	 0.310460103023415 
1205	 0.31064730180211 
1206	 0.310871700717421 
1207	 0.311136696840839 
1208	 0.311428929784118 
1209	 0.311766128559933 
1210	 0.312132774038068 
1211	 0.312559277221316 
1212	 0.31303491421609 
1213	 0.313559712683223 
1214	 0.314146817426157 
1215	 0.3147732291192 
1216	 0.315463075772443 
1217	 0.316149983886179 
1218	 0.316863908338043 
1219	 0.317609124489752 
1220	 0.318378039466709 
1221	 0.319168532235538 
1222	 0.319963594864536 
1223	 0.320806682266678 
1224	 0.321607084261941 
1225	 0.322403043709157 
1226	 0.323164217436875 
1227	 0.32393024410436 
1228	 0.324615384421602 
1229	 0.325244360942149 
1230	 0.325862712840151 
1231	 0.326436217238469 
1232	 0.326989503470936 
1233	 0.32751280539041 
1234	 0.32802436837323 
1235	 0.328498533827521 
1236	 0.328968171003762 
1237	 0.329459171189014 
1238	 0.329898291863251 
1239	 0.330288429105274 
1240	 0.330675223718997 
1241	 0.331065994063295 
1242	 0.331384433931696 
1243	 0.331720338262324 
1244	 0.332050110658049 
1245	 0.332374041628208 
1246	 0.332692073538744 
1247	 0.332980822621323 
1248	 0.333263720851624 
1249	 0.333529375820413 
1250	 0.333769245814473 
1251	 0.333983842347685 
1252	 0.334174021926792 
1253	 0.334368276040641 
1254	 0.334565854272827 
1255	 0.334704677536573 
1256	 0.334826742722234 
1257	 0.334926226481645 
1258	 0.334937530128815 
1259	 0.334986503102357 
1260	 0.33508043649211 
1261	 0.335122698040778 
1262	 0.335119491806312 
1263	 0.335136652404255 
1264	 0.33516429703103 
1265	 0.335166175069315 
1266	 0.335201458166787 
1267	 0.335295583363004 
1268	 0.335318357712738 
1269	 0.33530508412329 
1270	 0.335310151520596 
1271	 0.335281007565814 
1272	 0.33529673130277 
1273	 0.335335447096477 
1274	 0.335383320781388 
1275	 0.335457064103991 
1276	 0.335522735947036 
1277	 0.335590589390285 
1278	 0.335668992947643 
1279	 0.335761341703689 
1280	 0.335841774336693 
1281	 0.335921439851191 
1282	 0.336008452404834 
1283	 0.336044728088866 
1284	 0.336155142777452 
1285	 0.336305098200384 
1286	 0.336480583336938 
1287	 0.336716091632627 
1288	 0.337020408080975 
1289	 0.337327610522922 
1290	 0.337669218372292 
1291	 0.338034023890869 
1292	 0.33842806245342 
1293	 0.338838797334743 
1294	 0.339272151364947 
1295	 0.339735176189209 
1296	 0.34021464960307 
1297	 0.340731776238568 
1298	 0.341304761008544 
1299	 0.341864619301368 
1300	 0.342446144705079 
1301	 0.343027775618378 
1302	 0.343611143573659 
1303	 0.344198414019972 
1304	 0.344801291757909 
1305	 0.345393312882159 
1306	 0.346016509479782 
1307	 0.346577858798828 
1308	 0.34710231482287 
1309	 0.347611904030551 
1310	 0.348086987567343 
1311	 0.348503240215109 
1312	 0.348937558660892 
1313	 0.349378878226191 
1314	 0.34976129528965 
1315	 0.350106038857659 
1316	 0.350447810234542 
1317	 0.350764394003998 
1318	 0.351049683788002 
1319	 0.35133453214465 
1320	 0.35156475223735 
1321	 0.351769489675273 
1322	 0.351897204808675 
1323	 0.351998170488703 
1324	 0.352008494217159 
1325	 0.351914329591109 
1326	 0.351807256943433 
1327	 0.351652691618648 
1328	 0.351455341468904 
1329	 0.351238541826497 
1330	 0.350957146906752 
1331	 0.350602349487229 
1332	 0.350233663866864 
1333	 0.349844934815974 
1334	 0.349390030365861 
1335	 0.348924997690091 
1336	 0.348438225697735 
1337	 0.347925264022445 
1338	 0.347373936428245 
1339	 0.346828825339574 
1340	 0.34627442710291 
1341	 0.34570671297279 
1342	 0.345126379566796 
1343	 0.34453632918866 
1344	 0.343947682551907 
1345	 0.343320358244926 
1346	 0.342681472727234 
1347	 0.342012446629214 
1348	 0.341300103192735 
1349	 0.340594232852995 
1350	 0.339845293412871 
1351	 0.339141814163551 
1352	 0.338466685995835 
1353	 0.337768938291102 
1354	 0.337066307715618 
1355	 0.336391143421767 
1356	 0.335712875137364 
1357	 0.335039102550774 
1358	 0.334382303623604 
1359	 0.333741451941679 
1360	 0.33309590723124 
1361	 0.332457842442079 
1362	 0.331866513545658 
1363	 0.331318691237997 
1364	 0.330784203603611 
1365	 0.330290449768102 
1366	 0.329768444897993 
1367	 0.329257075196039 
1368	 0.328741841504428 
1369	 0.328234064148519 
1370	 0.32767882302801 
1371	 0.32710833157728 
1372	 0.326538978359922 
1373	 0.325933517405074 
1374	 0.325335762391495 
1375	 0.324770201406437 
1376	 0.324139940749662 
1377	 0.323479103982261 
1378	 0.322776864432183 
1379	 0.322007683119072 
1380	 0.321266808906477 
1381	 0.320498959686602 
1382	 0.319741118208474 
1383	 0.318981202984618 
1384	 0.318245970599623 
1385	 0.317518203808251 
1386	 0.316797080666355 
1387	 0.316090612628384 
1388	 0.315413353921531 
1389	 0.314711976635795 
1390	 0.314077666297226 
1391	 0.313505649513076 
1392	 0.312926080090192 
1393	 0.312456711195686 
1394	 0.312036378965541 
1395	 0.311604883561061 
1396	 0.311252829841281 
1397	 0.310793571650853 
1398	 0.31032440036683 
1399	 0.309754363391478 
1400	 0.309156867167716 
1401	 0.308408925537088 
1402	 0.307564126211907 
1403	 0.306620942605386 
1404	 0.305526509181094 
1405	 0.304440314144543 
1406	 0.303260037711351 
1407	 0.302105438369179 
1408	 0.300884230890335 
1409	 0.29974888200435 
1410	 0.298575227216113 
1411	 0.29755059584857 
1412	 0.296561345071549 
1413	 0.295754501591644 
1414	 0.295070006697716 
1415	 0.294516327957831 
1416	 0.294171893449116 
1417	 0.293830024598292 
1418	 0.293617226553172 
1419	 0.293390647781989 
1420	 0.29322297097164 
1421	 0.293022603850137 
1422	 0.292819492201391 
1423	 0.292620953708803 
1424	 0.292403938105563 
1425	 0.292187955116605 
1426	 0.292024563679269 
1427	 0.291856656744549 
1428	 0.291695833868341 
1429	 0.291577054143099 
1430	 0.29147306956507 
1431	 0.291384600277064 
1432	 0.291314668397292 
1433	 0.291282462931378 
1434	 0.291230649201353 
1435	 0.291179064676955 
1436	 0.291137944181895 
1437	 0.291085092939533 
1438	 0.291080952340659 
1439	 0.291104994274337 
1440	 0.291131473550564 
1441	 0.291175978083098 
1442	 0.291249133764733 
1443	 0.291327369700091 
1444	 0.291444050308833 
1445	 0.291627132373637 
1446	 0.291770120073902 
1447	 0.291914332649701 
1448	 0.292056949472469 
1449	 0.292192734248271 
1450	 0.292324174522402 
1451	 0.292460592539549 
1452	 0.292587778329464 
1453	 0.292703700482051 
1454	 0.292815627380446 
1455	 0.292951303441557 
1456	 0.293033883680134 
1457	 0.293068163235541 
1458	 0.293116951734252 
1459	 0.293130684512454 
1460	 0.293160534265353 
1461	 0.293228718186096 
1462	 0.293261534645837 
1463	 0.293276312826555 
1464	 0.293280734616581 
1465	 0.293275172714672 
1466	 0.293245959134469 
1467	 0.293202088057585 
1468	 0.293114803873116 
1469	 0.292970140612289 
1470	 0.292813828970092 
1471	 0.292627366221438 
1472	 0.292409504794756 
1473	 0.292170998437532 
1474	 0.291914408553036 
1475	 0.2916097396921 
1476	 0.291288015658849 
1477	 0.29088708488085 
1478	 0.290417969018828 
1479	 0.289947782910108 
1480	 0.289412239467932 
1481	 0.288901782451916 
1482	 0.288392718695561 
1483	 0.287864017270831 
1484	 0.287332620523267 
1485	 0.286763190823518 
1486	 0.286160919387114 
1487	 0.285572370565238 
1488	 0.284919113165563 
1489	 0.284368761601234 
1490	 0.283836001966684 
1491	 0.283386117680612 
1492	 0.282994967543783 
1493	 0.282680911483279 
1494	 0.282420665982275 
1495	 0.282262129426457 
1496	 0.282208603787225 
1497	 0.282197162693987 
1498	 0.282248334000013 
1499	 0.282385993541545 
1500	 0.282526203532432 
1501	 0.282864730462052 
1502	 0.28330413988012 
1503	 0.283927766722306 
1504	 0.284731735413602 
1505	 0.2856666580006 
1506	 0.286853873134368 
1507	 0.288011506441277 
1508	 0.289361323413604 
1509	 0.290579005388302 
1510	 0.291828865102749 
1511	 0.29291506891918 
1512	 0.29389904259054 
1513	 0.294784397666238 
1514	 0.295504916200085 
1515	 0.296198255125562 
1516	 0.296782706468447 
1517	 0.297372174029964 
1518	 0.297910540234632 
1519	 0.298449521701318 
1520	 0.299001028399536 
1521	 0.299508631914229 
1522	 0.29999056355811 
1523	 0.300492494224388 
1524	 0.300957986565056 
1525	 0.301390751635628 
1526	 0.301855546647549 
1527	 0.302319429085201 
1528	 0.302775453339288 
1529	 0.303246362575621 
1530	 0.303690813810674 
1531	 0.304117335306031 
1532	 0.304538457217927 
1533	 0.304954032241614 
1534	 0.305357128772921 
1535	 0.305755273999031 
1536	 0.30611416463438 
1537	 0.30644391182513 
1538	 0.306788621758358 
1539	 0.307100386911639 
1540	 0.307445738218374 
1541	 0.307839604526462 
1542	 0.308160447347062 
1543	 0.308461419634076 
1544	 0.308738447712285 
1545	 0.308976658098928 
1546	 0.30920017331015 
1547	 0.309416659445466 
1548	 0.309593378053402 
1549	 0.309728267083074 
1550	 0.309857794029107 
1551	 0.309951398365168 
1552	 0.310064878806292 
1553	 0.310174110661224 
1554	 0.310280189507133 
1555	 0.310387264200892 
1556	 0.310497846642101 
1557	 0.310598556037722 
1558	 0.310712374404124 
1559	 0.31083997657 
1560	 0.310963956565488 
1561	 0.311084975251186 
1562	 0.311217252199627 
1563	 0.311354510458265 
1564	 0.31149882381557 
1565	 0.311667314483767 
1566	 0.311806281109199 
1567	 0.311928002628968 
1568	 0.312064843716172 
1569	 0.312188128857028 
1570	 0.312325492463442 
1571	 0.312483049169423 
1572	 0.312635086407186 
1573	 0.312772350898532 
1574	 0.312938569855344 
1575	 0.313138779272573 
1576	 0.313310701111769 
1577	 0.313493617555081 
1578	 0.313654244940919 
1579	 0.313793864739025 
1580	 0.31392004582795 
1581	 0.314009371897312 
1582	 0.314140411890983 
1583	 0.314264992101218 
1584	 0.314415616893075 
1585	 0.314627720598372 
1586	 0.314798778321756 
1587	 0.314960024468614 
1588	 0.315114799364167 
1589	 0.315243052822793 
1590	 0.31539032504982 
1591	 0.315546607216984 
1592	 0.31569705840952 
1593	 0.315856085632049 
1594	 0.316005629867355 
1595	 0.316149222456934 
1596	 0.316285020383562 
1597	 0.316416638133085 
1598	 0.316541802449423 
1599	 0.316660986917096 
1600	 0.316770345313549 
1601	 0.316859683769824 
1602	 0.31696502690229 
1603	 0.317087536709331 
1604	 0.317178189572964 
1605	 0.317247760788517 
1606	 0.317338724082397 
1607	 0.317410175904498 
1608	 0.31749866167009 
1609	 0.317652534583941 
1610	 0.317737596487998 
1611	 0.317783747613764 
1612	 0.317822582398243 
1613	 0.317808120650863 
1614	 0.317820025027042 
1615	 0.317830782554285 
1616	 0.317859930584632 
1617	 0.317912422572485 
1618	 0.317953150994073 
1619	 0.3180084922984 
1620	 0.318044655029914 
1621	 0.318073860036045 
1622	 0.318083894227486 
1623	 0.318086955122042 
1624	 0.318065727440734 
1625	 0.318005325342393 
1626	 0.317957326332863 
1627	 0.3178980277176 
1628	 0.317840656670927 
1629	 0.31777913521422 
1630	 0.317731074826962 
1631	 0.31767306482458 
1632	 0.317643977025922 
1633	 0.317662431367005 
1634	 0.317648257520486 
1635	 0.31763218327645 
1636	 0.317611172889169 
1637	 0.31756251807348 
1638	 0.317529488703746 
1639	 0.317540616929071 
1640	 0.317493815582646 
1641	 0.317420641868288 
1642	 0.317329922212264 
1643	 0.317185693392288 
1644	 0.317052798581114 
1645	 0.316927246862586 
1646	 0.31678584804067 
1647	 0.31662803166501 
1648	 0.316463942706278 
1649	 0.316288323476934 
1650	 0.316102849811927 
1651	 0.315932667903134 
1652	 0.315721359608757 
1653	 0.315465331379591 
1654	 0.315225430479749 
1655	 0.314984035705175 
1656	 0.31470051351924 
1657	 0.314437520802882 
1658	 0.314096546068938 
1659	 0.313691064257492 
1660	 0.313254777627087 
1661	 0.312794790977871 
1662	 0.312257317953177 
1663	 0.311659040035897 
1664	 0.311001594406285 
1665	 0.310253059069886 
1666	 0.309488460898287 
1667	 0.308694754200481 
1668	 0.307849101433963 
1669	 0.306981503152118 
1670	 0.306029750549371 
1671	 0.304994846357538 
1672	 0.303927552737509 
1673	 0.302815972332539 
1674	 0.301626850374246 
1675	 0.300388170087927 
1676	 0.299103766646188 
1677	 0.297737229430563 
1678	 0.296342923094809 
1679	 0.29488959615393 
1680	 0.293421761827507 
1681	 0.291915970946202 
1682	 0.290377261097003 
1683	 0.288821901919948 
1684	 0.287259221973806 
1685	 0.285633607776117 
1686	 0.284049814761062 
1687	 0.282464801606283 
1688	 0.28088633163881 
1689	 0.279345955329385 
1690	 0.277740739843576 
1691	 0.276120512077086 
1692	 0.274515359255117 
1693	 0.272895868772898 
1694	 0.271238885652441 
1695	 0.269566038334489 
1696	 0.267876515112884 
1697	 0.266157737230944 
1698	 0.26437896922107 
1699	 0.262601931423717 
1700	 0.260808293731518 
1701	 0.25888766098975 
1702	 0.257129637779763 
1703	 0.255405472791954 
1704	 0.253762775797023 
1705	 0.252197744337295 
1706	 0.2506357865223 
1707	 0.249254868721874 
1708	 0.247976498482129 
1709	 0.246786108027334 
1710	 0.245703561714343 
1711	 0.244643491393108 
1712	 0.243634932998226 
1713	 0.242632419704381 
1714	 0.24167660471523 
1715	 0.240830323372361 
1716	 0.239908897600452 
1717	 0.239039704652283 
1718	 0.23825261724799 
1719	 0.23741679244928 
1720	 0.236710601615208 
1721	 0.236092234776006 
1722	 0.235516518269196 
1723	 0.235071126386594 
1724	 0.234703425529641 
1725	 0.234492125324829 
1726	 0.234492403534282 
1727	 0.234651002631837 
1728	 0.23499930599304 
1729	 0.235550462411823 
1730	 0.236245002741822 
1731	 0.237040865877948 
1732	 0.23800532512074 
1733	 0.239019768508436 
1734	 0.240116313617681 
1735	 0.241295420722057 
1736	 0.242402631174629 
1737	 0.243490494797271 
1738	 0.24442330228477 
1739	 0.245197651028906 
1740	 0.245866492541522 
1741	 0.246379127135339 
1742	 0.246737428856496 
1743	 0.246991266320832 
1744	 0.247063368616654 
1745	 0.247104957087982 
1746	 0.24703549190474 
1747	 0.246927737206986 
1748	 0.246749718752331 
1749	 0.246568589142877 
1750	 0.246274285219125 
1751	 0.246103141693183 
1752	 0.245975599895783 
1753	 0.245875898831563 
1754	 0.245819567841035 
1755	 0.245827040934269 
1756	 0.24582401731496 
1757	 0.246003133849223 
1758	 0.2462907308882 
1759	 0.246666293225442 
1760	 0.247166783144581 
1761	 0.247757354047434 
1762	 0.248469723679263 
1763	 0.249396760586995 
1764	 0.250364980059383 
1765	 0.251405226069332 
1766	 0.25256593059696 
1767	 0.253631592309811 
1768	 0.254771428465508 
1769	 0.25596813933715 
1770	 0.257061837457584 
1771	 0.258190229746435 
1772	 0.259225023289864 
1773	 0.260157447587205 
1774	 0.261109827423693 
1775	 0.261982470639045 
1776	 0.262848266605932 
1777	 0.263653950208234 
1778	 0.264326030743288 
1779	 0.264974253029553 
1780	 0.265543734704066 
1781	 0.26603720882685 
1782	 0.26649049411923 
1783	 0.266857737516674 
1784	 0.267173202370358 
1785	 0.267453969738005 
1786	 0.267728894495815 
1787	 0.267982125264791 
1788	 0.268186590180748 
1789	 0.268356873377876 
1790	 0.268517639009651 
1791	 0.268626331518608 
1792	 0.268754817989738 
1793	 0.268880780822135 
1794	 0.268977225884888 
1795	 0.269111098830821 
1796	 0.26921388116365 
1797	 0.269312961825602 
1798	 0.269409409712694 
1799	 0.269503305925305 
1800	 0.26961685174499 
1801	 0.27300541025764 
1802	 0.273188350682041 
1803	 0.273420446348761 
1804	 0.273672610298848 
1805	 0.273923435481539 
1806	 0.274166909661605 
1807	 0.274439243828857 
1808	 0.274671622420566 
1809	 0.274870323465624 
1810	 0.275080232174733 
1811	 0.27528626835269 
1812	 0.275496075443267 
1813	 0.275715981360734 
1814	 0.275907332584646 
1815	 0.276113467044316 
1816	 0.276316914241811 
1817	 0.276513735767098 
1818	 0.276693288702184 
1819	 0.276900130898225 
1820	 0.277108059006461 
1821	 0.277323202567991 
1822	 0.277538036287365 
1823	 0.277796786566319 
1824	 0.278046776422907 
1825	 0.278289892389664 
1826	 0.278542428352187 
1827	 0.278820970825946 
1828	 0.279052327414018 
1829	 0.279272781771861 
1830	 0.279480306596312 
1831	 0.279653771524472 
1832	 0.279848970908078 
1833	 0.280009597755184 
1834	 0.280159139982142 
1835	 0.280329247831264 
1836	 0.280470654249703 
1837	 0.280662195728841 
1838	 0.280893483670584 
1839	 0.281120269255671 
1840	 0.281369387439228 
1841	 0.281616558344509 
1842	 0.28186957882929 
1843	 0.282125154498952 
1844	 0.282387995846299 
1845	 0.282616402121523 
1846	 0.282852994503954 
1847	 0.2830682763746 
1848	 0.283241305355411 
1849	 0.283397602606867 
1850	 0.283522210354286 
1851	 0.283590699405047 
1852	 0.283666906515333 
1853	 0.283765143465253 
1854	 0.283813842310289 
1855	 0.283890750184849 
1856	 0.283967663546843 
1857	 0.284002638972789 
1858	 0.284037464639518 
1859	 0.284016465520629 
1860	 0.283972669687606 
1861	 0.283852788904493 
1862	 0.283679697881687 
1863	 0.28345919485054 
1864	 0.283176315896125 
1865	 0.282883786522434 
1866	 0.282552749642877 
1867	 0.28217421424179 
1868	 0.281756230855329 
1869	 0.281264021455162 
1870	 0.280756727592836 
1871	 0.280209837023782 
1872	 0.279651445262936 
1873	 0.279079875949684 
1874	 0.278476081709646 
1875	 0.277849773333394 
1876	 0.277137304131006 
1877	 0.276382112883527 
1878	 0.275552365853565 
1879	 0.274624345137583 
1880	 0.273631894677585 
1881	 0.272508821284392 
1882	 0.271256949355984 
1883	 0.269958911063559 
1884	 0.268516759673645 
1885	 0.266905663882527 
1886	 0.265289097341761 
1887	 0.263512840252975 
1888	 0.261628203407668 
1889	 0.259790266691407 
1890	 0.257868129928231 
1891	 0.255981546740639 
1892	 0.254080402123816 
1893	 0.252123024721936 
1894	 0.250111013832885 
1895	 0.248152101369921 
1896	 0.246086245147295 
1897	 0.244014240954973 
1898	 0.242074739067477 
1899	 0.240127952279482 
1900	 0.238283261491264 
1901	 0.236528810393252 
1902	 0.234740274152505 
1903	 0.233044056696279 
1904	 0.231393694102627 
1905	 0.229748492556007 
1906	 0.228202427329702 
1907	 0.226847843648987 
1908	 0.225464408524321 
1909	 0.224171982931371 
1910	 0.222958158619114 
1911	 0.221673980312956 
1912	 0.220532754353071 
1913	 0.219447953392924 
1914	 0.218388121087253 
1915	 0.21742440913873 
1916	 0.216583142483373 
1917	 0.215721701067469 
1918	 0.214915457478282 
1919	 0.214171865072763 
1920	 0.213428030860434 
1921	 0.212789489277617 
1922	 0.212168162913209 
1923	 0.211586604678157 
1924	 0.21112445968077 
1925	 0.210682491501089 
1926	 0.210274012292855 
1927	 0.209929877703287 
1928	 0.209603287965195 
1929	 0.209295750347592 
1930	 0.209029284995949 
1931	 0.208790308650204 
1932	 0.208575123396922 
1933	 0.208368319939788 
1934	 0.208183640738447 
1935	 0.20807931958049 
1936	 0.208009259186358 
1937	 0.207977595990045 
1938	 0.208008930129783 
1939	 0.20807319587722 
1940	 0.208152763236166 
1941	 0.208303188332739 
1942	 0.208524547536782 
1943	 0.208739195368557 
1944	 0.208979452783371 
1945	 0.209249589373993 
1946	 0.209554737201313 
1947	 0.209872175576021 
1948	 0.210247931227493 
1949	 0.210672763381195 
1950	 0.211075552361356 
1951	 0.211514315229602 
1952	 0.211935846346359 
1953	 0.21235202910337 
1954	 0.212721508413504 
1955	 0.213168985081745 
1956	 0.213574429786313 
1957	 0.213979277556522 
1958	 0.21440739925725 
1959	 0.214782393430337 
1960	 0.215144797880692 
1961	 0.215524690922041 
1962	 0.215920833874779 
1963	 0.216286402802987 
1964	 0.216643853895536 
1965	 0.216999727088983 
1966	 0.217343295174439 
1967	 0.217670954465642 
1968	 0.217981076281617 
1969	 0.218322871042286 
1970	 0.218674226174762 
1971	 0.218995895350191 
1972	 0.219320529560745 
1973	 0.219639951985103 
1974	 0.219967663394071 
1975	 0.220265267015 
1976	 0.220591156607246 
1977	 0.220969039884467 
1978	 0.221307433722677 
1979	 0.221619694371974 
1980	 0.221941145474525 
1981	 0.222265894620253 
1982	 0.222577464214726 
1983	 0.222910958548018 
1984	 0.223264874831269 
1985	 0.223647849546643 
1986	 0.224025511577135 
1987	 0.224381694433098 
1988	 0.224731729942859 
1989	 0.225086751288424 
1990	 0.225421266819039 
1991	 0.225753050379051 
1992	 0.226107889652065 
1993	 0.226439814715349 
1994	 0.226687180693942 
1995	 0.226961613293883 
1996	 0.227215493916818 
1997	 0.227422722622282 
1998	 0.227644344713366 
1999	 0.227865566982794 
2000	 0.228072470840857 
2001	 0.22827816470981 
2002	 0.228458154607221 
2003	 0.228633157309464 
2004	 0.228790734697577 
2005	 0.228911760773398 
2006	 0.229037564529541 
2007	 0.229167999907257 
2008	 0.22928042649421 
2009	 0.229361962672456 
2010	 0.22936572962845 
2011	 0.229343963119515 
2012	 0.22924191524264 
2013	 0.229105047239145 
2014	 0.228913013429882 
2015	 0.228710164463458 
2016	 0.228467462868816 
2017	 0.228190909833463 
2018	 0.227901764541542 
2019	 0.227562574698794 
2020	 0.227162802356574 
2021	 0.226739029471904 
2022	 0.226310950062342 
2023	 0.22583185644641 
2024	 0.225331830671119 
2025	 0.224815297046254 
2026	 0.22428683140704 
2027	 0.223729194156436 
2028	 0.223170216021542 
2029	 0.22259515219638 
2030	 0.222024876128683 
2031	 0.221453005334042 
2032	 0.220861536071867 
2033	 0.220254493153228 
2034	 0.219667642398344 
2035	 0.219067320353018 
2036	 0.21845467593273 
2037	 0.217932528306568 
2038	 0.217394437447646 
2039	 0.216912931757195 
2040	 0.216431474914988 
2041	 0.216096213039465 
2042	 0.215793020152487 
2043	 0.215655122044016 
2044	 0.215687786560286 
2045	 0.21574418736674 
2046	 0.215929024350459 
2047	 0.216122744620304 
2048	 0.216381003011583 
2049	 0.216649887620072 
2050	 0.216978816348055 
2051	 0.217288194045307 
2052	 0.217626893524296 
2053	 0.217963088005774 
2054	 0.218257047640011 
2055	 0.218535570956185 
2056	 0.218797383517462 
2057	 0.218986303839992 
2058	 0.219262863437945 
2059	 0.219557794929944 
2060	 0.219883381848481 
2061	 0.220282583405159 
2062	 0.220641119795353 
2063	 0.220999783754579 
2064	 0.221356720199041 
2065	 0.221671095151469 
2066	 0.222037769299743 
2067	 0.222484295102041 
2068	 0.222916310500104 
2069	 0.223316778370689 
2070	 0.22377868206989 
2071	 0.224116081127426 
2072	 0.224363301375335 
2073	 0.224611665371483 
2074	 0.224817039830624 
2075	 0.225004646911673 
2076	 0.225150029213651 
2077	 0.225295640250756 
2078	 0.225413840362887 
2079	 0.22553705936027 
2080	 0.22566276897982 
2081	 0.225776099593142 
2082	 0.225887383755568 
2083	 0.225985399526911 
2084	 0.22604374057149 
2085	 0.226079527441791 
2086	 0.226129889358692 
2087	 0.226175606785592 
2088	 0.226189980351168 
2089	 0.226191893103243 
2090	 0.226205162687291 
2091	 0.226194388521116 
2092	 0.226180499143331 
2093	 0.226194475848408 
2094	 0.226178180531407 
2095	 0.226115263154162 
2096	 0.226072405211388 
2097	 0.22604112650149 
2098	 0.226002897410918 
2099	 0.225946108274068 
2100	 0.225850272081045 
2101	 0.225750469367446 
2102	 0.2256417911357 
2103	 0.225482700677848 
2104	 0.225294958137017 
2105	 0.225092134985135 
2106	 0.224834798798998 
2107	 0.224586262835848 
2108	 0.224333010542905 
2109	 0.224075922570908 
2110	 0.223795842129892 
2111	 0.223527547942697 
2112	 0.22329637480246 
2113	 0.223005008407715 
2114	 0.22265758488651 
2115	 0.222342541329925 
2116	 0.222011032070793 
2117	 0.221673602036829 
2118	 0.22135393592917 
2119	 0.221069972769663 
2120	 0.220772253137048 
2121	 0.220451596908018 
2122	 0.220169987445481 
2123	 0.219941360651188 
2124	 0.219648327269029 
2125	 0.219341925381148 
2126	 0.219030215824915 
2127	 0.218659151568298 
2128	 0.218343732234787 
2129	 0.218053734073281 
2130	 0.217764201572706 
2131	 0.21749957859554 
2132	 0.217233369387334 
2133	 0.216955800257244 
2134	 0.216727621375057 
2135	 0.216452917552899 
2136	 0.216160462537052 
2137	 0.215856719096633 
2138	 0.215507408739827 
2139	 0.215202030520594 
2140	 0.214888781845137 
2141	 0.214623989704795 
2142	 0.214416018889528 
2143	 0.214167661823704 
2144	 0.213934146416235 
2145	 0.213689385769888 
2146	 0.213391630829403 
2147	 0.213152861350456 
2148	 0.212967624086582 
2149	 0.212755538305211 
2150	 0.212573368623019 
2151	 0.212352139562959 
2152	 0.212102274331083 
2153	 0.211832647982789 
2154	 0.211553701516846 
2155	 0.211333813908074 
2156	 0.211113885222408 
2157	 0.21092225086798 
2158	 0.210709179374539 
2159	 0.210509459512412 
2160	 0.210283364262573 
2161	 0.210043862681635 
2162	 0.209799427037853 
2163	 0.209529189741464 
2164	 0.209285165030629 
2165	 0.209026042017486 
2166	 0.208811876259328 
2167	 0.208604550451495 
2168	 0.208449962532957 
2169	 0.208342495103422 
2170	 0.208252958275815 
2171	 0.208232315691059 
2172	 0.208189631239314 
2173	 0.208148442624284 
2174	 0.208114139653031 
2175	 0.20809837596092 
2176	 0.208079297190676 
2177	 0.208080829985533 
2178	 0.20811990835378 
2179	 0.208123387925906 
2180	 0.208099335954857 
2181	 0.208122046540951 
2182	 0.208144531232959 
2183	 0.208205198368819 
2184	 0.208313380638354 
2185	 0.208416426420821 
2186	 0.208543092941158 
2187	 0.208654468422416 
2188	 0.208755358219362 
2189	 0.2088867446549 
2190	 0.209064560962952 
2191	 0.209178121915595 
2192	 0.209273414246189 
2193	 0.209373702380576 
2194	 0.20944978731695 
2195	 0.209495313779545 
2196	 0.209534081925903 
2197	 0.209598879318952 
2198	 0.209528261603247 
2199	 0.209419328253497 
2200	 0.209320130550451 
2201	 0.209203695996454 
2202	 0.209024596934819 
2203	 0.208821288428998 
2204	 0.208589842800231 
2205	 0.20827607948069 
2206	 0.207998662046302 
2207	 0.207709735234064 
2208	 0.207452077563792 
2209	 0.207137648833033 
2210	 0.206972203099966 
2211	 0.20686466869306 
2212	 0.206855166092348 
2213	 0.206998801424857 
2214	 0.20711849001051 
2215	 0.207347732892564 
2216	 0.207492402702065 
2217	 0.207644460465136 
2218	 0.207733181836401 
2219	 0.207807283158183 
2220	 0.207775852383881 
2221	 0.207643816810172 
2222	 0.207489912155883 
2223	 0.207342405718184 
2224	 0.207069146684968 
2225	 0.206781646612816 
2226	 0.206454370616474 
2227	 0.205992000539645 
2228	 0.205373469106593 
2229	 0.20478987369123 
2230	 0.204147387601717 
2231	 0.203466011284569 
2232	 0.202777602227293 
2233	 0.20198127887107 
2234	 0.201152925500681 
2235	 0.20015615915279 
2236	 0.199053242824583 
2237	 0.197842529478516 
2238	 0.196432598079198 
2239	 0.195040235907794 
2240	 0.193601129412073 
2241	 0.192062512792394 
2242	 0.190517340643168 
2243	 0.188808748681467 
2244	 0.186929543075862 
2245	 0.185021782896355 
2246	 0.182925331292601 
2247	 0.180892797199206 
2248	 0.178843033161765 
2249	 0.176797718235898 
2250	 0.174768559286282 
2251	 0.172767334894127 
2252	 0.17058999026197 
2253	 0.168473619217759 
2254	 0.166339739723313 
2255	 0.164170777147931 
2256	 0.16219353124955 
2257	 0.160167945747409 
2258	 0.158171338419336 
2259	 0.156195750747889 
2260	 0.154244910122095 
2261	 0.152319571860922 
2262	 0.150412397210003 
2263	 0.148516538118619 
2264	 0.146647760820062 
2265	 0.144825009793448 
2266	 0.142945618005242 
2267	 0.141203531568417 
2268	 0.139147902651766 
2269	 0.136990138175846 
2270	 0.134641855685453 
2271	 0.132038018355968 
2272	 0.129342338416425 
2273	 0.126471957596717 
2274	 0.123534310863857 
2275	 0.120434194156009 
2276	 0.117300472450001 
2277	 0.11394603587065 
2278	 0.110825293936224 
2279	 0.107517690236833 
2280	 0.104648750296122 
2281	 0.101996680835767 
2282	 9.97032966753954E-02 
2283	 9.76785606559888E-02 
2284	 0.096131500760876 
2285	 9.48839315294753E-02 
2286	 9.39617000752987E-02 
2287	 9.33113117541116E-02 
2288	 9.29747786864467E-02 
2289	 9.29062755269806E-02 
2290	 9.30747626820025E-02 
2291	 9.34769242918009E-02 
2292	 9.39198175801187E-02 
2293	 0.094349740897044 
2294	 0.094807975466605 
2295	 9.52636915907393E-02 
2296	 9.56699636944045E-02 
2297	 9.60270007526693E-02 
2298	 9.63525504630099E-02 
2299	 9.66829631793823E-02 
2300	 9.68976590477889E-02 
2301	 0.097279237778084 
2302	 9.77346545171034E-02 
2303	 9.82392672487511E-02 
2304	 9.88138570840263E-02 
2305	 9.94474192479395E-02 
2306	 0.100135188761304 
2307	 0.100912878848035 
2308	 0.101708933942818 
2309	 0.102711937910968 
2310	 0.103883681591395 
2311	 0.105079716620914 
2312	 0.106547144246351 
2313	 0.107816877504184 
2314	 0.109083704684538 
2315	 0.110245652621201 
2316	 0.111300252340995 
2317	 0.112267188774083 
2318	 0.11321192675095 
2319	 0.113958073358494 
2320	 0.114624207202161 
2321	 0.115062556279909 
2322	 0.115280795841705 
2323	 0.115327774604733 
2324	 0.115216761454872 
2325	 0.114870215790106 
2326	 0.114350747425598 
2327	 0.11356032859475 
2328	 0.112388375016335 
2329	 0.111133087548925 
2330	 0.109711777524866 
2331	 0.108057151663832 
2332	 0.106266838251041 
2333	 0.104214077370455 
2334	 0.101748864469187 
2335	 9.91924099919738E-02 
2336	 9.64714639452789E-02 
2337	 9.37456355233959E-02 
2338	 9.12410020459889E-02 
2339	 8.85870011758974E-02 
2340	 8.59930312669923E-02 
2341	 8.35728407493498E-02 
2342	 8.12084529620503E-02 
2343	 7.92384127065746E-02 
2344	 7.76969219202487E-02 
2345	 7.65445379109014E-02 
2346	 7.56886416372768E-02 
2347	 0.075082726842263 
2348	 7.45543273392057E-02 
2349	 7.41893911766896E-02 
2350	 7.38830182625516E-02 
2351	 7.35312804126197E-02 
2352	 7.34685392017202E-02 
2353	 7.33448201804116E-02 
2354	 7.34820021055601E-02 
2355	 7.40246432952242E-02 
2356	 7.46496624679677E-02 
2357	 0.075811979128601 
2358	 7.76452749332458E-02 
2359	 7.99817694100564E-02 
2360	 8.26385759904335E-02 
2361	 8.57074655957638E-02 
2362	 8.86338019588948E-02 
2363	 9.13661774912277E-02 
2364	 9.40854063311815E-02 
2365	 9.65849893320074E-02 
2366	 9.90321026924613E-02 
2367	 0.101130342235359 
2368	 0.102985046598737 
2369	 0.104573297235834 
2370	 0.105696138049857 
2371	 0.10661558967075 
2372	 0.107455185379033 
2373	 0.108090781285093 
2374	 0.108563114731852 
2375	 0.10904469411504 
2376	 0.109433108264521 
2377	 0.109702185197063 
2378	 0.110022004360734 
2379	 0.110260622960334 
2380	 0.110346244156531 
2381	 0.110480549782205 
2382	 0.110689415297515 
2383	 0.110906091676254 
2384	 0.111207440123922 
2385	 0.111651399130764 
2386	 0.111992610631827 
2387	 0.112290895667151 
2388	 0.112643493119767 
2389	 0.113036371517077 
2390	 0.113385395865739 
2391	 0.11377394958906 
2392	 0.114076778007822 
2393	 0.114294432665441 
2394	 0.114496682786189 
2395	 0.114673360255862 
2396	 0.11486542113306 
2397	 0.115004715279833 
2398	 0.115148361600962 
2399	 0.11528050397221 
2400	 0.115401424082389 
2401	 0.115515308114522 
2402	 0.115771703795174 
2403	 0.116007844258986 
2404	 0.11626470304718 
2405	 0.116508546372535 
2406	 0.116717591469603 
2407	 0.116882055264923 
2408	 0.117053903418115 
2409	 0.117087373897317 
2410	 0.117084887755476 
2411	 0.117294752731175 
2412	 0.117444035380863 
2413	 0.117713458331181 
2414	 0.118174121444224 
2415	 0.11820566196555 
2416	 0.118217139498135 
2417	 0.118342400004504 
2418	 0.118117668422908 
2419	 0.118170278862617 
2420	 0.118463582629819 
2421	 0.118409604876281 
2422	 0.118413742954884 
2423	 0.118384293217756 
2424	 0.118160239563912 
2425	 0.118224065926807 
2426	 0.118406274154696 
2427	 0.11836412227933 
2428	 0.118382071565174 
2429	 0.118596133061713 
2430	 0.118536764870943 
2431	 0.118422178627762 
2432	 0.11847365654303 
2433	 0.118225449469581 
2434	 0.11809042303905 
2435	 0.118067072154499 
2436	 0.117812839353263 
2437	 0.117605516363683 
2438	 0.117527402462973 
2439	 0.117477935735731 
2440	 0.117277817598207 
2441	 0.117225474253531 
2442	 0.117067786425555 
2443	 0.116906515677481 
2444	 0.117046403060867 
2445	 0.116879695682878 
2446	 0.116538545709245 
2447	 0.116055188681602 
2448	 0.115492841854652 
2449	 0.115260166102483 
2450	 0.115044416728936 
2451	 0.114702474907236 
2452	 0.114483792775762 
2453	 0.113964948354759 
2454	 0.113444065456905 
2455	 0.113228153245594 
2456	 0.112927451449728 
2457	 0.112698235928023 
2458	 0.112608357796487 
2459	 0.112718533340254 
2460	 0.112812966354899 
2461	 0.112811070083221 
2462	 0.112848754543971 
2463	 0.1125133131058 
2464	 0.111906169002888 
2465	 0.111605387289083 
2466	 0.111128030882456 
2467	 0.110286797012578 
2468	 0.109770729705177 
2469	 0.109631009524677 
2470	 0.109562647315604 
2471	 0.109624177243041 
2472	 0.109694027513924 
2473	 0.109275120852294 
2474	 0.108818782466661 
2475	 0.108718348600302 
2476	 0.108792888717256 
2477	 0.108914895205105 
2478	 0.108559724070362 
2479	 0.108163435679255 
2480	 0.108254070803932 
2481	 0.108104471912797 
2482	 0.108094961177819 
2483	 0.107720976320354 
2484	 0.107726663304095 
2485	 0.107721883211544 
2486	 0.107684672977464 
2487	 0.107820262521698 
2488	 0.107720431426988 
2489	 0.107728662548374 
2490	 0.107563614731243 
2491	 0.107462043787718 
2492	 0.107656348883989 
2493	 0.107418497690256 
2494	 0.10782642823368 
2495	 0.108604122891689 
2496	 0.108548410854997 
2497	 0.108417700507818 
2498	 0.108304213194662 
2499	 0.108072452674689 
2500	 0.108179585794501 
