Wavelength	spectrum00000.asd
350	 0.123792646975031 
351	 0.119925018732627 
352	 0.117048440209501 
353	 0.118007128324689 
354	 0.120377918864565 
355	 0.121163129008969 
356	 0.120343488451137 
357	 0.118697228914002 
358	 0.11648728672995 
359	 0.116197077581622 
360	 0.117326734894861 
361	 0.11779467318002 
362	 0.115872287474297 
363	 0.117087147669669 
364	 0.120839785288026 
365	 0.117978457542002 
366	 0.119357619065501 
367	 0.122429543555223 
368	 0.123525208571198 
369	 0.126752497902062 
370	 0.126720018456908 
371	 0.126022072686234 
372	 0.130759959697048 
373	 0.134972945331622 
374	 0.135466770470623 
375	 0.133793598269991 
376	 0.137623763413874 
377	 0.13972864434156 
378	 0.141382680149586 
379	 0.144681319966501 
380	 0.146719858125721 
381	 0.148177383906405 
382	 0.149673193121363 
383	 0.151689455909955 
384	 0.15359838292549 
385	 0.156001105787328 
386	 0.158901297723598 
387	 0.161194945919772 
388	 0.163444324295548 
389	 0.166230933077296 
390	 0.169502833367114 
391	 0.170847575573232 
392	 0.173271495097305 
393	 0.176249476700943 
394	 0.177182896804543 
395	 0.178253395024641 
396	 0.180876398417283 
397	 0.184454815720919 
398	 0.185176396078598 
399	 0.188660542534073 
400	 0.192708960958938 
401	 0.194354931040579 
402	 0.197385613439783 
403	 0.200019450923178 
404	 0.20195780929576 
405	 0.204178936387572 
406	 0.207617736748394 
407	 0.210583409153775 
408	 0.212534886054827 
409	 0.215943573929415 
410	 0.218806217276544 
411	 0.221347335787139 
412	 0.224228962662693 
413	 0.226437584946003 
414	 0.228988861940599 
415	 0.232098079121315 
416	 0.235178748203331 
417	 0.237881832123664 
418	 0.240848417123964 
419	 0.244221603924716 
420	 0.246510232751566 
421	 0.249102496369317 
422	 0.251955355812638 
423	 0.254573822362262 
424	 0.257589310989139 
425	 0.260970805193294 
426	 0.264219169495689 
427	 0.266397410604071 
428	 0.269097955328664 
429	 0.272153515978607 
430	 0.275088875209265 
431	 0.277792018137039 
432	 0.280527519803868 
433	 0.283414045166626 
434	 0.286450940084943 
435	 0.289414490068081 
436	 0.292348406424893 
437	 0.295226560306681 
438	 0.297842831820237 
439	 0.300666732775138 
440	 0.303602618700231 
441	 0.306438524689205 
442	 0.309249539802944 
443	 0.312167417694245 
444	 0.315090660217409 
445	 0.317779675276567 
446	 0.320754036347754 
447	 0.323769562092432 
448	 0.326609514254054 
449	 0.329362677770833 
450	 0.332283464045519 
451	 0.335445581927623 
452	 0.338723877119063 
453	 0.341451064212104 
454	 0.343916516129636 
455	 0.346505342952925 
456	 0.349609566456443 
457	 0.352559813316576 
458	 0.355318376726738 
459	 0.358035019210547 
460	 0.360958087320888 
461	 0.363708292707318 
462	 0.366382612284227 
463	 0.369282463884907 
464	 0.371875117501322 
465	 0.3744615380927 
466	 0.37720736664308 
467	 0.379910916232303 
468	 0.382863583028074 
469	 0.38575628580612 
470	 0.38830747634217 
471	 0.391150608058453 
472	 0.393619205841599 
473	 0.395844731627313 
474	 0.398561134140619 
475	 0.401022382793518 
476	 0.403526557357449 
477	 0.406299883379871 
478	 0.409066901469741 
479	 0.411611562375417 
480	 0.414002744348609 
481	 0.416424672193545 
482	 0.41882844930333 
483	 0.421499061360447 
484	 0.424278050007738 
485	 0.426498760386123 
486	 0.428801926108481 
487	 0.431240762889312 
488	 0.433699298500329 
489	 0.436005650017504 
490	 0.438259311013082 
491	 0.440511466660923 
492	 0.442797858247726 
493	 0.445267669382738 
494	 0.447716014567253 
495	 0.449983629800613 
496	 0.452024875451269 
497	 0.454384486372625 
498	 0.456814804219443 
499	 0.458932901157191 
500	 0.461005927909312 
501	 0.46323616393355 
502	 0.465545622765299 
503	 0.46762604154618 
504	 0.469552013621005 
505	 0.471580132375304 
506	 0.473786918945883 
507	 0.475738258011277 
508	 0.477738488380858 
509	 0.479673084828838 
510	 0.48135122432234 
511	 0.483406098530848 
512	 0.485550798908821 
513	 0.487526261497937 
514	 0.489224540221618 
515	 0.491016655218308 
516	 0.492888908152542 
517	 0.494748602225692 
518	 0.496618686098492 
519	 0.498479188962598 
520	 0.500330281547247 
521	 0.502171488307251 
522	 0.503833187489964 
523	 0.505576155387395 
524	 0.507493476995297 
525	 0.509235490576829 
526	 0.511014842858641 
527	 0.512743100190349 
528	 0.51430128222128 
529	 0.515991036994937 
530	 0.517584923218312 
531	 0.519133102843474 
532	 0.520994106074874 
533	 0.522683796954857 
534	 0.524320996171196 
535	 0.526043617518059 
536	 0.527641645243925 
537	 0.529183041928427 
538	 0.530686630646693 
539	 0.532171874796467 
540	 0.533909307731716 
541	 0.535570530857831 
542	 0.537024607849507 
543	 0.538561452888632 
544	 0.540141567854899 
545	 0.541685587405113 
546	 0.543138759700665 
547	 0.544656365185792 
548	 0.546211369940426 
549	 0.547828782535025 
550	 0.549569827206504 
551	 0.551207656598667 
552	 0.552687987331612 
553	 0.554076290514352 
554	 0.555637856024784 
555	 0.557106307209143 
556	 0.558482475273551 
557	 0.559874148802241 
558	 0.561207171114975 
559	 0.562330750287219 
560	 0.563281237043541 
561	 0.564364928942822 
562	 0.565359098687423 
563	 0.566030887885264 
564	 0.566281626874885 
565	 0.566495188368971 
566	 0.566542463939161 
567	 0.56656733507344 
568	 0.566930029918093 
569	 0.567862233908599 
570	 0.569579794330151 
571	 0.572066604343174 
572	 0.574883607069504 
573	 0.578291713737577 
574	 0.582028750645757 
575	 0.585381353236681 
576	 0.586433114876301 
577	 0.585905241893406 
578	 0.584551715345177 
579	 0.582923720723003 
580	 0.582074129199759 
581	 0.582223196832583 
582	 0.5834994336979 
583	 0.586812880541658 
584	 0.589735147937851 
585	 0.5918832983571 
586	 0.594070166058276 
587	 0.59526561161236 
588	 0.595983200960013 
589	 0.596720589005167 
590	 0.597538511899608 
591	 0.599850033606101 
592	 0.602840761525629 
593	 0.605179254991868 
594	 0.606939520307057 
595	 0.607940343240712 
596	 0.607941147015402 
597	 0.60673264282246 
598	 0.605400161894114 
599	 0.604947381168728 
600	 0.605746456575383 
601	 0.606923157252263 
602	 0.608225567943958 
603	 0.609743786191469 
604	 0.611647015859803 
605	 0.613334773119815 
606	 0.614638117221839 
607	 0.615745354985174 
608	 0.617218376473584 
609	 0.618398355214861 
610	 0.61936521612216 
611	 0.620369152682079 
612	 0.621581274159755 
613	 0.622567475526479 
614	 0.623361300866736 
615	 0.624300226580483 
616	 0.625338479510876 
617	 0.626429141572898 
618	 0.62748472929765 
619	 0.628357052186776 
620	 0.629186896623744 
621	 0.630092772599314 
622	 0.631104575372696 
623	 0.631865198210283 
624	 0.632757840266387 
625	 0.633813995296944 
626	 0.634719609884838 
627	 0.635715575399587 
628	 0.636575368383828 
629	 0.637224314205973 
630	 0.638182708596435 
631	 0.639100795863508 
632	 0.639932212094183 
633	 0.640779566819662 
634	 0.6418098815626 
635	 0.642788222770761 
636	 0.643587347285753 
637	 0.644257378041696 
638	 0.645019892275127 
639	 0.645943469774347 
640	 0.646951064951656 
641	 0.647664639498456 
642	 0.648339324527098 
643	 0.649154220599646 
644	 0.650170864604161 
645	 0.650846480381029 
646	 0.65151603255178 
647	 0.652372012568287 
648	 0.653193295379406 
649	 0.654006017449104 
650	 0.654779320404812 
651	 0.65550899532226 
652	 0.656366899599654 
653	 0.657065757597208 
654	 0.657660457235066 
655	 0.658466454309782 
656	 0.659231908412575 
657	 0.659870248091123 
658	 0.660457015335681 
659	 0.661364346954398 
660	 0.662283201468966 
661	 0.663014633868273 
662	 0.66347792189807 
663	 0.663935338591182 
664	 0.664792705153069 
665	 0.665815644252288 
666	 0.666182845795155 
667	 0.666897111290521 
668	 0.667666472643463 
669	 0.668181647204795 
670	 0.66875569288366 
671	 0.669423427543135 
672	 0.670140889484947 
673	 0.670821159070236 
674	 0.671449885130282 
675	 0.671889924968101 
676	 0.672276387484964 
677	 0.673062112367828 
678	 0.673800832111636 
679	 0.674431782494654 
680	 0.675008947912973 
681	 0.675643172719107 
682	 0.676274010798253 
683	 0.676769276398285 
684	 0.677035664455594 
685	 0.677575879441933 
686	 0.678207564798425 
687	 0.678808190354168 
688	 0.67945366981036 
689	 0.679948691616399 
690	 0.680290492255056 
691	 0.680590192655292 
692	 0.681132392955139 
693	 0.681692065278444 
694	 0.682302503212545 
695	 0.683099945387567 
696	 0.683560188262487 
697	 0.683927924384148 
698	 0.684382432637176 
699	 0.68484535495631 
700	 0.685384562374482 
701	 0.685897468000509 
702	 0.686282897123493 
703	 0.686588459413403 
704	 0.687233631504269 
705	 0.688035452165268 
706	 0.688436201121191 
707	 0.688682950442836 
708	 0.689003189399207 
709	 0.689542499764821 
710	 0.690339436557759 
711	 0.690761338820194 
712	 0.690943730480071 
713	 0.691237855073091 
714	 0.691772193959187 
715	 0.692385011526376 
716	 0.692915014270918 
717	 0.693239594796628 
718	 0.693531659173252 
719	 0.693868048080851 
720	 0.694305905695653 
721	 0.694914678314441 
722	 0.695201961370316 
723	 0.695439264234447 
724	 0.695983767951512 
725	 0.696564304400013 
726	 0.696850567061762 
727	 0.696959158060124 
728	 0.697306046995535 
729	 0.697874703574357 
730	 0.698234565606339 
731	 0.698300217352635 
732	 0.698622550294223 
733	 0.699146351562144 
734	 0.699670902580994 
735	 0.700027230839508 
736	 0.700387401401743 
737	 0.700729695479187 
738	 0.70113016257943 
739	 0.701663431456163 
740	 0.701794839933657 
741	 0.701852905695759 
742	 0.702061235288348 
743	 0.702316313618391 
744	 0.702865298422912 
745	 0.703225419132601 
746	 0.703096656187029 
747	 0.703451608835225 
748	 0.703798248980053 
749	 0.70402818506206 
750	 0.70428930477475 
751	 0.704842664805615 
752	 0.705384699586574 
753	 0.705649911897001 
754	 0.705520012041775 
755	 0.706201979762532 
756	 0.706950430624302 
757	 0.707063187650284 
758	 0.707341374843959 
759	 0.707679650658542 
760	 0.707821339997062 
761	 0.70763951465213 
762	 0.70834975808984 
763	 0.709114753497756 
764	 0.709407551772741 
765	 0.709261185580933 
766	 0.709474757932806 
767	 0.709889448585223 
768	 0.710221109396029 
769	 0.710370874548938 
770	 0.71050216333525 
771	 0.71075191257081 
772	 0.711179174057949 
773	 0.711583030692784 
774	 0.711674966801278 
775	 0.711681969261397 
776	 0.712170341958907 
777	 0.712531036582478 
778	 0.71273042514017 
779	 0.712895194411199 
780	 0.7132704257728 
781	 0.713562519824344 
782	 0.713874739479032 
783	 0.714275908212681 
784	 0.714308576421502 
785	 0.714285221334162 
786	 0.714317034680379 
787	 0.71445716653719 
788	 0.715342172203305 
789	 0.715838497562832 
790	 0.715601403366266 
791	 0.715429761836128 
792	 0.716089423020864 
793	 0.716654633639961 
794	 0.716509709839801 
795	 0.716718530561013 
796	 0.71672847774975 
797	 0.716769609815542 
798	 0.717171288239046 
799	 0.717380572307996 
800	 0.717530662392206 
801	 0.71765981251311 
802	 0.71774035711805 
803	 0.718054051385801 
804	 0.718327979889243 
805	 0.71845445733908 
806	 0.718681624629775 
807	 0.718733391781468 
808	 0.718752864942342 
809	 0.718914226601276 
810	 0.719179170706192 
811	 0.719335075221577 
812	 0.71950616027477 
813	 0.719874556575539 
814	 0.71999393693086 
815	 0.720195194948202 
816	 0.720399235900239 
817	 0.720202224370988 
818	 0.720267724760083 
819	 0.720698174837338 
820	 0.721209922160609 
821	 0.721070284568504 
822	 0.720947185762044 
823	 0.72118542415685 
824	 0.721721647641993 
825	 0.721520530112 
826	 0.72166624376539 
827	 0.72212772381679 
828	 0.722355666669965 
829	 0.722111494003334 
830	 0.722298614629379 
831	 0.72278253284978 
832	 0.722588126354581 
833	 0.722699233181023 
834	 0.722990143883901 
835	 0.723326983124811 
836	 0.723816642593588 
837	 0.723977329982894 
838	 0.723995028849719 
839	 0.724141985398025 
840	 0.7244609187001 
841	 0.724336602465685 
842	 0.724019155542515 
843	 0.724051416073843 
844	 0.724428292872589 
845	 0.724828063568507 
846	 0.725037833356024 
847	 0.724993495637617 
848	 0.724886499915697 
849	 0.725124750539489 
850	 0.725562178194387 
851	 0.725391193378882 
852	 0.72494842661029 
853	 0.724962862205769 
854	 0.725628917009038 
855	 0.725890846620594 
856	 0.725894593682056 
857	 0.725706170409545 
858	 0.725468168349371 
859	 0.725519149302652 
860	 0.725789520617072 
861	 0.726064935108109 
862	 0.726117772726315 
863	 0.726109044558409 
864	 0.726128214618996 
865	 0.726143499256923 
866	 0.726060182842479 
867	 0.7261868794052 
868	 0.726778243875481 
869	 0.727389112183872 
870	 0.726752946314023 
871	 0.72661848859233 
872	 0.726837343920882 
873	 0.726966785095967 
874	 0.726874278897423 
875	 0.727122516761321 
876	 0.727229801588788 
877	 0.726837375727675 
878	 0.727240077748574 
879	 0.727527988057115 
880	 0.727536884507518 
881	 0.727517818332867 
882	 0.727742517644931 
883	 0.727757647073513 
884	 0.727542295837932 
885	 0.727432206582613 
886	 0.727502260325003 
887	 0.72736801015705 
888	 0.727185251098793 
889	 0.727685173480424 
890	 0.727698293073093 
891	 0.727477738964821 
892	 0.727423356489905 
893	 0.7277063474937 
894	 0.727795991220374 
895	 0.72761463378115 
896	 0.727339701899298 
897	 0.72748457505232 
898	 0.727201456861815 
899	 0.726702517324253 
900	 0.726522492787952 
901	 0.726910569500921 
902	 0.727117945666572 
903	 0.726997248677907 
904	 0.726725296685508 
905	 0.726200799206152 
906	 0.72620310456332 
907	 0.726484728608787 
908	 0.726190510553927 
909	 0.726075668340873 
910	 0.726042147338829 
911	 0.725899298925257 
912	 0.725478089734011 
913	 0.724830801573745 
914	 0.724875919173963 
915	 0.72556816008826 
916	 0.725469306595546 
917	 0.724907949683177 
918	 0.724794596520539 
919	 0.725338382766146 
920	 0.725253821988698 
921	 0.72566664051441 
922	 0.725800868070737 
923	 0.725170768110585 
924	 0.725204250497024 
925	 0.725614818288899 
926	 0.726101200909315 
927	 0.726324792898657 
928	 0.725959529064762 
929	 0.72556965586175 
930	 0.725617291989348 
931	 0.726282143480772 
932	 0.726964309232308 
933	 0.727358981522523 
934	 0.727559866710637 
935	 0.727786466738335 
936	 0.727522531197833 
937	 0.72762401247882 
938	 0.728372935728306 
939	 0.729403949685635 
940	 0.729574636945229 
941	 0.728982798782291 
942	 0.728596939337292 
943	 0.729610335303514 
944	 0.729787790320161 
945	 0.729753929299704 
946	 0.729905454403534 
947	 0.730060727813126 
948	 0.730613377515144 
949	 0.730836914642469 
950	 0.730608651611139 
951	 0.730717098273955 
952	 0.730895417958284 
953	 0.731049588091096 
954	 0.731019942106485 
955	 0.730572452536055 
956	 0.730383780074777 
957	 0.730647679690041 
958	 0.731015786482122 
959	 0.730500403652997 
960	 0.729729111275194 
961	 0.729588570303825 
962	 0.729983372218095 
963	 0.72888131662452 
964	 0.728578746086076 
965	 0.728731070043122 
966	 0.728696732103428 
967	 0.728799903768511 
968	 0.728962723518088 
969	 0.728790190680498 
970	 0.728234827373675 
971	 0.7282759069695 
972	 0.728639012987716 
973	 0.728727072010661 
974	 0.728278550689966 
975	 0.728240302105747 
976	 0.727990519214216 
977	 0.727926143123322 
978	 0.72832927479574 
979	 0.72821087198071 
980	 0.727831343075956 
981	 0.72755126905097 
982	 0.727554610937624 
983	 0.727254670205461 
984	 0.727697106116451 
985	 0.728134395223412 
986	 0.727757175567915 
987	 0.727740504848472 
988	 0.727896609157101 
989	 0.727927229500684 
990	 0.727629031775099 
991	 0.727245542938691 
992	 0.727427492063726 
993	 0.727884951898306 
994	 0.728045360580805 
995	 0.727686045789585 
996	 0.727976703102422 
997	 0.728475983710874 
998	 0.728490489030387 
999	 0.728718838371118 
1000	 0.728162503475142 
1001	 0.739615817529897 
1002	 0.739744129358404 
1003	 0.739890510134001 
1004	 0.740029532836814 
1005	 0.740218390702872 
1006	 0.740258063773983 
1007	 0.740139869983723 
1008	 0.740262182278167 
1009	 0.740480746259291 
1010	 0.740554156285337 
1011	 0.74071897801639 
1012	 0.740827644527476 
1013	 0.740669558916489 
1014	 0.740721311834082 
1015	 0.740920955484772 
1016	 0.741148950338551 
1017	 0.741289328179469 
1018	 0.741528691355579 
1019	 0.741650700956931 
1020	 0.741687899335535 
1021	 0.741852486273407 
1022	 0.74210529824614 
1023	 0.742209644015319 
1024	 0.742401273330908 
1025	 0.742437680430842 
1026	 0.742254033711014 
1027	 0.742195142341455 
1028	 0.742190608611057 
1029	 0.742010407068794 
1030	 0.741897676777163 
1031	 0.741939392610766 
1032	 0.741924248346668 
1033	 0.741921212156002 
1034	 0.741936531495883 
1035	 0.741797395197057 
1036	 0.741653310435021 
1037	 0.741405781406969 
1038	 0.741266307034921 
1039	 0.741121155230129 
1040	 0.741020174577768 
1041	 0.741006598864685 
1042	 0.740922117292471 
1043	 0.740780036113505 
1044	 0.740733112428411 
1045	 0.740757838366362 
1046	 0.740706589254369 
1047	 0.740702808191102 
1048	 0.7406969530088 
1049	 0.740602507292693 
1050	 0.740500204194418 
1051	 0.740449949124698 
1052	 0.740497603177567 
1053	 0.740534139221477 
1054	 0.740612841483653 
1055	 0.740653789966882 
1056	 0.740655917149261 
1057	 0.740720581761604 
1058	 0.74077219337982 
1059	 0.740904376122285 
1060	 0.741105773972346 
1061	 0.741358344681067 
1062	 0.741594550121687 
1063	 0.741812866041855 
1064	 0.742091209165501 
1065	 0.742395467290555 
1066	 0.742670682616071 
1067	 0.742990186998929 
1068	 0.743456450966872 
1069	 0.74389126486622 
1070	 0.744292929640739 
1071	 0.744709618408988 
1072	 0.745178249580887 
1073	 0.745497999193177 
1074	 0.745927364050368 
1075	 0.746494562669211 
1076	 0.747040782535889 
1077	 0.747747772111846 
1078	 0.748461899162903 
1079	 0.749140721434171 
1080	 0.749904458745621 
1081	 0.750589711771487 
1082	 0.75120715687876 
1083	 0.751850763258286 
1084	 0.752483477402134 
1085	 0.753170432479902 
1086	 0.753798193017281 
1087	 0.75440707786425 
1088	 0.754990941098684 
1089	 0.755619393984623 
1090	 0.75613646792064 
1091	 0.756718836517166 
1092	 0.757261622749611 
1093	 0.757638495888928 
1094	 0.758093933176603 
1095	 0.758506314285459 
1096	 0.758878680185626 
1097	 0.759279247074665 
1098	 0.75959109296824 
1099	 0.7598817122426 
1100	 0.760107588421757 
1101	 0.760284492551137 
1102	 0.760449496819774 
1103	 0.760524488736599 
1104	 0.760517293766488 
1105	 0.760475510824158 
1106	 0.760414106260266 
1107	 0.760283517416546 
1108	 0.760131005192614 
1109	 0.760029343738782 
1110	 0.759814898294301 
1111	 0.759528269358805 
1112	 0.759298028629996 
1113	 0.758968499095704 
1114	 0.758627657947527 
1115	 0.758298199943055 
1116	 0.757871958104728 
1117	 0.757419287466523 
1118	 0.756965917790175 
1119	 0.756528117958262 
1120	 0.756025820327266 
1121	 0.755490610043394 
1122	 0.754918543703216 
1123	 0.754373843745333 
1124	 0.753797397322662 
1125	 0.753251247582893 
1126	 0.752763645098572 
1127	 0.752174088275365 
1128	 0.751511641929058 
1129	 0.750867853215624 
1130	 0.750104305339787 
1131	 0.749312475098233 
1132	 0.748596855510061 
1133	 0.747844338098116 
1134	 0.747120708169318 
1135	 0.746344147359627 
1136	 0.74552989031941 
1137	 0.744726807266025 
1138	 0.743925423124017 
1139	 0.743048417674548 
1140	 0.742142707561637 
1141	 0.741266827544673 
1142	 0.740273229779351 
1143	 0.739308927209793 
1144	 0.738396245981589 
1145	 0.737407314621149 
1146	 0.736424177757788 
1147	 0.735371288478531 
1148	 0.73429217551711 
1149	 0.7332569728691 
1150	 0.7322007183911 
1151	 0.731233245893136 
1152	 0.730210039326322 
1153	 0.729182334406937 
1154	 0.728119495905509 
1155	 0.727033799058769 
1156	 0.725902498832047 
1157	 0.72474796566661 
1158	 0.723604840403297 
1159	 0.722429232489733 
1160	 0.721256365227355 
1161	 0.720080236489522 
1162	 0.718800609670924 
1163	 0.7175328435921 
1164	 0.716234003352957 
1165	 0.714992472719861 
1166	 0.713847122670816 
1167	 0.712699501312315 
1168	 0.71161523262607 
1169	 0.710498235654348 
1170	 0.709376214785492 
1171	 0.708259775833682 
1172	 0.707155372254357 
1173	 0.706003027417977 
1174	 0.704834696547722 
1175	 0.703675535981392 
1176	 0.702498625115299 
1177	 0.701316473125732 
1178	 0.700139380330896 
1179	 0.698929966242514 
1180	 0.697773528666943 
1181	 0.696584183906482 
1182	 0.695444854072332 
1183	 0.694426871767928 
1184	 0.693331976218583 
1185	 0.692307994992829 
1186	 0.691349617713879 
1187	 0.690414299293669 
1188	 0.689543797599133 
1189	 0.688752265798153 
1190	 0.688012700970083 
1191	 0.687329176355207 
1192	 0.686706554576854 
1193	 0.686162301564606 
1194	 0.685633112009827 
1195	 0.685150856577087 
1196	 0.684681665834266 
1197	 0.684231018280184 
1198	 0.683818753655202 
1199	 0.68343635548236 
1200	 0.683165649201161 
1201	 0.682973236558835 
1202	 0.682849553290267 
1203	 0.682804023657564 
1204	 0.682854350690757 
1205	 0.682988660742101 
1206	 0.683200547327884 
1207	 0.68352851726862 
1208	 0.683913448160422 
1209	 0.684462513283805 
1210	 0.685086664236483 
1211	 0.685950257451727 
1212	 0.687000309831198 
1213	 0.688217969624126 
1214	 0.689645442168654 
1215	 0.691205929516909 
1216	 0.692986341164995 
1217	 0.694778959531229 
1218	 0.696729429110081 
1219	 0.698696554880048 
1220	 0.700685811488713 
1221	 0.702800087612517 
1222	 0.704810694571337 
1223	 0.706863760087712 
1224	 0.708820011160525 
1225	 0.710700736132864 
1226	 0.712521816700921 
1227	 0.714313920260896 
1228	 0.716024586474182 
1229	 0.717696331334882 
1230	 0.71923869819433 
1231	 0.720707424834894 
1232	 0.722077507800763 
1233	 0.723271999044594 
1234	 0.724464472224542 
1235	 0.725585283744731 
1236	 0.726686839626671 
1237	 0.727779415303892 
1238	 0.728798142398434 
1239	 0.72976221600604 
1240	 0.730695927355734 
1241	 0.731550936595469 
1242	 0.732297535726671 
1243	 0.733023184301062 
1244	 0.733691853300554 
1245	 0.734316861563864 
1246	 0.734865974671329 
1247	 0.735445296885362 
1248	 0.736014251038061 
1249	 0.736524865589773 
1250	 0.737042717687201 
1251	 0.737471245073458 
1252	 0.737846293803686 
1253	 0.738140335991512 
1254	 0.738367142572721 
1255	 0.738538194044428 
1256	 0.738599007914101 
1257	 0.738656190783548 
1258	 0.738666534736038 
1259	 0.738668173704303 
1260	 0.738641214434417 
1261	 0.738597584920439 
1262	 0.738524624702151 
1263	 0.738451932292593 
1264	 0.738378370871481 
1265	 0.738276221784582 
1266	 0.738226102100112 
1267	 0.738174543788819 
1268	 0.738190821980173 
1269	 0.738261404801556 
1270	 0.738326162509881 
1271	 0.738430518247455 
1272	 0.738539786086239 
1273	 0.738657391125405 
1274	 0.738780412177894 
1275	 0.738915095833214 
1276	 0.739072492731679 
1277	 0.739229106946923 
1278	 0.739414995507667 
1279	 0.739663686124164 
1280	 0.739876108362975 
1281	 0.740064463343076 
1282	 0.740283223224738 
1283	 0.740496430234983 
1284	 0.740729973482597 
1285	 0.740983801783329 
1286	 0.741266294137007 
1287	 0.741565409605595 
1288	 0.741882407782387 
1289	 0.742204372799592 
1290	 0.742549325392626 
1291	 0.742902412835868 
1292	 0.743254627889417 
1293	 0.743628975764065 
1294	 0.743993770440425 
1295	 0.744447266279154 
1296	 0.744943672002058 
1297	 0.745468485297606 
1298	 0.746076951810273 
1299	 0.746674996799886 
1300	 0.747306097238588 
1301	 0.747905674722917 
1302	 0.748536260611327 
1303	 0.749117815147533 
1304	 0.74962987111366 
1305	 0.750171506015881 
1306	 0.750726446103436 
1307	 0.751248462876508 
1308	 0.751758325762282 
1309	 0.752274867276965 
1310	 0.752735002381486 
1311	 0.753159146132461 
1312	 0.753541954091226 
1313	 0.753897647779805 
1314	 0.754200856836342 
1315	 0.75446457594202 
1316	 0.754663860886654 
1317	 0.754800488584621 
1318	 0.754923620556787 
1319	 0.755002515674304 
1320	 0.755041307225901 
1321	 0.755088039906416 
1322	 0.755027431010663 
1323	 0.754908905137642 
1324	 0.754705517173537 
1325	 0.754404224547359 
1326	 0.754077043700971 
1327	 0.753698859857128 
1328	 0.75325678138751 
1329	 0.752786255134152 
1330	 0.752239014702161 
1331	 0.751640031920165 
1332	 0.75095263461162 
1333	 0.750191469682592 
1334	 0.749357636648265 
1335	 0.748503988849406 
1336	 0.747595655526815 
1337	 0.746610613893712 
1338	 0.745598497906625 
1339	 0.744510434241109 
1340	 0.743343171152109 
1341	 0.742124205745789 
1342	 0.740857451502916 
1343	 0.739546888185822 
1344	 0.738178630699698 
1345	 0.736749191942391 
1346	 0.735262032436398 
1347	 0.733776897291925 
1348	 0.732216489181251 
1349	 0.730686606701389 
1350	 0.729174152270551 
1351	 0.727639460804385 
1352	 0.726078601560463 
1353	 0.724525431870066 
1354	 0.722947810924917 
1355	 0.721411646882471 
1356	 0.719877806243496 
1357	 0.718373197335398 
1358	 0.716903458781882 
1359	 0.71543799160871 
1360	 0.713993341260234 
1361	 0.712550552604651 
1362	 0.711077653978858 
1363	 0.709712954899317 
1364	 0.708297001419028 
1365	 0.706909637632053 
1366	 0.705451025516479 
1367	 0.703975102536677 
1368	 0.702457009965861 
1369	 0.700916979575368 
1370	 0.699286528305667 
1371	 0.697591588161829 
1372	 0.695903966961242 
1373	 0.694170345965448 
1374	 0.692386372498689 
1375	 0.690574872891164 
1376	 0.68872951143093 
1377	 0.686825886622537 
1378	 0.684855185722655 
1379	 0.682839633536668 
1380	 0.680811438516716 
1381	 0.678688956257538 
1382	 0.676585823248251 
1383	 0.674475536981369 
1384	 0.672383516041812 
1385	 0.670276524956088 
1386	 0.668189749459277 
1387	 0.666083129941582 
1388	 0.66408721110825 
1389	 0.66212147493716 
1390	 0.660219215632616 
1391	 0.658474543422216 
1392	 0.656651023699445 
1393	 0.654906021585443 
1394	 0.65313820548322 
1395	 0.651280353860452 
1396	 0.649443595838374 
1397	 0.647417587531643 
1398	 0.645332014855513 
1399	 0.642993529666606 
1400	 0.640515421030352 
1401	 0.637812451404606 
1402	 0.634922290096857 
1403	 0.631774503662215 
1404	 0.62834489718478 
1405	 0.624913560902758 
1406	 0.621207344269257 
1407	 0.617602091082736 
1408	 0.613849278451939 
1409	 0.610365497561376 
1410	 0.60676259234902 
1411	 0.603641133088974 
1412	 0.6007272503713 
1413	 0.598264790736363 
1414	 0.596224182176621 
1415	 0.594396351536996 
1416	 0.59303516810423 
1417	 0.591712923279805 
1418	 0.590653197059187 
1419	 0.589590225132052 
1420	 0.588711950858027 
1421	 0.587770367966362 
1422	 0.586779341095725 
1423	 0.585882673427614 
1424	 0.585029612484012 
1425	 0.584159442844745 
1426	 0.583467355923992 
1427	 0.582834866688121 
1428	 0.582238947928761 
1429	 0.581745174182468 
1430	 0.581277275878392 
1431	 0.58085790807947 
1432	 0.580491222301461 
1433	 0.580170356058041 
1434	 0.579923682114565 
1435	 0.579741299938397 
1436	 0.579597748259527 
1437	 0.579514081099175 
1438	 0.579486177919249 
1439	 0.579493071705023 
1440	 0.57957684315116 
1441	 0.579747969449323 
1442	 0.579939065633406 
1443	 0.580194813494405 
1444	 0.580454267876538 
1445	 0.580741504732127 
1446	 0.581056698372142 
1447	 0.581396430786948 
1448	 0.581759155120918 
1449	 0.582172512026099 
1450	 0.582570852054197 
1451	 0.582998513807158 
1452	 0.583390638349547 
1453	 0.583740680505318 
1454	 0.584131953925838 
1455	 0.584534570578159 
1456	 0.584926885297222 
1457	 0.585336562011468 
1458	 0.585756925858136 
1459	 0.586159310647779 
1460	 0.586579807025431 
1461	 0.587043936982823 
1462	 0.58748239510214 
1463	 0.58789584718491 
1464	 0.588331328712491 
1465	 0.588781175065398 
1466	 0.589209409228823 
1467	 0.589668134667894 
1468	 0.590166968167419 
1469	 0.590647858304761 
1470	 0.591117145025127 
1471	 0.591561302247154 
1472	 0.591999658113943 
1473	 0.592379300462495 
1474	 0.592729466079794 
1475	 0.593045895401738 
1476	 0.593306785660592 
1477	 0.593576535228884 
1478	 0.593824954260301 
1479	 0.594064376613188 
1480	 0.594303979244835 
1481	 0.594501265388653 
1482	 0.59468421387878 
1483	 0.594822972078371 
1484	 0.594904461959509 
1485	 0.595006109691082 
1486	 0.59508327427573 
1487	 0.595160828471639 
1488	 0.595242764053106 
1489	 0.595315470396532 
1490	 0.595341142239151 
1491	 0.595441931428176 
1492	 0.595571038732543 
1493	 0.595718336866086 
1494	 0.595924444237279 
1495	 0.596107444568369 
1496	 0.596279107227418 
1497	 0.59647935930937 
1498	 0.596690757934832 
1499	 0.596918616563043 
1500	 0.5971480153016 
1501	 0.597427266422956 
1502	 0.59773610453728 
1503	 0.598064199093153 
1504	 0.598458905169857 
1505	 0.598826697643121 
1506	 0.599183119401216 
1507	 0.599561232371015 
1508	 0.599930384848452 
1509	 0.600331641932027 
1510	 0.600789544630386 
1511	 0.601210682567111 
1512	 0.601608712314728 
1513	 0.602042323442797 
1514	 0.602471856737822 
1515	 0.602915608384467 
1516	 0.603428189564 
1517	 0.603894633986628 
1518	 0.604321847168908 
1519	 0.604759270864799 
1520	 0.605191528715336 
1521	 0.605609101479788 
1522	 0.605993550255211 
1523	 0.606436737614297 
1524	 0.606878979869044 
1525	 0.607307323464085 
1526	 0.607789284868874 
1527	 0.608311158762628 
1528	 0.608848251341647 
1529	 0.609430367238088 
1530	 0.609951043045147 
1531	 0.610482449306771 
1532	 0.610978271511595 
1533	 0.611399352536174 
1534	 0.611913386619674 
1535	 0.612466632000203 
1536	 0.612995055267368 
1537	 0.613556675896592 
1538	 0.61408319234147 
1539	 0.614577781056225 
1540	 0.615091514153734 
1541	 0.615636309159339 
1542	 0.616105718511775 
1543	 0.616565344804856 
1544	 0.616953089823996 
1545	 0.617270846999302 
1546	 0.617575401568452 
1547	 0.617842736306822 
1548	 0.618077841325067 
1549	 0.618279435323879 
1550	 0.618453080977244 
1551	 0.618581264358376 
1552	 0.618706032364385 
1553	 0.618818762893514 
1554	 0.618894167429472 
1555	 0.618924311197297 
1556	 0.618981633306214 
1557	 0.619013135932616 
1558	 0.619067399483117 
1559	 0.61913272866869 
1560	 0.619225003093659 
1561	 0.619307199070384 
1562	 0.619448404172106 
1563	 0.619655223768147 
1564	 0.619843821258565 
1565	 0.620048267468979 
1566	 0.620270474118698 
1567	 0.620503525050703 
1568	 0.620741273892822 
1569	 0.621006091310373 
1570	 0.621262457052743 
1571	 0.621490719579006 
1572	 0.621770122627945 
1573	 0.622085854240471 
1574	 0.622395846301091 
1575	 0.622757168632277 
1576	 0.623066179195132 
1577	 0.623350056489774 
1578	 0.623625625558101 
1579	 0.623883193479258 
1580	 0.624122912759744 
1581	 0.62432687153115 
1582	 0.624562082743459 
1583	 0.624760194627657 
1584	 0.625028803089128 
1585	 0.625387517539815 
1586	 0.625687294352831 
1587	 0.62600513004253 
1588	 0.626295007888521 
1589	 0.626535919427979 
1590	 0.626786472897907 
1591	 0.627026102159316 
1592	 0.627284778422214 
1593	 0.627535781562901 
1594	 0.627807062717216 
1595	 0.62810227388655 
1596	 0.628401582872138 
1597	 0.628737119490557 
1598	 0.629027211849893 
1599	 0.629311115830516 
1600	 0.629575003353192 
1601	 0.629783332585643 
1602	 0.630018103590436 
1603	 0.630245302377278 
1604	 0.630497296031115 
1605	 0.630807867495639 
1606	 0.631046573539221 
1607	 0.631292569821638 
1608	 0.631474730104058 
1609	 0.631596579635293 
1610	 0.631671414085296 
1611	 0.631657467937789 
1612	 0.631684588318121 
1613	 0.631666494194281 
1614	 0.63168481104016 
1615	 0.63176333014106 
1616	 0.631808891478255 
1617	 0.631851223222649 
1618	 0.631876786276334 
1619	 0.631879886530485 
1620	 0.631884345957876 
1621	 0.631901544888772 
1622	 0.631874462100614 
1623	 0.631839949314121 
1624	 0.631767943615411 
1625	 0.631629566515704 
1626	 0.631506163705382 
1627	 0.631365222862461 
1628	 0.631226027341479 
1629	 0.63108800552526 
1630	 0.630944889365127 
1631	 0.630788125407315 
1632	 0.630646404628545 
1633	 0.630532668513172 
1634	 0.630376813790741 
1635	 0.630230936406966 
1636	 0.630033679758814 
1637	 0.629762124262104 
1638	 0.629517925987953 
1639	 0.629267787695378 
1640	 0.628999649067057 
1641	 0.62876726990822 
1642	 0.628452740995212 
1643	 0.628067998165739 
1644	 0.62768922964296 
1645	 0.627249714044101 
1646	 0.626841529664584 
1647	 0.626464655808474 
1648	 0.626045064274397 
1649	 0.625638196543417 
1650	 0.625160229332064 
1651	 0.62464203926625 
1652	 0.624085100820041 
1653	 0.623480644551133 
1654	 0.622831426773505 
1655	 0.622178741117952 
1656	 0.621396491602916 
1657	 0.620563060804523 
1658	 0.619584714128781 
1659	 0.61847163642864 
1660	 0.617283253444721 
1661	 0.616015325660548 
1662	 0.614590814765445 
1663	 0.613029217130999 
1664	 0.611364433019855 
1665	 0.609543064784483 
1666	 0.6076352494114 
1667	 0.605670540641767 
1668	 0.6035692422676 
1669	 0.601375845001605 
1670	 0.59899577808735 
1671	 0.596444806192354 
1672	 0.593763073585534 
1673	 0.590937626976122 
1674	 0.587927512406155 
1675	 0.584778494314263 
1676	 0.581516996668628 
1677	 0.578010372758157 
1678	 0.574536471533059 
1679	 0.570943582760655 
1680	 0.567373658685793 
1681	 0.563804393440621 
1682	 0.560150499523012 
1683	 0.556468569508232 
1684	 0.552790721504843 
1685	 0.549046791061564 
1686	 0.545307892926959 
1687	 0.541524280316042 
1688	 0.537775689780398 
1689	 0.534011093070322 
1690	 0.530259352565457 
1691	 0.526584440038707 
1692	 0.522917520086255 
1693	 0.519263105515352 
1694	 0.515568006613211 
1695	 0.511865433359379 
1696	 0.508109466018746 
1697	 0.504335070327617 
1698	 0.500431410317905 
1699	 0.496479648694849 
1700	 0.492561596534133 
1701	 0.488478950473705 
1702	 0.484614758923993 
1703	 0.480760171084539 
1704	 0.477139598168736 
1705	 0.473638041782934 
1706	 0.470266756195862 
1707	 0.467316501321837 
1708	 0.464462826858601 
1709	 0.461785505527944 
1710	 0.459361230227258 
1711	 0.45692160896608 
1712	 0.454672417697833 
1713	 0.452484835833797 
1714	 0.450275066484876 
1715	 0.448276697616055 
1716	 0.446250021006725 
1717	 0.444285664423806 
1718	 0.442441871949815 
1719	 0.440606291067982 
1720	 0.438950477783048 
1721	 0.437399932563226 
1722	 0.435994021438783 
1723	 0.434913098656028 
1724	 0.434038948152564 
1725	 0.433439812078522 
1726	 0.43327633395713 
1727	 0.433500723820145 
1728	 0.434083736346815 
1729	 0.43512302734974 
1730	 0.43658286254303 
1731	 0.438214911825326 
1732	 0.440196785125723 
1733	 0.442350136425744 
1734	 0.444594872569638 
1735	 0.447010870301893 
1736	 0.449291022702333 
1737	 0.451475547157485 
1738	 0.453483328080814 
1739	 0.455095326937734 
1740	 0.45644264961274 
1741	 0.457495813332745 
1742	 0.458216114829738 
1743	 0.45869125380735 
1744	 0.458841986070034 
1745	 0.458850030968063 
1746	 0.458499279373276 
1747	 0.458181975061537 
1748	 0.457711359517729 
1749	 0.457312303122304 
1750	 0.456834524520427 
1751	 0.456480012874592 
1752	 0.456156100564683 
1753	 0.455919606942444 
1754	 0.455740743393391 
1755	 0.455731881408962 
1756	 0.455770439807856 
1757	 0.45606684948602 
1758	 0.456562972543067 
1759	 0.457257940013406 
1760	 0.458263050261974 
1761	 0.459586346975998 
1762	 0.461076598583534 
1763	 0.462917277066253 
1764	 0.464957025940784 
1765	 0.467152272725302 
1766	 0.469601247050779 
1767	 0.471958000222118 
1768	 0.474426265139174 
1769	 0.47694234005757 
1770	 0.479222522881328 
1771	 0.481579949586629 
1772	 0.483799263400981 
1773	 0.485780056296587 
1774	 0.487839021114423 
1775	 0.489773886566468 
1776	 0.49161596944957 
1777	 0.493337733876219 
1778	 0.494757073377093 
1779	 0.496066710479881 
1780	 0.497231283327715 
1781	 0.498295380881765 
1782	 0.499347298082539 
1783	 0.500238674535447 
1784	 0.501047096118384 
1785	 0.501733962564942 
1786	 0.502325875691549 
1787	 0.502794905937423 
1788	 0.503230538320443 
1789	 0.503561540664001 
1790	 0.503896287214004 
1791	 0.504228786991806 
1792	 0.504480401854949 
1793	 0.50463529752126 
1794	 0.504808986797639 
1795	 0.505013416573664 
1796	 0.505199496324624 
1797	 0.505342499963926 
1798	 0.505425978585508 
1799	 0.50545628448067 
1800	 0.505552710297935 
1801	 0.505988135111501 
1802	 0.506376318324182 
1803	 0.506745017796075 
1804	 0.507106261972937 
1805	 0.507545028387116 
1806	 0.507921640125162 
1807	 0.508273037101228 
1808	 0.508622160594778 
1809	 0.508950891639694 
1810	 0.50929737167372 
1811	 0.50964363026756 
1812	 0.509995445530128 
1813	 0.510374298241481 
1814	 0.51072784425613 
1815	 0.511040683426881 
1816	 0.511390580272013 
1817	 0.511738341111811 
1818	 0.512075375780864 
1819	 0.51242137769739 
1820	 0.51277034312315 
1821	 0.513144202133028 
1822	 0.513508971091522 
1823	 0.513928161599804 
1824	 0.514364025149572 
1825	 0.514785259801239 
1826	 0.515185928342801 
1827	 0.51556128265129 
1828	 0.51594127003776 
1829	 0.516342526158682 
1830	 0.516692796101947 
1831	 0.516995203427971 
1832	 0.517339162128425 
1833	 0.517682518632544 
1834	 0.517971119763513 
1835	 0.518327478186687 
1836	 0.518714342682731 
1837	 0.519073362329997 
1838	 0.519430013505843 
1839	 0.519775223118389 
1840	 0.520098793422918 
1841	 0.520444731700973 
1842	 0.520788750451441 
1843	 0.521143132578201 
1844	 0.521539307162315 
1845	 0.521864665289273 
1846	 0.522148041369902 
1847	 0.52245359683988 
1848	 0.522696220175408 
1849	 0.522920182434781 
1850	 0.523069656372893 
1851	 0.523186696818633 
1852	 0.523211683368409 
1853	 0.52318380496611 
1854	 0.523085487767624 
1855	 0.522952857376088 
1856	 0.522817517621391 
1857	 0.522614006338223 
1858	 0.522362566114365 
1859	 0.522056632061844 
1860	 0.521674513934552 
1861	 0.521267846559761 
1862	 0.520827732562154 
1863	 0.520347834585664 
1864	 0.519791214241321 
1865	 0.519190356697129 
1866	 0.51844058905128 
1867	 0.517507621152683 
1868	 0.516446379865307 
1869	 0.51526581570734 
1870	 0.513997886633681 
1871	 0.512598854735896 
1872	 0.511177658824926 
1873	 0.509718726001934 
1874	 0.508166243521357 
1875	 0.506502487311439 
1876	 0.504630663895963 
1877	 0.502704632938233 
1878	 0.500506061352134 
1879	 0.498090572102663 
1880	 0.49571847078434 
1881	 0.4930404723114 
1882	 0.490091512204053 
1883	 0.48704704577045 
1884	 0.483791717806258 
1885	 0.480006879662972 
1886	 0.476194232403603 
1887	 0.472097707673983 
1888	 0.467677082543194 
1889	 0.463474752662433 
1890	 0.458942958758513 
1891	 0.454378642998415 
1892	 0.449886182804675 
1893	 0.445260752054324 
1894	 0.440411304540396 
1895	 0.435852038673119 
1896	 0.43124385060837 
1897	 0.426657843550262 
1898	 0.422521949769636 
1899	 0.41836547606048 
1900	 0.414362080930265 
1901	 0.410590811628674 
1902	 0.406685561131591 
1903	 0.402979556169454 
1904	 0.399412888177109 
1905	 0.395914078882825 
1906	 0.392587889660943 
1907	 0.389656053338899 
1908	 0.386735666330044 
1909	 0.384024698393415 
1910	 0.381480246344723 
1911	 0.378875092339562 
1912	 0.376550591272136 
1913	 0.374320053563806 
1914	 0.372125458938328 
1915	 0.37013837332631 
1916	 0.368371044672651 
1917	 0.366630600863544 
1918	 0.364966242408582 
1919	 0.363426366582612 
1920	 0.361872799608379 
1921	 0.360365302827777 
1922	 0.358915237631464 
1923	 0.357540652447218 
1924	 0.356338270331914 
1925	 0.355210129385421 
1926	 0.354172637403962 
1927	 0.353295408267281 
1928	 0.35243013376178 
1929	 0.351597240289794 
1930	 0.350849823673648 
1931	 0.350230871164586 
1932	 0.349680212691277 
1933	 0.349267538785784 
1934	 0.348981117338744 
1935	 0.348753865694837 
1936	 0.348608867900298 
1937	 0.348548035545276 
1938	 0.348587854807265 
1939	 0.348686089204184 
1940	 0.348861131148742 
1941	 0.349114538771648 
1942	 0.349398843550167 
1943	 0.349696917561115 
1944	 0.350049323563243 
1945	 0.350445047402342 
1946	 0.350923613490322 
1947	 0.351483421014687 
1948	 0.352102710915314 
1949	 0.352763220706555 
1950	 0.353435513259037 
1951	 0.354183706909418 
1952	 0.354883586782075 
1953	 0.355562357453848 
1954	 0.356253033464986 
1955	 0.357026164308785 
1956	 0.357768914649619 
1957	 0.358563938298491 
1958	 0.359403940252133 
1959	 0.360143513164672 
1960	 0.360861031774424 
1961	 0.361556182113209 
1962	 0.362197107452969 
1963	 0.362853395126607 
1964	 0.36347273586597 
1965	 0.364137494445762 
1966	 0.364812620083276 
1967	 0.365531219925546 
1968	 0.366229752608436 
1969	 0.366967444541164 
1970	 0.367715268924424 
1971	 0.368482523607792 
1972	 0.369314650329958 
1973	 0.370121015811897 
1974	 0.370883306682366 
1975	 0.371637510281705 
1976	 0.372340512561751 
1977	 0.372987466958039 
1978	 0.373629449180471 
1979	 0.374230245611988 
1980	 0.374826060205718 
1981	 0.37547267476759 
1982	 0.376072989591724 
1983	 0.376669804161614 
1984	 0.377311845126701 
1985	 0.37792909463557 
1986	 0.37853484543623 
1987	 0.379136499524069 
1988	 0.379765889198074 
1989	 0.380353848872804 
1990	 0.380923214954368 
1991	 0.381454421561217 
1992	 0.381982155021688 
1993	 0.382442615355532 
1994	 0.382840381979573 
1995	 0.383275213591999 
1996	 0.383682218724408 
1997	 0.384069660205174 
1998	 0.384471557466905 
1999	 0.384879519730632 
2000	 0.385263657843322 
2001	 0.385674396791095 
2002	 0.38601194272331 
2003	 0.386302150129093 
2004	 0.38657965684405 
2005	 0.386812049512673 
2006	 0.387036499327531 
2007	 0.387251648004793 
2008	 0.38745363443852 
2009	 0.387613473728099 
2010	 0.387726054866225 
2011	 0.387824973775885 
2012	 0.387837878753233 
2013	 0.387727223221216 
2014	 0.387512173048835 
2015	 0.387241476501197 
2016	 0.386824305193458 
2017	 0.38641857790857 
2018	 0.385994791027373 
2019	 0.385501480055373 
2020	 0.384944729783569 
2021	 0.38435386975749 
2022	 0.383742089775603 
2023	 0.383054178660034 
2024	 0.382255702254852 
2025	 0.381403469957205 
2026	 0.380438719016584 
2027	 0.379265035220804 
2028	 0.378204823308429 
2029	 0.377090540661578 
2030	 0.376027353695888 
2031	 0.375006526429327 
2032	 0.37399656698426 
2033	 0.372928261160017 
2034	 0.37200062367258 
2035	 0.371133434278403 
2036	 0.37032502127666 
2037	 0.369645994900107 
2038	 0.369007700555861 
2039	 0.368456437198127 
2040	 0.367959329141397 
2041	 0.367568714392563 
2042	 0.36728165904071 
2043	 0.36707028489319 
2044	 0.366940505368191 
2045	 0.36689530236331 
2046	 0.36697842044382 
2047	 0.367057780062569 
2048	 0.367207788775533 
2049	 0.367381703656944 
2050	 0.367589282232132 
2051	 0.367813968892983 
2052	 0.368079912955147 
2053	 0.368407680128426 
2054	 0.368739988698103 
2055	 0.36908715331912 
2056	 0.369484424131837 
2057	 0.369930766785389 
2058	 0.370371348417618 
2059	 0.37086173291204 
2060	 0.371323156522926 
2061	 0.371767101292599 
2062	 0.372233737979811 
2063	 0.3727221460028 
2064	 0.373188884227791 
2065	 0.373648157895325 
2066	 0.374130710282952 
2067	 0.374584647082723 
2068	 0.375006460551557 
2069	 0.375427618694332 
2070	 0.375853766216178 
2071	 0.376235784086737 
2072	 0.376618947555615 
2073	 0.3769234829861 
2074	 0.377149131878356 
2075	 0.377400648097568 
2076	 0.377619569436889 
2077	 0.377815640079867 
2078	 0.378038114107295 
2079	 0.378200911138471 
2080	 0.378272175578428 
2081	 0.378373034190804 
2082	 0.378453408561721 
2083	 0.378550326819033 
2084	 0.378643946343425 
2085	 0.378718543019895 
2086	 0.378805471010722 
2087	 0.378931642480854 
2088	 0.378950222285277 
2089	 0.378920620471344 
2090	 0.378894555887745 
2091	 0.378796855066349 
2092	 0.378700480550642 
2093	 0.378617945804954 
2094	 0.378521552268687 
2095	 0.378370209114285 
2096	 0.37824420785754 
2097	 0.378129742507552 
2098	 0.378039762936255 
2099	 0.377914825621811 
2100	 0.377766667066749 
2101	 0.377551085734929 
2102	 0.377279575803218 
2103	 0.377011392712948 
2104	 0.376692074518459 
2105	 0.376373416679935 
2106	 0.376087325172418 
2107	 0.375706339802624 
2108	 0.375267528470019 
2109	 0.374800276826955 
2110	 0.374221155565725 
2111	 0.373724630279011 
2112	 0.373259767503779 
2113	 0.372758229073936 
2114	 0.372290515332663 
2115	 0.371786364762794 
2116	 0.371242746229038 
2117	 0.370660570386205 
2118	 0.370095871147019 
2119	 0.36953839788525 
2120	 0.368955354081477 
2121	 0.368342259621156 
2122	 0.367759056174939 
2123	 0.367169894780519 
2124	 0.366591283188235 
2125	 0.366023895291696 
2126	 0.365472274634046 
2127	 0.364931157775943 
2128	 0.364394880666362 
2129	 0.363876644867345 
2130	 0.363357484128754 
2131	 0.362814582163498 
2132	 0.362315949536829 
2133	 0.361864641359717 
2134	 0.361408636940515 
2135	 0.360904162799512 
2136	 0.360416627399668 
2137	 0.359903051870689 
2138	 0.359324466835708 
2139	 0.358809027074556 
2140	 0.358331964716627 
2141	 0.357825716975689 
2142	 0.357330112985299 
2143	 0.356811145770075 
2144	 0.356266639918986 
2145	 0.355743323372265 
2146	 0.355188741852476 
2147	 0.354690686254238 
2148	 0.354254303168255 
2149	 0.353774482910433 
2150	 0.353318281152026 
2151	 0.352837628287758 
2152	 0.352306049412582 
2153	 0.35180782289162 
2154	 0.351294269822562 
2155	 0.350735718194263 
2156	 0.350220568419074 
2157	 0.349672373052179 
2158	 0.349210609819806 
2159	 0.348843594774794 
2160	 0.348388972225692 
2161	 0.347946581267824 
2162	 0.347479781770957 
2163	 0.346937163336653 
2164	 0.346445599273861 
2165	 0.345945648278263 
2166	 0.345519221217307 
2167	 0.345122038030962 
2168	 0.344758966726559 
2169	 0.344437948451206 
2170	 0.344176303493927 
2171	 0.34394977779665 
2172	 0.343775332619702 
2173	 0.343665592464628 
2174	 0.343612743074805 
2175	 0.343616383395263 
2176	 0.343580491405047 
2177	 0.343619663135605 
2178	 0.343724331832837 
2179	 0.343822981121926 
2180	 0.343948146691591 
2181	 0.344077286912776 
2182	 0.344210464934748 
2183	 0.344381670925517 
2184	 0.344563239884399 
2185	 0.344798331903877 
2186	 0.345102166649348 
2187	 0.345374736246076 
2188	 0.345660968890003 
2189	 0.345961296347903 
2190	 0.346248566160414 
2191	 0.346572629552198 
2192	 0.346977000055985 
2193	 0.347310955942378 
2194	 0.347659853819759 
2195	 0.34794483216 
2196	 0.348203313179298 
2197	 0.348350012475024 
2198	 0.34849512703293 
2199	 0.348631801246914 
2200	 0.348782365543764 
2201	 0.348916509901067 
2202	 0.349089586638735 
2203	 0.349317324723261 
2204	 0.349449582995712 
2205	 0.349568753877701 
2206	 0.349647859817979 
2207	 0.349647353362297 
2208	 0.349667952246013 
2209	 0.349716741330181 
2210	 0.349678635619696 
2211	 0.3495666256717 
2212	 0.3494834270291 
2213	 0.349338085502151 
2214	 0.349243047110833 
2215	 0.349273658776321 
2216	 0.349138291538512 
2217	 0.348982591712955 
2218	 0.348705407391503 
2219	 0.348247786943381 
2220	 0.347796951271061 
2221	 0.347289126195428 
2222	 0.346731829471917 
2223	 0.34619709910356 
2224	 0.345599675713624 
2225	 0.345031234118549 
2226	 0.344396833617312 
2227	 0.343533503477921 
2228	 0.342533990271101 
2229	 0.341471675035474 
2230	 0.340201397410871 
2231	 0.33894558706797 
2232	 0.337711328296269 
2233	 0.336265609616363 
2234	 0.334743421446332 
2235	 0.332969261944082 
2236	 0.331011763360891 
2237	 0.328908690582977 
2238	 0.326520635337279 
2239	 0.32413227020015 
2240	 0.321664332862858 
2241	 0.319053145097199 
2242	 0.316370060918571 
2243	 0.313513031404901 
2244	 0.310467443010128 
2245	 0.307360090267983 
2246	 0.304018691960124 
2247	 0.300743208972179 
2248	 0.297458771975793 
2249	 0.29407536221703 
2250	 0.29064579193187 
2251	 0.287259842903808 
2252	 0.283507023197251 
2253	 0.279877772563414 
2254	 0.276280112018442 
2255	 0.272700951934397 
2256	 0.269447884450365 
2257	 0.26615244990103 
2258	 0.262950244182802 
2259	 0.25982809758512 
2260	 0.256753180220072 
2261	 0.253689631033327 
2262	 0.250861198695438 
2263	 0.248110940968404 
2264	 0.245558662038236 
2265	 0.24330979430562 
2266	 0.240931367667253 
2267	 0.238649373588855 
2268	 0.236348967364711 
2269	 0.23400433261512 
2270	 0.231761032254524 
2271	 0.229539946102694 
2272	 0.227415715477264 
2273	 0.225384817623122 
2274	 0.223374360937345 
2275	 0.221550823286813 
2276	 0.219573784448154 
2277	 0.217538294056424 
2278	 0.215507542804624 
2279	 0.213357619045479 
2280	 0.21126235377443 
2281	 0.209259326341328 
2282	 0.207155779424742 
2283	 0.204990098238903 
2284	 0.202887075176069 
2285	 0.200566139151918 
2286	 0.198321294380049 
2287	 0.196062579924157 
2288	 0.193649669176859 
2289	 0.191364586407588 
2290	 0.189041042091706 
2291	 0.186777007760561 
2292	 0.184541837284537 
2293	 0.18226785817063 
2294	 0.180062782506047 
2295	 0.177815201380489 
2296	 0.175736230596741 
2297	 0.173894807004787 
2298	 0.172189472468613 
2299	 0.170776104701288 
2300	 0.169621568606281 
2301	 0.168703603299116 
2302	 0.1679711537772 
2303	 0.167646513897962 
2304	 0.167625702236952 
2305	 0.16795844144669 
2306	 0.168767973632607 
2307	 0.169713981030638 
2308	 0.170943228209357 
2309	 0.172427142889296 
2310	 0.174261739684609 
2311	 0.176093535909362 
2312	 0.178283558384008 
2313	 0.18031295428566 
2314	 0.18241476000471 
2315	 0.184356360577849 
2316	 0.186292012025146 
2317	 0.187999312511471 
2318	 0.189564644972815 
2319	 0.190922385517788 
2320	 0.192165125473157 
2321	 0.19311770526663 
2322	 0.193805643999294 
2323	 0.194299118097914 
2324	 0.194483539528608 
2325	 0.194540921457346 
2326	 0.194432910546754 
2327	 0.194098192837869 
2328	 0.193459892449432 
2329	 0.192777040421727 
2330	 0.191953629113621 
2331	 0.190941907607105 
2332	 0.189816968978659 
2333	 0.188628261357689 
2334	 0.187171258722662 
2335	 0.185627178211833 
2336	 0.184047439308575 
2337	 0.18240509099772 
2338	 0.1808726346749 
2339	 0.17921165535496 
2340	 0.177520630050971 
2341	 0.176046558651617 
2342	 0.174492093206603 
2343	 0.173227395804366 
2344	 0.172468368570459 
2345	 0.171865722698102 
2346	 0.171688511092665 
2347	 0.171974471615119 
2348	 0.172341827384202 
2349	 0.173107721755682 
2350	 0.17436147972492 
2351	 0.175865918968075 
2352	 0.177642793080137 
2353	 0.179544214440947 
2354	 0.181220966222016 
2355	 0.182694177207634 
2356	 0.184021708977038 
2357	 0.185151160302349 
2358	 0.186190074784364 
2359	 0.187038053123192 
2360	 0.187674361707889 
2361	 0.18811270771482 
2362	 0.188414362686801 
2363	 0.188675755660788 
2364	 0.188862263561336 
2365	 0.188985410372924 
2366	 0.189091805132012 
2367	 0.189229449590679 
2368	 0.189436742062313 
2369	 0.189672255922959 
2370	 0.189765833670753 
2371	 0.189757783977121 
2372	 0.189793996941871 
2373	 0.189733031928546 
2374	 0.189808466695732 
2375	 0.190100313352061 
2376	 0.190190279568314 
2377	 0.190294216975706 
2378	 0.190426060869243 
2379	 0.190403093670028 
2380	 0.190598235783973 
2381	 0.190766140839925 
2382	 0.190860286459166 
2383	 0.190967562250771 
2384	 0.191095232319835 
2385	 0.191118853843138 
2386	 0.191264562812363 
2387	 0.191481158198404 
2388	 0.191656241325644 
2389	 0.191887111641134 
2390	 0.192010351167439 
2391	 0.19213053177796 
2392	 0.192175835680164 
2393	 0.19206402668684 
2394	 0.192052532169463 
2395	 0.192019975131072 
2396	 0.192109914616782 
2397	 0.192337257789844 
2398	 0.192444337578316 
2399	 0.192584197614766 
2400	 0.192658087056955 
2401	 0.192563969143346 
2402	 0.192783865264578 
2403	 0.192877964402297 
2404	 0.192827086156956 
2405	 0.192899690481799 
2406	 0.192814154409658 
2407	 0.192723640681131 
2408	 0.192815391838603 
2409	 0.192742976928169 
2410	 0.192617593278865 
2411	 0.192644582444636 
2412	 0.192621738537974 
2413	 0.192617996846887 
2414	 0.192811871290602 
2415	 0.192827574013965 
2416	 0.192828549712127 
2417	 0.193087917312152 
2418	 0.193007522992271 
2419	 0.192934206464967 
2420	 0.193101777565448 
2421	 0.193142921766232 
2422	 0.193239187832998 
2423	 0.193345639064473 
2424	 0.193237420930983 
2425	 0.192925509144272 
2426	 0.192608650911255 
2427	 0.192322190885747 
2428	 0.192240344164081 
2429	 0.192285563240699 
2430	 0.192236895087028 
2431	 0.192288671688403 
2432	 0.192212009303287 
2433	 0.191847505786014 
2434	 0.191609955002291 
2435	 0.191475001257904 
2436	 0.191059868994836 
2437	 0.190802597066249 
2438	 0.190620437470346 
2439	 0.190155539967246 
2440	 0.18984229365294 
2441	 0.189395094610782 
2442	 0.188863514478362 
2443	 0.188305913929273 
2444	 0.187509809968533 
2445	 0.1869234390224 
2446	 0.186520929193569 
2447	 0.186316260191347 
2448	 0.186091933402352 
2449	 0.185820142034963 
2450	 0.18547609604431 
2451	 0.18471293757236 
2452	 0.184334181682409 
2453	 0.183907046201201 
2454	 0.182985284317954 
2455	 0.182256908744789 
2456	 0.181295575692351 
2457	 0.180158985877607 
2458	 0.179367507060977 
2459	 0.178956810888793 
2460	 0.178679043637944 
2461	 0.178461315294952 
2462	 0.178443384526881 
2463	 0.178172767507881 
2464	 0.177693787641899 
2465	 0.177533008102532 
2466	 0.177420982664043 
2467	 0.177290135863306 
2468	 0.177183626583227 
2469	 0.176859554795802 
2470	 0.176376723562314 
2471	 0.175596892138715 
2472	 0.174931585789239 
2473	 0.174728852850007 
2474	 0.174463540590725 
2475	 0.174286769824286 
2476	 0.174223324190106 
2477	 0.173889273715746 
2478	 0.173794271020591 
2479	 0.173981646571774 
2480	 0.174096274396867 
2481	 0.173781227300877 
2482	 0.172870978106984 
2483	 0.172594552919563 
2484	 0.172616466618637 
2485	 0.172817112750696 
2486	 0.172994372366984 
2487	 0.172951553945562 
2488	 0.172230380592 
2489	 0.171973703043041 
2490	 0.172203147710929 
2491	 0.172073342108642 
2492	 0.172360816069955 
2493	 0.172725142285817 
2494	 0.172424122049974 
2495	 0.172032521343604 
2496	 0.172338932058169 
2497	 0.172571902424114 
2498	 0.17276063521439 
2499	 0.173682976395958 
2500	 0.173959990294717 
