Wavelength	spectrum00008.asd
350	 5.32196827544031E-02 
351	 4.74265404478293E-02 
352	 4.51936782247476E-02 
353	 4.75569837380798E-02 
354	 4.65573409745865E-02 
355	 4.41171466738535E-02 
356	 4.17107704515494E-02 
357	 4.03081913096319E-02 
358	 3.96186284021598E-02 
359	 3.76489432977217E-02 
360	 3.54148024835279E-02 
361	 3.48312420764265E-02 
362	 3.18976146210035E-02 
363	 0.029740576686448 
364	 2.95650740646383E-02 
365	 2.92475239078921E-02 
366	 3.05296783313147E-02 
367	 3.26681567138564E-02 
368	 3.42111364661466E-02 
369	 3.33351370250115E-02 
370	 3.30149723299222E-02 
371	 3.32864165752827E-02 
372	 3.27457245512511E-02 
373	 3.39528890616875E-02 
374	 3.31302041172315E-02 
375	 3.00652399859459E-02 
376	 3.04547427070349E-02 
377	 2.97689575014513E-02 
378	 2.93871921353811E-02 
379	 3.04984304128642E-02 
380	 2.80813502592306E-02 
381	 2.78632477633228E-02 
382	 2.91959350388865E-02 
383	 2.79659108226222E-02 
384	 2.77570475416924E-02 
385	 0.028056137540348 
386	 2.79318901843725E-02 
387	 2.64843427457968E-02 
388	 2.68864965101386E-02 
389	 2.73942673623507E-02 
390	 2.61266049837914E-02 
391	 2.58315479909992E-02 
392	 2.64832504148281E-02 
393	 2.64511956550704E-02 
394	 2.37185873285318E-02 
395	 2.33540744093241E-02 
396	 2.35845788052338E-02 
397	 2.30561686811514E-02 
398	 2.25511129568053E-02 
399	 2.33978101707911E-02 
400	 2.40780022963388E-02 
401	 2.30206499175728E-02 
402	 0.021938737896561 
403	 2.17065277505968E-02 
404	 2.21863102120379E-02 
405	 2.25398915666453E-02 
406	 2.32260846785915E-02 
407	 2.27498899693415E-02 
408	 2.09776403587309E-02 
409	 2.07801762581922E-02 
410	 2.09061664618013E-02 
411	 2.10661313603004E-02 
412	 2.11432403005852E-02 
413	 2.04474518015381E-02 
414	 2.01176849825973E-02 
415	 2.04190039872108E-02 
416	 2.07414182324248E-02 
417	 2.04913729693439E-02 
418	 1.97887559254405E-02 
419	 1.91148373380294E-02 
420	 1.94997324102822E-02 
421	 1.95552209115228E-02 
422	 1.94514923868289E-02 
423	 1.98009584016598E-02 
424	 1.95800468653948E-02 
425	 1.93894955647463E-02 
426	 1.92453307166977E-02 
427	 1.83774503869418E-02 
428	 0.018386914658155 
429	 1.84473954052157E-02 
430	 1.78603883761451E-02 
431	 1.79988931341601E-02 
432	 1.81819516040045E-02 
433	 0.018201018532591 
434	 1.81270296397071E-02 
435	 1.79046070764065E-02 
436	 1.79100314297364E-02 
437	 1.81669360655209E-02 
438	 1.81015733939173E-02 
439	 1.79779044259206E-02 
440	 1.79033119739905E-02 
441	 1.79238103883342E-02 
442	 1.80292239063881E-02 
443	 1.79395540856179E-02 
444	 1.76362514665091E-02 
445	 1.73373416319064E-02 
446	 0.017434347212657 
447	 1.75681559887679E-02 
448	 0.017531021904967 
449	 1.77771340819782E-02 
450	 0.017594939906691 
451	 1.74005375862027E-02 
452	 1.78050782918036E-02 
453	 0.01776082178102 
454	 1.75816387513144E-02 
455	 1.75071945225906E-02 
456	 1.75800766502592E-02 
457	 1.76438040625279E-02 
458	 0.017577201966414 
459	 1.73627655325394E-02 
460	 1.72248590209472E-02 
461	 1.71811146986689E-02 
462	 1.71929870281823E-02 
463	 0.01720483340462 
464	 0.017380364270632 
465	 1.74728552072391E-02 
466	 1.74229947117034E-02 
467	 1.75374434691115E-02 
468	 1.73818931742849E-02 
469	 1.70641354619491E-02 
470	 1.68575864705842E-02 
471	 1.70005543757679E-02 
472	 1.71039030434482E-02 
473	 1.70218850200119E-02 
474	 1.68510643674579E-02 
475	 1.69737037927761E-02 
476	 1.71047689254762E-02 
477	 1.70429591647622E-02 
478	 1.70191452404416E-02 
479	 1.69696756546819E-02 
480	 1.69645516567564E-02 
481	 1.70502642781967E-02 
482	 1.68108188525031E-02 
483	 1.67563921023311E-02 
484	 1.69720854416404E-02 
485	 1.69895899994274E-02 
486	 1.69635466922693E-02 
487	 1.68824025800591E-02 
488	 1.67705269754975E-02 
489	 1.68740419222045E-02 
490	 1.68484061358756E-02 
491	 1.67211374536569E-02 
492	 1.67231658019407E-02 
493	 1.66963435616288E-02 
494	 1.67892773367801E-02 
495	 1.69554047978747E-02 
496	 1.67489021312515E-02 
497	 1.68219649718162E-02 
498	 0.016857971909975 
499	 1.64851841406718E-02 
500	 1.65183636941125E-02 
501	 1.66439044268836E-02 
502	 1.66726998160479E-02 
503	 1.65806515202618E-02 
504	 1.65230991420042E-02 
505	 1.65269140630055E-02 
506	 1.65679227665921E-02 
507	 1.65728976903072E-02 
508	 1.65420913337142E-02 
509	 1.64937657620891E-02 
510	 1.64508759331402E-02 
511	 1.63798568034472E-02 
512	 1.63426932164265E-02 
513	 1.63698670035769E-02 
514	 1.64445263150786E-02 
515	 1.64118438888708E-02 
516	 1.63505019025476E-02 
517	 1.63473344638018E-02 
518	 1.62766261413172E-02 
519	 1.62247236220336E-02 
520	 1.62244225967977E-02 
521	 0.016260693632644 
522	 1.62478578395641E-02 
523	 1.62601776155376E-02 
524	 1.63162935335447E-02 
525	 0.016277967269084 
526	 1.62107566694857E-02 
527	 1.61753698264444E-02 
528	 1.62054003226784E-02 
529	 1.61840529083542E-02 
530	 0.016160271130151 
531	 1.61729729728557E-02 
532	 1.62363946173835E-02 
533	 1.62551063331436E-02 
534	 1.62058097229249E-02 
535	 0.016126156025852 
536	 0.016179014717477 
537	 0.01619710101864 
538	 1.61649039220204E-02 
539	 1.61524983425865E-02 
540	 1.61680244289024E-02 
541	 1.61081261569986E-02 
542	 1.59870819065151E-02 
543	 1.60288089066351E-02 
544	 1.60723307655786E-02 
545	 1.60607568992405E-02 
546	 1.59978472263897E-02 
547	 0.016004938646868 
548	 0.016035099564891 
549	 1.60506477457515E-02 
550	 1.60331714853246E-02 
551	 0.016065053435297 
552	 1.60781878759454E-02 
553	 1.60258488647606E-02 
554	 1.59779348865842E-02 
555	 1.59691250494456E-02 
556	 1.59774523750362E-02 
557	 1.59644949844323E-02 
558	 1.60193054981801E-02 
559	 1.60272709446606E-02 
560	 1.59887208481921E-02 
561	 1.60918961472915E-02 
562	 1.60509186944219E-02 
563	 1.59566141759612E-02 
564	 0.015948098745536 
565	 1.59218427830145E-02 
566	 1.58920576787944E-02 
567	 1.58681918464369E-02 
568	 0.01585552389256 
569	 1.58623723977381E-02 
570	 1.58850355573618E-02 
571	 1.59246861293145E-02 
572	 1.59935616130904E-02 
573	 0.016130935844141 
574	 1.62929582129022E-02 
575	 1.64006501141476E-02 
576	 1.63923056236006E-02 
577	 1.63343999521734E-02 
578	 0.016288811489783 
579	 1.62975323794279E-02 
580	 1.62961710543641E-02 
581	 0.01628985659883 
582	 1.63166166763106E-02 
583	 0.016470720036928 
584	 1.66147179631778E-02 
585	 1.67348608534615E-02 
586	 1.68887060585693E-02 
587	 0.017029923866263 
588	 1.71539974477813E-02 
589	 1.72655562785146E-02 
590	 1.73666477742239E-02 
591	 1.76007305769836E-02 
592	 1.78941992529548E-02 
593	 1.81303113816152E-02 
594	 1.83444664657927E-02 
595	 1.85811963599077E-02 
596	 1.88158486656888E-02 
597	 1.89737300373823E-02 
598	 1.91987359057188E-02 
599	 1.94783272941512E-02 
600	 1.97966833141807E-02 
601	 2.02043310702578E-02 
602	 2.05970717745544E-02 
603	 2.10198283808686E-02 
604	 2.15580686849335E-02 
605	 2.20773153586564E-02 
606	 2.26205790657676E-02 
607	 2.32226115031382E-02 
608	 2.38881947432526E-02 
609	 2.44587916645604E-02 
610	 2.50364800303545E-02 
611	 2.57303464290508E-02 
612	 2.64276449142435E-02 
613	 2.71475557582366E-02 
614	 2.78983366579482E-02 
615	 2.86787582031383E-02 
616	 2.94078198681633E-02 
617	 3.02206999821702E-02 
618	 3.11392557961321E-02 
619	 3.19341851017618E-02 
620	 3.28314967014095E-02 
621	 0.03377198677069 
622	 3.46531052530863E-02 
623	 3.56498451420817E-02 
624	 3.66568386455007E-02 
625	 3.76443812227957E-02 
626	 3.86583156578072E-02 
627	 3.96732822766826E-02 
628	 4.06697306882264E-02 
629	 4.16634415060091E-02 
630	 4.27663617434887E-02 
631	 4.38465039706671E-02 
632	 4.49093441536223E-02 
633	 4.60109963353116E-02 
634	 4.70960804815542E-02 
635	 4.82305288641954E-02 
636	 4.93911779121585E-02 
637	 5.04324573880092E-02 
638	 5.14970616319655E-02 
639	 5.26066717755009E-02 
640	 5.37441668706431E-02 
641	 5.48749193372986E-02 
642	 5.59959306389048E-02 
643	 5.71170813185023E-02 
644	 5.82527451959629E-02 
645	 5.93380798836714E-02 
646	 6.04410439073952E-02 
647	 6.15802462831711E-02 
648	 6.26651918784422E-02 
649	 6.37791280630594E-02 
650	 6.49009136451069E-02 
651	 0.066005462601208 
652	 6.72043187662512E-02 
653	 6.83256903360759E-02 
654	 6.93679899429267E-02 
655	 7.04687340265426E-02 
656	 7.15605027148241E-02 
657	 7.26795726265362E-02 
658	 7.38353918848584E-02 
659	 0.074953180200606 
660	 7.60682099876852E-02 
661	 7.71777997456207E-02 
662	 7.82755743087501E-02 
663	 7.94140551084617E-02 
664	 8.05101799696537E-02 
665	 8.15639183083823E-02 
666	 8.26649575283669E-02 
667	 8.38242391881364E-02 
668	 8.49878439333258E-02 
669	 8.61151747278261E-02 
670	 8.72445013368002E-02 
671	 8.83417311801804E-02 
672	 8.94496679111689E-02 
673	 9.06279486598059E-02 
674	 9.17772513685127E-02 
675	 9.29177161383612E-02 
676	 0.094084742386015 
677	 9.53164164026837E-02 
678	 9.65017886225065E-02 
679	 0.097647168854739 
680	 9.87960253760228E-02 
681	 0.100015738106033 
682	 0.101246541815344 
683	 0.102437276705313 
684	 0.103570320960525 
685	 0.104818671830048 
686	 0.106093683796095 
687	 0.107334103958011 
688	 0.108563354187917 
689	 0.10979439508937 
690	 0.111033261917906 
691	 0.112284458289546 
692	 0.113555799536245 
693	 0.114841325070076 
694	 0.116131622801999 
695	 0.11741538386557 
696	 0.118713660129633 
697	 0.119961592691809 
698	 0.121161337436407 
699	 0.12243488769458 
700	 0.123734247475125 
701	 0.125047831287997 
702	 0.126356804059799 
703	 0.127576215262385 
704	 0.128910282947773 
705	 0.130288387168631 
706	 0.131477421302932 
707	 0.132732957557002 
708	 0.134029752512538 
709	 0.135325943537989 
710	 0.136615081028492 
711	 0.137927225678836 
712	 0.139218113158567 
713	 0.140463113026129 
714	 0.141798742477197 
715	 0.143143575671241 
716	 0.144459045428961 
717	 0.145742012027649 
718	 0.146987052639229 
719	 0.148282126439882 
720	 0.149651664764294 
721	 0.150991875632644 
722	 0.15235723354595 
723	 0.153702898696881 
724	 0.155008862492791 
725	 0.156472796185197 
726	 0.157849056276199 
727	 0.159148380789684 
728	 0.160557534679193 
729	 0.161955352358556 
730	 0.163389443098303 
731	 0.164848515920634 
732	 0.166182241417206 
733	 0.167702492804188 
734	 0.169241687287481 
735	 0.170612606034698 
736	 0.172125821596833 
737	 0.173636942568053 
738	 0.175134198354103 
739	 0.176684235994462 
740	 0.178217455026794 
741	 0.179766501032998 
742	 0.181312267336458 
743	 0.182740832403233 
744	 0.18443080966303 
745	 0.18616920672397 
746	 0.187695297340786 
747	 0.189161173329343 
748	 0.190737584010742 
749	 0.192421430090436 
750	 0.194097862438988 
751	 0.195736811119644 
752	 0.197303693350826 
753	 0.198820787839587 
754	 0.200379923193632 
755	 0.202102476075777 
756	 0.203805562876794 
757	 0.205363166802805 
758	 0.207013372429334 
759	 0.20870949427988 
760	 0.210385796567635 
761	 0.211992249125857 
762	 0.213678555510632 
763	 0.215403431532495 
764	 0.217086171450627 
765	 0.218643863507121 
766	 0.220245680006486 
767	 0.221954303213557 
768	 0.223733661996265 
769	 0.225367242361638 
770	 0.227053253502205 
771	 0.228744121805979 
772	 0.230354387553177 
773	 0.232073804506896 
774	 0.233784121031397 
775	 0.235455020028933 
776	 0.23714551692336 
777	 0.238866935037843 
778	 0.240546774935101 
779	 0.242179028161566 
780	 0.243886595456336 
781	 0.245488039900637 
782	 0.247092654854327 
783	 0.248812324837093 
784	 0.25046373709277 
785	 0.252129804192658 
786	 0.253769396165324 
787	 0.255317808860842 
788	 0.25710937307306 
789	 0.25889977118014 
790	 0.260512783158627 
791	 0.261948611177262 
792	 0.263655742399061 
793	 0.265465946401739 
794	 0.267163027871106 
795	 0.268774734741202 
796	 0.270266587626754 
797	 0.271844795524203 
798	 0.273648491242169 
799	 0.275037400127742 
800	 0.276627385371596 
801	 0.278451909191816 
802	 0.280082074466986 
803	 0.281724151736722 
804	 0.283347456222255 
805	 0.284914293390461 
806	 0.286415317728478 
807	 0.287959822039131 
808	 0.289626126465938 
809	 0.291381670127758 
810	 0.292916277609512 
811	 0.294333200365095 
812	 0.295849525694663 
813	 0.297634932945331 
814	 0.299271468376928 
815	 0.300914395846479 
816	 0.302572260386097 
817	 0.304106257734841 
818	 0.305626928274806 
819	 0.307072795437835 
820	 0.308531221568458 
821	 0.310368182724946 
822	 0.312071771644054 
823	 0.313647085373922 
824	 0.315197192369059 
825	 0.316618408174788 
826	 0.318282320816366 
827	 0.32000627562364 
828	 0.32142517016777 
829	 0.322766926897439 
830	 0.324430954173656 
831	 0.326246530658132 
832	 0.327616496785383 
833	 0.329204396539793 
834	 0.330784226470787 
835	 0.332267570643996 
836	 0.3339739508393 
837	 0.33540252228044 
838	 0.336826944956879 
839	 0.338474492676728 
840	 0.339876624279365 
841	 0.34128355048225 
842	 0.342722312809092 
843	 0.344165846096029 
844	 0.345778964622428 
845	 0.347242626000956 
846	 0.348519838784069 
847	 0.349808761825413 
848	 0.351197323398242 
849	 0.352785142985512 
850	 0.35440410065024 
851	 0.355595419775698 
852	 0.356837463725774 
853	 0.358206156215787 
854	 0.359629401374893 
855	 0.360899788660904 
856	 0.362351755027506 
857	 0.363747638212118 
858	 0.364851996311851 
859	 0.366082394124054 
860	 0.367520663784406 
861	 0.369028092751205 
862	 0.370349406203193 
863	 0.37131151651675 
864	 0.372549034673526 
865	 0.374040560961823 
866	 0.375223792391365 
867	 0.37664420871136 
868	 0.378078823815936 
869	 0.379268663234723 
870	 0.380082766871876 
871	 0.381413746946151 
872	 0.382921214776964 
873	 0.384188684689074 
874	 0.385275435035971 
875	 0.386568611782443 
876	 0.387834285925027 
877	 0.388844610772127 
878	 0.390161908735868 
879	 0.391436006527597 
880	 0.392666378034116 
881	 0.393970616506276 
882	 0.395126375744329 
883	 0.396144179265727 
884	 0.397122367790501 
885	 0.398208756240865 
886	 0.399462348661185 
887	 0.400587033243408 
888	 0.401597398796345 
889	 0.402865929273605 
890	 0.403937238176438 
891	 0.404862351592527 
892	 0.40584835166289 
893	 0.407183805192209 
894	 0.408306297190682 
895	 0.409261433196793 
896	 0.410226639721154 
897	 0.411298240887431 
898	 0.4120647964151 
899	 0.412777219418669 
900	 0.413809362959431 
901	 0.415083532361602 
902	 0.416087432363725 
903	 0.416823372266071 
904	 0.4175953294704 
905	 0.418674962616036 
906	 0.419661753573376 
907	 0.420411736996852 
908	 0.421067187545488 
909	 0.422116932750326 
910	 0.42316976810294 
911	 0.423987007365194 
912	 0.424629236282496 
913	 0.425493753853532 
914	 0.426578591143976 
915	 0.42764245854596 
916	 0.428266900538261 
917	 0.429008079025542 
918	 0.429994340669445 
919	 0.431148236232619 
920	 0.432207824266683 
921	 0.433203367081209 
922	 0.434103207065911 
923	 0.434998632572435 
924	 0.436346877776658 
925	 0.437169128568484 
926	 0.43779983179479 
927	 0.438778654223344 
928	 0.439758493926963 
929	 0.440663409255239 
930	 0.441566930633958 
931	 0.442649801265332 
932	 0.444271627629589 
933	 0.445406524282495 
934	 0.446196641613725 
935	 0.44731489841472 
936	 0.448303093588819 
937	 0.449342055431136 
938	 0.450541455604405 
939	 0.451874686350607 
940	 0.453024721748442 
941	 0.453734551784274 
942	 0.454389750006585 
943	 0.455748759729964 
944	 0.457024566914178 
945	 0.458020526882609 
946	 0.45879339871781 
947	 0.459613022352367 
948	 0.460868869104347 
949	 0.462093588878265 
950	 0.462932220017123 
951	 0.463408494925274 
952	 0.464169996361653 
953	 0.464988699246778 
954	 0.465649780750354 
955	 0.466230204154918 
956	 0.467012988592369 
957	 0.468021201975697 
958	 0.468995809422073 
959	 0.469362192525002 
960	 0.469603348807859 
961	 0.469917638010323 
962	 0.470326229689937 
963	 0.47064355954232 
964	 0.471034041299485 
965	 0.471712920814261 
966	 0.472606398341942 
967	 0.473018382156069 
968	 0.473429839218472 
969	 0.473948953432798 
970	 0.474483018815309 
971	 0.47471416470782 
972	 0.475056120221692 
973	 0.475564068909539 
974	 0.476101400238319 
975	 0.476320727956602 
976	 0.477047074211353 
977	 0.477867668680845 
978	 0.478264709743482 
979	 0.478705098544393 
980	 0.47908987892572 
981	 0.479292276139419 
982	 0.479401917700576 
983	 0.480209609165556 
984	 0.481119956100297 
985	 0.48172690786651 
986	 0.481983164067054 
987	 0.482738579077667 
988	 0.48328386517104 
989	 0.483662331174398 
990	 0.484103484225108 
991	 0.48446315122511 
992	 0.484890003791258 
993	 0.485540186581894 
994	 0.486391503656378 
995	 0.4868642946334 
996	 0.487526131753473 
997	 0.488292848969402 
998	 0.488845702434879 
999	 0.488944287004554 
1000	 0.48907856721012 
1001	 0.504080804446207 
1002	 0.504611327101611 
1003	 0.505132223641211 
1004	 0.505689390312904 
1005	 0.506296047496163 
1006	 0.506896528426351 
1007	 0.507530250552079 
1008	 0.508066123387847 
1009	 0.508518009972002 
1010	 0.50909540749272 
1011	 0.509639843753484 
1012	 0.510249864862306 
1013	 0.511039549600487 
1014	 0.511720041313081 
1015	 0.512370677330474 
1016	 0.512986139467807 
1017	 0.51352940055317 
1018	 0.514066635304316 
1019	 0.514557764194817 
1020	 0.515053416082031 
1021	 0.515564525370984 
1022	 0.51609694789188 
1023	 0.516616045844317 
1024	 0.517172766798013 
1025	 0.517633031063442 
1026	 0.51803761827669 
1027	 0.518454048229933 
1028	 0.518847300181333 
1029	 0.519196614186327 
1030	 0.519500626612638 
1031	 0.519846418437486 
1032	 0.520140940050467 
1033	 0.520347582084551 
1034	 0.520604594531111 
1035	 0.520915351502149 
1036	 0.521193848418136 
1037	 0.521476315967945 
1038	 0.521718651982603 
1039	 0.521923746233051 
1040	 0.522149922164937 
1041	 0.5223915404141 
1042	 0.522591179566891 
1043	 0.522815619944712 
1044	 0.522955888216499 
1045	 0.523076000242108 
1046	 0.523119667054192 
1047	 0.52314800581168 
1048	 0.523257715532455 
1049	 0.523332052260082 
1050	 0.523381230994383 
1051	 0.52347407699344 
1052	 0.523638644859709 
1053	 0.523811297808505 
1054	 0.523991357124751 
1055	 0.524207985405734 
1056	 0.524453966979888 
1057	 0.524750661236598 
1058	 0.525066624119308 
1059	 0.525458940463169 
1060	 0.525915821163638 
1061	 0.526349189650693 
1062	 0.526793046426479 
1063	 0.527291877569663 
1064	 0.527827774945133 
1065	 0.528421518244045 
1066	 0.529074393167355 
1067	 0.52978841519275 
1068	 0.530637942318601 
1069	 0.531518186720131 
1070	 0.532411587050655 
1071	 0.533336383506253 
1072	 0.534347927705963 
1073	 0.535286104066459 
1074	 0.536256719835499 
1075	 0.537320087240211 
1076	 0.538370875324084 
1077	 0.539476764572713 
1078	 0.540561072294685 
1079	 0.541672866729028 
1080	 0.542881499052855 
1081	 0.544009917743096 
1082	 0.545127809836274 
1083	 0.546314436698052 
1084	 0.547406472908403 
1085	 0.548520980354987 
1086	 0.549663090360635 
1087	 0.550880927034585 
1088	 0.551965962779723 
1089	 0.553023983004997 
1090	 0.554036491368498 
1091	 0.554965157186198 
1092	 0.555859774660586 
1093	 0.556672606636694 
1094	 0.557524845854421 
1095	 0.558361530232803 
1096	 0.559132601956961 
1097	 0.559852541128549 
1098	 0.560502307215724 
1099	 0.561126867830344 
1100	 0.56159116755572 
1101	 0.561983080259545 
1102	 0.562365340318106 
1103	 0.562613382248049 
1104	 0.562693209316068 
1105	 0.562813339913972 
1106	 0.562980036311266 
1107	 0.562997329030753 
1108	 0.563020581085255 
1109	 0.56302925672919 
1110	 0.562847837546936 
1111	 0.56259188411318 
1112	 0.562375184233472 
1113	 0.5620709222184 
1114	 0.561718968620087 
1115	 0.561382173575406 
1116	 0.560946106300892 
1117	 0.560514298017663 
1118	 0.560043115132398 
1119	 0.559567224764304 
1120	 0.559014556707056 
1121	 0.558440226062955 
1122	 0.557740818376225 
1123	 0.557013240913811 
1124	 0.556323520092678 
1125	 0.555598850748824 
1126	 0.554906387417061 
1127	 0.554192662459974 
1128	 0.553454224064836 
1129	 0.552689361884881 
1130	 0.55181219061958 
1131	 0.55091554622817 
1132	 0.550044208152999 
1133	 0.549165628016228 
1134	 0.548322185029989 
1135	 0.547447131283144 
1136	 0.546578541298599 
1137	 0.545668667243201 
1138	 0.544722036268739 
1139	 0.543769586814505 
1140	 0.54279977980105 
1141	 0.541836054021546 
1142	 0.540850426284097 
1143	 0.539874438124748 
1144	 0.538875180985461 
1145	 0.537817566959817 
1146	 0.536755113629294 
1147	 0.535631797557008 
1148	 0.534459291482291 
1149	 0.533326274910185 
1150	 0.532196812125889 
1151	 0.53107921633293 
1152	 0.52992887274207 
1153	 0.52878003414904 
1154	 0.527611846627817 
1155	 0.526387518019978 
1156	 0.525195656946992 
1157	 0.524051741951811 
1158	 0.522868396070624 
1159	 0.521669831754115 
1160	 0.520462971333359 
1161	 0.519188622226322 
1162	 0.517867207862114 
1163	 0.516642419453455 
1164	 0.51539568235263 
1165	 0.514196080263049 
1166	 0.513104062129524 
1167	 0.511905875653172 
1168	 0.510737230656088 
1169	 0.509597711895315 
1170	 0.508469331203342 
1171	 0.507326117995042 
1172	 0.506252407490236 
1173	 0.505082806353188 
1174	 0.503858622416529 
1175	 0.502641125755893 
1176	 0.501385175323493 
1177	 0.500117757502619 
1178	 0.49884885435278 
1179	 0.497527939367226 
1180	 0.496265586149219 
1181	 0.494938814082642 
1182	 0.493548118978609 
1183	 0.492335936193629 
1184	 0.491075686835034 
1185	 0.489851969296207 
1186	 0.488739036272406 
1187	 0.487712130443937 
1188	 0.486709600491506 
1189	 0.485786904504907 
1190	 0.484896013771745 
1191	 0.484028835167464 
1192	 0.483271797769595 
1193	 0.482597488990999 
1194	 0.481948975981012 
1195	 0.481354350952059 
1196	 0.480821675406265 
1197	 0.480354825637412 
1198	 0.479893805632205 
1199	 0.479474496139034 
1200	 0.47916950337586 
1201	 0.478833247716439 
1202	 0.478550374883522 
1203	 0.47838687217735 
1204	 0.478327413592236 
1205	 0.478396286123715 
1206	 0.478563553721416 
1207	 0.478893520166803 
1208	 0.479333762928529 
1209	 0.479955742622977 
1210	 0.48068533187698 
1211	 0.481681225180859 
1212	 0.482880465530005 
1213	 0.484273344793734 
1214	 0.4859078873932 
1215	 0.487711902860893 
1216	 0.48975000475407 
1217	 0.491851045359809 
1218	 0.494143334436831 
1219	 0.496517121276905 
1220	 0.498929416156302 
1221	 0.501533351103083 
1222	 0.50403234503811 
1223	 0.506558931997033 
1224	 0.509000643366133 
1225	 0.511383119078909 
1226	 0.513664187410071 
1227	 0.515917614231158 
1228	 0.518060256722081 
1229	 0.520116108943212 
1230	 0.522067390466551 
1231	 0.523951557066384 
1232	 0.525713026525639 
1233	 0.527318099346564 
1234	 0.528861167116354 
1235	 0.53028402167401 
1236	 0.531691699159951 
1237	 0.533062419036407 
1238	 0.534340374214363 
1239	 0.535548547585286 
1240	 0.536722452239677 
1241	 0.537793424635465 
1242	 0.538729366648668 
1243	 0.53966094701429 
1244	 0.54054077158632 
1245	 0.54136062021355 
1246	 0.542114886795816 
1247	 0.542850996685802 
1248	 0.543531789649981 
1249	 0.544195397320776 
1250	 0.544844991907301 
1251	 0.545428228947645 
1252	 0.545979105291085 
1253	 0.546464363955204 
1254	 0.546898514746296 
1255	 0.547269765229108 
1256	 0.547590598966595 
1257	 0.547838950300426 
1258	 0.547977173773718 
1259	 0.548123184364141 
1260	 0.548180745686806 
1261	 0.548280786290363 
1262	 0.548384471374708 
1263	 0.548524500864175 
1264	 0.548624182749145 
1265	 0.548722225440753 
1266	 0.548815508864226 
1267	 0.54886765262248 
1268	 0.548984840167707 
1269	 0.549156856359858 
1270	 0.549272309693423 
1271	 0.549418796790542 
1272	 0.549491499942218 
1273	 0.549458598740806 
1274	 0.549518971664891 
1275	 0.549593191470521 
1276	 0.549666929167985 
1277	 0.549764229499656 
1278	 0.549888394132031 
1279	 0.550004519493942 
1280	 0.550151445863555 
1281	 0.550344863509188 
1282	 0.550554384100799 
1283	 0.550750365294982 
1284	 0.551003074199564 
1285	 0.551297148594588 
1286	 0.551633363691744 
1287	 0.552009155438501 
1288	 0.552422125025388 
1289	 0.5528912455155 
1290	 0.55340116655746 
1291	 0.55397189108916 
1292	 0.554609191813424 
1293	 0.555271745452783 
1294	 0.555960484312702 
1295	 0.556736334007447 
1296	 0.557599092257283 
1297	 0.558450168736035 
1298	 0.559367531498854 
1299	 0.56028368495831 
1300	 0.561197042997478 
1301	 0.56212624229539 
1302	 0.563099703255243 
1303	 0.564057722997688 
1304	 0.565013818379476 
1305	 0.56595917543073 
1306	 0.56694625593607 
1307	 0.567856417046319 
1308	 0.568697488236659 
1309	 0.569558245573579 
1310	 0.570338216800922 
1311	 0.571075491030471 
1312	 0.571714139055611 
1313	 0.572288942540136 
1314	 0.572812212498452 
1315	 0.573255424607068 
1316	 0.573632981453647 
1317	 0.573970884979668 
1318	 0.574226433755471 
1319	 0.574416349489321 
1320	 0.57449120257292 
1321	 0.574501377175845 
1322	 0.574408619795644 
1323	 0.574208810866792 
1324	 0.573912209563118 
1325	 0.573547474511951 
1326	 0.573068284855077 
1327	 0.572454137085022 
1328	 0.571789433957677 
1329	 0.571088128675817 
1330	 0.570250305480482 
1331	 0.56933675363438 
1332	 0.56830791586438 
1333	 0.567158846724298 
1334	 0.565884534759173 
1335	 0.564620259586563 
1336	 0.563316902571352 
1337	 0.561884861793186 
1338	 0.560403061132518 
1339	 0.558838395843377 
1340	 0.557158391533886 
1341	 0.555445285034646 
1342	 0.553692449887539 
1343	 0.551878393938477 
1344	 0.550014208097132 
1345	 0.548052080336841 
1346	 0.546011918462449 
1347	 0.543963875714744 
1348	 0.541825133929945 
1349	 0.539693925126308 
1350	 0.537525728258684 
1351	 0.53539525551088 
1352	 0.53323347861612 
1353	 0.531105739106334 
1354	 0.528987663240728 
1355	 0.526939358874097 
1356	 0.524920442900964 
1357	 0.522925785700814 
1358	 0.520968120834215 
1359	 0.519061233504736 
1360	 0.517199361429897 
1361	 0.515329356750856 
1362	 0.513506684491109 
1363	 0.511797928411599 
1364	 0.510031160154219 
1365	 0.508286388252577 
1366	 0.506498264077987 
1367	 0.504702697540816 
1368	 0.502877668844422 
1369	 0.501043409458307 
1370	 0.499141332367397 
1371	 0.497195011501809 
1372	 0.495254507122266 
1373	 0.493280358372913 
1374	 0.491263183825068 
1375	 0.489251288663588 
1376	 0.48714161717676 
1377	 0.484964749667221 
1378	 0.482696425985567 
1379	 0.480276748089414 
1380	 0.477947434083172 
1381	 0.475586153008812 
1382	 0.473213004837277 
1383	 0.470848078846858 
1384	 0.468521058027386 
1385	 0.466115498437457 
1386	 0.463839056581425 
1387	 0.461665973667619 
1388	 0.459555475537438 
1389	 0.457509536074255 
1390	 0.455521394173588 
1391	 0.453672433246612 
1392	 0.451726100648387 
1393	 0.449927231831524 
1394	 0.448069795819075 
1395	 0.446086300887564 
1396	 0.444118372675302 
1397	 0.441900606209621 
1398	 0.439577580331225 
1399	 0.43696927204827 
1400	 0.434180575184201 
1401	 0.431135430390508 
1402	 0.427855435023225 
1403	 0.424316761139249 
1404	 0.420492570603346 
1405	 0.416601011218218 
1406	 0.412411758529366 
1407	 0.408273149315209 
1408	 0.40396371689363 
1409	 0.399803402860152 
1410	 0.395508431427632 
1411	 0.391521882280168 
1412	 0.387628430089757 
1413	 0.384048798319182 
1414	 0.380750633167789 
1415	 0.377562332653113 
1416	 0.374636846367526 
1417	 0.371761884460165 
1418	 0.369036632243551 
1419	 0.366336768286361 
1420	 0.363717377380796 
1421	 0.361194091371945 
1422	 0.358691747119132 
1423	 0.356318615867951 
1424	 0.354102965599145 
1425	 0.351874480790479 
1426	 0.349876602290195 
1427	 0.34801089762867 
1428	 0.346264589464872 
1429	 0.344792703388257 
1430	 0.343390063179948 
1431	 0.342105231950644 
1432	 0.340984585032365 
1433	 0.340017104021373 
1434	 0.339181578384998 
1435	 0.338514689698751 
1436	 0.337917186148538 
1437	 0.337454505515623 
1438	 0.3370638571125 
1439	 0.336746362654152 
1440	 0.336554807943064 
1441	 0.336499764287294 
1442	 0.336482749776233 
1443	 0.336571130033763 
1444	 0.336695888314648 
1445	 0.336866827333336 
1446	 0.337108000346853 
1447	 0.337425307076939 
1448	 0.337786360013648 
1449	 0.338230252344421 
1450	 0.338675137621142 
1451	 0.339177969527704 
1452	 0.339666963153485 
1453	 0.340174831103815 
1454	 0.34066699396902 
1455	 0.341166390652847 
1456	 0.341648894606831 
1457	 0.342102581530295 
1458	 0.342578648839323 
1459	 0.343039097839795 
1460	 0.343533897952342 
1461	 0.344063763987958 
1462	 0.344588759709942 
1463	 0.34513175930973 
1464	 0.345675900422985 
1465	 0.346196659856544 
1466	 0.346761722400699 
1467	 0.347345640861599 
1468	 0.347955162288307 
1469	 0.348616098920632 
1470	 0.349240007122041 
1471	 0.349878582997091 
1472	 0.35051335022514 
1473	 0.351176566281773 
1474	 0.35185930522503 
1475	 0.352526068948201 
1476	 0.353201600985693 
1477	 0.353883689457785 
1478	 0.354566040519067 
1479	 0.355223507351478 
1480	 0.355886805299363 
1481	 0.356541444628327 
1482	 0.357168436850363 
1483	 0.357798066794257 
1484	 0.358459292997598 
1485	 0.359061121815628 
1486	 0.359613623224765 
1487	 0.360175726457101 
1488	 0.360704323077789 
1489	 0.361258745576967 
1490	 0.361820170843217 
1491	 0.362389650103751 
1492	 0.362950793606984 
1493	 0.363554235267006 
1494	 0.36420198483819 
1495	 0.364810086179807 
1496	 0.365428165814061 
1497	 0.366042458632586 
1498	 0.366618295190171 
1499	 0.367226722302267 
1500	 0.36787306530782 
1501	 0.368498659398369 
1502	 0.369101404924985 
1503	 0.369732154576367 
1504	 0.370385143107564 
1505	 0.371020722049442 
1506	 0.37168509400042 
1507	 0.372315620806859 
1508	 0.372903086459605 
1509	 0.37350497838857 
1510	 0.37411013763061 
1511	 0.374693841332142 
1512	 0.375276977757422 
1513	 0.375843155202678 
1514	 0.37638064408372 
1515	 0.376920150583326 
1516	 0.377461285279563 
1517	 0.377984704963068 
1518	 0.378496466629406 
1519	 0.378995766903936 
1520	 0.379496153119652 
1521	 0.37995511911009 
1522	 0.380393534446677 
1523	 0.380849736547204 
1524	 0.38124699087873 
1525	 0.381601474800273 
1526	 0.38197757630739 
1527	 0.382331772323428 
1528	 0.38268779831229 
1529	 0.383056258311935 
1530	 0.383397099871225 
1531	 0.383697486648371 
1532	 0.384057936390061 
1533	 0.384446318317514 
1534	 0.384801600257897 
1535	 0.385180979857432 
1536	 0.385517879531307 
1537	 0.385815137394672 
1538	 0.38611453140971 
1539	 0.386420334602192 
1540	 0.386682405163611 
1541	 0.386912400878797 
1542	 0.387135019345016 
1543	 0.387330883481243 
1544	 0.387522877114442 
1545	 0.387713526104886 
1546	 0.387869720420918 
1547	 0.388002538674972 
1548	 0.38812379222756 
1549	 0.388226450908722 
1550	 0.388303826484521 
1551	 0.388371024509657 
1552	 0.388403044438472 
1553	 0.388372796405716 
1554	 0.38839219632445 
1555	 0.388407407980473 
1556	 0.388435906149992 
1557	 0.388500036761975 
1558	 0.388538691777809 
1559	 0.388544466498799 
1560	 0.388600035228022 
1561	 0.388681434421296 
1562	 0.38875369256908 
1563	 0.388834984021189 
1564	 0.388944015862257 
1565	 0.389051041559892 
1566	 0.389183964313749 
1567	 0.389368564620219 
1568	 0.389533822652247 
1569	 0.389689587975718 
1570	 0.389864187386474 
1571	 0.390030063703186 
1572	 0.390244169835419 
1573	 0.390487545658148 
1574	 0.390746859754355 
1575	 0.391062909024485 
1576	 0.391348339118734 
1577	 0.39163262082681 
1578	 0.391913444718789 
1579	 0.39219909834282 
1580	 0.392457766419025 
1581	 0.392700520338375 
1582	 0.392941668827256 
1583	 0.393141910617507 
1584	 0.393382645969266 
1585	 0.393637554922505 
1586	 0.393909645899861 
1587	 0.394220560518713 
1588	 0.394507540593771 
1589	 0.394791162357325 
1590	 0.39508132919749 
1591	 0.395365814880313 
1592	 0.395653875371649 
1593	 0.395949437099655 
1594	 0.396248037236239 
1595	 0.396541889389397 
1596	 0.396842337899028 
1597	 0.397180114855146 
1598	 0.397468471170128 
1599	 0.39773962299363 
1600	 0.397990119311119 
1601	 0.398186733479291 
1602	 0.398406837498035 
1603	 0.398631966751223 
1604	 0.398845678599455 
1605	 0.399047765475342 
1606	 0.399266191376396 
1607	 0.399501028824022 
1608	 0.399709664953761 
1609	 0.39994407185789 
1610	 0.400123045271126 
1611	 0.400266265067074 
1612	 0.400369686461028 
1613	 0.400413605901264 
1614	 0.400466218084983 
1615	 0.400463101313216 
1616	 0.400502280893057 
1617	 0.400586175263518 
1618	 0.400633560792271 
1619	 0.400702216632887 
1620	 0.400723004029993 
1621	 0.400704766322864 
1622	 0.400660523027522 
1623	 0.400581425241949 
1624	 0.400485438411781 
1625	 0.400345569568715 
1626	 0.400216492472681 
1627	 0.400087767968076 
1628	 0.399939430413785 
1629	 0.399755317186901 
1630	 0.399610440070392 
1631	 0.399484896802216 
1632	 0.39933670322604 
1633	 0.399207670623659 
1634	 0.399070572615673 
1635	 0.398916362870769 
1636	 0.398745040590594 
1637	 0.398591622432463 
1638	 0.398395340933398 
1639	 0.398163639777062 
1640	 0.397900065675714 
1641	 0.397619852049566 
1642	 0.397292473860661 
1643	 0.396919144876972 
1644	 0.396523209505942 
1645	 0.39608950747749 
1646	 0.395628067631531 
1647	 0.395153440226878 
1648	 0.394615196152178 
1649	 0.394036869973528 
1650	 0.39340822913016 
1651	 0.392732566868564 
1652	 0.391999567841705 
1653	 0.391193692863718 
1654	 0.390370640090005 
1655	 0.389488143272044 
1656	 0.388594726397742 
1657	 0.387713470034372 
1658	 0.386749956825606 
1659	 0.385742398630518 
1660	 0.384683606407349 
1661	 0.383596581591386 
1662	 0.382387172089145 
1663	 0.381087922444108 
1664	 0.379716551687257 
1665	 0.378244517133332 
1666	 0.376683418340724 
1667	 0.375094160496507 
1668	 0.373365905450403 
1669	 0.371550382347353 
1670	 0.369550699626446 
1671	 0.367391449068119 
1672	 0.36510161491724 
1673	 0.362668018282085 
1674	 0.360064045686913 
1675	 0.357307297906075 
1676	 0.35448062710305 
1677	 0.351487892326052 
1678	 0.348427856247806 
1679	 0.34525513434653 
1680	 0.342028190619909 
1681	 0.338698623858832 
1682	 0.335277099958403 
1683	 0.331800481288195 
1684	 0.328313040565497 
1685	 0.324692192274461 
1686	 0.321137834207215 
1687	 0.317560280272979 
1688	 0.313988462953785 
1689	 0.310429820870348 
1690	 0.306853599580287 
1691	 0.303286102230054 
1692	 0.299805660373066 
1693	 0.296345339278323 
1694	 0.292897088314195 
1695	 0.289503831016855 
1696	 0.286067963762521 
1697	 0.28264176616287 
1698	 0.279105712897373 
1699	 0.275536988163605 
1700	 0.272031878350946 
1701	 0.268421557351145 
1702	 0.264983476657408 
1703	 0.261595702765274 
1704	 0.258336762051229 
1705	 0.255130806111314 
1706	 0.252039514361789 
1707	 0.2492941081465 
1708	 0.24671078102031 
1709	 0.244313216205317 
1710	 0.242153712578774 
1711	 0.240064957136181 
1712	 0.238151223275058 
1713	 0.236267088936279 
1714	 0.234430637543735 
1715	 0.232790595693899 
1716	 0.231088336204452 
1717	 0.229515859362331 
1718	 0.22812457283318 
1719	 0.22673318915703 
1720	 0.225509809091733 
1721	 0.224397113848535 
1722	 0.223370778910616 
1723	 0.222571324904834 
1724	 0.221983707764372 
1725	 0.221651735405195 
1726	 0.22158608859876 
1727	 0.221812832103167 
1728	 0.222369943486424 
1729	 0.223286983316296 
1730	 0.224585091218633 
1731	 0.226098929899315 
1732	 0.227881517041204 
1733	 0.229769839749763 
1734	 0.231769575305265 
1735	 0.233894015677347 
1736	 0.235874617340168 
1737	 0.237773298937809 
1738	 0.23948767873776 
1739	 0.240884249617562 
1740	 0.242093101333382 
1741	 0.24299992976967 
1742	 0.243578925047525 
1743	 0.243988461422333 
1744	 0.244112704596419 
1745	 0.244100709480188 
1746	 0.243833247533205 
1747	 0.243528285566087 
1748	 0.243034160405764 
1749	 0.24260343597591 
1750	 0.242088212141314 
1751	 0.241649469104591 
1752	 0.24119782940689 
1753	 0.240878511849599 
1754	 0.240599438221464 
1755	 0.240486491753949 
1756	 0.240459377656435 
1757	 0.240578261055499 
1758	 0.240927682510616 
1759	 0.241449490061143 
1760	 0.242214777184653 
1761	 0.243218768526039 
1762	 0.244306795915141 
1763	 0.245621098111256 
1764	 0.247126279035318 
1765	 0.248803390165779 
1766	 0.250737121734334 
1767	 0.252756133542778 
1768	 0.254862778390141 
1769	 0.256970155061535 
1770	 0.25896563674668 
1771	 0.260947437316725 
1772	 0.262812947315334 
1773	 0.264608354213373 
1774	 0.266396056894733 
1775	 0.267999184232979 
1776	 0.269546300063924 
1777	 0.2709671825223 
1778	 0.27211173741141 
1779	 0.273204545668362 
1780	 0.274181145895721 
1781	 0.274979591035464 
1782	 0.275766922574743 
1783	 0.276443373356939 
1784	 0.277031448341495 
1785	 0.277604644383579 
1786	 0.278124837246745 
1787	 0.278606684995582 
1788	 0.279032990591388 
1789	 0.279397504228022 
1790	 0.279724321307958 
1791	 0.279993007373728 
1792	 0.280267392080732 
1793	 0.2804733680967 
1794	 0.280709444440242 
1795	 0.280965963328981 
1796	 0.281156640096718 
1797	 0.281391739859318 
1798	 0.281646113198033 
1799	 0.281913138510848 
1800	 0.282248046426879 
1801	 0.285128097477634 
1802	 0.285513699028668 
1803	 0.285902367984433 
1804	 0.286278118555967 
1805	 0.286650369585427 
1806	 0.287029782037352 
1807	 0.287415845633039 
1808	 0.287780332561717 
1809	 0.288134651041589 
1810	 0.288497223561398 
1811	 0.28884919526054 
1812	 0.289204080196107 
1813	 0.289572836038562 
1814	 0.289934228512252 
1815	 0.290274025747068 
1816	 0.290624768129955 
1817	 0.290999484346022 
1818	 0.291385972363076 
1819	 0.29178516693076 
1820	 0.292205255552701 
1821	 0.292622354480615 
1822	 0.293015456623285 
1823	 0.293488369456335 
1824	 0.293963516711582 
1825	 0.294422767565931 
1826	 0.294863652923277 
1827	 0.295297874264939 
1828	 0.295721875500644 
1829	 0.296120830742064 
1830	 0.296533600017563 
1831	 0.296946096784388 
1832	 0.297386214224922 
1833	 0.297785540676134 
1834	 0.298173902731697 
1835	 0.2986060986121 
1836	 0.299018513718812 
1837	 0.29942269475481 
1838	 0.299824722360252 
1839	 0.300239624246343 
1840	 0.30065597106452 
1841	 0.30105697118147 
1842	 0.301461056762794 
1843	 0.301860466689574 
1844	 0.302261305209946 
1845	 0.302624346090616 
1846	 0.303031580392968 
1847	 0.303449340265292 
1848	 0.303805402175012 
1849	 0.304160069422528 
1850	 0.30444601530606 
1851	 0.304684486750228 
1852	 0.304874412426131 
1853	 0.305007116798737 
1854	 0.305075085050307 
1855	 0.30512493982912 
1856	 0.305130761198029 
1857	 0.305067244307258 
1858	 0.304956016395281 
1859	 0.30476851896307 
1860	 0.304489591786679 
1861	 0.304157425219504 
1862	 0.303770939874487 
1863	 0.303326307800041 
1864	 0.302792664608447 
1865	 0.302233447591349 
1866	 0.301626292881776 
1867	 0.300862388264925 
1868	 0.299999385305183 
1869	 0.299018728388413 
1870	 0.297929879868356 
1871	 0.296711930841649 
1872	 0.295459362903155 
1873	 0.294145601599864 
1874	 0.292723205519377 
1875	 0.291247477836664 
1876	 0.289539735941981 
1877	 0.287799892588904 
1878	 0.285872506148747 
1879	 0.28371226011196 
1880	 0.28155387476577 
1881	 0.279114035044834 
1882	 0.276434270366587 
1883	 0.273606766618629 
1884	 0.270566345811625 
1885	 0.267038610401406 
1886	 0.263362186059833 
1887	 0.259382447004725 
1888	 0.255077892857932 
1889	 0.250929569027649 
1890	 0.24653865107178 
1891	 0.242102324826822 
1892	 0.237656052192431 
1893	 0.233017695553844 
1894	 0.228118637638087 
1895	 0.223375795560818 
1896	 0.218534733412644 
1897	 0.213705929929555 
1898	 0.209299702987751 
1899	 0.204823114712823 
1900	 0.200472130878396 
1901	 0.196337490432689 
1902	 0.192042414251667 
1903	 0.188032519961719 
1904	 0.184181956666658 
1905	 0.180452780821874 
1906	 0.176871230745437 
1907	 0.173721275358687 
1908	 0.170618741519476 
1909	 0.167723842549597 
1910	 0.165056898653505 
1911	 0.162344900350016 
1912	 0.159868011882234 
1913	 0.157545344414203 
1914	 0.155325397655265 
1915	 0.153346745666972 
1916	 0.151638874899865 
1917	 0.150000340249168 
1918	 0.148474449935521 
1919	 0.147102197608356 
1920	 0.145735690013592 
1921	 0.144514881742297 
1922	 0.143418801531976 
1923	 0.142413604067769 
1924	 0.141593064663122 
1925	 0.140837086822769 
1926	 0.140162178983407 
1927	 0.139576170392659 
1928	 0.139089872981049 
1929	 0.138681850049894 
1930	 0.138381920966355 
1931	 0.138192261110981 
1932	 0.138061655391607 
1933	 0.138008451834836 
1934	 0.138020374125088 
1935	 0.138087790001443 
1936	 0.138236592007891 
1937	 0.138461997018807 
1938	 0.138771806302252 
1939	 0.139133459312807 
1940	 0.139576546650481 
1941	 0.140068762133147 
1942	 0.140556771609143 
1943	 0.141128983382252 
1944	 0.141717009114211 
1945	 0.142327601382397 
1946	 0.143081548524487 
1947	 0.14382821849013 
1948	 0.144586292972195 
1949	 0.145422791577652 
1950	 0.146233110688894 
1951	 0.147014526097389 
1952	 0.147852984785878 
1953	 0.148732106869265 
1954	 0.149595598594129 
1955	 0.150524105832558 
1956	 0.151440095150679 
1957	 0.15232599684277 
1958	 0.15323314101549 
1959	 0.1540755218528 
1960	 0.154924816860389 
1961	 0.155782502919109 
1962	 0.156630975638498 
1963	 0.157492339456733 
1964	 0.158366145581267 
1965	 0.159223157086171 
1966	 0.160075584297782 
1967	 0.160969561370795 
1968	 0.161781518908549 
1969	 0.16265023270467 
1970	 0.16350951522478 
1971	 0.164346490135974 
1972	 0.165286609894493 
1973	 0.166170342267733 
1974	 0.167053167482806 
1975	 0.167988185218615 
1976	 0.168842391559988 
1977	 0.169623986741967 
1978	 0.170427132087532 
1979	 0.171207537115331 
1980	 0.171956811866029 
1981	 0.17277350737404 
1982	 0.173600670276472 
1983	 0.17440552472732 
1984	 0.175172865607158 
1985	 0.175871645148866 
1986	 0.176557262448954 
1987	 0.177253033061753 
1988	 0.177946771481671 
1989	 0.178635988243968 
1990	 0.179352576610869 
1991	 0.179997778986105 
1992	 0.180608382293594 
1993	 0.181212683849506 
1994	 0.181738468690813 
1995	 0.182286023045258 
1996	 0.182828411189864 
1997	 0.18332122355898 
1998	 0.183817032780409 
1999	 0.184319187847002 
2000	 0.184749124679001 
2001	 0.185166869362488 
2002	 0.185517189894327 
2003	 0.185768253112649 
2004	 0.186046654427007 
2005	 0.186317331117502 
2006	 0.186543832566557 
2007	 0.186752337094777 
2008	 0.186952577024007 
2009	 0.18707715260737 
2010	 0.187114999588999 
2011	 0.18714025221312 
2012	 0.187084900690572 
2013	 0.186964557838276 
2014	 0.186778794769549 
2015	 0.186544064295236 
2016	 0.186230539223942 
2017	 0.185888716133353 
2018	 0.185507972464387 
2019	 0.185068851461196 
2020	 0.184571203770417 
2021	 0.184020054454686 
2022	 0.183481727329023 
2023	 0.182892136703315 
2024	 0.182220504051885 
2025	 0.181550784177602 
2026	 0.180795286283164 
2027	 0.179901227767919 
2028	 0.179073406835156 
2029	 0.178229637367127 
2030	 0.17737922687874 
2031	 0.176525640020472 
2032	 0.175676529108922 
2033	 0.174797999961115 
2034	 0.173964302038607 
2035	 0.173136084691848 
2036	 0.172336425612894 
2037	 0.17160560235724 
2038	 0.170875120030881 
2039	 0.170177280015774 
2040	 0.169512523425495 
2041	 0.168871095186147 
2042	 0.168246742580873 
2043	 0.167667850591184 
2044	 0.167105911015312 
2045	 0.166609507585748 
2046	 0.166185121162384 
2047	 0.165756060401484 
2048	 0.165378908650787 
2049	 0.165008710347857 
2050	 0.164652599483139 
2051	 0.164284009275832 
2052	 0.16395794232268 
2053	 0.163685181075973 
2054	 0.163431005787412 
2055	 0.16322652158241 
2056	 0.16299436942307 
2057	 0.162771249025101 
2058	 0.162562735434128 
2059	 0.162362781539212 
2060	 0.162157065879846 
2061	 0.161978183046016 
2062	 0.16177605105536 
2063	 0.161547811906678 
2064	 0.161324080076264 
2065	 0.161083286795267 
2066	 0.160872236856939 
2067	 0.160655903001369 
2068	 0.160470307182405 
2069	 0.160296666012429 
2070	 0.160159482019849 
2071	 0.159993073937648 
2072	 0.159839993913883 
2073	 0.159651087949586 
2074	 0.159442965498895 
2075	 0.159228763847115 
2076	 0.159004470914709 
2077	 0.15876072960133 
2078	 0.158475626468493 
2079	 0.158223045966867 
2080	 0.157950957517971 
2081	 0.157707267962702 
2082	 0.157493408145216 
2083	 0.157307801632111 
2084	 0.157086022596125 
2085	 0.15689923585712 
2086	 0.156707837920025 
2087	 0.156514716059896 
2088	 0.156330955699622 
2089	 0.156165049690984 
2090	 0.155986373567919 
2091	 0.155817407740909 
2092	 0.155625188303365 
2093	 0.155407806789338 
2094	 0.155210733204669 
2095	 0.155002141020514 
2096	 0.154810008187075 
2097	 0.154630924005607 
2098	 0.154470437015981 
2099	 0.154336142565297 
2100	 0.154143635649788 
2101	 0.15395863057437 
2102	 0.153786578739515 
2103	 0.153571652193506 
2104	 0.153305216047452 
2105	 0.153085705476676 
2106	 0.152861633884634 
2107	 0.152645077363329 
2108	 0.152474568775029 
2109	 0.152251117176903 
2110	 0.15200766514558 
2111	 0.151746817430225 
2112	 0.151438354200831 
2113	 0.151158128846671 
2114	 0.150866142869999 
2115	 0.150588325331756 
2116	 0.1503191093638 
2117	 0.150080506086044 
2118	 0.149824336666415 
2119	 0.14957022410928 
2120	 0.149316285828313 
2121	 0.14904445881894 
2122	 0.148817097646368 
2123	 0.148617937798728 
2124	 0.148404503721626 
2125	 0.148207770045574 
2126	 0.148013689836069 
2127	 0.147789841870028 
2128	 0.147617024497598 
2129	 0.1474800823976 
2130	 0.147356089133135 
2131	 0.147276581893782 
2132	 0.147176731949143 
2133	 0.147080694802563 
2134	 0.146994991438007 
2135	 0.146888110472638 
2136	 0.146775532855877 
2137	 0.146636361414044 
2138	 0.146459471685096 
2139	 0.146336170048617 
2140	 0.14621402774746 
2141	 0.146095808191096 
2142	 0.146017068152002 
2143	 0.145919995060057 
2144	 0.145765402700096 
2145	 0.145702238399448 
2146	 0.145680130343377 
2147	 0.145688953063498 
2148	 0.145774127894024 
2149	 0.145833840313793 
2150	 0.145886443248024 
2151	 0.145978304968407 
2152	 0.146098251793936 
2153	 0.146219189370884 
2154	 0.146357998066692 
2155	 0.146484180445306 
2156	 0.146574000721524 
2157	 0.146611215625879 
2158	 0.146686015346666 
2159	 0.146769882301386 
2160	 0.146829252732298 
2161	 0.146897083232518 
2162	 0.146940824561067 
2163	 0.14692517627532 
2164	 0.146970932838543 
2165	 0.147046951007393 
2166	 0.147102309022926 
2167	 0.147165913717652 
2168	 0.147247674927606 
2169	 0.147286731351289 
2170	 0.147396903594486 
2171	 0.147607102236581 
2172	 0.147758019423298 
2173	 0.147884814147352 
2174	 0.148064173512183 
2175	 0.148218935146693 
2176	 0.148356190633736 
2177	 0.148541278913704 
2178	 0.148773937181965 
2179	 0.148993308095803 
2180	 0.149242270375106 
2181	 0.149433531680533 
2182	 0.149592987612187 
2183	 0.149791225276592 
2184	 0.149950048950654 
2185	 0.150163788555244 
2186	 0.150449188771311 
2187	 0.150702564888877 
2188	 0.150935814479081 
2189	 0.151208965392 
2190	 0.151531514200416 
2191	 0.151810436579967 
2192	 0.15210615870813 
2193	 0.152365990976313 
2194	 0.152569467238934 
2195	 0.152780889260585 
2196	 0.152987726501536 
2197	 0.153189319146269 
2198	 0.15337650341065 
2199	 0.153550408730041 
2200	 0.153706168043393 
2201	 0.153847237056959 
2202	 0.153967657981315 
2203	 0.154060276177179 
2204	 0.154164286403831 
2205	 0.154262528413812 
2206	 0.15434712974442 
2207	 0.154434409755664 
2208	 0.154493333713151 
2209	 0.154520787029984 
2210	 0.154546030899982 
2211	 0.154565632651271 
2212	 0.154574644750588 
2213	 0.154609718056589 
2214	 0.154554916568566 
2215	 0.15443237052548 
2216	 0.154319005838588 
2217	 0.154159054768617 
2218	 0.153983940301996 
2219	 0.153844827449577 
2220	 0.153623649757785 
2221	 0.15332336818387 
2222	 0.153012428875609 
2223	 0.152674048000443 
2224	 0.152302651125426 
2225	 0.151884179076007 
2226	 0.151401017917365 
2227	 0.150865618409667 
2228	 0.150260466095708 
2229	 0.149608272498464 
2230	 0.148896781873533 
2231	 0.148156253309929 
2232	 0.14738790157058 
2233	 0.14649552860006 
2234	 0.145610498075469 
2235	 0.144498120223869 
2236	 0.143191360913584 
2237	 0.141842910765267 
2238	 0.140320349716189 
2239	 0.138781571488033 
2240	 0.137193913879297 
2241	 0.135517448783976 
2242	 0.133806163752818 
2243	 0.131958618767587 
2244	 0.129992824147835 
2245	 0.12796091544087 
2246	 0.12570153911155 
2247	 0.12354568696683 
2248	 0.12138173992497 
2249	 0.119207985360176 
2250	 0.117058798144098 
2251	 0.114958892188822 
2252	 0.112657685281012 
2253	 0.11051535493997 
2254	 0.108305885397395 
2255	 0.106020481566658 
2256	 0.103976813870123 
2257	 0.101911187555994 
2258	 9.99907632636165E-02 
2259	 9.82474358971689E-02 
2260	 9.64542068231652E-02 
2261	 9.46884172429577E-02 
2262	 9.30083197418625E-02 
2263	 9.13211364115599E-02 
2264	 8.98048782141716E-02 
2265	 8.84357165911489E-02 
2266	 8.70773817335654E-02 
2267	 8.58713661090036E-02 
2268	 8.45853207970356E-02 
2269	 8.32880746929026E-02 
2270	 8.20332107963431E-02 
2271	 8.07325489717733E-02 
2272	 7.95537026164951E-02 
2273	 7.84914338562828E-02 
2274	 7.73960694081675E-02 
2275	 0.076373999029249 
2276	 0.075314096430865 
2277	 7.41982721411624E-02 
2278	 7.31496944137043E-02 
2279	 7.21674905925856E-02 
2280	 7.11280104179871E-02 
2281	 7.00957649872928E-02 
2282	 6.90573359401876E-02 
2283	 6.80065458077556E-02 
2284	 6.69076465426018E-02 
2285	 6.57928766763144E-02 
2286	 6.46474329334348E-02 
2287	 6.34042175415756E-02 
2288	 6.21717822844553E-02 
2289	 6.10255374168982E-02 
2290	 5.98360901492475E-02 
2291	 5.86946250692408E-02 
2292	 5.75772248902493E-02 
2293	 5.64039580412282E-02 
2294	 5.53083863397438E-02 
2295	 0.05422771041093 
2296	 5.31683312434573E-02 
2297	 5.22273902733596E-02 
2298	 5.13502345884486E-02 
2299	 5.05984261934914E-02 
2300	 4.99310863958281E-02 
2301	 4.94184906527393E-02 
2302	 0.048991186939415 
2303	 0.048811423303972 
2304	 4.88548803928975E-02 
2305	 4.90008296770172E-02 
2306	 4.93915521629009E-02 
2307	 4.97879310104036E-02 
2308	 5.02230734584352E-02 
2309	 5.08360241016159E-02 
2310	 5.15902487321301E-02 
2311	 5.24309654868839E-02 
2312	 5.35200720861023E-02 
2313	 5.44967883160087E-02 
2314	 5.55281820272868E-02 
2315	 5.65151738886008E-02 
2316	 5.74893353302417E-02 
2317	 5.84014994283034E-02 
2318	 5.93348924357561E-02 
2319	 6.01123273194603E-02 
2320	 6.08503548716137E-02 
2321	 6.13743566227567E-02 
2322	 0.061675584500366 
2323	 6.19645729136468E-02 
2324	 0.06211051225322 
2325	 6.21940925761994E-02 
2326	 6.22449507087606E-02 
2327	 6.21768440963212E-02 
2328	 6.19654317382103E-02 
2329	 6.16931443571539E-02 
2330	 6.13211330990382E-02 
2331	 6.09105827605668E-02 
2332	 0.060414110093911 
2333	 5.98240015568628E-02 
2334	 5.92195976694743E-02 
2335	 5.85586546917432E-02 
2336	 5.77903890481897E-02 
2337	 5.69554100632403E-02 
2338	 5.61240853747945E-02 
2339	 5.52671334047474E-02 
2340	 5.44239944456645E-02 
2341	 5.37410704679813E-02 
2342	 5.30881352459431E-02 
2343	 5.24341122777819E-02 
2344	 5.19745352850742E-02 
2345	 5.16437031486041E-02 
2346	 5.14356743420822E-02 
2347	 5.15120627225893E-02 
2348	 0.051777537836205 
2349	 0.052193136164431 
2350	 5.27500504321753E-02 
2351	 5.34443866309502E-02 
2352	 5.42679551595485E-02 
2353	 5.50478781328789E-02 
2354	 5.56559848285388E-02 
2355	 5.62053392453508E-02 
2356	 0.056669309040683 
2357	 5.71081492637898E-02 
2358	 5.75683459741158E-02 
2359	 5.79574428034455E-02 
2360	 5.83538725608998E-02 
2361	 5.86479623573192E-02 
2362	 0.058837217713504 
2363	 5.90112381366015E-02 
2364	 5.90861196246123E-02 
2365	 0.059013603973914 
2366	 5.90684609245363E-02 
2367	 5.92010664211505E-02 
2368	 5.92373302153527E-02 
2369	 5.93381105655406E-02 
2370	 5.93328865210929E-02 
2371	 5.91850844133211E-02 
2372	 5.91380261831076E-02 
2373	 5.91041591527262E-02 
2374	 0.05902777898725 
2375	 5.90834478955251E-02 
2376	 5.91142927741168E-02 
2377	 5.90487752948747E-02 
2378	 5.90743695362555E-02 
2379	 5.92243849028121E-02 
2380	 5.93837564264451E-02 
2381	 5.94066566312981E-02 
2382	 5.94739381517238E-02 
2383	 5.95472057993668E-02 
2384	 5.95742953069348E-02 
2385	 5.95813130368255E-02 
2386	 5.96846195150347E-02 
2387	 5.97754963567551E-02 
2388	 5.98730351332151E-02 
2389	 0.060108502956309 
2390	 6.01429387129313E-02 
2391	 6.00302714610278E-02 
2392	 6.00144769899125E-02 
2393	 5.98803070675472E-02 
2394	 5.98624983879025E-02 
2395	 6.00087346582018E-02 
2396	 6.00832982041517E-02 
2397	 6.02274161033658E-02 
2398	 6.02300075076313E-02 
2399	 6.01039141561999E-02 
2400	 6.00293893880311E-02 
2401	 5.97849034623998E-02 
2402	 5.98563589010258E-02 
2403	 5.99853051550255E-02 
2404	 5.98696967535258E-02 
2405	 5.99257213292021E-02 
2406	 5.98688204558674E-02 
2407	 5.96877942630626E-02 
2408	 5.95675289179666E-02 
2409	 0.059542353588311 
2410	 0.059616005562852 
2411	 5.96679919582124E-02 
2412	 5.97913188658162E-02 
2413	 5.98631726909002E-02 
2414	 0.059726055919787 
2415	 0.059502259875 
2416	 5.92971633896542E-02 
2417	 5.91703093618418E-02 
2418	 5.90497255996077E-02 
2419	 5.87988228331713E-02 
2420	 5.85818298644117E-02 
2421	 5.85949255744303E-02 
2422	 0.0587036296398 
2423	 5.88363075439793E-02 
2424	 5.88829981155882E-02 
2425	 5.85873813169475E-02 
2426	 5.81529161386498E-02 
2427	 5.78821372290061E-02 
2428	 5.77179413093949E-02 
2429	 5.75320680582093E-02 
2430	 5.72664682453587E-02 
2431	 5.71761585597898E-02 
2432	 5.72272581261742E-02 
2433	 5.71939569227619E-02 
2434	 5.72418237527489E-02 
2435	 5.69570156308596E-02 
2436	 5.62641833532207E-02 
2437	 5.58275000943421E-02 
2438	 5.56050624984672E-02 
2439	 5.54257508262086E-02 
2440	 5.52687774924448E-02 
2441	 5.52485231116027E-02 
2442	 5.52405862908141E-02 
2443	 0.055125298675478 
2444	 0.055169893969818 
2445	 5.49471062152255E-02 
2446	 5.45085110039554E-02 
2447	 5.39427343979486E-02 
2448	 5.32459128231599E-02 
2449	 5.28067647409113E-02 
2450	 5.24796282784625E-02 
2451	 5.21537651441066E-02 
2452	 0.051984211535944 
2453	 5.20943597785062E-02 
2454	 0.051924899632175 
2455	 5.16728013333349E-02 
2456	 5.16833366176233E-02 
2457	 0.051179890049022 
2458	 5.04947159865623E-02 
2459	 5.01359172098112E-02 
2460	 4.97825272830208E-02 
2461	 4.95192355603449E-02 
2462	 4.92951896298967E-02 
2463	 4.91204929201709E-02 
2464	 4.87814003441913E-02 
2465	 4.82704331131804E-02 
2466	 4.82116965960275E-02 
2467	 4.80445931644638E-02 
2468	 4.78071827078838E-02 
2469	 4.78866340151856E-02 
2470	 4.77335096070508E-02 
2471	 4.77703309073541E-02 
2472	 4.78646212572903E-02 
2473	 4.76986803399311E-02 
2474	 4.77315987478849E-02 
2475	 0.047573785326249 
2476	 0.047275525315077 
2477	 4.69695416337133E-02 
2478	 4.64547768251491E-02 
2479	 4.59954631190084E-02 
2480	 4.60360768646007E-02 
2481	 0.046220516620801 
2482	 4.67078627964484E-02 
2483	 0.046846943298703 
2484	 4.69202362793919E-02 
2485	 4.65824049207973E-02 
2486	 4.63209790058452E-02 
2487	 4.62783971718334E-02 
2488	 4.61864775423016E-02 
2489	 4.61049383989777E-02 
2490	 4.63084212090566E-02 
2491	 4.65659279667889E-02 
2492	 4.67126445000249E-02 
2493	 4.69797100452867E-02 
2494	 4.69433588118253E-02 
2495	 4.66322250770515E-02 
2496	 0.046456379757948 
2497	 4.61627763281101E-02 
2498	 4.59781633100146E-02 
2499	 4.60128342393507E-02 
2500	 4.61103823219338E-02 
