Wavelength	spectrum00022.asd
350	 0.317949017641445 
351	 0.31909925496699 
352	 0.3164434924519 
353	 0.312607423937152 
354	 0.314286276438768 
355	 0.319040037768645 
356	 0.320892354738619 
357	 0.317616893931232 
358	 0.319244984833397 
359	 0.322742876297481 
360	 0.325346602176594 
361	 0.324985134338196 
362	 0.322505116070684 
363	 0.324612481923086 
364	 0.330405780505556 
365	 0.328890342369673 
366	 0.3303181489919 
367	 0.334474164104689 
368	 0.338339872548163 
369	 0.33822274839154 
370	 0.340639168454697 
371	 0.345460049527336 
372	 0.348781942126429 
373	 0.351504771012185 
374	 0.35469980552853 
375	 0.357852705587215 
376	 0.35812873934934 
377	 0.360963066573188 
378	 0.365334187453053 
379	 0.368903262646891 
380	 0.371355695881147 
381	 0.372859637678376 
382	 0.3748476184917 
383	 0.378876879018476 
384	 0.379898808628315 
385	 0.382320047999571 
386	 0.38716781515025 
387	 0.388726730743229 
388	 0.39143191727009 
389	 0.394806882332092 
390	 0.39754583068909 
391	 0.40039878887984 
392	 0.403411567157495 
393	 0.406219146351529 
394	 0.408299213594828 
395	 0.410250403150051 
396	 0.412197886132802 
397	 0.414338849493395 
398	 0.417128376673812 
399	 0.420037470068327 
400	 0.422790509352213 
401	 0.425224201776843 
402	 0.426982547563174 
403	 0.429884998146713 
404	 0.433050251813766 
405	 0.433948937976853 
406	 0.437008952990015 
407	 0.439797795816317 
408	 0.441068809113436 
409	 0.443816954582743 
410	 0.446396843670999 
411	 0.448356325693683 
412	 0.449870777554269 
413	 0.452217341973471 
414	 0.454597002008449 
415	 0.456813282833572 
416	 0.459274519297075 
417	 0.461185981842721 
418	 0.463176046357976 
419	 0.465551608592296 
420	 0.467300423861364 
421	 0.468925580562074 
422	 0.470496093239135 
423	 0.471945923308866 
424	 0.473391473736654 
425	 0.475421883679338 
426	 0.477722255929428 
427	 0.478966515832797 
428	 0.480749989877285 
429	 0.482543348894747 
430	 0.483821767877046 
431	 0.485525839925809 
432	 0.487261137611804 
433	 0.488850271657161 
434	 0.490279539659765 
435	 0.491808342628134 
436	 0.493209134942463 
437	 0.494539751382736 
438	 0.496410196685457 
439	 0.497813488464143 
440	 0.499070725968663 
441	 0.500716369565529 
442	 0.502508962967594 
443	 0.503956479429884 
444	 0.505098710933208 
445	 0.506406388316788 
446	 0.50796576090704 
447	 0.509562529123631 
448	 0.511096242807833 
449	 0.512854753766495 
450	 0.514608764312644 
451	 0.516201636649989 
452	 0.517571608278907 
453	 0.519039363347199 
454	 0.520485061185428 
455	 0.521930634436907 
456	 0.523586980215491 
457	 0.525269351980384 
458	 0.526753578136181 
459	 0.527956920807307 
460	 0.529152308127828 
461	 0.530740848110065 
462	 0.53248484104521 
463	 0.533847627439216 
464	 0.535144765979087 
465	 0.53661297518175 
466	 0.538201246857434 
467	 0.539426357754616 
468	 0.54065870622498 
469	 0.541985866840374 
470	 0.543356515866602 
471	 0.544497895588199 
472	 0.545712405939057 
473	 0.547024054922593 
474	 0.548236287272714 
475	 0.549556305343336 
476	 0.550807664171779 
477	 0.551851471003161 
478	 0.552707386087906 
479	 0.553797478058978 
480	 0.55508673779565 
481	 0.556368271282607 
482	 0.557737513680568 
483	 0.558887783980608 
484	 0.559859774306595 
485	 0.561106078912578 
486	 0.562374819441408 
487	 0.563537589355062 
488	 0.564593637649084 
489	 0.565894739142437 
490	 0.566870601900146 
491	 0.567680891907148 
492	 0.56886075309222 
493	 0.570008950796617 
494	 0.571075475330059 
495	 0.572081400243623 
496	 0.573082247211787 
497	 0.574224634584813 
498	 0.575333872794621 
499	 0.576194646233256 
500	 0.576874451398436 
501	 0.577857460023652 
502	 0.579032252645913 
503	 0.579793700154658 
504	 0.58073903235612 
505	 0.581694671053623 
506	 0.582477899908558 
507	 0.583188502952339 
508	 0.584128711011383 
509	 0.585108361889544 
510	 0.585801813408094 
511	 0.586698661521988 
512	 0.587523090437399 
513	 0.588203318751968 
514	 0.589015480929753 
515	 0.589815941159367 
516	 0.590537524331496 
517	 0.591172377433964 
518	 0.591836359694605 
519	 0.592553898781981 
520	 0.593315633117902 
521	 0.594060220292412 
522	 0.594349610692295 
523	 0.594934018270254 
524	 0.596047598985321 
525	 0.596583801168592 
526	 0.597139588279673 
527	 0.59780430513823 
528	 0.598479799047539 
529	 0.598984392906916 
530	 0.599517589955975 
531	 0.600202784199866 
532	 0.601049722048699 
533	 0.601918038146423 
534	 0.602733938900249 
535	 0.603457174301655 
536	 0.604077196920265 
537	 0.604638370209961 
538	 0.605159895860364 
539	 0.605671862874824 
540	 0.606444125442076 
541	 0.607194272712954 
542	 0.60779547334462 
543	 0.608472269179297 
544	 0.609171478201644 
545	 0.60968361418534 
546	 0.609903683720377 
547	 0.610377759918937 
548	 0.611075619508776 
549	 0.611935332102164 
550	 0.612866321858858 
551	 0.613377421891442 
552	 0.613639596617307 
553	 0.613774135962223 
554	 0.613348852227214 
555	 0.613208742611324 
556	 0.613317105403801 
557	 0.613281446003849 
558	 0.613538327206617 
559	 0.613756435262549 
560	 0.613988910519303 
561	 0.614924087330547 
562	 0.615838594976046 
563	 0.615965217946483 
564	 0.614867636566033 
565	 0.613197652560029 
566	 0.611523734937994 
567	 0.610112180045834 
568	 0.609033608084858 
569	 0.609032983482281 
570	 0.610313910677692 
571	 0.612751651429026 
572	 0.615962681207099 
573	 0.618543350481079 
574	 0.620194622319327 
575	 0.621020940995818 
576	 0.620411782907046 
577	 0.618197614950876 
578	 0.615242802722936 
579	 0.613469072243369 
580	 0.612342189612698 
581	 0.612399268861944 
582	 0.614037003833245 
583	 0.616879292975821 
584	 0.619248327657138 
585	 0.620966376386997 
586	 0.622749422421075 
587	 0.623944151888292 
588	 0.62440160925879 
589	 0.624478896077777 
590	 0.625160840812114 
591	 0.62743900074662 
592	 0.630101439738308 
593	 0.631495992301519 
594	 0.631728218860402 
595	 0.630911214359066 
596	 0.628897668352894 
597	 0.625428618983505 
598	 0.622097754561362 
599	 0.62014867287956 
600	 0.62001070597135 
601	 0.620656592879024 
602	 0.62163322914919 
603	 0.623098675540372 
604	 0.625269361540286 
605	 0.626570718120764 
606	 0.627483323126309 
607	 0.628367983080763 
608	 0.629191160758009 
609	 0.629720208486405 
610	 0.630104316356233 
611	 0.630545090306269 
612	 0.631073485226057 
613	 0.631493567394677 
614	 0.631789743357153 
615	 0.632073235340456 
616	 0.632412357089519 
617	 0.632569960467512 
618	 0.632569656411595 
619	 0.63297163834252 
620	 0.633429509982215 
621	 0.633771114769835 
622	 0.633951218845111 
623	 0.634264313270199 
624	 0.634568103060404 
625	 0.634780042129626 
626	 0.634906969707602 
627	 0.635278592172645 
628	 0.635526562730905 
629	 0.635551887049005 
630	 0.636355049131549 
631	 0.636510724736013 
632	 0.636379981550688 
633	 0.636928532339274 
634	 0.637211200226071 
635	 0.637493942209287 
636	 0.637874899144922 
637	 0.638123821617526 
638	 0.638290537687852 
639	 0.638464459924874 
640	 0.638718091931188 
641	 0.639036105158168 
642	 0.639304529550752 
643	 0.639517785275378 
644	 0.639745263071803 
645	 0.640025572182839 
646	 0.64037385176915 
647	 0.640767058723104 
648	 0.641138032193846 
649	 0.641312367667817 
650	 0.641551227837761 
651	 0.642021836789072 
652	 0.641854408179972 
653	 0.641875062336156 
654	 0.642284194941083 
655	 0.64271430116952 
656	 0.642971903385485 
657	 0.642927469614729 
658	 0.642783508408782 
659	 0.643433480625932 
660	 0.64392461576641 
661	 0.64407058178112 
662	 0.644030707825876 
663	 0.64412608845611 
664	 0.644320279654582 
665	 0.644560890418524 
666	 0.644809633419568 
667	 0.645245359079144 
668	 0.645410721071441 
669	 0.645176380191334 
670	 0.64561535523658 
671	 0.645640228789997 
672	 0.64557566867871 
673	 0.646183021930014 
674	 0.646535244730679 
675	 0.646436646615478 
676	 0.646207393634958 
677	 0.646675397161069 
678	 0.647083361147057 
679	 0.647192122500839 
680	 0.6470654760562 
681	 0.647257357823796 
682	 0.647608178819645 
683	 0.647780733504732 
684	 0.647512620220118 
685	 0.648003763200838 
686	 0.648359442803795 
687	 0.648230625588123 
688	 0.64833709136152 
689	 0.648503398170287 
690	 0.648526019649429 
691	 0.648352766385651 
692	 0.648505608746445 
693	 0.648676621592645 
694	 0.64886461014365 
695	 0.649217020220226 
696	 0.649313198511932 
697	 0.649408795886066 
698	 0.649541909689262 
699	 0.649259616330996 
700	 0.649522761448464 
701	 0.649957839343626 
702	 0.64998422264365 
703	 0.6497632401161 
704	 0.64996711504355 
705	 0.650383505614256 
706	 0.650270484306689 
707	 0.650323409230548 
708	 0.650326303813084 
709	 0.650252841853688 
710	 0.650599629434988 
711	 0.65075525608857 
712	 0.650746670742413 
713	 0.65076672747581 
714	 0.65080921052245 
715	 0.651007823024593 
716	 0.651297438880335 
717	 0.651462499375878 
718	 0.651327703372448 
719	 0.651214198283732 
720	 0.651264323960063 
721	 0.651198669917838 
722	 0.651203323221254 
723	 0.651190603691327 
724	 0.651104055636041 
725	 0.651355751288338 
726	 0.651450307947194 
727	 0.651368536277044 
728	 0.65142827054537 
729	 0.651575175109909 
730	 0.651444403241821 
731	 0.651068676424835 
732	 0.651183788830565 
733	 0.651334854259439 
734	 0.651419326705426 
735	 0.65142694950519 
736	 0.651296985336687 
737	 0.651292968837239 
738	 0.651379742504263 
739	 0.651357419659282 
740	 0.651549197916379 
741	 0.651603915393103 
742	 0.651523522534809 
743	 0.651955282826174 
744	 0.651916514971471 
745	 0.651847697142977 
746	 0.652221003977391 
747	 0.652279332060696 
748	 0.652172064058833 
749	 0.652071154742535 
750	 0.65212573395495 
751	 0.652206132853461 
752	 0.65199520810727 
753	 0.651606889493613 
754	 0.651703333869363 
755	 0.651850767013487 
756	 0.652009341195787 
757	 0.652114984859963 
758	 0.651701927229364 
759	 0.651841978818899 
760	 0.652222673851524 
761	 0.652048846586395 
762	 0.652094552971859 
763	 0.652198767719235 
764	 0.652066618830666 
765	 0.651402913779566 
766	 0.651321774840225 
767	 0.651696957623187 
768	 0.652095637395312 
769	 0.651980798694621 
770	 0.651933555231117 
771	 0.652019098843076 
772	 0.652124338143825 
773	 0.652288081226343 
774	 0.652229632597254 
775	 0.652065431098016 
776	 0.652212129645357 
777	 0.652554035074757 
778	 0.652671536181336 
779	 0.652477029382403 
780	 0.652504821001383 
781	 0.652506242191503 
782	 0.652502499078951 
783	 0.652510471100584 
784	 0.652261350469699 
785	 0.652189216259806 
786	 0.652317325574462 
787	 0.652431075577718 
788	 0.652525513256072 
789	 0.652810362796265 
790	 0.65310600984946 
791	 0.652806100496811 
792	 0.652853999979466 
793	 0.652999437634153 
794	 0.652934681011632 
795	 0.652833258876134 
796	 0.652763826023361 
797	 0.65270400887983 
798	 0.652603504819645 
799	 0.652487946607619 
800	 0.652407656747612 
801	 0.652403630807507 
802	 0.652488655664986 
803	 0.652505058113262 
804	 0.652540525833362 
805	 0.652609290496604 
806	 0.652570505656945 
807	 0.652252236495459 
808	 0.651988296495631 
809	 0.651974323162518 
810	 0.651567248220546 
811	 0.651537682771621 
812	 0.651844193783822 
813	 0.652057565718916 
814	 0.651906659550602 
815	 0.651803350445036 
816	 0.651817639496662 
817	 0.651698379171743 
818	 0.651667617636514 
819	 0.651671319132039 
820	 0.651685513845521 
821	 0.651804860292075 
822	 0.651744961547452 
823	 0.651829707754392 
824	 0.65220083271286 
825	 0.651893473995711 
826	 0.65191381284472 
827	 0.652036123326052 
828	 0.651670105793568 
829	 0.651652679786496 
830	 0.65192375748381 
831	 0.652231954887923 
832	 0.652260829465102 
833	 0.652389561417884 
834	 0.65245796373418 
835	 0.652383015657721 
836	 0.652315847385263 
837	 0.65241060127572 
838	 0.652525164854075 
839	 0.652535105462049 
840	 0.652650668373621 
841	 0.65223453814826 
842	 0.651781867507415 
843	 0.652015724594295 
844	 0.652357056550954 
845	 0.652273849465951 
846	 0.651961207947152 
847	 0.652018165890843 
848	 0.651489830971037 
849	 0.651233439063932 
850	 0.651380629400434 
851	 0.650961226523438 
852	 0.650753990562949 
853	 0.650656887523334 
854	 0.65053705272608 
855	 0.650585337877048 
856	 0.650548652024462 
857	 0.650459501221702 
858	 0.650404361193943 
859	 0.650294889293143 
860	 0.650311188301114 
861	 0.650264749803821 
862	 0.649876878422823 
863	 0.649477533202695 
864	 0.649492920019213 
865	 0.649728952505305 
866	 0.649534773726081 
867	 0.649352832582596 
868	 0.649357643803167 
869	 0.649424253916889 
870	 0.649103800082612 
871	 0.649094025417663 
872	 0.649350264539869 
873	 0.649564904314115 
874	 0.649220567241364 
875	 0.649308603357262 
876	 0.649301324320418 
877	 0.648740297620115 
878	 0.649194668798684 
879	 0.649558982045037 
880	 0.649691358642173 
881	 0.649855714520194 
882	 0.649670963916461 
883	 0.649445904671032 
884	 0.649235362661344 
885	 0.648929134676734 
886	 0.648994430086606 
887	 0.649365116560684 
888	 0.649717807129218 
889	 0.649567711520901 
890	 0.649143656698938 
891	 0.648892184534854 
892	 0.648999593638991 
893	 0.649151690819629 
894	 0.649112184931914 
895	 0.648814694240975 
896	 0.648409412077633 
897	 0.648445110978345 
898	 0.648203733272293 
899	 0.647892813581628 
900	 0.647820060542537 
901	 0.647422747115779 
902	 0.646743217864555 
903	 0.646224483303211 
904	 0.646316120818696 
905	 0.646470209700756 
906	 0.646359585499831 
907	 0.646055553507681 
908	 0.645849754312099 
909	 0.645376387190277 
910	 0.644801173367953 
911	 0.644252884406485 
912	 0.643794542705995 
913	 0.64388258782256 
914	 0.644165198726951 
915	 0.644232418878441 
916	 0.643829776767927 
917	 0.643486100263255 
918	 0.643096929594293 
919	 0.6426402223918 
920	 0.642470135330664 
921	 0.642840893550428 
922	 0.643369606147871 
923	 0.643509844166379 
924	 0.642753620074025 
925	 0.642321728609214 
926	 0.6422587478462 
927	 0.642214688313499 
928	 0.642007077824443 
929	 0.64192403547561 
930	 0.641885535455085 
931	 0.641872144777239 
932	 0.642888768703272 
933	 0.643392914896828 
934	 0.643172496611915 
935	 0.642822890772383 
936	 0.642487892101006 
937	 0.642460303140631 
938	 0.642905446052068 
939	 0.643734489219241 
940	 0.644060611477511 
941	 0.643887116459666 
942	 0.643578670410028 
943	 0.643664248918863 
944	 0.644111141705816 
945	 0.643987840115134 
946	 0.643498861062757 
947	 0.643957061655529 
948	 0.644169538466608 
949	 0.644231415026886 
950	 0.644229905509593 
951	 0.644051071613369 
952	 0.644330924592243 
953	 0.644486288394708 
954	 0.644198205995487 
955	 0.643876297906649 
956	 0.643768063791955 
957	 0.643918502374628 
958	 0.644088008909431 
959	 0.643706439895598 
960	 0.642810294583082 
961	 0.642266052320582 
962	 0.642314592635576 
963	 0.641632054226066 
964	 0.641033737942922 
965	 0.64088185248616 
966	 0.641019909137521 
967	 0.640443858673727 
968	 0.640021801946727 
969	 0.639665590448218 
970	 0.639231358503221 
971	 0.639148150115177 
972	 0.638672468633462 
973	 0.638084852538213 
974	 0.637727722350584 
975	 0.637217639035033 
976	 0.636216348629494 
977	 0.635232797789417 
978	 0.634828443327165 
979	 0.634819236759107 
980	 0.634915931279293 
981	 0.634881660371089 
982	 0.634557846008721 
983	 0.633856671932668 
984	 0.633481688797831 
985	 0.633116464858003 
986	 0.632511573027816 
987	 0.632947636758965 
988	 0.63311707100166 
989	 0.632784959339387 
990	 0.632300044299542 
991	 0.632433132620781 
992	 0.63245851887848 
993	 0.632428412766384 
994	 0.63253378746823 
995	 0.632351254159617 
996	 0.632771522484132 
997	 0.633471903094698 
998	 0.633833365412579 
999	 0.633929430222027 
1000	 0.633604599785835 
1001	 0.656882444644569 
1002	 0.65698449437635 
1003	 0.657093518335087 
1004	 0.657213188070521 
1005	 0.657276057515985 
1006	 0.657411626026269 
1007	 0.657618945581095 
1008	 0.657750199175665 
1009	 0.657886125688362 
1010	 0.65799451212418 
1011	 0.658016232138787 
1012	 0.658153488889199 
1013	 0.658354836939845 
1014	 0.658511766588391 
1015	 0.658684042843419 
1016	 0.658892096322621 
1017	 0.659140188171303 
1018	 0.659211503202817 
1019	 0.659198224053771 
1020	 0.659237912051136 
1021	 0.659265121517468 
1022	 0.659289153765661 
1023	 0.659182430487633 
1024	 0.659128764888877 
1025	 0.65886893670744 
1026	 0.658269443662897 
1027	 0.657896549467631 
1028	 0.657566720450375 
1029	 0.657214491984155 
1030	 0.656870325285629 
1031	 0.656650501957648 
1032	 0.656357595382337 
1033	 0.65594921266474 
1034	 0.65561532323394 
1035	 0.655165791926098 
1036	 0.654656572706258 
1037	 0.654026132151441 
1038	 0.653514495362333 
1039	 0.652989331421513 
1040	 0.652458017739484 
1041	 0.651926478206948 
1042	 0.651436257384493 
1043	 0.650904608565718 
1044	 0.650500387276869 
1045	 0.650187546421453 
1046	 0.649815565800383 
1047	 0.649470510504823 
1048	 0.649116231993584 
1049	 0.648766408557288 
1050	 0.648514636596428 
1051	 0.648222096108763 
1052	 0.647966648127622 
1053	 0.647755687552897 
1054	 0.647504747558682 
1055	 0.647374441515195 
1056	 0.647327556452303 
1057	 0.647339302143249 
1058	 0.647410658294074 
1059	 0.647594176275705 
1060	 0.647780600614714 
1061	 0.647982345972171 
1062	 0.648221078911618 
1063	 0.648427951538526 
1064	 0.648660699066505 
1065	 0.648977441598719 
1066	 0.649265159055457 
1067	 0.649722632780506 
1068	 0.650431818766835 
1069	 0.651031796765595 
1070	 0.651618304655039 
1071	 0.652239844820756 
1072	 0.652909179277971 
1073	 0.65347084028947 
1074	 0.654139010547442 
1075	 0.654891400835349 
1076	 0.655633138157854 
1077	 0.656458896446891 
1078	 0.6573028951605 
1079	 0.658277337325648 
1080	 0.659244265591926 
1081	 0.660012190951176 
1082	 0.660745970239183 
1083	 0.6614111793644 
1084	 0.662090324103686 
1085	 0.662860080245576 
1086	 0.663602082651164 
1087	 0.664372013800086 
1088	 0.665158763073744 
1089	 0.665886189400451 
1090	 0.666533150160968 
1091	 0.667199273609999 
1092	 0.667877516521753 
1093	 0.668519974658537 
1094	 0.669079575057481 
1095	 0.669534231469032 
1096	 0.669914699981701 
1097	 0.670208631036157 
1098	 0.670484175188247 
1099	 0.670771231965246 
1100	 0.670999052433602 
1101	 0.671196734574546 
1102	 0.671382158619767 
1103	 0.671483350583481 
1104	 0.6715467620605 
1105	 0.671520831401922 
1106	 0.671363552407374 
1107	 0.671119767613631 
1108	 0.670852887478284 
1109	 0.670573423238587 
1110	 0.670316070601556 
1111	 0.669997586222305 
1112	 0.669623879633398 
1113	 0.669206402297981 
1114	 0.668730390508077 
1115	 0.668288678795258 
1116	 0.667784431229167 
1117	 0.667231349221768 
1118	 0.666672754360821 
1119	 0.666090842098343 
1120	 0.665467608026333 
1121	 0.664822235398116 
1122	 0.664159635585372 
1123	 0.663457229557754 
1124	 0.662792482978097 
1125	 0.662112151292731 
1126	 0.661452341660284 
1127	 0.660810141279298 
1128	 0.660103802630226 
1129	 0.659389001612068 
1130	 0.658616994811506 
1131	 0.657795881778054 
1132	 0.657037880911127 
1133	 0.656356218831065 
1134	 0.655688586032112 
1135	 0.654999477760735 
1136	 0.654357996108292 
1137	 0.653651014263327 
1138	 0.652856382370143 
1139	 0.652131876367503 
1140	 0.651410818174122 
1141	 0.650735662368904 
1142	 0.650061828569884 
1143	 0.649436393142833 
1144	 0.648829808992014 
1145	 0.648114656780264 
1146	 0.647404246090478 
1147	 0.646701446375297 
1148	 0.645948022011022 
1149	 0.645261608799402 
1150	 0.644634278982459 
1151	 0.643991854564684 
1152	 0.64336111004205 
1153	 0.642755210800499 
1154	 0.642154637610392 
1155	 0.641567199606757 
1156	 0.640955861193848 
1157	 0.640375672609244 
1158	 0.639746734653607 
1159	 0.639074871958839 
1160	 0.638395091392897 
1161	 0.637685026830752 
1162	 0.636955572624793 
1163	 0.636279421549855 
1164	 0.635616744031007 
1165	 0.635030224333641 
1166	 0.63449339503062 
1167	 0.633920979348576 
1168	 0.633387712985288 
1169	 0.632818083893562 
1170	 0.632213074123199 
1171	 0.631626307145296 
1172	 0.631066638025028 
1173	 0.630445020283159 
1174	 0.629764739824308 
1175	 0.629153613959163 
1176	 0.62852516819011 
1177	 0.627918002074747 
1178	 0.627356129988704 
1179	 0.626819692193154 
1180	 0.626243053843112 
1181	 0.625658572020904 
1182	 0.6251259024059 
1183	 0.62463943484462 
1184	 0.624125935196602 
1185	 0.623679678356934 
1186	 0.623240485756881 
1187	 0.622794751542247 
1188	 0.62238539476993 
1189	 0.621996266440366 
1190	 0.621674026278189 
1191	 0.621410396173755 
1192	 0.621149565158374 
1193	 0.620966657071543 
1194	 0.620732885109541 
1195	 0.62046119115045 
1196	 0.620219485686536 
1197	 0.619959283913323 
1198	 0.619748446080064 
1199	 0.619594720876262 
1200	 0.619459935822183 
1201	 0.619363586395764 
1202	 0.619301419597982 
1203	 0.619268139184546 
1204	 0.619303492987454 
1205	 0.61938705905333 
1206	 0.619532301468013 
1207	 0.619727137816198 
1208	 0.619943581606672 
1209	 0.62026246138034 
1210	 0.620660205372563 
1211	 0.621125151921587 
1212	 0.621678100704735 
1213	 0.62228819567475 
1214	 0.622910872033385 
1215	 0.623683438637423 
1216	 0.624591683212183 
1217	 0.625526300525705 
1218	 0.62656688247029 
1219	 0.627678649747175 
1220	 0.628770226709786 
1221	 0.629934101484584 
1222	 0.631076597848345 
1223	 0.63220530665061 
1224	 0.633293611536769 
1225	 0.634339497149066 
1226	 0.635377072967417 
1227	 0.63642511003635 
1228	 0.637379364214851 
1229	 0.638305368590227 
1230	 0.639156874376512 
1231	 0.639915579825468 
1232	 0.640662767843733 
1233	 0.641343283427686 
1234	 0.642025665812837 
1235	 0.642689897616221 
1236	 0.643318011332567 
1237	 0.643931432888211 
1238	 0.644520047437813 
1239	 0.645061813400626 
1240	 0.645594718839562 
1241	 0.646150039429574 
1242	 0.646619760150479 
1243	 0.647067065751293 
1244	 0.647501829842816 
1245	 0.647845371291079 
1246	 0.648110916840077 
1247	 0.648378249591144 
1248	 0.648587552234368 
1249	 0.648788781357425 
1250	 0.649001393968018 
1251	 0.649130909347431 
1252	 0.649241106995132 
1253	 0.649247161141694 
1254	 0.649165214103584 
1255	 0.649046126977413 
1256	 0.648826878529544 
1257	 0.648600988036475 
1258	 0.648360890313044 
1259	 0.648063525421974 
1260	 0.647688518788332 
1261	 0.647328499553824 
1262	 0.646940769168654 
1263	 0.646509661480072 
1264	 0.646156528486521 
1265	 0.645823781012706 
1266	 0.645537254361489 
1267	 0.645296504044591 
1268	 0.645067036192168 
1269	 0.644865680978858 
1270	 0.644687124753744 
1271	 0.644514020595768 
1272	 0.644399501962118 
1273	 0.644317403428136 
1274	 0.644288133752941 
1275	 0.644314101296641 
1276	 0.64436683012267 
1277	 0.644424878717436 
1278	 0.644584365136046 
1279	 0.644836467602459 
1280	 0.645089514569057 
1281	 0.645412323467407 
1282	 0.6457576401013 
1283	 0.646075456971837 
1284	 0.646476396962399 
1285	 0.646937927664308 
1286	 0.647466208354421 
1287	 0.648042585851824 
1288	 0.648707187059121 
1289	 0.649330139263962 
1290	 0.64998433240778 
1291	 0.650647052250529 
1292	 0.651289399466093 
1293	 0.651987165008541 
1294	 0.652712072305232 
1295	 0.653492844769419 
1296	 0.654300379821619 
1297	 0.655166566330919 
1298	 0.656151174342402 
1299	 0.657061514444162 
1300	 0.657989826856553 
1301	 0.658888451208156 
1302	 0.659731598095017 
1303	 0.660598340938403 
1304	 0.66147920448239 
1305	 0.662340080369818 
1306	 0.663212475044699 
1307	 0.664044187679591 
1308	 0.664845858593429 
1309	 0.665634056183669 
1310	 0.66637007025913 
1311	 0.667092577958718 
1312	 0.667697225854555 
1313	 0.668245408605359 
1314	 0.668705220142619 
1315	 0.669042714178511 
1316	 0.669388250772302 
1317	 0.669701323763961 
1318	 0.669939163092909 
1319	 0.670140631438437 
1320	 0.670265928417955 
1321	 0.670311167941072 
1322	 0.670312181220649 
1323	 0.670306102851752 
1324	 0.670156923866503 
1325	 0.669888034117177 
1326	 0.669600476072667 
1327	 0.669208959319648 
1328	 0.668803648680009 
1329	 0.668396821169732 
1330	 0.667929096602455 
1331	 0.667425324538999 
1332	 0.666852078482093 
1333	 0.666241469566424 
1334	 0.66555802272617 
1335	 0.664816596360726 
1336	 0.664008441033449 
1337	 0.663153300134759 
1338	 0.662242640998489 
1339	 0.661302771846466 
1340	 0.660317255096787 
1341	 0.659298004257344 
1342	 0.658252222039536 
1343	 0.657151937721105 
1344	 0.656009609525868 
1345	 0.654826895743556 
1346	 0.653595616151245 
1347	 0.652347438665796 
1348	 0.651022824814699 
1349	 0.64976509333907 
1350	 0.64851209731821 
1351	 0.647262165646573 
1352	 0.646073630708401 
1353	 0.644819523957798 
1354	 0.643492238130907 
1355	 0.642227057514633 
1356	 0.640968186331142 
1357	 0.639708442903696 
1358	 0.638445042270104 
1359	 0.63723150102564 
1360	 0.636015938332199 
1361	 0.634833238610771 
1362	 0.633718016451408 
1363	 0.632713826327505 
1364	 0.631717983785305 
1365	 0.630780718257553 
1366	 0.629844882653154 
1367	 0.628959127557577 
1368	 0.628030159042361 
1369	 0.627111991927633 
1370	 0.626159786894395 
1371	 0.625159594691305 
1372	 0.624221126511366 
1373	 0.623328581919311 
1374	 0.622349256161639 
1375	 0.621390069088307 
1376	 0.620338044170301 
1377	 0.619197482978268 
1378	 0.618016437829994 
1379	 0.616703096583253 
1380	 0.61552041343304 
1381	 0.614283931446087 
1382	 0.613174161474943 
1383	 0.612176285952669 
1384	 0.611232536552731 
1385	 0.610385953629896 
1386	 0.60953997943008 
1387	 0.608778853919647 
1388	 0.608004803464374 
1389	 0.607173157315761 
1390	 0.606436163004469 
1391	 0.605772699830984 
1392	 0.605091244651007 
1393	 0.604523376029041 
1394	 0.603987580939152 
1395	 0.603414219232334 
1396	 0.602893221333427 
1397	 0.602235251159384 
1398	 0.601545666704796 
1399	 0.600748176286619 
1400	 0.599848331204297 
1401	 0.59889598350916 
1402	 0.597901134436641 
1403	 0.596766468052412 
1404	 0.595532396777041 
1405	 0.594242441202398 
1406	 0.592818176698137 
1407	 0.5913978730351 
1408	 0.589894317652578 
1409	 0.588432045571764 
1410	 0.586883735843903 
1411	 0.585474520381876 
1412	 0.584126199413813 
1413	 0.582841902541103 
1414	 0.581669380165915 
1415	 0.580487473344767 
1416	 0.579403587061798 
1417	 0.578212355155585 
1418	 0.577098791729112 
1419	 0.575769871391677 
1420	 0.574337668655915 
1421	 0.5727658359756 
1422	 0.571008438827799 
1423	 0.56917085056015 
1424	 0.567247572843796 
1425	 0.565127639793094 
1426	 0.563050935031605 
1427	 0.560869022903761 
1428	 0.558644440189072 
1429	 0.55660947246675 
1430	 0.554583985309022 
1431	 0.552575401902566 
1432	 0.550675106972534 
1433	 0.548845575554302 
1434	 0.54711588980698 
1435	 0.545445091073183 
1436	 0.543904069078793 
1437	 0.542490486586757 
1438	 0.541150874895421 
1439	 0.53990918860584 
1440	 0.538748551962967 
1441	 0.537652844493138 
1442	 0.536686890440298 
1443	 0.535737404882252 
1444	 0.535084350245922 
1445	 0.534517799213336 
1446	 0.534334955746808 
1447	 0.534332947924523 
1448	 0.53481711041546 
1449	 0.535680524680062 
1450	 0.536887645901173 
1451	 0.538572598938504 
1452	 0.54046419645731 
1453	 0.542784884291587 
1454	 0.545122786088091 
1455	 0.547813577817258 
1456	 0.550379882210044 
1457	 0.553104631163942 
1458	 0.555612605827187 
1459	 0.558071272827016 
1460	 0.560371008435095 
1461	 0.56255260936392 
1462	 0.564515939675075 
1463	 0.566320496715536 
1464	 0.567963862444895 
1465	 0.569338181112095 
1466	 0.570654707057479 
1467	 0.571860735994331 
1468	 0.572957448909012 
1469	 0.574013913796059 
1470	 0.574925567018862 
1471	 0.575797149828729 
1472	 0.576600669783911 
1473	 0.577301091249421 
1474	 0.577907016182632 
1475	 0.578465115080154 
1476	 0.578911919725313 
1477	 0.579374637013108 
1478	 0.579788690446187 
1479	 0.580205097044039 
1480	 0.580586944052976 
1481	 0.58099495068379 
1482	 0.581413639648786 
1483	 0.581806820704377 
1484	 0.582218057391966 
1485	 0.582569559870362 
1486	 0.582873704252527 
1487	 0.583180690175751 
1488	 0.58346253664164 
1489	 0.583732821669413 
1490	 0.583991595095125 
1491	 0.584238137082814 
1492	 0.584460776952787 
1493	 0.584685989866428 
1494	 0.584930338733305 
1495	 0.585119564795762 
1496	 0.585276337884106 
1497	 0.585420983656116 
1498	 0.585503123384186 
1499	 0.585627376058697 
1500	 0.585747192853263 
1501	 0.58590234686656 
1502	 0.586099581291818 
1503	 0.586276729614684 
1504	 0.586486025989272 
1505	 0.586657013609745 
1506	 0.5868105585687 
1507	 0.586942458020203 
1508	 0.587055990023729 
1509	 0.587147357517731 
1510	 0.587190252310865 
1511	 0.587253767240446 
1512	 0.587267317365144 
1513	 0.587352538994758 
1514	 0.587501875077539 
1515	 0.587640819179227 
1516	 0.587836884004142 
1517	 0.588003640952028 
1518	 0.588177601710311 
1519	 0.588298810630819 
1520	 0.588393330904058 
1521	 0.588457745770219 
1522	 0.588468582434663 
1523	 0.588481122993411 
1524	 0.588476265669438 
1525	 0.588458347122112 
1526	 0.588440012535874 
1527	 0.588386035042988 
1528	 0.588403060777074 
1529	 0.588448951578086 
1530	 0.588491158439106 
1531	 0.588587799105357 
1532	 0.588608478394321 
1533	 0.588585093712745 
1534	 0.588599526454088 
1535	 0.588601797280406 
1536	 0.588608244613324 
1537	 0.588637888651197 
1538	 0.588647654628185 
1539	 0.588631521780294 
1540	 0.588638830692539 
1541	 0.588656524107875 
1542	 0.588678230526486 
1543	 0.588715567326122 
1544	 0.588726162550505 
1545	 0.588737231869738 
1546	 0.588732057957957 
1547	 0.588701213338434 
1548	 0.588676600294627 
1549	 0.588669840769239 
1550	 0.588608734710601 
1551	 0.588519332671021 
1552	 0.588421168627462 
1553	 0.58827699721604 
1554	 0.588156823102268 
1555	 0.588043309452378 
1556	 0.587921396605548 
1557	 0.587787974506065 
1558	 0.587671824983153 
1559	 0.587546385689762 
1560	 0.587454493163999 
1561	 0.587365464909599 
1562	 0.587331325609937 
1563	 0.587352050427245 
1564	 0.587357727916677 
1565	 0.58741541913814 
1566	 0.587426852424619 
1567	 0.587412849023967 
1568	 0.587397884590684 
1569	 0.587366124683026 
1570	 0.587339385467709 
1571	 0.587278541110502 
1572	 0.587279327410018 
1573	 0.587321129430791 
1574	 0.587348031990832 
1575	 0.587431721465487 
1576	 0.587456721727024 
1577	 0.587427285841249 
1578	 0.587425066310767 
1579	 0.58740696814134 
1580	 0.587407810960381 
1581	 0.587439655213649 
1582	 0.587446895081704 
1583	 0.587428255419447 
1584	 0.587445329484434 
1585	 0.587493569674913 
1586	 0.587500842747401 
1587	 0.587510721737964 
1588	 0.587514151645377 
1589	 0.587441710747892 
1590	 0.587451980276437 
1591	 0.587526665224683 
1592	 0.587583750117801 
1593	 0.587696862686638 
1594	 0.587753904795248 
1595	 0.587799226386184 
1596	 0.587795958212235 
1597	 0.587735091108855 
1598	 0.587682215883454 
1599	 0.587584614596959 
1600	 0.587511307265789 
1601	 0.587424373228853 
1602	 0.587383766538135 
1603	 0.587378594523948 
1604	 0.587365506314527 
1605	 0.587405644500309 
1606	 0.587402983162124 
1607	 0.587391430496794 
1608	 0.587340669118567 
1609	 0.58725770718796 
1610	 0.587158425293799 
1611	 0.58700375518 
1612	 0.586871456222604 
1613	 0.586732602358854 
1614	 0.586605378353674 
1615	 0.586493767358259 
1616	 0.586372257326551 
1617	 0.586239245705055 
1618	 0.586127900772811 
1619	 0.586033576014614 
1620	 0.585927627542691 
1621	 0.585847728557015 
1622	 0.585732228762463 
1623	 0.585594455919634 
1624	 0.585435000571734 
1625	 0.585229259300234 
1626	 0.585056492163826 
1627	 0.584878288072634 
1628	 0.584710560379079 
1629	 0.584611672392026 
1630	 0.584430886307528 
1631	 0.58419445149814 
1632	 0.583966447605799 
1633	 0.583671311028016 
1634	 0.583417616605625 
1635	 0.583198134747221 
1636	 0.582975876323159 
1637	 0.582757639947867 
1638	 0.58255211720782 
1639	 0.582389828275177 
1640	 0.582168529683598 
1641	 0.581940487465215 
1642	 0.581675606742198 
1643	 0.581348220537918 
1644	 0.581019821128762 
1645	 0.580670445042158 
1646	 0.580323134863764 
1647	 0.579958134501138 
1648	 0.57959526618104 
1649	 0.579254575380816 
1650	 0.578863644480842 
1651	 0.57847792091459 
1652	 0.578029326429077 
1653	 0.5775203264212 
1654	 0.576990685878292 
1655	 0.576395420425399 
1656	 0.575804572891656 
1657	 0.575199830239134 
1658	 0.574579424053811 
1659	 0.573953002953481 
1660	 0.573315233058646 
1661	 0.57273847937055 
1662	 0.571989676356219 
1663	 0.57120119453161 
1664	 0.570240206155495 
1665	 0.569077426286119 
1666	 0.567882089369746 
1667	 0.566536222388764 
1668	 0.565251976376827 
1669	 0.563975524404272 
1670	 0.56261112831009 
1671	 0.561228770881931 
1672	 0.559771595909395 
1673	 0.558227276286794 
1674	 0.556626738798065 
1675	 0.55500663868146 
1676	 0.55330609639214 
1677	 0.551466769545639 
1678	 0.54968596179862 
1679	 0.54786570946326 
1680	 0.546061533480074 
1681	 0.544331298570263 
1682	 0.54245850019127 
1683	 0.540540624021171 
1684	 0.53856896912646 
1685	 0.536480720055342 
1686	 0.534410747005504 
1687	 0.532299184018868 
1688	 0.530179568003869 
1689	 0.528062663891576 
1690	 0.525860623927361 
1691	 0.523616798886056 
1692	 0.521393288467956 
1693	 0.519137798676338 
1694	 0.516847787565188 
1695	 0.514543165569889 
1696	 0.51220376743581 
1697	 0.509803106398919 
1698	 0.507382230933285 
1699	 0.504961691177027 
1700	 0.502578481784105 
1701	 0.500127160367471 
1702	 0.497787071487049 
1703	 0.495482010772855 
1704	 0.493267726899732 
1705	 0.491090756107024 
1706	 0.488971083160096 
1707	 0.487103240922509 
1708	 0.485330135264086 
1709	 0.483699588420859 
1710	 0.48228307946285 
1711	 0.480885139069478 
1712	 0.479573376427799 
1713	 0.47834865178713 
1714	 0.477148940753897 
1715	 0.476035547441877 
1716	 0.474934781172353 
1717	 0.473894995100187 
1718	 0.472893150110501 
1719	 0.471912312713095 
1720	 0.471071474206603 
1721	 0.470245905725996 
1722	 0.46946436404558 
1723	 0.468899721776 
1724	 0.468406358676256 
1725	 0.468026964178691 
1726	 0.467874061815909 
1727	 0.467853487477739 
1728	 0.467983104528323 
1729	 0.468339738663084 
1730	 0.46894347881252 
1731	 0.46970708661676 
1732	 0.470660811785362 
1733	 0.471785840006804 
1734	 0.473023155001549 
1735	 0.47426838902367 
1736	 0.475501654801294 
1737	 0.476679044613961 
1738	 0.477673543406467 
1739	 0.478456830721022 
1740	 0.479052803195214 
1741	 0.479488721127834 
1742	 0.479758707611463 
1743	 0.479858921323385 
1744	 0.479731762105877 
1745	 0.479546488028515 
1746	 0.479127211712617 
1747	 0.478801353901033 
1748	 0.47847847937568 
1749	 0.478123036086992 
1750	 0.477729257880101 
1751	 0.477368956907151 
1752	 0.476940635692121 
1753	 0.476637892836182 
1754	 0.476376301302014 
1755	 0.476271489564503 
1756	 0.476234046784277 
1757	 0.476382574340064 
1758	 0.476704807897136 
1759	 0.477114030009421 
1760	 0.477683253024121 
1761	 0.478374908089254 
1762	 0.479095694101301 
1763	 0.479948955779373 
1764	 0.480916164264268 
1765	 0.481950312757904 
1766	 0.483086561454684 
1767	 0.484284667473999 
1768	 0.485561908752249 
1769	 0.486859653844135 
1770	 0.488113206522933 
1771	 0.489414431547884 
1772	 0.490669014083372 
1773	 0.491875743112391 
1774	 0.493126510423279 
1775	 0.494217213723804 
1776	 0.495144635525799 
1777	 0.49595026040339 
1778	 0.496581148988177 
1779	 0.497140464967218 
1780	 0.497639561388712 
1781	 0.498077412925292 
1782	 0.498473619459492 
1783	 0.498788001665131 
1784	 0.499054290787456 
1785	 0.499197792248993 
1786	 0.499430947537688 
1787	 0.499737785666505 
1788	 0.499938074727553 
1789	 0.500158542440599 
1790	 0.500251234598099 
1791	 0.500177154509466 
1792	 0.500157697840815 
1793	 0.500123756238897 
1794	 0.500008273625347 
1795	 0.499913489383723 
1796	 0.499773954568919 
1797	 0.499653576672869 
1798	 0.499594453145004 
1799	 0.499585204228329 
1800	 0.499625053716503 
1801	 0.482652780296531 
1802	 0.482971288856507 
1803	 0.483260429103702 
1804	 0.483514149821611 
1805	 0.483773124872587 
1806	 0.484013402429714 
1807	 0.484224233296129 
1808	 0.484421492641902 
1809	 0.4846125800628 
1810	 0.484791386129949 
1811	 0.484915225612551 
1812	 0.485085380760786 
1813	 0.485292818962416 
1814	 0.485484948827084 
1815	 0.485634712254094 
1816	 0.485778069769731 
1817	 0.485932456960197 
1818	 0.486054185937792 
1819	 0.486199618828128 
1820	 0.486382401826802 
1821	 0.486542356822939 
1822	 0.486671824389908 
1823	 0.486823592828775 
1824	 0.487001038358713 
1825	 0.487191871194351 
1826	 0.487411162097552 
1827	 0.487685715336174 
1828	 0.487891085130846 
1829	 0.488084769975218 
1830	 0.488292314792788 
1831	 0.488471655890008 
1832	 0.488672287656389 
1833	 0.488883249916801 
1834	 0.489095288653614 
1835	 0.489281902171502 
1836	 0.489420555501003 
1837	 0.489576468978021 
1838	 0.489695877166776 
1839	 0.489878786540214 
1840	 0.490068568080978 
1841	 0.49031876206339 
1842	 0.490646959129103 
1843	 0.490940730064022 
1844	 0.491255221730234 
1845	 0.491562050431774 
1846	 0.491835900885014 
1847	 0.492110908784656 
1848	 0.492359338570057 
1849	 0.492613904625108 
1850	 0.49279339314121 
1851	 0.492907401932652 
1852	 0.493050591192128 
1853	 0.493168461996672 
1854	 0.493256816965432 
1855	 0.4933895864283 
1856	 0.493504856634542 
1857	 0.493556500604616 
1858	 0.49358164135019 
1859	 0.493586285388739 
1860	 0.493573644628911 
1861	 0.49349735530063 
1862	 0.493381884145709 
1863	 0.493252827403663 
1864	 0.493074794904749 
1865	 0.492814218690654 
1866	 0.492498137353804 
1867	 0.492124996868266 
1868	 0.491657349784242 
1869	 0.49116718543095 
1870	 0.490717421066198 
1871	 0.490253918622737 
1872	 0.489860793174777 
1873	 0.489506958409518 
1874	 0.489161991927899 
1875	 0.488945474308662 
1876	 0.48868836182121 
1877	 0.48842085066553 
1878	 0.48811777940466 
1879	 0.487727622910363 
1880	 0.487260983304849 
1881	 0.486644801013275 
1882	 0.48591824885169 
1883	 0.485123535186487 
1884	 0.484081256130891 
1885	 0.482840277537762 
1886	 0.481571188554129 
1887	 0.480127554770794 
1888	 0.478577990360691 
1889	 0.477115328019078 
1890	 0.47551260272047 
1891	 0.473841179034311 
1892	 0.472181606904245 
1893	 0.470503850381888 
1894	 0.46874363199573 
1895	 0.467054786523315 
1896	 0.465370894323394 
1897	 0.463759489224353 
1898	 0.462298136630466 
1899	 0.460814575380264 
1900	 0.459412753876782 
1901	 0.458104676770921 
1902	 0.456708464688626 
1903	 0.455381174477322 
1904	 0.45412193137716 
1905	 0.45291633546632 
1906	 0.451732559179632 
1907	 0.450667824817844 
1908	 0.449660479904378 
1909	 0.448701540477592 
1910	 0.44776307708439 
1911	 0.446836413088643 
1912	 0.445993301414728 
1913	 0.445150915921542 
1914	 0.444333980886788 
1915	 0.443609121129412 
1916	 0.442984249559824 
1917	 0.442320035071165 
1918	 0.441711592247924 
1919	 0.441219622192911 
1920	 0.440694662837645 
1921	 0.440228401167106 
1922	 0.439771852643295 
1923	 0.439319009856282 
1924	 0.43890991197884 
1925	 0.438459887714143 
1926	 0.438079429631458 
1927	 0.43777084721797 
1928	 0.43742976076479 
1929	 0.43707898007991 
1930	 0.436815806766164 
1931	 0.436530988218292 
1932	 0.436227729659384 
1933	 0.436000053848247 
1934	 0.435809581244249 
1935	 0.435653129501887 
1936	 0.435567534705423 
1937	 0.435527472004203 
1938	 0.435556851349268 
1939	 0.435599065162838 
1940	 0.435683784212173 
1941	 0.435792992922437 
1942	 0.435926371610547 
1943	 0.436062715191532 
1944	 0.436180482530694 
1945	 0.436385649720757 
1946	 0.436619141736329 
1947	 0.436805775921494 
1948	 0.437059628130247 
1949	 0.437265467507635 
1950	 0.437457994193139 
1951	 0.437599356415539 
1952	 0.437831645485516 
1953	 0.438081338547372 
1954	 0.438344368285878 
1955	 0.438690379276916 
1956	 0.438985870364887 
1957	 0.439241836329672 
1958	 0.439508029110984 
1959	 0.439727542704383 
1960	 0.439905955308188 
1961	 0.440082978667175 
1962	 0.440214437913818 
1963	 0.440374737416452 
1964	 0.440510988769591 
1965	 0.440707947371648 
1966	 0.440925583477569 
1967	 0.441215169293674 
1968	 0.441473339593025 
1969	 0.441721658495892 
1970	 0.441956588711217 
1971	 0.442079474727697 
1972	 0.44218600053328 
1973	 0.44229203505585 
1974	 0.442365375637454 
1975	 0.442374484814597 
1976	 0.442422779828326 
1977	 0.442463450291435 
1978	 0.442513202544111 
1979	 0.442549413282232 
1980	 0.44265057978517 
1981	 0.442750231252532 
1982	 0.442841971011017 
1983	 0.442935692109112 
1984	 0.442981185743134 
1985	 0.442991070015895 
1986	 0.442943856844702 
1987	 0.442842333970255 
1988	 0.442664685123763 
1989	 0.442491234223871 
1990	 0.442234329841791 
1991	 0.442034313827354 
1992	 0.441835049400947 
1993	 0.441674059774941 
1994	 0.441509044356267 
1995	 0.441370562410841 
1996	 0.441247455038767 
1997	 0.441120779197443 
1998	 0.440997773849257 
1999	 0.440887654241007 
2000	 0.440759805963062 
2001	 0.440621723064122 
2002	 0.440496111092909 
2003	 0.440353826667989 
2004	 0.440252280436089 
2005	 0.440174286523049 
2006	 0.440099345958405 
2007	 0.440054829797461 
2008	 0.440018445722539 
2009	 0.439938258110872 
2010	 0.439838947036449 
2011	 0.439713538021595 
2012	 0.43952859482764 
2013	 0.439358307364193 
2014	 0.439168412558045 
2015	 0.438992506673535 
2016	 0.438793513955623 
2017	 0.438642758889074 
2018	 0.438527304126083 
2019	 0.438395900894921 
2020	 0.438284552993359 
2021	 0.438172139014622 
2022	 0.438045133466148 
2023	 0.437888776723244 
2024	 0.437739093239956 
2025	 0.437562336619372 
2026	 0.43734311439575 
2027	 0.437055853047991 
2028	 0.436824133542959 
2029	 0.436565470328953 
2030	 0.436352171915827 
2031	 0.436219885058622 
2032	 0.436024753757167 
2033	 0.435837945749033 
2034	 0.435595859216523 
2035	 0.435308881074281 
2036	 0.434987690844748 
2037	 0.434674717618127 
2038	 0.434318131187686 
2039	 0.433996229381298 
2040	 0.433667051167302 
2041	 0.433380315553899 
2042	 0.433083946533842 
2043	 0.432877406390551 
2044	 0.432732441505513 
2045	 0.432616901316028 
2046	 0.432585816481032 
2047	 0.432534147149291 
2048	 0.432533762164373 
2049	 0.432474025178363 
2050	 0.432417869215127 
2051	 0.432302959894291 
2052	 0.432135869774751 
2053	 0.431992926469535 
2054	 0.431896387918717 
2055	 0.431832073510307 
2056	 0.431750813148272 
2057	 0.431685794783597 
2058	 0.431654422763457 
2059	 0.431630242642515 
2060	 0.431595925017026 
2061	 0.43165081915942 
2062	 0.431592671612781 
2063	 0.431437360190897 
2064	 0.431318619325151 
2065	 0.431139345127749 
2066	 0.431008078967094 
2067	 0.430966117828719 
2068	 0.430901877227167 
2069	 0.430822649332132 
2070	 0.430766014520117 
2071	 0.430683060735838 
2072	 0.43057334663257 
2073	 0.430459542383432 
2074	 0.430347525694443 
2075	 0.430229533202763 
2076	 0.43008380045194 
2077	 0.429939263854657 
2078	 0.429799543590433 
2079	 0.429658883711302 
2080	 0.42949001111012 
2081	 0.429349504157053 
2082	 0.429208197703826 
2083	 0.429107264652608 
2084	 0.429028473624537 
2085	 0.428968055124599 
2086	 0.428907945806884 
2087	 0.428892420264666 
2088	 0.428818192830134 
2089	 0.428733433374985 
2090	 0.428615021987594 
2091	 0.428491001003583 
2092	 0.428291135607483 
2093	 0.42800437180377 
2094	 0.427760107513454 
2095	 0.427439643745889 
2096	 0.42719709968034 
2097	 0.427008782281034 
2098	 0.426831998729829 
2099	 0.426703187332272 
2100	 0.426572604981002 
2101	 0.42643071390238 
2102	 0.4263192468643 
2103	 0.426156568491664 
2104	 0.4259654703944 
2105	 0.425756680864151 
2106	 0.425535157001599 
2107	 0.425272852777227 
2108	 0.424974781806054 
2109	 0.424672894872451 
2110	 0.424328024906355 
2111	 0.423992316356907 
2112	 0.423647909133135 
2113	 0.423307312121401 
2114	 0.422956627793434 
2115	 0.422619928223834 
2116	 0.422293579559306 
2117	 0.421971734675067 
2118	 0.421638907536944 
2119	 0.421305192654757 
2120	 0.420972694181245 
2121	 0.420622326372965 
2122	 0.42030079567122 
2123	 0.419985633210779 
2124	 0.419685724510952 
2125	 0.419431878357611 
2126	 0.419137545983129 
2127	 0.418811065221279 
2128	 0.418531746039355 
2129	 0.418214173193742 
2130	 0.417969151572298 
2131	 0.417820311865715 
2132	 0.417643404064884 
2133	 0.417476935656275 
2134	 0.417346410355671 
2135	 0.417194933101208 
2136	 0.417002718770213 
2137	 0.416824621113064 
2138	 0.416634150821982 
2139	 0.416466343583249 
2140	 0.41629179114665 
2141	 0.416152548852783 
2142	 0.41604493073971 
2143	 0.415949614320774 
2144	 0.415845912885544 
2145	 0.415799768441574 
2146	 0.415809593852163 
2147	 0.41579981228545 
2148	 0.415849959161881 
2149	 0.415858304628791 
2150	 0.415819437428686 
2151	 0.415808585697305 
2152	 0.415831820031998 
2153	 0.41581738072888 
2154	 0.415707711845245 
2155	 0.415598992408049 
2156	 0.415477352327699 
2157	 0.415278137594123 
2158	 0.415092037764922 
2159	 0.414931225582545 
2160	 0.414757609937309 
2161	 0.414547091406069 
2162	 0.414337193865282 
2163	 0.414139724951864 
2164	 0.413932449811746 
2165	 0.413689969128423 
2166	 0.413457718594361 
2167	 0.413243654279775 
2168	 0.41303284737474 
2169	 0.41278903217772 
2170	 0.412582911827924 
2171	 0.412415373920246 
2172	 0.41223994777836 
2173	 0.412074313193972 
2174	 0.41191249988817 
2175	 0.411759838706923 
2176	 0.411616864523863 
2177	 0.411430011949477 
2178	 0.411229662260807 
2179	 0.411025345427538 
2180	 0.410777841019805 
2181	 0.410567196400541 
2182	 0.410378559733766 
2183	 0.410177822691985 
2184	 0.409987812392758 
2185	 0.409768501088888 
2186	 0.409555700507989 
2187	 0.40929051375247 
2188	 0.408937177747212 
2189	 0.408676902388502 
2190	 0.408423746858915 
2191	 0.408192837312851 
2192	 0.408035490506437 
2193	 0.407853396700558 
2194	 0.407655532814659 
2195	 0.407470124899634 
2196	 0.407300777750964 
2197	 0.40713698763303 
2198	 0.4069847050833 
2199	 0.406765575021228 
2200	 0.406524709192016 
2201	 0.406263017170474 
2202	 0.40596374916207 
2203	 0.405611670000945 
2204	 0.405268941321081 
2205	 0.404877444411531 
2206	 0.404548296796734 
2207	 0.404236092099911 
2208	 0.40392359594675 
2209	 0.403671595377699 
2210	 0.403347779381516 
2211	 0.40299598889464 
2212	 0.402629451250093 
2213	 0.402231463125288 
2214	 0.401820584123432 
2215	 0.401389531576465 
2216	 0.400942384033237 
2217	 0.400482147562756 
2218	 0.399993346037951 
2219	 0.399516147326406 
2220	 0.398969854631685 
2221	 0.398341345873407 
2222	 0.397726048687702 
2223	 0.397154691509119 
2224	 0.396467017677371 
2225	 0.395825632532329 
2226	 0.395129837087152 
2227	 0.394288161639965 
2228	 0.393317728852503 
2229	 0.392338928201103 
2230	 0.391232123190597 
2231	 0.390196938283375 
2232	 0.389171370902537 
2233	 0.388081236500761 
2234	 0.387066899533385 
2235	 0.385794636699069 
2236	 0.384404957614568 
2237	 0.382900557094932 
2238	 0.381153126481882 
2239	 0.379447485909902 
2240	 0.377734775467631 
2241	 0.375859671294459 
2242	 0.373964694211173 
2243	 0.371868872085065 
2244	 0.369463946384878 
2245	 0.367176122475225 
2246	 0.364720743585421 
2247	 0.36240975345108 
2248	 0.360244983904925 
2249	 0.358026297328183 
2250	 0.355873386689048 
2251	 0.353703374492433 
2252	 0.351230625419242 
2253	 0.348860394017637 
2254	 0.346422587480426 
2255	 0.343844376462489 
2256	 0.341526114671966 
2257	 0.339166471037187 
2258	 0.336887301995185 
2259	 0.334688505197816 
2260	 0.3324597666913 
2261	 0.33022959165906 
2262	 0.328120642945203 
2263	 0.325980990026902 
2264	 0.324028799970647 
2265	 0.322260113592189 
2266	 0.320468673511498 
2267	 0.318802539826395 
2268	 0.317093962996729 
2269	 0.315387095807932 
2270	 0.313733306081868 
2271	 0.312007048899195 
2272	 0.310490259316207 
2273	 0.309138186509807 
2274	 0.307770996182159 
2275	 0.306655774245618 
2276	 0.305304154061018 
2277	 0.303841434202509 
2278	 0.302362418779633 
2279	 0.300731678073809 
2280	 0.299142510721024 
2281	 0.297634936511272 
2282	 0.295961737151446 
2283	 0.294222674646132 
2284	 0.292451976215807 
2285	 0.290343749008211 
2286	 0.288298174346892 
2287	 0.286084335566514 
2288	 0.283804422146782 
2289	 0.281768861953652 
2290	 0.27951964419586 
2291	 0.277332218257067 
2292	 0.275171549181106 
2293	 0.272793481784201 
2294	 0.270551118423725 
2295	 0.268268809217644 
2296	 0.266020873727147 
2297	 0.263979360627681 
2298	 0.262000739481016 
2299	 0.260281751138842 
2300	 0.258772315233431 
2301	 0.257432912400031 
2302	 0.25625068756095 
2303	 0.255361162084025 
2304	 0.254727988882814 
2305	 0.254306357736675 
2306	 0.25419557911443 
2307	 0.254197169031614 
2308	 0.25438156859095 
2309	 0.254731223938913 
2310	 0.255271863431327 
2311	 0.255981398892175 
2312	 0.257031342303767 
2313	 0.257920416862436 
2314	 0.258909285361266 
2315	 0.259901148211949 
2316	 0.260864900900465 
2317	 0.261780595464599 
2318	 0.262843077333069 
2319	 0.263642969806157 
2320	 0.264263690937898 
2321	 0.264805545164646 
2322	 0.265191204753248 
2323	 0.265526712367566 
2324	 0.265808194100586 
2325	 0.265949715390466 
2326	 0.265935950501153 
2327	 0.265882797013856 
2328	 0.265652076890635 
2329	 0.265477940255225 
2330	 0.265300471730275 
2331	 0.265121060556901 
2332	 0.264900645041676 
2333	 0.264558516891515 
2334	 0.264139645105066 
2335	 0.26372370856323 
2336	 0.263260102477821 
2337	 0.262757800986647 
2338	 0.262231578261383 
2339	 0.26158707485266 
2340	 0.260965917701676 
2341	 0.260455829091915 
2342	 0.260036908873422 
2343	 0.259814030121643 
2344	 0.259707018209109 
2345	 0.259715326950684 
2346	 0.259889622249463 
2347	 0.260242756320258 
2348	 0.260887895504088 
2349	 0.261837904578217 
2350	 0.262983487435427 
2351	 0.264318507460551 
2352	 0.265794266681506 
2353	 0.267265967102947 
2354	 0.26860581606089 
2355	 0.269963065730187 
2356	 0.271160408446614 
2357	 0.272147663552756 
2358	 0.273231592574472 
2359	 0.274027536658138 
2360	 0.274541421469533 
2361	 0.275108609659857 
2362	 0.275435396135188 
2363	 0.275606980966636 
2364	 0.275849668723473 
2365	 0.275927515182014 
2366	 0.27596609807708 
2367	 0.276026525892261 
2368	 0.276117134146221 
2369	 0.276219676469225 
2370	 0.276246179808129 
2371	 0.276405237806556 
2372	 0.276559850900699 
2373	 0.276554998696238 
2374	 0.276578239710499 
2375	 0.276678758609623 
2376	 0.276765618419596 
2377	 0.276861440100661 
2378	 0.276994072501144 
2379	 0.276952567041982 
2380	 0.276910857547758 
2381	 0.277060148608986 
2382	 0.277105061082943 
2383	 0.277115376686393 
2384	 0.277291301896307 
2385	 0.277486301578506 
2386	 0.277650525077224 
2387	 0.278000361240837 
2388	 0.27816465073366 
2389	 0.278175466563876 
2390	 0.27821967705714 
2391	 0.278256347409776 
2392	 0.278287864389107 
2393	 0.278299282089044 
2394	 0.278307718152848 
2395	 0.278226432571665 
2396	 0.278205226961858 
2397	 0.278193898625875 
2398	 0.278269899149987 
2399	 0.278562764888328 
2400	 0.278561287094685 
2401	 0.278428416736655 
2402	 0.27823256172459 
2403	 0.27810100339154 
2404	 0.278111221711752 
2405	 0.277952624329063 
2406	 0.277848041112895 
2407	 0.277699343513802 
2408	 0.277644286118546 
2409	 0.277777547945396 
2410	 0.277630342281639 
2411	 0.27740511851935 
2412	 0.277406962049749 
2413	 0.277380614349844 
2414	 0.277389146573344 
2415	 0.277612586507418 
2416	 0.277591958656801 
2417	 0.277372713973508 
2418	 0.277302987656695 
2419	 0.277211680606462 
2420	 0.277093782262225 
2421	 0.277047673888208 
2422	 0.277083643964055 
2423	 0.276950350145103 
2424	 0.276679111480076 
2425	 0.276616946644667 
2426	 0.276467389978097 
2427	 0.276218568126752 
2428	 0.276067966592134 
2429	 0.275885651510706 
2430	 0.275542976847163 
2431	 0.275033562926149 
2432	 0.274649865004493 
2433	 0.274399505695532 
2434	 0.274074669581215 
2435	 0.274038137046266 
2436	 0.274135185469673 
2437	 0.273739855150823 
2438	 0.273455050842309 
2439	 0.273296121462575 
2440	 0.272832538459445 
2441	 0.2725631961931 
2442	 0.272274011840312 
2443	 0.271761819984713 
2444	 0.271517357470248 
2445	 0.271345363716482 
2446	 0.271200317975639 
2447	 0.271156822628158 
2448	 0.270975543515432 
2449	 0.270775079216453 
2450	 0.270412004316854 
2451	 0.269933793964728 
2452	 0.26960680614525 
2453	 0.269365885870987 
2454	 0.269032318233225 
2455	 0.268915240917572 
2456	 0.268720047277936 
2457	 0.268131881893411 
2458	 0.26792263572185 
2459	 0.267597587534909 
2460	 0.267082654431921 
2461	 0.266853270056973 
2462	 0.266641370910348 
2463	 0.266747368449254 
2464	 0.266731225266501 
2465	 0.26658612931482 
2466	 0.266509727186581 
2467	 0.265919920669008 
2468	 0.265597865600972 
2469	 0.265624742207011 
2470	 0.265413867735919 
2471	 0.265269112783238 
2472	 0.265227589729291 
2473	 0.265154323316084 
2474	 0.264890900779012 
2475	 0.264798134441622 
2476	 0.264868768401565 
2477	 0.264710721026324 
2478	 0.264737724012645 
2479	 0.264992244315399 
2480	 0.265430146732152 
2481	 0.26558880759379 
2482	 0.265764510129291 
2483	 0.265700032412556 
2484	 0.265293377940372 
2485	 0.26522815123625 
2486	 0.265441360592585 
2487	 0.265508354882933 
2488	 0.265760002830494 
2489	 0.266076104945408 
2490	 0.265743279640097 
2491	 0.265500833860791 
2492	 0.265631369314063 
2493	 0.265904623207143 
2494	 0.266260400280061 
2495	 0.266462620139585 
2496	 0.267078303572519 
2497	 0.267307207244082 
2498	 0.267696772637216 
2499	 0.268608627055474 
2500	 0.268673121125934 
