Wavelength	spectrum00003.asd
350	 9.80983316692939E-02 
351	 9.47895925744135E-02 
352	 8.82940932166062E-02 
353	 8.43067296447516E-02 
354	 8.39559525358427E-02 
355	 8.32207951007767E-02 
356	 8.29683181236614E-02 
357	 8.32427262455058E-02 
358	 7.78250656779127E-02 
359	 0.075356429826559 
360	 7.59650115581592E-02 
361	 7.55529296060707E-02 
362	 7.45488226017961E-02 
363	 7.33514910809633E-02 
364	 0.072126240169042 
365	 7.06578821044132E-02 
366	 6.98394477158304E-02 
367	 0.069955290832143 
368	 7.07029406660219E-02 
369	 0.070779133563314 
370	 6.89260996055376E-02 
371	 6.74860269024195E-02 
372	 6.96724547403249E-02 
373	 6.66636851795498E-02 
374	 6.43711426655292E-02 
375	 6.54217177503073E-02 
376	 6.55370762196163E-02 
377	 6.52081723534141E-02 
378	 6.57064221998916E-02 
379	 6.70001928335435E-02 
380	 6.32965534331442E-02 
381	 6.19165846156494E-02 
382	 6.39237142005681E-02 
383	 6.59695783360649E-02 
384	 6.41342052687036E-02 
385	 6.25458910152394E-02 
386	 6.30355277539683E-02 
387	 6.25223411753652E-02 
388	 6.15130174543249E-02 
389	 6.17972128008615E-02 
390	 6.38486262970516E-02 
391	 6.19330103543098E-02 
392	 6.05413818779245E-02 
393	 6.05007726072826E-02 
394	 6.00214378998361E-02 
395	 5.85870972123047E-02 
396	 5.79449448949092E-02 
397	 5.86458860866987E-02 
398	 5.89213778001899E-02 
399	 5.82046768652022E-02 
400	 5.80496170729321E-02 
401	 5.93744004457649E-02 
402	 5.77622058784155E-02 
403	 5.58493841024009E-02 
404	 0.055103125936576 
405	 0.055728955472662 
406	 5.65658157179081E-02 
407	 5.62051210600118E-02 
408	 5.46777188382389E-02 
409	 0.054676862706236 
410	 5.47620058975393E-02 
411	 5.45751751307468E-02 
412	 5.41635073351541E-02 
413	 5.38321842285058E-02 
414	 0.053772239420226 
415	 5.37305431459337E-02 
416	 5.31271246953113E-02 
417	 5.27027295693042E-02 
418	 0.052513017988633 
419	 5.24664383355982E-02 
420	 5.25729764139217E-02 
421	 5.16824260383375E-02 
422	 5.08054306469667E-02 
423	 5.13753027403833E-02 
424	 5.13824644193474E-02 
425	 5.13313674534395E-02 
426	 5.11882418556457E-02 
427	 5.01015376160485E-02 
428	 5.01925214534831E-02 
429	 5.04984718527789E-02 
430	 5.00456288910624E-02 
431	 5.00412712639969E-02 
432	 4.96770206495157E-02 
433	 4.92104894167712E-02 
434	 4.93622377027868E-02 
435	 0.049256458175161 
436	 4.91216120431543E-02 
437	 4.91103356014512E-02 
438	 4.90778575322512E-02 
439	 4.87350547129858E-02 
440	 4.86051593097895E-02 
441	 4.90725989467046E-02 
442	 4.89640352394662E-02 
443	 4.86738958164487E-02 
444	 4.84569177059943E-02 
445	 4.83983978678173E-02 
446	 4.83608290061628E-02 
447	 4.83771896867786E-02 
448	 4.84231441295556E-02 
449	 4.82709512670036E-02 
450	 4.82030123547819E-02 
451	 4.81190878614126E-02 
452	 4.78776909523424E-02 
453	 4.80409613587846E-02 
454	 4.81252198654914E-02 
455	 4.79716192650864E-02 
456	 4.78596599106444E-02 
457	 4.77173936009142E-02 
458	 4.76761043863202E-02 
459	 4.77848693040392E-02 
460	 4.77455847027156E-02 
461	 4.77032600700581E-02 
462	 4.76196319924088E-02 
463	 4.74132633573394E-02 
464	 4.75653400841801E-02 
465	 4.76155732379331E-02 
466	 4.73692856424375E-02 
467	 4.71891036855266E-02 
468	 4.72565531239206E-02 
469	 4.73950693932014E-02 
470	 4.73798803353206E-02 
471	 4.73294651535916E-02 
472	 4.72295821649608E-02 
473	 4.71061655986021E-02 
474	 4.70203041616737E-02 
475	 4.70445211445208E-02 
476	 4.70976947913395E-02 
477	 4.70834604755856E-02 
478	 4.69096045356312E-02 
479	 4.68062190430967E-02 
480	 4.68079624299504E-02 
481	 4.68565947300851E-02 
482	 4.68735483091506E-02 
483	 0.046940511684289 
484	 4.70494220961689E-02 
485	 4.70774493111825E-02 
486	 4.68151742925768E-02 
487	 4.67637462446399E-02 
488	 4.71838975093442E-02 
489	 4.70933795392468E-02 
490	 4.69688444614015E-02 
491	 4.69193061938156E-02 
492	 0.046852287509354 
493	 4.69589821273811E-02 
494	 4.71366183659844E-02 
495	 4.72804677744529E-02 
496	 4.73522200134308E-02 
497	 4.72449432335674E-02 
498	 4.70547666125338E-02 
499	 4.69489251601147E-02 
500	 4.70745165030849E-02 
501	 4.72262107585813E-02 
502	 0.04732758962983 
503	 4.74265293724868E-02 
504	 4.73967206298134E-02 
505	 4.73333624176327E-02 
506	 4.73321283565833E-02 
507	 4.74052000690254E-02 
508	 4.73865094604127E-02 
509	 4.73629589664451E-02 
510	 4.74968508770851E-02 
511	 4.76126676655114E-02 
512	 4.76309097226683E-02 
513	 4.75946226291805E-02 
514	 0.047689329374733 
515	 4.77304396960264E-02 
516	 4.77308247267288E-02 
517	 0.047747347949391 
518	 4.78046832057231E-02 
519	 4.78497432175964E-02 
520	 4.78930514772005E-02 
521	 4.79821501507123E-02 
522	 4.80341040259961E-02 
523	 4.80753232748136E-02 
524	 4.81450547078619E-02 
525	 4.82910202075711E-02 
526	 4.83428731887113E-02 
527	 0.048315721951991 
528	 4.83190509587254E-02 
529	 4.85780574410612E-02 
530	 4.86557015974659E-02 
531	 4.85559786023252E-02 
532	 4.87759231801805E-02 
533	 0.048995257665548 
534	 4.91140929133565E-02 
535	 4.91235143736735E-02 
536	 4.91036229079028E-02 
537	 4.92781814646993E-02 
538	 0.04952431597335 
539	 4.95664878304611E-02 
540	 4.97016915890645E-02 
541	 4.98622080435461E-02 
542	 0.049988751589034 
543	 5.01004663185445E-02 
544	 5.02533894431795E-02 
545	 5.04040122268801E-02 
546	 5.05237032215578E-02 
547	 5.08100964789168E-02 
548	 5.10661382007167E-02 
549	 5.12650329422088E-02 
550	 0.051538259012201 
551	 5.17934870030056E-02 
552	 5.20837717080806E-02 
553	 5.24292104184543E-02 
554	 5.27019959701757E-02 
555	 5.29611662839541E-02 
556	 5.32549269746218E-02 
557	 5.36152446049856E-02 
558	 5.39685491833354E-02 
559	 5.43835851008804E-02 
560	 5.48919261538197E-02 
561	 5.54576513849183E-02 
562	 5.59981432067887E-02 
563	 0.05654235710952 
564	 5.71250292840307E-02 
565	 5.76642115827607E-02 
566	 5.82261835518918E-02 
567	 5.88559670407185E-02 
568	 5.95894597818623E-02 
569	 6.05816935618733E-02 
570	 6.17198884697892E-02 
571	 6.29540632014513E-02 
572	 0.06447601159098 
573	 6.60620668489928E-02 
574	 6.76769436949227E-02 
575	 6.93193564537516E-02 
576	 7.06982159105398E-02 
577	 7.20127302920595E-02 
578	 7.34159008935315E-02 
579	 7.49640558585579E-02 
580	 7.66939996254464E-02 
581	 7.87374634274395E-02 
582	 0.081167760669079 
583	 8.38178979876195E-02 
584	 8.67042094648304E-02 
585	 8.98281181583039E-02 
586	 9.32002631023355E-02 
587	 9.67802403169353E-02 
588	 0.100584463129401 
589	 0.104655078735823 
590	 0.109005362938765 
591	 0.113946327082566 
592	 0.119264736407309 
593	 0.124619155437525 
594	 0.129991137202478 
595	 0.135376963367892 
596	 0.140761804165698 
597	 0.14609438709928 
598	 0.151426820020868 
599	 0.157283484552028 
600	 0.163969029902557 
601	 0.171020768153877 
602	 0.17837323553913 
603	 0.186050139111253 
604	 0.194080424272195 
605	 0.202147287947469 
606	 0.21007919297684 
607	 0.217863925767634 
608	 0.22565355442006 
609	 0.233231004964936 
610	 0.240585266149588 
611	 0.247800216086228 
612	 0.254984088078708 
613	 0.261875645904425 
614	 0.26846603316324 
615	 0.274931810102103 
616	 0.281096441948881 
617	 0.286922018924706 
618	 0.292432125352091 
619	 0.297754517998256 
620	 0.302866344818216 
621	 0.307679658769639 
622	 0.312108606962114 
623	 0.316203483801021 
624	 0.320151384166414 
625	 0.323920976355649 
626	 0.32727917765486 
627	 0.330597360370995 
628	 0.333672059949515 
629	 0.336381634504484 
630	 0.339094336152362 
631	 0.341656128802596 
632	 0.344010043124089 
633	 0.346162387532123 
634	 0.348295736541187 
635	 0.350278898345571 
636	 0.352046455859163 
637	 0.353643840170199 
638	 0.355355613622965 
639	 0.356961411346107 
640	 0.35827838233664 
641	 0.35968688942548 
642	 0.360992287097398 
643	 0.362206640803715 
644	 0.363448140952831 
645	 0.364504751952064 
646	 0.365544088726479 
647	 0.366635869628786 
648	 0.367618593628443 
649	 0.368464585482953 
650	 0.369313337302266 
651	 0.370285795811275 
652	 0.371182341442715 
653	 0.37205611180299 
654	 0.372876302777723 
655	 0.373553884626341 
656	 0.374222432268912 
657	 0.37484638072285 
658	 0.375442646841134 
659	 0.376211673999224 
660	 0.3769456021264 
661	 0.377571047127558 
662	 0.378108588237572 
663	 0.378790521073688 
664	 0.379428814720061 
665	 0.379927110500154 
666	 0.380319754857937 
667	 0.380873161955894 
668	 0.381481386952899 
669	 0.382014501367342 
670	 0.382500991308991 
671	 0.38289255953978 
672	 0.383325607712713 
673	 0.383956367781428 
674	 0.384478693968586 
675	 0.384873497717931 
676	 0.38518146584401 
677	 0.385482102970155 
678	 0.386104549374568 
679	 0.386642434493964 
680	 0.38683903470373 
681	 0.387472381339601 
682	 0.387876841410382 
683	 0.38805204096739 
684	 0.388361373395006 
685	 0.388859156943119 
686	 0.389324293914581 
687	 0.389660829000498 
688	 0.389994610996177 
689	 0.390305240484635 
690	 0.39057337531168 
691	 0.390817099378186 
692	 0.391185068019596 
693	 0.391599995305496 
694	 0.391950850460527 
695	 0.392152474069569 
696	 0.392549688247756 
697	 0.392945214781686 
698	 0.393193603296231 
699	 0.393326787181569 
700	 0.393683076963854 
701	 0.394134892745975 
702	 0.394447782113317 
703	 0.394538020976163 
704	 0.394830288183626 
705	 0.395226219765147 
706	 0.395319072108462 
707	 0.39560068369554 
708	 0.395973495620139 
709	 0.396322715859946 
710	 0.396643866218213 
711	 0.396851718252172 
712	 0.396992795704284 
713	 0.397168996112477 
714	 0.397515541460469 
715	 0.397866124393494 
716	 0.398155551577641 
717	 0.39838951448304 
718	 0.398400085630168 
719	 0.39853863519843 
720	 0.398927310654487 
721	 0.399199467739266 
722	 0.399302881400274 
723	 0.399400345335507 
724	 0.399665644459048 
725	 0.400016069983882 
726	 0.400224725267021 
727	 0.400341716964561 
728	 0.400588284656057 
729	 0.400736568851454 
730	 0.400835600377478 
731	 0.400933875711403 
732	 0.401003223133753 
733	 0.401484546167561 
734	 0.401857207627514 
735	 0.401677540630337 
736	 0.401886367320724 
737	 0.402138167867297 
738	 0.40236853359746 
739	 0.40268220030022 
740	 0.402858546027217 
741	 0.402944054445905 
742	 0.403018945460651 
743	 0.403154532813174 
744	 0.403500346937675 
745	 0.403838203620395 
746	 0.403954210793675 
747	 0.403986423828956 
748	 0.40416207038824 
749	 0.404446450051091 
750	 0.404662600323748 
751	 0.404920212369046 
752	 0.404923421716868 
753	 0.404774133867176 
754	 0.405106678342141 
755	 0.405357148018222 
756	 0.405471617897398 
757	 0.405557444168684 
758	 0.405834863005657 
759	 0.406025438158388 
760	 0.406086788886225 
761	 0.406144588484653 
762	 0.406611222981811 
763	 0.406810338598703 
764	 0.406678206637369 
765	 0.406856952509986 
766	 0.406922507006667 
767	 0.407044354669191 
768	 0.407288263059024 
769	 0.407205486778697 
770	 0.407318586716934 
771	 0.407603892419945 
772	 0.407855295645566 
773	 0.408076327132941 
774	 0.40816035894095 
775	 0.408229077460882 
776	 0.408542492891035 
777	 0.408700297599148 
778	 0.408766475620743 
779	 0.408843056522896 
780	 0.408972826777049 
781	 0.409111354972502 
782	 0.409245345549486 
783	 0.409384544139451 
784	 0.409594132808395 
785	 0.409758811416586 
786	 0.409834015254202 
787	 0.409862611770933 
788	 0.410163126853991 
789	 0.410452851187878 
790	 0.410590035267582 
791	 0.410678236878551 
792	 0.41086729386822 
793	 0.411086698216275 
794	 0.411216518246847 
795	 0.411123068876727 
796	 0.411127290148836 
797	 0.411327514046677 
798	 0.411615780027337 
799	 0.411357566752598 
800	 0.411497491078829 
801	 0.411965285182762 
802	 0.411943646938475 
803	 0.412030661366876 
804	 0.412151110308251 
805	 0.412254821673516 
806	 0.412454929405613 
807	 0.412349140578259 
808	 0.412271349086773 
809	 0.412498733825187 
810	 0.412559219636557 
811	 0.412806518527494 
812	 0.41308598975257 
813	 0.413116427546697 
814	 0.413283505039543 
815	 0.413349473240552 
816	 0.413303541435686 
817	 0.413362714763101 
818	 0.413575351383902 
819	 0.413815405947645 
820	 0.41397681664467 
821	 0.41404029470815 
822	 0.414086736728123 
823	 0.414230337339211 
824	 0.414463598548415 
825	 0.414367712353981 
826	 0.414525430160083 
827	 0.414831970642059 
828	 0.414913526156585 
829	 0.414864921795024 
830	 0.415137001517042 
831	 0.415516105661787 
832	 0.415300774759932 
833	 0.415332490724635 
834	 0.415463568610814 
835	 0.415632271872333 
836	 0.416128600043709 
837	 0.416250582407817 
838	 0.416212264493294 
839	 0.416336174610223 
840	 0.416565739671124 
841	 0.416648502155124 
842	 0.416529270687105 
843	 0.416363721460241 
844	 0.416826313318646 
845	 0.417089849953872 
846	 0.417029757482116 
847	 0.417066083176099 
848	 0.417021085569582 
849	 0.417121417335097 
850	 0.417324346723113 
851	 0.417230058099437 
852	 0.417162899629574 
853	 0.417129316554468 
854	 0.417139239487968 
855	 0.41735993416856 
856	 0.417433734115538 
857	 0.417363874334799 
858	 0.417315563172568 
859	 0.417574019415855 
860	 0.417674838536208 
861	 0.417590981962227 
862	 0.417542023115642 
863	 0.417634490211678 
864	 0.417829737534252 
865	 0.417993810281166 
866	 0.417974467292219 
867	 0.41813982673448 
868	 0.418450218218175 
869	 0.418665385951323 
870	 0.418395785155259 
871	 0.41828757163326 
872	 0.418387266173332 
873	 0.418557210017948 
874	 0.418561512779136 
875	 0.418883080351948 
876	 0.41921257043197 
877	 0.419192469614444 
878	 0.419213646588713 
879	 0.419390008470575 
880	 0.41965665917527 
881	 0.41985551606456 
882	 0.419925633503973 
883	 0.419895479657034 
884	 0.419864087365083 
885	 0.41995266264687 
886	 0.420080260407126 
887	 0.420084509475144 
888	 0.420032918604861 
889	 0.420237330883649 
890	 0.420504164245489 
891	 0.420734431036099 
892	 0.420885049632761 
893	 0.420982969277139 
894	 0.420897719763297 
895	 0.420768770905894 
896	 0.420791141251499 
897	 0.42115115857811 
898	 0.421194832941224 
899	 0.421121324953156 
900	 0.42126194746664 
901	 0.421214233898576 
902	 0.421142694598411 
903	 0.421112377437782 
904	 0.421119053886793 
905	 0.421080602652611 
906	 0.42121474346175 
907	 0.421309257124978 
908	 0.420980154644935 
909	 0.421023928887044 
910	 0.42114858463164 
911	 0.421175118841636 
912	 0.421159106462936 
913	 0.421103930564481 
914	 0.421312413764576 
915	 0.421674577094285 
916	 0.421519789803656 
917	 0.421342185071205 
918	 0.421141516873431 
919	 0.42094897679679 
920	 0.42101502721569 
921	 0.421408923085754 
922	 0.421761339509453 
923	 0.421828941321254 
924	 0.421998663508377 
925	 0.422000393630321 
926	 0.421867609470171 
927	 0.421744650109748 
928	 0.421780430454436 
929	 0.42190623455877 
930	 0.421987817580004 
931	 0.421993226195247 
932	 0.422437223153641 
933	 0.422785097814251 
934	 0.422949943543492 
935	 0.423076143335696 
936	 0.422972426217629 
937	 0.422783764948005 
938	 0.422915972949951 
939	 0.423671244528241 
940	 0.42370382632264 
941	 0.423346909597879 
942	 0.423086671222493 
943	 0.423294424448251 
944	 0.423528776952351 
945	 0.423543871637498 
946	 0.423415978026736 
947	 0.42352363791765 
948	 0.424079215972692 
949	 0.424440335784643 
950	 0.424354270080932 
951	 0.424242373382517 
952	 0.424500413585743 
953	 0.424716344157631 
954	 0.424598116943065 
955	 0.424299186247307 
956	 0.424512384333765 
957	 0.424816349978961 
958	 0.424861448598861 
959	 0.424861187297535 
960	 0.42471464831494 
961	 0.424597065109529 
962	 0.42455820360765 
963	 0.424288320288339 
964	 0.424333436328237 
965	 0.424515129881164 
966	 0.42451941255385 
967	 0.424177312027832 
968	 0.424478806246737 
969	 0.424658647638189 
970	 0.424179618579117 
971	 0.424374565494847 
972	 0.424507527901023 
973	 0.424421374949702 
974	 0.424209781615318 
975	 0.424157082891984 
976	 0.424073367299967 
977	 0.423961016393058 
978	 0.423919425593508 
979	 0.42415536188072 
980	 0.424338861533904 
981	 0.424331992245578 
982	 0.424139230852253 
983	 0.423901343825443 
984	 0.424102251553957 
985	 0.424407893616473 
986	 0.424396573059252 
987	 0.424434474467987 
988	 0.424464477209869 
989	 0.424339214646584 
990	 0.424046253550684 
991	 0.424108216443686 
992	 0.424285492193574 
993	 0.42438952733022 
994	 0.424365155986609 
995	 0.424511549155722 
996	 0.42480185619539 
997	 0.424978581818679 
998	 0.424894770772547 
999	 0.425068280186401 
1000	 0.424865304231699 
1001	 0.440544747453122 
1002	 0.440654617976469 
1003	 0.440863488747916 
1004	 0.440993701731072 
1005	 0.441149078188993 
1006	 0.44133044122627 
1007	 0.441480197730186 
1008	 0.441653462229268 
1009	 0.441904126493748 
1010	 0.442098870142082 
1011	 0.442210383149921 
1012	 0.442407853673535 
1013	 0.442708616435306 
1014	 0.442904789702351 
1015	 0.44307694347668 
1016	 0.443271856256162 
1017	 0.443370844329627 
1018	 0.443408856436116 
1019	 0.443527765135511 
1020	 0.443671797635698 
1021	 0.44379192873814 
1022	 0.44390948245848 
1023	 0.444023660895251 
1024	 0.444156839649432 
1025	 0.444244617117135 
1026	 0.444352700324308 
1027	 0.444400389763948 
1028	 0.444431838760267 
1029	 0.444329339691339 
1030	 0.444259279070259 
1031	 0.444140474350232 
1032	 0.444017579528381 
1033	 0.443887994669219 
1034	 0.443767757749228 
1035	 0.443708886905513 
1036	 0.44361298636258 
1037	 0.44352808967559 
1038	 0.443402726856433 
1039	 0.443291717127916 
1040	 0.443092104083411 
1041	 0.442842000238018 
1042	 0.442602962180003 
1043	 0.442313350189867 
1044	 0.441958379252725 
1045	 0.441807305148023 
1046	 0.441614559002781 
1047	 0.44140356863807 
1048	 0.441253298752357 
1049	 0.441027861418383 
1050	 0.440794300950807 
1051	 0.440697133780998 
1052	 0.440603529251237 
1053	 0.440446497190134 
1054	 0.44023848590594 
1055	 0.440098289211933 
1056	 0.439878018080855 
1057	 0.439824813838071 
1058	 0.439878591471721 
1059	 0.439977742642134 
1060	 0.44014572094176 
1061	 0.440230557205189 
1062	 0.440308123551758 
1063	 0.440435006583156 
1064	 0.440635969667927 
1065	 0.440961549351489 
1066	 0.441276408998956 
1067	 0.441703402912539 
1068	 0.442190622022804 
1069	 0.442568010408168 
1070	 0.443047087087681 
1071	 0.443626889464063 
1072	 0.444190736880833 
1073	 0.444602897392894 
1074	 0.445191152471473 
1075	 0.445838882742586 
1076	 0.446465361656471 
1077	 0.447260435482024 
1078	 0.448036196159887 
1079	 0.448771510864371 
1080	 0.449514624437857 
1081	 0.450204092245741 
1082	 0.450900897418942 
1083	 0.451575359716589 
1084	 0.452237247299929 
1085	 0.452974476136932 
1086	 0.453732118100383 
1087	 0.454546814712024 
1088	 0.455340561415479 
1089	 0.456037410392017 
1090	 0.456646167783098 
1091	 0.45724797969606 
1092	 0.45784072162532 
1093	 0.458451527762474 
1094	 0.459054284637671 
1095	 0.459544685003828 
1096	 0.459970985446441 
1097	 0.460326761132834 
1098	 0.460659549743479 
1099	 0.461030556818374 
1100	 0.461333265955513 
1101	 0.461585810487463 
1102	 0.461802207632258 
1103	 0.461962984149264 
1104	 0.462049283366314 
1105	 0.462098462940571 
1106	 0.462105869824609 
1107	 0.462059883542027 
1108	 0.461953462942201 
1109	 0.46184029361349 
1110	 0.461730591015845 
1111	 0.461536458339278 
1112	 0.461306593368546 
1113	 0.46108328964537 
1114	 0.46086389518025 
1115	 0.460654411024528 
1116	 0.460402699571463 
1117	 0.460066591735344 
1118	 0.459696108743945 
1119	 0.459226815684372 
1120	 0.458793783733956 
1121	 0.458347874938059 
1122	 0.457903007106613 
1123	 0.457492089183705 
1124	 0.457051321784754 
1125	 0.456667181679291 
1126	 0.45636199060858 
1127	 0.45593241812811 
1128	 0.455482781620921 
1129	 0.455069017398661 
1130	 0.45458053415942 
1131	 0.454179437318967 
1132	 0.453874290613732 
1133	 0.453585192016166 
1134	 0.453297355478258 
1135	 0.453017482701928 
1136	 0.452752241675531 
1137	 0.452515757613756 
1138	 0.45225865236824 
1139	 0.452066952808428 
1140	 0.45191818477811 
1141	 0.451815406081718 
1142	 0.451724305933907 
1143	 0.45162244555247 
1144	 0.451573675576383 
1145	 0.451468108341714 
1146	 0.451342869494629 
1147	 0.451316266214162 
1148	 0.451284872138118 
1149	 0.451244123997195 
1150	 0.45126048190235 
1151	 0.451288507386317 
1152	 0.451313858933024 
1153	 0.451362807160955 
1154	 0.451389920614563 
1155	 0.451391109917897 
1156	 0.451425389027995 
1157	 0.451472394905873 
1158	 0.451517349389788 
1159	 0.451580117054073 
1160	 0.451635073030053 
1161	 0.451699702526773 
1162	 0.451748679200713 
1163	 0.451799857673882 
1164	 0.451878257933487 
1165	 0.451944053001044 
1166	 0.451979881205213 
1167	 0.4520285928491 
1168	 0.452085277014589 
1169	 0.452167008566552 
1170	 0.452269440804068 
1171	 0.452375499461993 
1172	 0.452520550473395 
1173	 0.452623506727884 
1174	 0.452691639586551 
1175	 0.452788679573364 
1176	 0.452901056362785 
1177	 0.452988430910306 
1178	 0.453078143744028 
1179	 0.453153049902012 
1180	 0.453217680420772 
1181	 0.453341656232413 
1182	 0.453500499111043 
1183	 0.453679061192776 
1184	 0.453864943613457 
1185	 0.454008332423246 
1186	 0.454159262789828 
1187	 0.454292389464248 
1188	 0.454451981567932 
1189	 0.454637691202215 
1190	 0.45479143865603 
1191	 0.45492882872972 
1192	 0.455088804330397 
1193	 0.455245530298579 
1194	 0.45538842236171 
1195	 0.455547831109042 
1196	 0.455705938321264 
1197	 0.455849101648637 
1198	 0.455977282766879 
1199	 0.456142444924216 
1200	 0.456315073073348 
1201	 0.456450358135253 
1202	 0.456582837833782 
1203	 0.456753693184938 
1204	 0.456924653533264 
1205	 0.457104805281529 
1206	 0.457310600704593 
1207	 0.457524639330947 
1208	 0.457745073583895 
1209	 0.457956568022996 
1210	 0.458209985469124 
1211	 0.458406846388329 
1212	 0.458533867084891 
1213	 0.45872393170641 
1214	 0.458929301723447 
1215	 0.459126616071075 
1216	 0.459353503491165 
1217	 0.459562928742671 
1218	 0.459748685856657 
1219	 0.459946301122878 
1220	 0.460149107526282 
1221	 0.460356868048221 
1222	 0.460508183375807 
1223	 0.460654555067181 
1224	 0.460828903474366 
1225	 0.460991956952815 
1226	 0.46118411011973 
1227	 0.461419471218199 
1228	 0.461622924475569 
1229	 0.461808923910452 
1230	 0.462019169421154 
1231	 0.462250775750148 
1232	 0.462462716816616 
1233	 0.462692586655714 
1234	 0.462886071481231 
1235	 0.463017063366383 
1236	 0.463198942640625 
1237	 0.463403364816157 
1238	 0.463594371691679 
1239	 0.463805766646467 
1240	 0.464010118244504 
1241	 0.464198084466017 
1242	 0.464386932562148 
1243	 0.464592307679495 
1244	 0.464837936750588 
1245	 0.465012769598835 
1246	 0.46515650632917 
1247	 0.465311496146305 
1248	 0.465436846976677 
1249	 0.465570355889426 
1250	 0.46573521227752 
1251	 0.465851452205573 
1252	 0.465938733611776 
1253	 0.466005404615455 
1254	 0.466062109914512 
1255	 0.466078504728884 
1256	 0.466057163091205 
1257	 0.466023376324892 
1258	 0.465927612236645 
1259	 0.46586471074151 
1260	 0.465812927891117 
1261	 0.465750423698 
1262	 0.465663924406718 
1263	 0.46563981711899 
1264	 0.465592754791445 
1265	 0.465531595344934 
1266	 0.46549204800545 
1267	 0.465479386262465 
1268	 0.465442196615855 
1269	 0.465398234070128 
1270	 0.465357306933463 
1271	 0.465315886051619 
1272	 0.465268000850813 
1273	 0.465200329129676 
1274	 0.46516757929492 
1275	 0.465146250151478 
1276	 0.465125175723386 
1277	 0.465093918040941 
1278	 0.465125199835545 
1279	 0.46517065622031 
1280	 0.465252266271674 
1281	 0.465414649436725 
1282	 0.465565135975218 
1283	 0.46567815107582 
1284	 0.465872555720139 
1285	 0.466112855431668 
1286	 0.466382620945112 
1287	 0.466714158637839 
1288	 0.467127007870152 
1289	 0.467535267542926 
1290	 0.467967990390545 
1291	 0.468443527353181 
1292	 0.468936147420356 
1293	 0.469501130004391 
1294	 0.470100643862803 
1295	 0.47078627727407 
1296	 0.471564280878401 
1297	 0.472353591391482 
1298	 0.473214158813051 
1299	 0.474083251647718 
1300	 0.474998037707617 
1301	 0.475891075675111 
1302	 0.476807311537442 
1303	 0.477711688957414 
1304	 0.478599549007561 
1305	 0.479483950628566 
1306	 0.480379368350504 
1307	 0.481253437816169 
1308	 0.482116766227625 
1309	 0.482957961587388 
1310	 0.48376415833745 
1311	 0.484561265111026 
1312	 0.485285518818981 
1313	 0.485967663790648 
1314	 0.486588593491527 
1315	 0.487163952261401 
1316	 0.487660615801145 
1317	 0.488071645430307 
1318	 0.488476660512644 
1319	 0.488820992591744 
1320	 0.489147203314532 
1321	 0.489485962468954 
1322	 0.489724946371986 
1323	 0.489904912368185 
1324	 0.490026351659276 
1325	 0.490083962904979 
1326	 0.490085667557612 
1327	 0.490041732217004 
1328	 0.489929449186132 
1329	 0.489734574256553 
1330	 0.489516829144686 
1331	 0.489278272458636 
1332	 0.488958929951201 
1333	 0.488595579813627 
1334	 0.488156749861558 
1335	 0.48771757443184 
1336	 0.487222813913732 
1337	 0.486702585959464 
1338	 0.486171828405085 
1339	 0.485613175281321 
1340	 0.485001716929735 
1341	 0.484389913232784 
1342	 0.483768274594996 
1343	 0.48314523616955 
1344	 0.482499000289458 
1345	 0.481852067412475 
1346	 0.481214909072084 
1347	 0.480565965915045 
1348	 0.479883243005977 
1349	 0.479231158152463 
1350	 0.478573628073132 
1351	 0.477953298543383 
1352	 0.477352552321301 
1353	 0.476769653391283 
1354	 0.476208108798722 
1355	 0.475669797267857 
1356	 0.475155553624859 
1357	 0.474647725591645 
1358	 0.474142125018031 
1359	 0.473674916422688 
1360	 0.473246771075739 
1361	 0.472791195776798 
1362	 0.47237067179184 
1363	 0.472030735456935 
1364	 0.471721307093731 
1365	 0.471435089027792 
1366	 0.471215143620855 
1367	 0.471063241890109 
1368	 0.470920361282736 
1369	 0.470819941620605 
1370	 0.470726877661917 
1371	 0.470654906685096 
1372	 0.470603509161036 
1373	 0.470596494431116 
1374	 0.470545370715819 
1375	 0.470495779260053 
1376	 0.470437522995851 
1377	 0.47036429650044 
1378	 0.470272607210682 
1379	 0.470146643070048 
1380	 0.470072549886094 
1381	 0.469972223545044 
1382	 0.469930617487549 
1383	 0.469947613619948 
1384	 0.46998734104121 
1385	 0.470050114966315 
1386	 0.47014102285989 
1387	 0.470298164452496 
1388	 0.470427543833028 
1389	 0.470556624565995 
1390	 0.470698494756024 
1391	 0.470858070752826 
1392	 0.47098740253018 
1393	 0.471116156155187 
1394	 0.471249761910775 
1395	 0.471353175073573 
1396	 0.47140567590467 
1397	 0.471523002962805 
1398	 0.47166911831629 
1399	 0.471775438719702 
1400	 0.471889088532977 
1401	 0.472003700954106 
1402	 0.472102481753402 
1403	 0.47218258498676 
1404	 0.472286016664627 
1405	 0.472344227829924 
1406	 0.472332753580251 
1407	 0.472368731192568 
1408	 0.472417461247238 
1409	 0.472458060228944 
1410	 0.472501860705345 
1411	 0.472550881197576 
1412	 0.47259718362201 
1413	 0.472645856158962 
1414	 0.472699619245193 
1415	 0.472758653691778 
1416	 0.472814949922373 
1417	 0.47288107345176 
1418	 0.47295828631634 
1419	 0.473040274498052 
1420	 0.473128952130409 
1421	 0.473220030830353 
1422	 0.473312084744469 
1423	 0.473413212048972 
1424	 0.473521276691757 
1425	 0.473630703219797 
1426	 0.473745433659136 
1427	 0.473891479215161 
1428	 0.474008801716459 
1429	 0.474131230875543 
1430	 0.474269669577779 
1431	 0.47441002907517 
1432	 0.474552545654367 
1433	 0.474720137976482 
1434	 0.474861013812628 
1435	 0.474974545207916 
1436	 0.475125324755913 
1437	 0.475301636343137 
1438	 0.475437841657945 
1439	 0.475578867271055 
1440	 0.475703963568797 
1441	 0.475766978399999 
1442	 0.475902576767924 
1443	 0.476076228538857 
1444	 0.476240185809923 
1445	 0.476441760375005 
1446	 0.476612749082049 
1447	 0.476769455885996 
1448	 0.476924945871873 
1449	 0.477062438538374 
1450	 0.477217609991096 
1451	 0.477382191020888 
1452	 0.477537752415967 
1453	 0.477697547897007 
1454	 0.4778565276704 
1455	 0.478012643827446 
1456	 0.478162047114258 
1457	 0.478302457476612 
1458	 0.478459708584001 
1459	 0.478628596415104 
1460	 0.478778156152463 
1461	 0.478935803697491 
1462	 0.479080082108888 
1463	 0.479195255710337 
1464	 0.479318776270956 
1465	 0.479445484320951 
1466	 0.47956989626146 
1467	 0.479694772761959 
1468	 0.479817404720283 
1469	 0.479946787569383 
1470	 0.480099209606398 
1471	 0.480227168228729 
1472	 0.48035477226441 
1473	 0.480473241502737 
1474	 0.480583138729962 
1475	 0.480678025284703 
1476	 0.480773613436489 
1477	 0.480843971317331 
1478	 0.480864044539724 
1479	 0.480948555027279 
1480	 0.48104275434236 
1481	 0.481158326178128 
1482	 0.481317258915085 
1483	 0.481461931503923 
1484	 0.481620285657707 
1485	 0.481753042167054 
1486	 0.481875850192522 
1487	 0.482010425078194 
1488	 0.482130599243835 
1489	 0.482259993717437 
1490	 0.4823986436399 
1491	 0.482549585615874 
1492	 0.482709616566628 
1493	 0.482858856459046 
1494	 0.483032953880158 
1495	 0.483175017879641 
1496	 0.483285962520723 
1497	 0.483400816805503 
1498	 0.483511125598423 
1499	 0.483612767781229 
1500	 0.483707141032413 
1501	 0.483796613107114 
1502	 0.48387088152027 
1503	 0.483951674356088 
1504	 0.484011450054955 
1505	 0.484107695244797 
1506	 0.484219585745205 
1507	 0.484347927795102 
1508	 0.484526107052779 
1509	 0.48467393174302 
1510	 0.48483591309347 
1511	 0.484960960141409 
1512	 0.485032057474095 
1513	 0.485134382252845 
1514	 0.485207694135679 
1515	 0.48532410246224 
1516	 0.485501030346308 
1517	 0.48565390582104 
1518	 0.485821850044934 
1519	 0.485977857688902 
1520	 0.486120813862467 
1521	 0.486258058554184 
1522	 0.48637803338509 
1523	 0.486485586922624 
1524	 0.486571971000783 
1525	 0.486618268079153 
1526	 0.486713721087938 
1527	 0.486810248737154 
1528	 0.48692665212696 
1529	 0.487066534282445 
1530	 0.487215338887067 
1531	 0.487378476539402 
1532	 0.48753350758641 
1533	 0.487707515969388 
1534	 0.48786225718802 
1535	 0.488007212873233 
1536	 0.488138169324551 
1537	 0.488257438339351 
1538	 0.488389195832246 
1539	 0.488501079262188 
1540	 0.488644396147814 
1541	 0.488821563197332 
1542	 0.48896785207172 
1543	 0.489115451606467 
1544	 0.489249314861994 
1545	 0.489364726636355 
1546	 0.489484758864974 
1547	 0.489595664708993 
1548	 0.489719195211416 
1549	 0.489847884884252 
1550	 0.48997183635479 
1551	 0.490115324251488 
1552	 0.490220852218362 
1553	 0.490297217459153 
1554	 0.490389226170828 
1555	 0.490468852964802 
1556	 0.490551578541373 
1557	 0.490636654950273 
1558	 0.490732592304403 
1559	 0.49080823123543 
1560	 0.490930711288071 
1561	 0.491099488099532 
1562	 0.491245867594788 
1563	 0.491411266975287 
1564	 0.491561442867312 
1565	 0.491717479924243 
1566	 0.491831163132414 
1567	 0.491930992246223 
1568	 0.492007823501445 
1569	 0.492025018116578 
1570	 0.492075476417688 
1571	 0.492103712511845 
1572	 0.492187439518506 
1573	 0.492282498435181 
1574	 0.492430924388406 
1575	 0.492665324788531 
1576	 0.492855932849041 
1577	 0.493078647848313 
1578	 0.493260472960005 
1579	 0.493423746109425 
1580	 0.493551539038238 
1581	 0.493628669280275 
1582	 0.493734422607143 
1583	 0.493802088899636 
1584	 0.493914327579853 
1585	 0.494079930767196 
1586	 0.49421983218547 
1587	 0.494363470847189 
1588	 0.494504407695559 
1589	 0.494632181622296 
1590	 0.494769616110436 
1591	 0.494917328007494 
1592	 0.495058810097905 
1593	 0.495192086673262 
1594	 0.495341177748334 
1595	 0.495503093863166 
1596	 0.495652007175745 
1597	 0.495825082129709 
1598	 0.495957653781831 
1599	 0.496064022399975 
1600	 0.496157822420559 
1601	 0.496179166262925 
1602	 0.49627941592467 
1603	 0.496420632276597 
1604	 0.496548724426473 
1605	 0.496716037610007 
1606	 0.496880685093458 
1607	 0.497038671461197 
1608	 0.497187956124981 
1609	 0.497360487326768 
1610	 0.497505697653685 
1611	 0.497633701904767 
1612	 0.497732121495738 
1613	 0.497790929986045 
1614	 0.497877528478328 
1615	 0.497944505658524 
1616	 0.498021513479766 
1617	 0.498130210151969 
1618	 0.49822642977612 
1619	 0.498282833080426 
1620	 0.49839210236933 
1621	 0.49854490027341 
1622	 0.4986814745124 
1623	 0.498858984777175 
1624	 0.499000274735783 
1625	 0.499091420262674 
1626	 0.499219010101738 
1627	 0.499350899399533 
1628	 0.499486535257601 
1629	 0.499670629071339 
1630	 0.499802571676567 
1631	 0.49990095016908 
1632	 0.500003395392243 
1633	 0.5000787223569 
1634	 0.500159692110112 
1635	 0.500261080143311 
1636	 0.500329846756647 
1637	 0.500372748816632 
1638	 0.500412015023122 
1639	 0.500412105025987 
1640	 0.500446094321785 
1641	 0.500489404450974 
1642	 0.500547075056854 
1643	 0.500602153274849 
1644	 0.500708361545503 
1645	 0.500862645182904 
1646	 0.501007792468336 
1647	 0.501223662999587 
1648	 0.501366829447233 
1649	 0.501478638444557 
1650	 0.501556664852985 
1651	 0.501567693492402 
1652	 0.501609406999561 
1653	 0.501632166924288 
1654	 0.501664899971093 
1655	 0.501730253173664 
1656	 0.50176316378403 
1657	 0.501775282029592 
1658	 0.501790226141663 
1659	 0.501808081811331 
1660	 0.50179267799564 
1661	 0.501770914840463 
1662	 0.50171984663465 
1663	 0.501614231462237 
1664	 0.501521499876095 
1665	 0.501423631529505 
1666	 0.501318896610342 
1667	 0.501228819566928 
1668	 0.50110490305191 
1669	 0.500971874299323 
1670	 0.500800512654991 
1671	 0.500566964247347 
1672	 0.500358097402056 
1673	 0.500140649314569 
1674	 0.499916897895219 
1675	 0.499714045727565 
1676	 0.499479616390103 
1677	 0.499217778996793 
1678	 0.498945042437571 
1679	 0.498663716569657 
1680	 0.49835942598679 
1681	 0.49804776964202 
1682	 0.497696517525635 
1683	 0.497279250436806 
1684	 0.496914491123109 
1685	 0.496524505924645 
1686	 0.496196288931792 
1687	 0.49595587895817 
1688	 0.49564228956949 
1689	 0.495342792897838 
1690	 0.494976117295829 
1691	 0.494556566988986 
1692	 0.494118762688659 
1693	 0.493656302919575 
1694	 0.493154656311724 
1695	 0.492576759377146 
1696	 0.492049183259034 
1697	 0.49151954349227 
1698	 0.490982516947854 
1699	 0.490481231908047 
1700	 0.489950194702167 
1701	 0.489355619018933 
1702	 0.488842623960258 
1703	 0.488363297935499 
1704	 0.487879433179243 
1705	 0.487442737281237 
1706	 0.48694641207149 
1707	 0.486450319106837 
1708	 0.485993121609402 
1709	 0.485579631789171 
1710	 0.485217323144484 
1711	 0.484913832541035 
1712	 0.484679911256965 
1713	 0.484449643659564 
1714	 0.484238805727992 
1715	 0.484066867057437 
1716	 0.483868432905336 
1717	 0.483646932720028 
1718	 0.483427913357436 
1719	 0.483226918630876 
1720	 0.48303578241008 
1721	 0.482918561084341 
1722	 0.482886905188846 
1723	 0.482880825898479 
1724	 0.482915590469405 
1725	 0.482945653326535 
1726	 0.482994979444133 
1727	 0.48308162348739 
1728	 0.483175092809511 
1729	 0.483328901973002 
1730	 0.483500339065724 
1731	 0.483693943679508 
1732	 0.483979042788692 
1733	 0.484297406591168 
1734	 0.484652350343194 
1735	 0.485025968092672 
1736	 0.48536174621775 
1737	 0.485702938678709 
1738	 0.486033331093005 
1739	 0.486284641862633 
1740	 0.486487604300867 
1741	 0.486640143856907 
1742	 0.486739942149764 
1743	 0.486797756803759 
1744	 0.486800961168197 
1745	 0.486762863504342 
1746	 0.48662249614286 
1747	 0.486555612925576 
1748	 0.486495757046138 
1749	 0.486451331209952 
1750	 0.48642869340387 
1751	 0.486435603883071 
1752	 0.486458742071404 
1753	 0.486465583782427 
1754	 0.486529088003875 
1755	 0.486541225276966 
1756	 0.486438006725193 
1757	 0.486511374749501 
1758	 0.486642503595646 
1759	 0.486866161871896 
1760	 0.487236719203107 
1761	 0.487620019779465 
1762	 0.487980560755016 
1763	 0.488402067840793 
1764	 0.4888201918425 
1765	 0.489262363674366 
1766	 0.489706621311345 
1767	 0.490090248364779 
1768	 0.490487430408438 
1769	 0.490871537315961 
1770	 0.491246278191357 
1771	 0.491632333538269 
1772	 0.491985889037302 
1773	 0.492343016496589 
1774	 0.492763565489113 
1775	 0.493181911182785 
1776	 0.493568840828799 
1777	 0.493897768505402 
1778	 0.49407742835383 
1779	 0.494201472557975 
1780	 0.494312159824816 
1781	 0.494363582856989 
1782	 0.494423176348899 
1783	 0.494504573926248 
1784	 0.49465386721751 
1785	 0.494875560395858 
1786	 0.495113711808926 
1787	 0.495458883910687 
1788	 0.49570761584897 
1789	 0.495965922907085 
1790	 0.496112792861502 
1791	 0.49614857837744 
1792	 0.496132875086643 
1793	 0.496003500324633 
1794	 0.495918635673956 
1795	 0.49593187002725 
1796	 0.496032932517201 
1797	 0.496120466172084 
1798	 0.496246626485735 
1799	 0.496381987909444 
1800	 0.496499540381926 
1801	 0.49885433045479 
1802	 0.499124713073046 
1803	 0.499382483919122 
1804	 0.499626215353895 
1805	 0.499887187307159 
1806	 0.500087865248432 
1807	 0.500203317675477 
1808	 0.500416948331529 
1809	 0.50065869202296 
1810	 0.500868683061829 
1811	 0.501115369338727 
1812	 0.501346280083475 
1813	 0.501549988867779 
1814	 0.501736052734981 
1815	 0.501961256567174 
1816	 0.502182950645426 
1817	 0.502356828762402 
1818	 0.502468456439018 
1819	 0.502625915547891 
1820	 0.502774002664089 
1821	 0.502931197087234 
1822	 0.503089674496886 
1823	 0.503299949054867 
1824	 0.503477184047341 
1825	 0.503608675604894 
1826	 0.503764650061504 
1827	 0.503897395183141 
1828	 0.504069836307639 
1829	 0.504243246533516 
1830	 0.504466223438896 
1831	 0.504726506639404 
1832	 0.505021176473988 
1833	 0.505299057297187 
1834	 0.505556360070449 
1835	 0.505791276610417 
1836	 0.505949405413223 
1837	 0.506115770807558 
1838	 0.506274479716397 
1839	 0.506417375447553 
1840	 0.506514075326823 
1841	 0.506650753077368 
1842	 0.506806651714232 
1843	 0.50690614567285 
1844	 0.50706624529993 
1845	 0.507251721974415 
1846	 0.507428378211831 
1847	 0.507611831704402 
1848	 0.507760088655643 
1849	 0.50787419087037 
1850	 0.508011904575002 
1851	 0.508133968310093 
1852	 0.508264874263107 
1853	 0.508441654281501 
1854	 0.508602552476417 
1855	 0.508773107737373 
1856	 0.508960179953982 
1857	 0.509132995246532 
1858	 0.509297889671871 
1859	 0.509447872389746 
1860	 0.509579217494611 
1861	 0.509704175996119 
1862	 0.50981122746517 
1863	 0.50994438054547 
1864	 0.5100495056275 
1865	 0.510119945466262 
1866	 0.510204754883528 
1867	 0.510216672445887 
1868	 0.510122708310397 
1869	 0.51005422634348 
1870	 0.509955086282356 
1871	 0.509749219250875 
1872	 0.509632399146248 
1873	 0.509546467317413 
1874	 0.509454877525412 
1875	 0.509455271194751 
1876	 0.509453440465697 
1877	 0.509488738060238 
1878	 0.509548080759485 
1879	 0.509555917153046 
1880	 0.509554732353912 
1881	 0.509457330585412 
1882	 0.509309519204127 
1883	 0.509078922245982 
1884	 0.508779183317012 
1885	 0.50839140097385 
1886	 0.507986622897976 
1887	 0.507571048493492 
1888	 0.507071948958284 
1889	 0.506572094936442 
1890	 0.506000904992845 
1891	 0.50537089555207 
1892	 0.50476525139376 
1893	 0.504166442248505 
1894	 0.503537265988865 
1895	 0.502993076402501 
1896	 0.502444711571516 
1897	 0.5018555931866 
1898	 0.501344181052385 
1899	 0.500836870509331 
1900	 0.500371675982727 
1901	 0.499954253105709 
1902	 0.499491288481745 
1903	 0.499029757904373 
1904	 0.498588883839631 
1905	 0.498139997329712 
1906	 0.497718801643395 
1907	 0.497348354462716 
1908	 0.49698162703986 
1909	 0.496641992851208 
1910	 0.49633081426185 
1911	 0.496013673788599 
1912	 0.495756637794693 
1913	 0.495526162316312 
1914	 0.49530358167825 
1915	 0.495131058018263 
1916	 0.495027201807516 
1917	 0.494911835296152 
1918	 0.494779126287947 
1919	 0.494714874185744 
1920	 0.494611857401353 
1921	 0.494455494047814 
1922	 0.494327147295116 
1923	 0.494141696719277 
1924	 0.493964520281826 
1925	 0.493857355497716 
1926	 0.493777280812951 
1927	 0.493715819117609 
1928	 0.493714677629331 
1929	 0.493772892205754 
1930	 0.493849640340704 
1931	 0.493919871622672 
1932	 0.494013075802229 
1933	 0.4941072977914 
1934	 0.494171376592724 
1935	 0.494281334397024 
1936	 0.494404623382271 
1937	 0.494546680818077 
1938	 0.49469894460406 
1939	 0.494888032257744 
1940	 0.495104162201397 
1941	 0.49536110553134 
1942	 0.495589972965059 
1943	 0.495749145737238 
1944	 0.495929352447831 
1945	 0.496060685934838 
1946	 0.496170264693857 
1947	 0.496345317337252 
1948	 0.496530265170939 
1949	 0.496698139746988 
1950	 0.496903423872001 
1951	 0.497184532926136 
1952	 0.497412398772228 
1953	 0.49761922820528 
1954	 0.49783737717096 
1955	 0.498089311356339 
1956	 0.498292338012308 
1957	 0.498505227141817 
1958	 0.498765623207868 
1959	 0.498992926912769 
1960	 0.499227244180387 
1961	 0.499459867244955 
1962	 0.499705712760185 
1963	 0.499932181374711 
1964	 0.50014309848588 
1965	 0.50035916184912 
1966	 0.500580129770686 
1967	 0.500787150432881 
1968	 0.500990250106771 
1969	 0.501205720706719 
1970	 0.501421278715783 
1971	 0.501690218568984 
1972	 0.501956105522973 
1973	 0.502207328041435 
1974	 0.502418907057702 
1975	 0.502587953182155 
1976	 0.502756913753158 
1977	 0.502897445632425 
1978	 0.503031824589959 
1979	 0.503149302352494 
1980	 0.503282451788615 
1981	 0.503398747349961 
1982	 0.503570225267701 
1983	 0.50376250026875 
1984	 0.503921219175371 
1985	 0.504038281144103 
1986	 0.50411786956363 
1987	 0.504201436515565 
1988	 0.504239828446879 
1989	 0.504307414288912 
1990	 0.504366575416832 
1991	 0.504463284229958 
1992	 0.504563131312134 
1993	 0.504703122117327 
1994	 0.504877088968826 
1995	 0.505071487738786 
1996	 0.505229408117097 
1997	 0.505369796660424 
1998	 0.5055532893358 
1999	 0.505765636545098 
2000	 0.505937881888614 
2001	 0.506129691406842 
2002	 0.506301348028864 
2003	 0.506442292148528 
2004	 0.506566897862273 
2005	 0.506682648690591 
2006	 0.506792831663513 
2007	 0.506869715774031 
2008	 0.506956237848266 
2009	 0.507028899587738 
2010	 0.507154543519149 
2011	 0.507300243025306 
2012	 0.50733886829241 
2013	 0.507339202196874 
2014	 0.507292814339235 
2015	 0.507235999192816 
2016	 0.50708746666835 
2017	 0.506993872665427 
2018	 0.506922804590898 
2019	 0.506842253506921 
2020	 0.506720656478431 
2021	 0.506676440570049 
2022	 0.506686258533464 
2023	 0.506653107069743 
2024	 0.506609820138413 
2025	 0.506515644205386 
2026	 0.506395609658401 
2027	 0.506171151278924 
2028	 0.506033941790223 
2029	 0.505915773079063 
2030	 0.505804447949327 
2031	 0.505735704655215 
2032	 0.505638271377023 
2033	 0.505554792808721 
2034	 0.505434314552074 
2035	 0.505304110304944 
2036	 0.505112284649168 
2037	 0.50491677821034 
2038	 0.504726511301528 
2039	 0.504594191644904 
2040	 0.504466256348825 
2041	 0.504424461515292 
2042	 0.504451877624912 
2043	 0.504503746207002 
2044	 0.504656297662441 
2045	 0.504739510434488 
2046	 0.504866129385644 
2047	 0.50490481825683 
2048	 0.504886618047024 
2049	 0.504844607021389 
2050	 0.504759315771856 
2051	 0.504614084891448 
2052	 0.50448229295949 
2053	 0.50438970245641 
2054	 0.50435645045871 
2055	 0.504367432892182 
2056	 0.5044084575408 
2057	 0.504514369888152 
2058	 0.504614000531986 
2059	 0.504778935948342 
2060	 0.504864630125429 
2061	 0.50495139232511 
2062	 0.504980439267121 
2063	 0.504901042829622 
2064	 0.504875290368546 
2065	 0.504805344488826 
2066	 0.504823624289138 
2067	 0.50489920176977 
2068	 0.504988302170522 
2069	 0.505041946341305 
2070	 0.505125373159625 
2071	 0.505165298703851 
2072	 0.505168799961464 
2073	 0.505157762238075 
2074	 0.505128930461886 
2075	 0.505100446991535 
2076	 0.505027125445102 
2077	 0.504984992750045 
2078	 0.504947230172967 
2079	 0.504942704030962 
2080	 0.504995048685444 
2081	 0.504993265043875 
2082	 0.505007283299407 
2083	 0.504987877252831 
2084	 0.504899322656482 
2085	 0.504788405476995 
2086	 0.504695479596679 
2087	 0.504600816995783 
2088	 0.504485938620843 
2089	 0.504349443896211 
2090	 0.504247398096795 
2091	 0.504119515701269 
2092	 0.504042886969615 
2093	 0.504028270983844 
2094	 0.503992067139343 
2095	 0.503988880201018 
2096	 0.503952106699047 
2097	 0.503882278381036 
2098	 0.50383216749765 
2099	 0.503811970484045 
2100	 0.503747174927674 
2101	 0.503723040802636 
2102	 0.503747346415361 
2103	 0.50372338481767 
2104	 0.503686118873523 
2105	 0.503650561364477 
2106	 0.503590621499164 
2107	 0.503550575013584 
2108	 0.503521388635858 
2109	 0.503480005677615 
2110	 0.503436379020686 
2111	 0.503409197016827 
2112	 0.5034152793907 
2113	 0.503364103758387 
2114	 0.50329801008983 
2115	 0.503217833537027 
2116	 0.50310172170058 
2117	 0.502967302574876 
2118	 0.502794442305798 
2119	 0.50258236405904 
2120	 0.50241733888072 
2121	 0.50220964084935 
2122	 0.50206428433674 
2123	 0.501989088295497 
2124	 0.501900780656241 
2125	 0.501826263674692 
2126	 0.501734407810297 
2127	 0.501693968650584 
2128	 0.50156642751914 
2129	 0.501364014218233 
2130	 0.501186288311481 
2131	 0.500930634038929 
2132	 0.500756994730816 
2133	 0.50061967127335 
2134	 0.500518843470645 
2135	 0.500464792219074 
2136	 0.500436178561676 
2137	 0.500346420418824 
2138	 0.500273991188318 
2139	 0.500116460680445 
2140	 0.499879192508502 
2141	 0.499657887863965 
2142	 0.499405793271912 
2143	 0.49913269143809 
2144	 0.498821092414608 
2145	 0.498554427924231 
2146	 0.498238414374276 
2147	 0.498013149831671 
2148	 0.497858978951689 
2149	 0.497714994283609 
2150	 0.497630438107004 
2151	 0.497534728220711 
2152	 0.497491589766954 
2153	 0.497397662119746 
2154	 0.497266903614502 
2155	 0.497058124584264 
2156	 0.496853290141556 
2157	 0.496569539911246 
2158	 0.496342375848529 
2159	 0.49616141638418 
2160	 0.495912932868962 
2161	 0.495635198560093 
2162	 0.495357848105995 
2163	 0.495033950264329 
2164	 0.494729016651314 
2165	 0.494456996642995 
2166	 0.494133974304649 
2167	 0.49377185000967 
2168	 0.493430419488295 
2169	 0.493048050413078 
2170	 0.49270644161577 
2171	 0.492400109561153 
2172	 0.492089283675926 
2173	 0.49178212603689 
2174	 0.491491114935452 
2175	 0.491239451628637 
2176	 0.490972384774161 
2177	 0.490697149377525 
2178	 0.490424399701371 
2179	 0.490183478603884 
2180	 0.489918829648787 
2181	 0.48971487559343 
2182	 0.489594269044266 
2183	 0.489405119123228 
2184	 0.489223946881296 
2185	 0.489005199997301 
2186	 0.488748237795002 
2187	 0.488484504448959 
2188	 0.488141955448808 
2189	 0.487912352824941 
2190	 0.487719152528846 
2191	 0.487551215671866 
2192	 0.48751647185634 
2193	 0.487387016904546 
2194	 0.487217124978797 
2195	 0.487039088385539 
2196	 0.486836707759639 
2197	 0.486601707629453 
2198	 0.486366236294795 
2199	 0.486102107871807 
2200	 0.485891408164635 
2201	 0.485669604446514 
2202	 0.48551652033988 
2203	 0.485439421141746 
2204	 0.485322163024789 
2205	 0.485237462345247 
2206	 0.485107112499365 
2207	 0.484929765723716 
2208	 0.484793625629659 
2209	 0.484673073374516 
2210	 0.484516866530755 
2211	 0.484383780400363 
2212	 0.484217651245099 
2213	 0.483985348032909 
2214	 0.48378945851535 
2215	 0.483592619480662 
2216	 0.48340719188263 
2217	 0.483215331605455 
2218	 0.483072802147118 
2219	 0.482994212753892 
2220	 0.482871517307588 
2221	 0.482776584589795 
2222	 0.482639415961659 
2223	 0.482478062829487 
2224	 0.482277202152728 
2225	 0.482156178508255 
2226	 0.481989263568647 
2227	 0.481716156435935 
2228	 0.481376281453971 
2229	 0.481060820686634 
2230	 0.480645042254513 
2231	 0.4802946574172 
2232	 0.480018472732749 
2233	 0.479655403763044 
2234	 0.479258645368273 
2235	 0.478817057646532 
2236	 0.478392055749404 
2237	 0.477830535374183 
2238	 0.477125792410503 
2239	 0.476475304423797 
2240	 0.475772757135051 
2241	 0.475037277915026 
2242	 0.474405817228417 
2243	 0.473570780443933 
2244	 0.472566194510434 
2245	 0.47155213364504 
2246	 0.470366031738257 
2247	 0.469240788835711 
2248	 0.468124773606744 
2249	 0.467000243720252 
2250	 0.465859736176792 
2251	 0.464778668147849 
2252	 0.463587228473146 
2253	 0.46241895684378 
2254	 0.461306160039336 
2255	 0.460109008344288 
2256	 0.458989494754758 
2257	 0.457852568864235 
2258	 0.456765988497534 
2259	 0.455664799444849 
2260	 0.45467333577963 
2261	 0.453787602977047 
2262	 0.452868800709411 
2263	 0.451983814479432 
2264	 0.451085579969071 
2265	 0.45021569262777 
2266	 0.449277296358426 
2267	 0.44832392660398 
2268	 0.447339453868626 
2269	 0.446253408558335 
2270	 0.445274461105811 
2271	 0.444367612746537 
2272	 0.443398739381146 
2273	 0.442439461067887 
2274	 0.441464248835934 
2275	 0.440389087750987 
2276	 0.439432584387738 
2277	 0.438602727733145 
2278	 0.437687501059256 
2279	 0.436800785528427 
2280	 0.435842242461981 
2281	 0.434805609799816 
2282	 0.43375282234314 
2283	 0.432674423789397 
2284	 0.431592882895382 
2285	 0.430367906390744 
2286	 0.429153249603889 
2287	 0.427881766689216 
2288	 0.426563182668604 
2289	 0.425329847054859 
2290	 0.424044183414885 
2291	 0.422861610553139 
2292	 0.421733952970955 
2293	 0.420544812180181 
2294	 0.419414744297775 
2295	 0.418282715598783 
2296	 0.417191179573933 
2297	 0.416351667133611 
2298	 0.41567333356175 
2299	 0.415208929999173 
2300	 0.414946468501415 
2301	 0.414870820953307 
2302	 0.415007984865553 
2303	 0.415284210781766 
2304	 0.415816190777529 
2305	 0.416376852726075 
2306	 0.417047116619794 
2307	 0.41786071169763 
2308	 0.418785499341824 
2309	 0.41983366639262 
2310	 0.421082039001892 
2311	 0.422363783490667 
2312	 0.42380127309016 
2313	 0.425170475101614 
2314	 0.426705660246658 
2315	 0.42799551402381 
2316	 0.429135080277408 
2317	 0.430262983943283 
2318	 0.431319288804995 
2319	 0.432226862324352 
2320	 0.433129624295538 
2321	 0.433810152888051 
2322	 0.434237514093485 
2323	 0.434601168146072 
2324	 0.434816628711962 
2325	 0.434961432459001 
2326	 0.435052737101552 
2327	 0.434917117213907 
2328	 0.434562642316261 
2329	 0.434206319764651 
2330	 0.433676413941721 
2331	 0.433102780006511 
2332	 0.432639034017268 
2333	 0.432080876561155 
2334	 0.431418725250604 
2335	 0.430779362734101 
2336	 0.430013849990834 
2337	 0.429187192478007 
2338	 0.428472209142324 
2339	 0.427697219211982 
2340	 0.426876944367345 
2341	 0.426193798223664 
2342	 0.425477856633841 
2343	 0.424833901116974 
2344	 0.42441791302789 
2345	 0.424118973608249 
2346	 0.424066163879664 
2347	 0.424255602190077 
2348	 0.424525291493953 
2349	 0.425076517917304 
2350	 0.425779883045865 
2351	 0.426477017311248 
2352	 0.42747647631416 
2353	 0.428500565415065 
2354	 0.429290748656368 
2355	 0.430107187800166 
2356	 0.430802593815563 
2357	 0.431373128888481 
2358	 0.43202329058877 
2359	 0.432529461984919 
2360	 0.432798409936832 
2361	 0.432975090322161 
2362	 0.432923604202377 
2363	 0.432749442562861 
2364	 0.432706122437042 
2365	 0.432660598147505 
2366	 0.432706165070498 
2367	 0.432824996514901 
2368	 0.43287552786082 
2369	 0.432913218196582 
2370	 0.432855368781007 
2371	 0.432824429964526 
2372	 0.432749986942721 
2373	 0.432563217391276 
2374	 0.432423725389628 
2375	 0.432225525414287 
2376	 0.43218231869825 
2377	 0.432170033504977 
2378	 0.432110597256007 
2379	 0.432187282576774 
2380	 0.432172261839041 
2381	 0.432152108834123 
2382	 0.432259280222293 
2383	 0.432510705152685 
2384	 0.432700811214055 
2385	 0.432990212472734 
2386	 0.433165177439396 
2387	 0.433205870715156 
2388	 0.433288833238482 
2389	 0.433407223214564 
2390	 0.4334018295153 
2391	 0.433370015847649 
2392	 0.433313556269878 
2393	 0.433093336485018 
2394	 0.432989929246375 
2395	 0.432896164109487 
2396	 0.432945729239144 
2397	 0.433199149921359 
2398	 0.433259665873289 
2399	 0.433306096015898 
2400	 0.433262024369465 
2401	 0.433039105484077 
2402	 0.432806983877645 
2403	 0.432830266915011 
2404	 0.432889098786954 
2405	 0.432680537500952 
2406	 0.432682974690914 
2407	 0.432644572575919 
2408	 0.432445313828869 
2409	 0.432322065414942 
2410	 0.432095413336774 
2411	 0.431901518236073 
2412	 0.431764260376968 
2413	 0.431753254612512 
2414	 0.431859709546438 
2415	 0.431719143121066 
2416	 0.431548880087477 
2417	 0.431486915898266 
2418	 0.431305856422324 
2419	 0.431391178107502 
2420	 0.431561181351478 
2421	 0.431608896042656 
2422	 0.431659407087504 
2423	 0.431384738751961 
2424	 0.431163230403097 
2425	 0.431118137072706 
2426	 0.43097003859122 
2427	 0.430910168680159 
2428	 0.430822048082236 
2429	 0.430428582583192 
2430	 0.430049592082255 
2431	 0.429921232832238 
2432	 0.429821814574505 
2433	 0.429847449414897 
2434	 0.429907418542674 
2435	 0.429614233303187 
2436	 0.429153310456128 
2437	 0.429000783075879 
2438	 0.42885372208698 
2439	 0.428768715304736 
2440	 0.428955973704703 
2441	 0.428841608243477 
2442	 0.428783549214519 
2443	 0.428714555221902 
2444	 0.428252446127959 
2445	 0.427642102173742 
2446	 0.426787717767273 
2447	 0.425946870313813 
2448	 0.425389438349776 
2449	 0.425165451239538 
2450	 0.42503029992972 
2451	 0.424990123924715 
2452	 0.424987353794493 
2453	 0.424658719537888 
2454	 0.424082258512794 
2455	 0.423434419978201 
2456	 0.42293933395244 
2457	 0.422618826463857 
2458	 0.422534836443942 
2459	 0.422354775058322 
2460	 0.422107517123237 
2461	 0.421870447283972 
2462	 0.421491912755194 
2463	 0.421269286935756 
2464	 0.420872958764143 
2465	 0.420318908311974 
2466	 0.419948537107358 
2467	 0.419925929864535 
2468	 0.420069565977871 
2469	 0.420218084849969 
2470	 0.420473424351151 
2471	 0.420416134164657 
2472	 0.420237357250571 
2473	 0.420110142630339 
2474	 0.41969137859791 
2475	 0.419111772764949 
2476	 0.418786560583096 
2477	 0.418724424220828 
2478	 0.418462575722054 
2479	 0.418620593559596 
2480	 0.418667858649568 
2481	 0.418540463511453 
2482	 0.418577158557977 
2483	 0.418449209877341 
2484	 0.418282567271345 
2485	 0.417865691446761 
2486	 0.417877312260255 
2487	 0.417741328804441 
2488	 0.417796190921822 
2489	 0.418450545742111 
2490	 0.418746129763691 
2491	 0.418852628167611 
2492	 0.418873940588667 
2493	 0.418649478472664 
2494	 0.418836553775796 
2495	 0.419210909032773 
2496	 0.419780576590352 
2497	 0.420325029031538 
2498	 0.42020590868921 
2499	 0.419943502984757 
2500	 0.419541162658254 
