Wavelength	spectrum00020.asd
350	 7.65926419452114E-02 
351	 7.94914025488218E-02 
352	 7.70620235621597E-02 
353	 6.70203120005974E-02 
354	 6.77527087361715E-02 
355	 6.49003820686186E-02 
356	 6.21026877180401E-02 
357	 6.31780431761334E-02 
358	 0.061168092679418 
359	 5.91892476373271E-02 
360	 5.88632216839137E-02 
361	 5.99387475402911E-02 
362	 5.41587691025916E-02 
363	 5.01713793100527E-02 
364	 5.13488760015129E-02 
365	 5.23763601343495E-02 
366	 5.01122896625527E-02 
367	 4.85904124218489E-02 
368	 5.09499192677315E-02 
369	 5.14640116312964E-02 
370	 5.09625924207913E-02 
371	 5.05544745442423E-02 
372	 0.05123208173077 
373	 5.16159666051457E-02 
374	 4.88896679563783E-02 
375	 4.43931584828842E-02 
376	 0.045320004216525 
377	 4.82549522573273E-02 
378	 4.98743611164326E-02 
379	 4.85387197631664E-02 
380	 4.80636722883359E-02 
381	 4.82665625933324E-02 
382	 4.86068776417939E-02 
383	 4.84388309054173E-02 
384	 4.83624353550546E-02 
385	 4.84113192996402E-02 
386	 0.048330220792878 
387	 4.74692171885284E-02 
388	 4.83152381984666E-02 
389	 4.91732693944926E-02 
390	 0.048081204129988 
391	 4.59914348527775E-02 
392	 0.047924573949779 
393	 5.09795680388824E-02 
394	 4.81439615386317E-02 
395	 4.81999612376636E-02 
396	 4.85413664053675E-02 
397	 4.76192317948694E-02 
398	 4.80339334981197E-02 
399	 4.94913160434782E-02 
400	 5.01194200779879E-02 
401	 4.87498104321463E-02 
402	 4.90145123923809E-02 
403	 4.89855557859065E-02 
404	 0.048842214630474 
405	 5.02843715552318E-02 
406	 5.17048825975604E-02 
407	 5.26619266567296E-02 
408	 5.30629917235433E-02 
409	 5.29900240091138E-02 
410	 5.32427990894599E-02 
411	 5.41466398683348E-02 
412	 5.55446490431721E-02 
413	 5.60641448381717E-02 
414	 5.63829521754541E-02 
415	 5.71856386131595E-02 
416	 5.89432754616498E-02 
417	 0.059704523777612 
418	 6.00438563569721E-02 
419	 6.08787525744743E-02 
420	 0.062985620157858 
421	 6.41171055291876E-02 
422	 6.47708603358193E-02 
423	 6.63546331586433E-02 
424	 6.79933950429466E-02 
425	 7.00542564297122E-02 
426	 7.22433077743173E-02 
427	 7.34535377132064E-02 
428	 0.075070149901032 
429	 7.70108590755705E-02 
430	 7.89695359385424E-02 
431	 8.10305090339079E-02 
432	 8.32417666232991E-02 
433	 8.55381846092504E-02 
434	 8.78099578078325E-02 
435	 9.01377918089366E-02 
436	 9.25715034138357E-02 
437	 9.50913710035923E-02 
438	 0.097571553389829 
439	 0.100178805114247 
440	 0.102961722445446 
441	 0.105889365144031 
442	 0.108821394979139 
443	 0.111664944186445 
444	 0.114420549482817 
445	 0.117194721935912 
446	 0.120388694241132 
447	 0.123917155290184 
448	 0.127570080210418 
449	 0.131093998025042 
450	 0.134399665144742 
451	 0.137603623347781 
452	 0.140920614230229 
453	 0.144539915994146 
454	 0.148121044220367 
455	 0.151523836636525 
456	 0.154896934631435 
457	 0.158858199031234 
458	 0.162930361464024 
459	 0.166675533875148 
460	 0.170535258511042 
461	 0.174540367179759 
462	 0.178571310885591 
463	 0.182473865049181 
464	 0.186560944462185 
465	 0.190581776598861 
466	 0.19453745888007 
467	 0.198914126215563 
468	 0.203087371061598 
469	 0.207321324610922 
470	 0.21190683125485 
471	 0.216102922365215 
472	 0.220387468559964 
473	 0.224844489814034 
474	 0.229230548675195 
475	 0.233651557132356 
476	 0.238223986039302 
477	 0.242929612962971 
478	 0.247396282228427 
479	 0.252151098571282 
480	 0.25703843915844 
481	 0.261740361842449 
482	 0.266770324125338 
483	 0.271553700496858 
484	 0.276109405178473 
485	 0.281195507252282 
486	 0.286184654417924 
487	 0.291117382313894 
488	 0.296143431927909 
489	 0.301315794648066 
490	 0.306341062412989 
491	 0.311341759972621 
492	 0.316637092005221 
493	 0.321749254638656 
494	 0.326988157226063 
495	 0.332343119806603 
496	 0.337070998582494 
497	 0.342279487455795 
498	 0.347684587791202 
499	 0.352733615893216 
500	 0.35784276924049 
501	 0.363099086076995 
502	 0.368394275370449 
503	 0.373480334637382 
504	 0.378592686080848 
505	 0.383772381250578 
506	 0.388988969324126 
507	 0.394173259832183 
508	 0.39910415554191 
509	 0.403924667178578 
510	 0.408889366840088 
511	 0.413777222905179 
512	 0.418565581982597 
513	 0.423324277254561 
514	 0.428236199754633 
515	 0.432906272550884 
516	 0.437353632476232 
517	 0.441707572316469 
518	 0.446029153937114 
519	 0.450288252658788 
520	 0.454537885014543 
521	 0.458853505167703 
522	 0.462955577689037 
523	 0.467006370430999 
524	 0.471055974231092 
525	 0.47482462938726 
526	 0.478380375960831 
527	 0.481807625286911 
528	 0.485206561057889 
529	 0.488671482529494 
530	 0.491928809393721 
531	 0.495045360114357 
532	 0.498444432659153 
533	 0.50142930605525 
534	 0.504250518134644 
535	 0.507160442283956 
536	 0.509753620742795 
537	 0.51240601512386 
538	 0.515063375864798 
539	 0.517468031068014 
540	 0.519902964161792 
541	 0.522076538341177 
542	 0.523984026835647 
543	 0.526182180027088 
544	 0.528352547113134 
545	 0.530319857708349 
546	 0.531999048986263 
547	 0.533522515122889 
548	 0.535025006689252 
549	 0.536666510123797 
550	 0.538593412073664 
551	 0.540319243329579 
552	 0.54189938016175 
553	 0.543338051900295 
554	 0.544189752302534 
555	 0.544926916968118 
556	 0.545588203371925 
557	 0.546093963980408 
558	 0.547078558458177 
559	 0.548120510693198 
560	 0.549108269825894 
561	 0.550518562028311 
562	 0.551586716351679 
563	 0.5519590694612 
564	 0.551625218449245 
565	 0.551281687096791 
566	 0.55065196258026 
567	 0.549730667112587 
568	 0.548795185111184 
569	 0.548655631267549 
570	 0.549819914469065 
571	 0.552346368997772 
572	 0.555641831799371 
573	 0.559316877867372 
574	 0.562815565603183 
575	 0.565417237587788 
576	 0.565790588686175 
577	 0.564210470630995 
578	 0.561484600139985 
579	 0.558846596787725 
580	 0.557290651835777 
581	 0.55699962931803 
582	 0.557861300566957 
583	 0.559936232727178 
584	 0.561715568653133 
585	 0.563336297493078 
586	 0.565777403211598 
587	 0.567542046504532 
588	 0.568692593890943 
589	 0.569551142865645 
590	 0.570417045944013 
591	 0.572855812933649 
592	 0.575815372381603 
593	 0.5776831561183 
594	 0.578669062317489 
595	 0.578743108832203 
596	 0.577642606482472 
597	 0.575011001922894 
598	 0.572127552737876 
599	 0.570403077857333 
600	 0.570512369379116 
601	 0.571714166312376 
602	 0.572682581078432 
603	 0.573697374417155 
604	 0.575590495958927 
605	 0.577324882663973 
606	 0.578553453163357 
607	 0.5793874604626 
608	 0.580414146638318 
609	 0.581012755091809 
610	 0.581423969804329 
611	 0.581997814714678 
612	 0.582723825833326 
613	 0.583246845160766 
614	 0.583634260835966 
615	 0.584215908080341 
616	 0.584904954913521 
617	 0.585446720449079 
618	 0.585769343156192 
619	 0.586160618808861 
620	 0.586519543585911 
621	 0.586977549948524 
622	 0.58762057286136 
623	 0.587989317724766 
624	 0.588378887288877 
625	 0.588840848126349 
626	 0.589187590087388 
627	 0.589796177859598 
628	 0.590341904713977 
629	 0.590625848918012 
630	 0.591103201886643 
631	 0.591451568719126 
632	 0.591849134679343 
633	 0.592573154812862 
634	 0.592993983128213 
635	 0.593376692839791 
636	 0.593836133143805 
637	 0.594204207677649 
638	 0.594708212768847 
639	 0.595188205873573 
640	 0.595513034497734 
641	 0.595982393697996 
642	 0.5962767770639 
643	 0.596535008134836 
644	 0.597123812027854 
645	 0.597687969562159 
646	 0.598097630585362 
647	 0.598398172009551 
648	 0.598875091078351 
649	 0.599200669561048 
650	 0.599587131279219 
651	 0.600220123557474 
652	 0.600437123456974 
653	 0.600777626137856 
654	 0.601323614903053 
655	 0.601756672729756 
656	 0.601996106937216 
657	 0.602252629774987 
658	 0.602645929761217 
659	 0.602992768374086 
660	 0.603420757782187 
661	 0.60382222508025 
662	 0.604085700701839 
663	 0.604589234071594 
664	 0.604909730746048 
665	 0.605042908236484 
666	 0.605433160628729 
667	 0.605839022244876 
668	 0.606213616705658 
669	 0.606551579204483 
670	 0.606873146416892 
671	 0.607054209644097 
672	 0.607231816487097 
673	 0.607632598011472 
674	 0.608225217031673 
675	 0.608570820402815 
676	 0.608649156390462 
677	 0.608970148094958 
678	 0.609510893622827 
679	 0.609906776299187 
680	 0.609992931032174 
681	 0.610502512716182 
682	 0.610802233847275 
683	 0.61081088927291 
684	 0.610825174851378 
685	 0.611488126086205 
686	 0.611962418970789 
687	 0.612011851068053 
688	 0.612460140519698 
689	 0.612665612842172 
690	 0.612759890621037 
691	 0.612971396752361 
692	 0.613133781818131 
693	 0.613336729140425 
694	 0.613690183958388 
695	 0.614243918692278 
696	 0.614435788376097 
697	 0.614507635409107 
698	 0.614624752570112 
699	 0.61465330685419 
700	 0.615074962898118 
701	 0.615649823186531 
702	 0.615970513516182 
703	 0.615814276329623 
704	 0.616076301462691 
705	 0.616574761007865 
706	 0.616481230431186 
707	 0.616719755433892 
708	 0.617016726213432 
709	 0.617231371947576 
710	 0.61772655908854 
711	 0.617874298591875 
712	 0.617846551930482 
713	 0.617988193681566 
714	 0.618270048841965 
715	 0.618629542964246 
716	 0.618887606593861 
717	 0.618848899168672 
718	 0.619001076160854 
719	 0.619303053860319 
720	 0.619566004774845 
721	 0.619474172295473 
722	 0.619559840441977 
723	 0.619745578909068 
724	 0.619896900739246 
725	 0.620539006965063 
726	 0.620525977999283 
727	 0.620066607190259 
728	 0.620260812929314 
729	 0.620532386889385 
730	 0.620768746107503 
731	 0.620915661434318 
732	 0.620908671670143 
733	 0.621274025716401 
734	 0.621587519723287 
735	 0.621436060282151 
736	 0.621553154636749 
737	 0.621689565172771 
738	 0.621846191038544 
739	 0.62214095097984 
740	 0.622110434474689 
741	 0.62205012710271 
742	 0.622141798004931 
743	 0.622249401792644 
744	 0.62260796743245 
745	 0.623035771774269 
746	 0.623246555580165 
747	 0.622913994561924 
748	 0.623292532904097 
749	 0.623981440000097 
750	 0.623797895688199 
751	 0.623754877100382 
752	 0.623707190378772 
753	 0.623631262615788 
754	 0.623795047221437 
755	 0.623813760260443 
756	 0.623872706664205 
757	 0.624081508412552 
758	 0.623885174644072 
759	 0.624190390378188 
760	 0.624532516832603 
761	 0.624126162992402 
762	 0.62461970676345 
763	 0.625125628648632 
764	 0.625153014084687 
765	 0.624876875839651 
766	 0.624839894515795 
767	 0.624974981032939 
768	 0.625084304030302 
769	 0.624952539898484 
770	 0.625142543745907 
771	 0.625415893339605 
772	 0.625402095208619 
773	 0.625697570180053 
774	 0.625788200643813 
775	 0.625708857898044 
776	 0.625916683447419 
777	 0.625827310534531 
778	 0.625922145797755 
779	 0.626360160790669 
780	 0.626518258706524 
781	 0.626477016982584 
782	 0.626407508624486 
783	 0.626447707794133 
784	 0.626476266843615 
785	 0.626434473705191 
786	 0.626396587645414 
787	 0.626516686766527 
788	 0.626918438615724 
789	 0.62733244347963 
790	 0.627429019932418 
791	 0.626916519916132 
792	 0.626912913002276 
793	 0.627262765292572 
794	 0.627508331580878 
795	 0.627121052087255 
796	 0.627123416504997 
797	 0.627360421513739 
798	 0.627326182546107 
799	 0.627157326996089 
800	 0.627215666805698 
801	 0.627508683885048 
802	 0.627741905419237 
803	 0.627690036194106 
804	 0.627515607315888 
805	 0.627462636124272 
806	 0.627791816284016 
807	 0.627752737530889 
808	 0.62748117012854 
809	 0.627310964340878 
810	 0.627425710017206 
811	 0.627559792619739 
812	 0.627699337206894 
813	 0.627877348993324 
814	 0.627681602004601 
815	 0.627659420051315 
816	 0.627813728613517 
817	 0.627663580310864 
818	 0.627578487763705 
819	 0.627766421444257 
820	 0.628138434713063 
821	 0.628183542242203 
822	 0.62810250039568 
823	 0.628149407259284 
824	 0.628368293612906 
825	 0.628071785037803 
826	 0.628029331245815 
827	 0.6283142137467 
828	 0.628582543918512 
829	 0.62822626839117 
830	 0.628045790180353 
831	 0.62824859229531 
832	 0.62844092743078 
833	 0.628579750115455 
834	 0.628791591763626 
835	 0.629035678109191 
836	 0.628979272518569 
837	 0.628947451044263 
838	 0.628864333160753 
839	 0.628721766767698 
840	 0.629024071997284 
841	 0.629005247640354 
842	 0.628858775110395 
843	 0.62900535794768 
844	 0.628886901010467 
845	 0.628654600914936 
846	 0.628505133474671 
847	 0.628591561461261 
848	 0.628583724801232 
849	 0.628790802245983 
850	 0.629117549793805 
851	 0.628917212345906 
852	 0.628506894250627 
853	 0.628181497131863 
854	 0.628170996967736 
855	 0.628617086338399 
856	 0.628517215927106 
857	 0.628124893934593 
858	 0.627957315663008 
859	 0.627817706273659 
860	 0.627903820009365 
861	 0.627993410304807 
862	 0.627773555493813 
863	 0.627733614901764 
864	 0.627914975578825 
865	 0.628098475464056 
866	 0.627950049564865 
867	 0.628042734932863 
868	 0.628313250221433 
869	 0.628410249460529 
870	 0.627780738560643 
871	 0.627612749794123 
872	 0.627805417783535 
873	 0.627945662585259 
874	 0.627590715396678 
875	 0.627730790425722 
876	 0.62811215779948 
877	 0.628207756522149 
878	 0.628039297032455 
879	 0.62818404730062 
880	 0.628467764217151 
881	 0.628399476278344 
882	 0.628019089055544 
883	 0.627752289348529 
884	 0.627843066641717 
885	 0.628260225397521 
886	 0.628291596479453 
887	 0.628005769050549 
888	 0.627782141103612 
889	 0.628141695666446 
890	 0.62808904786355 
891	 0.627915149497988 
892	 0.627962624368085 
893	 0.628239415662551 
894	 0.628243505855772 
895	 0.628074094018835 
896	 0.62791655684509 
897	 0.62773642373393 
898	 0.627361090143266 
899	 0.627228054510095 
900	 0.627569584149657 
901	 0.627080985930704 
902	 0.626567614656085 
903	 0.626325697103657 
904	 0.626321277447358 
905	 0.626376633504245 
906	 0.626546013082141 
907	 0.626477442548967 
908	 0.625739532926723 
909	 0.625487680902942 
910	 0.625408826362605 
911	 0.625294209468579 
912	 0.625188810609536 
913	 0.624955535200464 
914	 0.624901122110771 
915	 0.625053912580339 
916	 0.624998211870296 
917	 0.624978999402781 
918	 0.624593664940593 
919	 0.623964782435993 
920	 0.624349626367093 
921	 0.624379646869057 
922	 0.624231985076155 
923	 0.624320443272736 
924	 0.624618195956788 
925	 0.624423785417269 
926	 0.624221321769703 
927	 0.6244960209948 
928	 0.62434395009551 
929	 0.624034467018989 
930	 0.623830332751759 
931	 0.623954325408279 
932	 0.6244823071371 
933	 0.624806964249019 
934	 0.624875267529369 
935	 0.624945265572865 
936	 0.624988464076473 
937	 0.624965949295205 
938	 0.625083483804105 
939	 0.625569808192477 
940	 0.625713489041717 
941	 0.625584402729196 
942	 0.62548022348449 
943	 0.625731372468472 
944	 0.625849958759402 
945	 0.625755370852317 
946	 0.625581553741711 
947	 0.6256365581604 
948	 0.626321311302467 
949	 0.626661325733973 
950	 0.626318491128707 
951	 0.626029615485946 
952	 0.62633675611177 
953	 0.626536431697004 
954	 0.626216478636804 
955	 0.625784118724728 
956	 0.625936088957763 
957	 0.626423828709733 
958	 0.626686541219743 
959	 0.626098288340382 
960	 0.625722826425348 
961	 0.625339622478236 
962	 0.624744304473986 
963	 0.624368556946106 
964	 0.62435316268731 
965	 0.624569140007977 
966	 0.624778489416443 
967	 0.624727852436267 
968	 0.624630914597821 
969	 0.624442486893119 
970	 0.624093578519177 
971	 0.623598516454245 
972	 0.623709607380455 
973	 0.623691524876898 
974	 0.622963929258107 
975	 0.622664686580636 
976	 0.622718391664855 
977	 0.622807668899334 
978	 0.622658918240806 
979	 0.622477131510077 
980	 0.62213334007677 
981	 0.6217506489093 
982	 0.62145729680781 
983	 0.621039639231127 
984	 0.621469128828234 
985	 0.622209483572996 
986	 0.622344735328364 
987	 0.621646944065385 
988	 0.621396057415711 
989	 0.621336553660097 
990	 0.620979367795333 
991	 0.621177101172135 
992	 0.621123695937102 
993	 0.621044113461171 
994	 0.62124966679448 
995	 0.621009072655416 
996	 0.620719608504828 
997	 0.620575889460764 
998	 0.62058722345153 
999	 0.620389264925917 
1000	 0.620716520308068 
1001	 0.636852633190638 
1002	 0.6369025034294 
1003	 0.637061471938781 
1004	 0.637121231850997 
1005	 0.637144895467483 
1006	 0.63720658595006 
1007	 0.63723554640136 
1008	 0.63734011546042 
1009	 0.637560121042911 
1010	 0.637659280922168 
1011	 0.637712553930761 
1012	 0.637793037987373 
1013	 0.637772255788786 
1014	 0.637847577721232 
1015	 0.637974498680897 
1016	 0.638200048364972 
1017	 0.638380599082119 
1018	 0.638525999252875 
1019	 0.638599753151745 
1020	 0.638624498485429 
1021	 0.638704582967018 
1022	 0.638804447731837 
1023	 0.638840320061686 
1024	 0.638943702685432 
1025	 0.638925517724107 
1026	 0.63876920851492 
1027	 0.638626573385291 
1028	 0.638478650498629 
1029	 0.638261602321513 
1030	 0.637926281649066 
1031	 0.63775120698199 
1032	 0.637583752712447 
1033	 0.637263239000022 
1034	 0.63700347499288 
1035	 0.636811111411884 
1036	 0.636551141015934 
1037	 0.636268961210579 
1038	 0.635945334297927 
1039	 0.635595735040625 
1040	 0.635172865984798 
1041	 0.634672987087517 
1042	 0.634199990357926 
1043	 0.63366765934437 
1044	 0.633223697945474 
1045	 0.6327773864492 
1046	 0.632313357353092 
1047	 0.631946723159512 
1048	 0.631479522564535 
1049	 0.63095633189289 
1050	 0.630492499226464 
1051	 0.629961205381967 
1052	 0.629476757353568 
1053	 0.629072639590021 
1054	 0.628741013837812 
1055	 0.628414024154425 
1056	 0.62806645336973 
1057	 0.627891985170921 
1058	 0.627828335493386 
1059	 0.627775606823441 
1060	 0.627764146314247 
1061	 0.627885238196735 
1062	 0.62800155548223 
1063	 0.628134407643472 
1064	 0.628363470055888 
1065	 0.628642881216769 
1066	 0.628901947888584 
1067	 0.629243578532128 
1068	 0.629794983795849 
1069	 0.630373700589163 
1070	 0.630986390382558 
1071	 0.631664234957347 
1072	 0.632414563433682 
1073	 0.633079380085561 
1074	 0.63381954511046 
1075	 0.634655471453474 
1076	 0.635499580466423 
1077	 0.636466738181627 
1078	 0.637491943615567 
1079	 0.638517106984908 
1080	 0.639566581585132 
1081	 0.640586473360056 
1082	 0.641592530749077 
1083	 0.642614052130764 
1084	 0.643702808306435 
1085	 0.644784115490653 
1086	 0.645777455390076 
1087	 0.646738459196655 
1088	 0.647673782280136 
1089	 0.648533287842411 
1090	 0.649351281075755 
1091	 0.650212489166632 
1092	 0.65105783129577 
1093	 0.651838392579883 
1094	 0.652544008543734 
1095	 0.653136019977179 
1096	 0.653658879931057 
1097	 0.654096746291052 
1098	 0.65447747325941 
1099	 0.654915151444071 
1100	 0.655267929538326 
1101	 0.655501244890953 
1102	 0.655678222705243 
1103	 0.655757163156039 
1104	 0.655719764391233 
1105	 0.655633386086615 
1106	 0.655500512511592 
1107	 0.655270081362858 
1108	 0.655014027322803 
1109	 0.654666582963794 
1110	 0.654165500090758 
1111	 0.653612970548025 
1112	 0.653026342743011 
1113	 0.652345951268092 
1114	 0.651693096953694 
1115	 0.65106128096084 
1116	 0.65030281576215 
1117	 0.649540559540734 
1118	 0.648760810626664 
1119	 0.647928745563005 
1120	 0.647091374219574 
1121	 0.646256712742838 
1122	 0.645404102482894 
1123	 0.644498691017158 
1124	 0.643639093936715 
1125	 0.642751580263621 
1126	 0.641841550214906 
1127	 0.640982525202368 
1128	 0.640085515289318 
1129	 0.639229049451964 
1130	 0.638379015556669 
1131	 0.637468877814072 
1132	 0.636626473907887 
1133	 0.635811251124362 
1134	 0.635010670992266 
1135	 0.63422953046863 
1136	 0.633474147348838 
1137	 0.632732657175905 
1138	 0.63198515471996 
1139	 0.631295797380187 
1140	 0.630634481898352 
1141	 0.630042543717867 
1142	 0.629477467167965 
1143	 0.628903020870476 
1144	 0.628277492888643 
1145	 0.627623184936625 
1146	 0.627018365139693 
1147	 0.626404858535383 
1148	 0.625819479642127 
1149	 0.625317512156546 
1150	 0.624822392290307 
1151	 0.624356564420451 
1152	 0.62387667182912 
1153	 0.623425860115762 
1154	 0.622957319689725 
1155	 0.622444266111567 
1156	 0.621981064110367 
1157	 0.621581957868217 
1158	 0.62115108105934 
1159	 0.620730600597109 
1160	 0.620273323400899 
1161	 0.619819107584162 
1162	 0.61931407005644 
1163	 0.61879676068986 
1164	 0.618311217847468 
1165	 0.617835261541689 
1166	 0.617390840502117 
1167	 0.616982485208596 
1168	 0.616564089464798 
1169	 0.616140213191537 
1170	 0.615701842736427 
1171	 0.61528201728025 
1172	 0.614896907002069 
1173	 0.61445461031663 
1174	 0.61398160608024 
1175	 0.613522675943152 
1176	 0.613043532219564 
1177	 0.612554314728312 
1178	 0.612070427471779 
1179	 0.611584937730275 
1180	 0.611078427953467 
1181	 0.610528782635465 
1182	 0.610037927165083 
1183	 0.609609145447032 
1184	 0.609168935171865 
1185	 0.608761501338346 
1186	 0.608352783050816 
1187	 0.607943623571524 
1188	 0.607546396637943 
1189	 0.607163519668418 
1190	 0.606792868025929 
1191	 0.606387418425897 
1192	 0.606092272307876 
1193	 0.605861176442099 
1194	 0.605636819390156 
1195	 0.605521877079808 
1196	 0.605340564705495 
1197	 0.605133021894492 
1198	 0.604918750382095 
1199	 0.604694865248255 
1200	 0.604512626271052 
1201	 0.604340161458386 
1202	 0.604214826619621 
1203	 0.604157276862513 
1204	 0.604121773290123 
1205	 0.604129327069737 
1206	 0.604167385687547 
1207	 0.604285867659364 
1208	 0.604438986634375 
1209	 0.604674508948716 
1210	 0.604994522703571 
1211	 0.605378861524695 
1212	 0.60581335448095 
1213	 0.606335678679816 
1214	 0.606917353990122 
1215	 0.607604807501258 
1216	 0.608432448558526 
1217	 0.609256844846502 
1218	 0.610150800892109 
1219	 0.611104264685074 
1220	 0.61205372259343 
1221	 0.613004894111799 
1222	 0.613948230971494 
1223	 0.614929758390407 
1224	 0.615873486869863 
1225	 0.616797019653897 
1226	 0.61769844416436 
1227	 0.618617369191699 
1228	 0.619447318895396 
1229	 0.620229114930773 
1230	 0.620982504614806 
1231	 0.621699225683475 
1232	 0.622353778560769 
1233	 0.622951423181271 
1234	 0.623518915215507 
1235	 0.623990403676787 
1236	 0.624500115429135 
1237	 0.625019392831108 
1238	 0.625517557172129 
1239	 0.62601820581102 
1240	 0.626501291179794 
1241	 0.626934477636609 
1242	 0.627341089489389 
1243	 0.627721071099913 
1244	 0.628071332338198 
1245	 0.628382175256479 
1246	 0.628653426614378 
1247	 0.628923081552129 
1248	 0.629168639235667 
1249	 0.629385078572646 
1250	 0.629596453285099 
1251	 0.629761720846238 
1252	 0.62988693898182 
1253	 0.629976782387662 
1254	 0.630043601016229 
1255	 0.630066387693546 
1256	 0.630019907567678 
1257	 0.629983187516162 
1258	 0.62992620941257 
1259	 0.629851691063816 
1260	 0.6298063470758 
1261	 0.62967908694495 
1262	 0.629480839556068 
1263	 0.629246231471051 
1264	 0.629082771395852 
1265	 0.628895058173154 
1266	 0.62874341644018 
1267	 0.628680628914368 
1268	 0.628531892465205 
1269	 0.628348629583291 
1270	 0.628143837810375 
1271	 0.627897043061311 
1272	 0.627681643495243 
1273	 0.627443201488105 
1274	 0.627226437875484 
1275	 0.627027370475758 
1276	 0.626847654754617 
1277	 0.626632981313206 
1278	 0.626505691227223 
1279	 0.626446547488964 
1280	 0.626399156986451 
1281	 0.626394858634674 
1282	 0.626420920656895 
1283	 0.626453169901012 
1284	 0.626538136625353 
1285	 0.626667802886632 
1286	 0.626817553327024 
1287	 0.627109460348282 
1288	 0.627474364322346 
1289	 0.627918453651282 
1290	 0.628490988579063 
1291	 0.629080396163512 
1292	 0.629732436187644 
1293	 0.630403678152958 
1294	 0.631098111333836 
1295	 0.631899369270742 
1296	 0.632741631138078 
1297	 0.633671878852417 
1298	 0.634744560506194 
1299	 0.635804765668818 
1300	 0.63691651406204 
1301	 0.638034101560269 
1302	 0.639196320612951 
1303	 0.640344199132366 
1304	 0.641528558875569 
1305	 0.642659444890012 
1306	 0.64377797251431 
1307	 0.644857243220305 
1308	 0.645870901478209 
1309	 0.646896725619513 
1310	 0.647861846779364 
1311	 0.648817402846235 
1312	 0.649653518897741 
1313	 0.650425399045352 
1314	 0.6511247979128 
1315	 0.651734801963066 
1316	 0.65228506748718 
1317	 0.652777846411964 
1318	 0.65319577540798 
1319	 0.653543041530133 
1320	 0.653807920636896 
1321	 0.654031661017528 
1322	 0.654123318194175 
1323	 0.654126202868162 
1324	 0.654013902503149 
1325	 0.653761006868378 
1326	 0.653472819853909 
1327	 0.653106278836239 
1328	 0.652665832699744 
1329	 0.652196753166516 
1330	 0.651612602391287 
1331	 0.650928010085913 
1332	 0.65017432829947 
1333	 0.649342060057693 
1334	 0.648407951163175 
1335	 0.647490170880662 
1336	 0.646548333110528 
1337	 0.645496794599082 
1338	 0.644413245382287 
1339	 0.643248145920465 
1340	 0.641974829706162 
1341	 0.640694744618975 
1342	 0.639366910703787 
1343	 0.638039156911139 
1344	 0.636695063159012 
1345	 0.635286790870901 
1346	 0.633856649109797 
1347	 0.632401502944602 
1348	 0.630861487117033 
1349	 0.629360569970293 
1350	 0.627846440422071 
1351	 0.626363716266817 
1352	 0.624866795433938 
1353	 0.623419025159331 
1354	 0.622004353629406 
1355	 0.620622870989874 
1356	 0.619270315794339 
1357	 0.617944023724464 
1358	 0.61661571692209 
1359	 0.615358976884677 
1360	 0.614143734079662 
1361	 0.612972231923947 
1362	 0.611834961312471 
1363	 0.610821912040578 
1364	 0.609833902735317 
1365	 0.6089092507486 
1366	 0.607989894485029 
1367	 0.607107405002677 
1368	 0.606276200554876 
1369	 0.605495727836632 
1370	 0.604678844507755 
1371	 0.603927532618327 
1372	 0.603098485847571 
1373	 0.602209109930095 
1374	 0.601326716429473 
1375	 0.600423792864107 
1376	 0.59951511199329 
1377	 0.598610250488867 
1378	 0.597642400634627 
1379	 0.596575846207578 
1380	 0.595624851296035 
1381	 0.594608128647565 
1382	 0.593748250621211 
1383	 0.593017311490508 
1384	 0.592336986231632 
1385	 0.59175846064546 
1386	 0.591201525059169 
1387	 0.590723794712274 
1388	 0.590258666374742 
1389	 0.589782949592809 
1390	 0.589389777810475 
1391	 0.589048743574912 
1392	 0.588743940560188 
1393	 0.588534498922348 
1394	 0.588387925387614 
1395	 0.588183037936603 
1396	 0.588016967802235 
1397	 0.587765684855136 
1398	 0.587493974371916 
1399	 0.587126495561561 
1400	 0.586725046358442 
1401	 0.586212122898234 
1402	 0.585616460284084 
1403	 0.584915990142844 
1404	 0.584117488311106 
1405	 0.583256940852787 
1406	 0.582258418969229 
1407	 0.581295386549719 
1408	 0.580244349766663 
1409	 0.579274044318125 
1410	 0.578301083492393 
1411	 0.577389272655739 
1412	 0.57648254228312 
1413	 0.575703762630308 
1414	 0.574988139035722 
1415	 0.5743562020047 
1416	 0.573888160457463 
1417	 0.573376659231451 
1418	 0.572914640287996 
1419	 0.572440098438915 
1420	 0.571959982469035 
1421	 0.571491606796094 
1422	 0.571007360188444 
1423	 0.570568944274689 
1424	 0.570166892605318 
1425	 0.569749221022754 
1426	 0.569408089077611 
1427	 0.569086805763685 
1428	 0.568776185819311 
1429	 0.568490740406685 
1430	 0.568203350148432 
1431	 0.567921171286455 
1432	 0.56766499453146 
1433	 0.567407750286936 
1434	 0.567204469560173 
1435	 0.567037465655103 
1436	 0.566886592931532 
1437	 0.566772718026319 
1438	 0.566672687536721 
1439	 0.566572824814674 
1440	 0.566532566857567 
1441	 0.56652440166805 
1442	 0.566558616553138 
1443	 0.56664696797268 
1444	 0.566752705830797 
1445	 0.566915442992182 
1446	 0.567052148089569 
1447	 0.56718609917285 
1448	 0.567351872997062 
1449	 0.567500288708538 
1450	 0.567710168456999 
1451	 0.567984515326078 
1452	 0.568255406155351 
1453	 0.568595417477728 
1454	 0.568866315348665 
1455	 0.569095482878681 
1456	 0.56934731748884 
1457	 0.569573785557742 
1458	 0.569808773267623 
1459	 0.570073071238796 
1460	 0.570323547551087 
1461	 0.570559294749453 
1462	 0.570789239348795 
1463	 0.571013081471085 
1464	 0.571243352597371 
1465	 0.571481718109566 
1466	 0.571695540683264 
1467	 0.571904761320778 
1468	 0.572123818686608 
1469	 0.572333127663914 
1470	 0.572553643390818 
1471	 0.572736278158416 
1472	 0.572904186730253 
1473	 0.573096437679695 
1474	 0.573250705657447 
1475	 0.573470426447892 
1476	 0.573743551853917 
1477	 0.574004909154161 
1478	 0.57429699616597 
1479	 0.574544150391552 
1480	 0.574798776712624 
1481	 0.575011994302241 
1482	 0.575172677924241 
1483	 0.575358841097794 
1484	 0.575557035704972 
1485	 0.575703103578592 
1486	 0.57582875229542 
1487	 0.575949680953031 
1488	 0.57601689241412 
1489	 0.576119808632343 
1490	 0.576248685777766 
1491	 0.576353785522018 
1492	 0.576438642583027 
1493	 0.576551782825583 
1494	 0.576680862725291 
1495	 0.576791329359506 
1496	 0.5769102677005 
1497	 0.577023088384845 
1498	 0.577112525056239 
1499	 0.577214179502626 
1500	 0.577344101466831 
1501	 0.577440579917609 
1502	 0.577507371497006 
1503	 0.577589773697768 
1504	 0.577648077438084 
1505	 0.577738852732096 
1506	 0.577874188193664 
1507	 0.577977707347226 
1508	 0.578100621495545 
1509	 0.578181280677094 
1510	 0.578223322462096 
1511	 0.578259110226004 
1512	 0.578253101430216 
1513	 0.578269254848439 
1514	 0.578288324203334 
1515	 0.578305814007391 
1516	 0.578324138905343 
1517	 0.578355844948816 
1518	 0.578402739779986 
1519	 0.578434812334411 
1520	 0.578484759136791 
1521	 0.578508591050952 
1522	 0.578513229295339 
1523	 0.578524764977609 
1524	 0.578497847579074 
1525	 0.578455009068421 
1526	 0.578399697988028 
1527	 0.578301860321884 
1528	 0.578247096061882 
1529	 0.578210239285788 
1530	 0.578152713711453 
1531	 0.578107849239645 
1532	 0.578030677455469 
1533	 0.577911998987821 
1534	 0.577844846468618 
1535	 0.577771169717154 
1536	 0.577748491967689 
1537	 0.577772318769551 
1538	 0.57778854271232 
1539	 0.577823028076394 
1540	 0.577869051614553 
1541	 0.577936309080989 
1542	 0.577983185955927 
1543	 0.578059730392459 
1544	 0.57807064586833 
1545	 0.578041685756724 
1546	 0.57800767056058 
1547	 0.577949396538066 
1548	 0.577867199885317 
1549	 0.577769007376436 
1550	 0.57765196095196 
1551	 0.577492804272422 
1552	 0.577349584344704 
1553	 0.577215600132819 
1554	 0.577047771945141 
1555	 0.576852979355752 
1556	 0.576674066869809 
1557	 0.576467098348524 
1558	 0.576294974815752 
1559	 0.576138291672955 
1560	 0.576005081930975 
1561	 0.575879386020945 
1562	 0.575790824607961 
1563	 0.575742191107519 
1564	 0.575697026412516 
1565	 0.575697196328877 
1566	 0.575658193469044 
1567	 0.575615651088562 
1568	 0.575560905644521 
1569	 0.575466814469551 
1570	 0.575409039774821 
1571	 0.575346312045669 
1572	 0.575323596278665 
1573	 0.57531680147348 
1574	 0.575353383448477 
1575	 0.575462769839891 
1576	 0.575525661507514 
1577	 0.575618140752636 
1578	 0.575666115064527 
1579	 0.575690895841903 
1580	 0.575672522818815 
1581	 0.575625350209647 
1582	 0.575549382553719 
1583	 0.575375141556111 
1584	 0.575283051790262 
1585	 0.575193027421278 
1586	 0.575149799508695 
1587	 0.575188418706188 
1588	 0.575192887931014 
1589	 0.575230583163546 
1590	 0.575218283899745 
1591	 0.575174215128259 
1592	 0.575123545662735 
1593	 0.575018033064693 
1594	 0.574957796768038 
1595	 0.574908134921205 
1596	 0.574872975545456 
1597	 0.574876972464855 
1598	 0.574860781589772 
1599	 0.574858691540425 
1600	 0.574826182451622 
1601	 0.574777960968694 
1602	 0.574714619985677 
1603	 0.574617133663923 
1604	 0.574529731689989 
1605	 0.574428854470722 
1606	 0.574340808748967 
1607	 0.574293009146367 
1608	 0.574185746128684 
1609	 0.574045696375907 
1610	 0.573906478426903 
1611	 0.573716108075712 
1612	 0.573552761031015 
1613	 0.573408863448675 
1614	 0.573266837041544 
1615	 0.573125561879205 
1616	 0.572983932637572 
1617	 0.572873617923839 
1618	 0.572718783803947 
1619	 0.57255694879085 
1620	 0.572361241031393 
1621	 0.572106150626627 
1622	 0.571866954215239 
1623	 0.571622817804312 
1624	 0.571357856330544 
1625	 0.57105220635661 
1626	 0.570803504610649 
1627	 0.570578011313626 
1628	 0.570338953938509 
1629	 0.570154119923924 
1630	 0.569927226244742 
1631	 0.569635284128924 
1632	 0.569385458238372 
1633	 0.569168956560036 
1634	 0.568916203400643 
1635	 0.568660487871304 
1636	 0.568403371904848 
1637	 0.568095875413771 
1638	 0.567832507394546 
1639	 0.567607282376424 
1640	 0.567366081887727 
1641	 0.5671589178162 
1642	 0.566910899213001 
1643	 0.56665003895956 
1644	 0.566358619860615 
1645	 0.566030096207173 
1646	 0.565690808871371 
1647	 0.565332831178786 
1648	 0.564946681154747 
1649	 0.564563862029027 
1650	 0.564107599532711 
1651	 0.563568221175622 
1652	 0.563067091207404 
1653	 0.562540040963396 
1654	 0.562009774413111 
1655	 0.561507477027104 
1656	 0.560969709502803 
1657	 0.56041544358872 
1658	 0.559806802010668 
1659	 0.559173519793125 
1660	 0.558507245096039 
1661	 0.557780150472198 
1662	 0.557048968155153 
1663	 0.556346782827461 
1664	 0.555517836000834 
1665	 0.554633726437045 
1666	 0.553660182302764 
1667	 0.552578650176066 
1668	 0.551462671807613 
1669	 0.550304311181037 
1670	 0.549051668014276 
1671	 0.547694213957967 
1672	 0.5463048164634 
1673	 0.544867580385884 
1674	 0.54334095927844 
1675	 0.541768203992637 
1676	 0.540129261207078 
1677	 0.538348997429055 
1678	 0.536616973573341 
1679	 0.53487615904989 
1680	 0.533087719019583 
1681	 0.5313186099843 
1682	 0.529430275236519 
1683	 0.527434073171058 
1684	 0.525469391008016 
1685	 0.523467091130955 
1686	 0.521441621074278 
1687	 0.519416961136765 
1688	 0.517300701948995 
1689	 0.515118456890012 
1690	 0.512862579410227 
1691	 0.510546435469528 
1692	 0.508243199213333 
1693	 0.505896276409655 
1694	 0.503531098159967 
1695	 0.50112399848722 
1696	 0.498706811563351 
1697	 0.496259939586049 
1698	 0.493781103738892 
1699	 0.491340158743722 
1700	 0.48883135611494 
1701	 0.486197426414017 
1702	 0.483700820477442 
1703	 0.481123974660933 
1704	 0.478816438150121 
1705	 0.476654199781903 
1706	 0.474593115259274 
1707	 0.472806331859856 
1708	 0.471110800522989 
1709	 0.469522122019569 
1710	 0.468110870786322 
1711	 0.466708996305244 
1712	 0.465390183745414 
1713	 0.464125359655308 
1714	 0.46282993796319 
1715	 0.461648793158441 
1716	 0.460544785468765 
1717	 0.459487080655498 
1718	 0.458511659630697 
1719	 0.457572828099667 
1720	 0.456665510600861 
1721	 0.455842874204935 
1722	 0.455120878149481 
1723	 0.4545582560441 
1724	 0.454137012530267 
1725	 0.453830355777617 
1726	 0.453721991867878 
1727	 0.45380424345805 
1728	 0.454034285393556 
1729	 0.454473351473972 
1730	 0.455154488931505 
1731	 0.455954722877112 
1732	 0.456912917811427 
1733	 0.457975317061796 
1734	 0.459149476754837 
1735	 0.460416646107527 
1736	 0.46165191239266 
1737	 0.462889258045671 
1738	 0.463975572190298 
1739	 0.464822015140994 
1740	 0.465561872394153 
1741	 0.466035258184239 
1742	 0.466233212745891 
1743	 0.466306801216426 
1744	 0.466129171980515 
1745	 0.465907208561396 
1746	 0.465507638876299 
1747	 0.465126757373896 
1748	 0.464662585715926 
1749	 0.464234719790687 
1750	 0.46375305054286 
1751	 0.463373157336574 
1752	 0.463008737345065 
1753	 0.462717868200557 
1754	 0.462495700838206 
1755	 0.462363406860259 
1756	 0.462256389640324 
1757	 0.462357883912893 
1758	 0.462607234222413 
1759	 0.46295182838074 
1760	 0.463448290097466 
1761	 0.46413035483825 
1762	 0.464856763601531 
1763	 0.46576063003928 
1764	 0.466772486342519 
1765	 0.467824546336219 
1766	 0.469021543047334 
1767	 0.470203582334728 
1768	 0.471461096713983 
1769	 0.472749008184661 
1770	 0.473926026142869 
1771	 0.475146164818336 
1772	 0.476322489383378 
1773	 0.477421218763715 
1774	 0.478567215584591 
1775	 0.479641664145764 
1776	 0.480659431041385 
1777	 0.481587458093295 
1778	 0.482272971950825 
1779	 0.48289451229116 
1780	 0.483431281366066 
1781	 0.483846672885615 
1782	 0.484308840921277 
1783	 0.484669916321499 
1784	 0.484935630307956 
1785	 0.485188627450751 
1786	 0.485436843758055 
1787	 0.48572298777391 
1788	 0.485921592260694 
1789	 0.486074203290512 
1790	 0.486161390602096 
1791	 0.486124829320948 
1792	 0.486131754477043 
1793	 0.486102886197221 
1794	 0.486105538990068 
1795	 0.486184287182769 
1796	 0.486198527019076 
1797	 0.486178711650015 
1798	 0.486174585314475 
1799	 0.486115755619386 
1800	 0.486086563990709 
1801	 0.488944127406994 
1802	 0.489273125290629 
1803	 0.489575794065434 
1804	 0.48984243146575 
1805	 0.490098146632735 
1806	 0.490313421720523 
1807	 0.49046380115548 
1808	 0.490687054154815 
1809	 0.490914970820113 
1810	 0.491124110919065 
1811	 0.491377416004264 
1812	 0.491599085409547 
1813	 0.49178720752291 
1814	 0.491960827159436 
1815	 0.492162686701058 
1816	 0.492342597927979 
1817	 0.492533927343433 
1818	 0.492714790155259 
1819	 0.492921427877067 
1820	 0.49311406482457 
1821	 0.493357086701879 
1822	 0.493635792392681 
1823	 0.4939282232698 
1824	 0.494248443618984 
1825	 0.494550352594623 
1826	 0.494781480380856 
1827	 0.49496773150432 
1828	 0.495134694351531 
1829	 0.495226806282313 
1830	 0.495376869446168 
1831	 0.49553066674571 
1832	 0.49567049031692 
1833	 0.495881664122948 
1834	 0.496078848022108 
1835	 0.496277778671662 
1836	 0.496519479734129 
1837	 0.496777249386166 
1838	 0.497061250595022 
1839	 0.497328428747959 
1840	 0.497605089298671 
1841	 0.497900530239127 
1842	 0.49820056303123 
1843	 0.498502884594223 
1844	 0.498810091399014 
1845	 0.499091258539714 
1846	 0.499334566974682 
1847	 0.499579054055564 
1848	 0.499815494908854 
1849	 0.500034319267179 
1850	 0.500283403106569 
1851	 0.500542992615816 
1852	 0.500781045131748 
1853	 0.501076135636368 
1854	 0.501341706305707 
1855	 0.501594467117774 
1856	 0.501841661325501 
1857	 0.502006671190025 
1858	 0.502156753703434 
1859	 0.502279658679321 
1860	 0.502359657562097 
1861	 0.502415187210966 
1862	 0.502455919966636 
1863	 0.502472101751068 
1864	 0.502426056199782 
1865	 0.502319515937425 
1866	 0.502134360785857 
1867	 0.501897091466803 
1868	 0.501619023382471 
1869	 0.501328968764666 
1870	 0.50105945717615 
1871	 0.500768892091552 
1872	 0.500543690498183 
1873	 0.500366415552875 
1874	 0.500173013695024 
1875	 0.500026763405972 
1876	 0.499824108819012 
1877	 0.499551178876529 
1878	 0.499212708007584 
1879	 0.498824907962103 
1880	 0.498384700639369 
1881	 0.49779708141235 
1882	 0.497109659896276 
1883	 0.49634933874613 
1884	 0.495363279377973 
1885	 0.49420253648445 
1886	 0.49302049605474 
1887	 0.491679399331639 
1888	 0.49026316322048 
1889	 0.488918848114992 
1890	 0.487451594807352 
1891	 0.485951808521192 
1892	 0.484464878944342 
1893	 0.482933747334838 
1894	 0.481313217790238 
1895	 0.479763183485432 
1896	 0.478229109531727 
1897	 0.476697178772445 
1898	 0.475312980807222 
1899	 0.473951781925441 
1900	 0.472659929395017 
1901	 0.471495271526039 
1902	 0.470328532382585 
1903	 0.469268927741364 
1904	 0.46824744739066 
1905	 0.467272202012539 
1906	 0.466355379881654 
1907	 0.465537576776612 
1908	 0.464695773348071 
1909	 0.46391058657242 
1910	 0.463124314285055 
1911	 0.462312626335966 
1912	 0.461586583758952 
1913	 0.460903086531201 
1914	 0.46025632898552 
1915	 0.459716142010189 
1916	 0.459283124811829 
1917	 0.458893186979844 
1918	 0.45852661342534 
1919	 0.458270212461489 
1920	 0.457979228342617 
1921	 0.457636969428068 
1922	 0.457324443237081 
1923	 0.456987245327634 
1924	 0.456687009391951 
1925	 0.456439704862591 
1926	 0.456215184017793 
1927	 0.456021116194823 
1928	 0.45584861301906 
1929	 0.45570410704817 
1930	 0.455578338359802 
1931	 0.455475064540572 
1932	 0.455437739442741 
1933	 0.455447330226123 
1934	 0.455545174919986 
1935	 0.455687741080053 
1936	 0.455864183914246 
1937	 0.456062253379659 
1938	 0.456302494235841 
1939	 0.456532584012158 
1940	 0.456778189374243 
1941	 0.457050793472844 
1942	 0.457298995475306 
1943	 0.457523148170889 
1944	 0.457787492255535 
1945	 0.458050703099994 
1946	 0.458335147764649 
1947	 0.458671385013181 
1948	 0.458961110985608 
1949	 0.459222908079617 
1950	 0.459517444103055 
1951	 0.459810560072431 
1952	 0.460111293012125 
1953	 0.460426083940186 
1954	 0.460768903230821 
1955	 0.461118806145666 
1956	 0.461431173227006 
1957	 0.461704009683652 
1958	 0.462014378806997 
1959	 0.462290443947649 
1960	 0.462520870291699 
1961	 0.462789788479534 
1962	 0.463071260720135 
1963	 0.463360581910611 
1964	 0.463652502558945 
1965	 0.463976891387732 
1966	 0.464341157341791 
1967	 0.46470746228868 
1968	 0.465000902627128 
1969	 0.465305956783418 
1970	 0.465588965415921 
1971	 0.46581566891992 
1972	 0.466120604634728 
1973	 0.466415329946287 
1974	 0.466678025018307 
1975	 0.466922161720945 
1976	 0.467165866947193 
1977	 0.467376354964081 
1978	 0.467607550553801 
1979	 0.467835080434367 
1980	 0.468086584063509 
1981	 0.468346821611323 
1982	 0.468585994250759 
1983	 0.468819442236347 
1984	 0.469042832695961 
1985	 0.469221937625198 
1986	 0.469361536691456 
1987	 0.469481046887581 
1988	 0.46956195719993 
1989	 0.46962328317797 
1990	 0.469656969055519 
1991	 0.4696825841677 
1992	 0.469662281011901 
1993	 0.469682121203496 
1994	 0.469705970511427 
1995	 0.469695421359307 
1996	 0.469730491845991 
1997	 0.469741986533586 
1998	 0.469724698799063 
1999	 0.469675397082912 
2000	 0.469662300456575 
2001	 0.469647950378355 
2002	 0.469614424587831 
2003	 0.46962994560296 
2004	 0.469579070170418 
2005	 0.469472554916456 
2006	 0.469342662572221 
2007	 0.469197380338232 
2008	 0.469001380877703 
2009	 0.468732622853405 
2010	 0.468504159623977 
2011	 0.468290065489553 
2012	 0.4680184027014 
2013	 0.467722267730871 
2014	 0.467424819781057 
2015	 0.467081883581337 
2016	 0.466664841817053 
2017	 0.466272845802188 
2018	 0.465887346768027 
2019	 0.465467863036276 
2020	 0.465017860575103 
2021	 0.464571799951815 
2022	 0.464136330697731 
2023	 0.463672787187435 
2024	 0.46320007434949 
2025	 0.46271493326278 
2026	 0.462176268570923 
2027	 0.46154919343965 
2028	 0.460986085522784 
2029	 0.460422994051724 
2030	 0.459849020027851 
2031	 0.459291689499789 
2032	 0.458722907474294 
2033	 0.458124713800829 
2034	 0.457554825845315 
2035	 0.457001717639871 
2036	 0.456433127513475 
2037	 0.455920088592936 
2038	 0.455386372408691 
2039	 0.454877286810511 
2040	 0.454378779770156 
2041	 0.453925042133546 
2042	 0.453500798112316 
2043	 0.453082866828536 
2044	 0.452679472236905 
2045	 0.452320683285855 
2046	 0.451998723163175 
2047	 0.451658766534373 
2048	 0.451337839617118 
2049	 0.451050659026363 
2050	 0.450768490952036 
2051	 0.45048925065769 
2052	 0.450240639611646 
2053	 0.450061783530547 
2054	 0.449856569405807 
2055	 0.449647910507649 
2056	 0.449442410608767 
2057	 0.449270150753689 
2058	 0.44904010012106 
2059	 0.448776783926367 
2060	 0.448524020060283 
2061	 0.448232175518324 
2062	 0.44797967953362 
2063	 0.447764909885192 
2064	 0.447516086990735 
2065	 0.447224190061657 
2066	 0.447001236513519 
2067	 0.446799318005281 
2068	 0.446617473109389 
2069	 0.446429518405254 
2070	 0.44630633336903 
2071	 0.446110784659419 
2072	 0.445880148137747 
2073	 0.445626004312342 
2074	 0.445347263974249 
2075	 0.445071818608411 
2076	 0.444758886365145 
2077	 0.444457971122176 
2078	 0.444128206608893 
2079	 0.443859850470099 
2080	 0.443614395802718 
2081	 0.443375799020773 
2082	 0.443166083551424 
2083	 0.443017485745891 
2084	 0.442827636359114 
2085	 0.442649579204371 
2086	 0.442436578712696 
2087	 0.442220162991552 
2088	 0.441993550006874 
2089	 0.441725049447267 
2090	 0.441472557018424 
2091	 0.441255402968208 
2092	 0.440973027421695 
2093	 0.440610385734643 
2094	 0.440335190788802 
2095	 0.440062466678787 
2096	 0.439810813010405 
2097	 0.439601571410119 
2098	 0.439430554456135 
2099	 0.439279137834936 
2100	 0.439086076316934 
2101	 0.438853864586424 
2102	 0.438647161236108 
2103	 0.438343209812498 
2104	 0.437928877881678 
2105	 0.437563617780083 
2106	 0.437200849544284 
2107	 0.436777261768658 
2108	 0.436306087469948 
2109	 0.435866637507819 
2110	 0.435387034078801 
2111	 0.434931162251837 
2112	 0.434547722429399 
2113	 0.434085303935354 
2114	 0.433556115285318 
2115	 0.433048680275383 
2116	 0.432520372855863 
2117	 0.431983787354541 
2118	 0.431466786826392 
2119	 0.430960255665732 
2120	 0.430478014761287 
2121	 0.429979024712456 
2122	 0.429566315216944 
2123	 0.429202329895879 
2124	 0.428866334280512 
2125	 0.428598745168237 
2126	 0.428321399549677 
2127	 0.428071814486291 
2128	 0.427828570531552 
2129	 0.427584517454424 
2130	 0.427371976955822 
2131	 0.427164515939836 
2132	 0.426998845990402 
2133	 0.426861899439316 
2134	 0.426776360025999 
2135	 0.426705652815924 
2136	 0.426668285974893 
2137	 0.426581586154551 
2138	 0.426485820028473 
2139	 0.426385879049412 
2140	 0.426254564185925 
2141	 0.426142161578874 
2142	 0.42603964448513 
2143	 0.425950683418197 
2144	 0.425837733895375 
2145	 0.425775654859064 
2146	 0.425746819242474 
2147	 0.425730751415112 
2148	 0.425724298050806 
2149	 0.425781570048296 
2150	 0.425887989080995 
2151	 0.425995600033899 
2152	 0.426137028135042 
2153	 0.426325609404478 
2154	 0.426476316788283 
2155	 0.42665354197073 
2156	 0.426733652561791 
2157	 0.426782658923915 
2158	 0.426788131302066 
2159	 0.426699437171393 
2160	 0.42665389873467 
2161	 0.426611907533956 
2162	 0.426561992206846 
2163	 0.426544360664287 
2164	 0.426421127249942 
2165	 0.426238748615081 
2166	 0.426057590887066 
2167	 0.425758264580004 
2168	 0.425551401453256 
2169	 0.425366878132057 
2170	 0.42522995087572 
2171	 0.425179935103713 
2172	 0.425090165790205 
2173	 0.425018574616915 
2174	 0.424952238770917 
2175	 0.4248666137566 
2176	 0.424698615224417 
2177	 0.424557446156784 
2178	 0.424424022463359 
2179	 0.424244466573138 
2180	 0.424028251281216 
2181	 0.423825869142283 
2182	 0.423586587429171 
2183	 0.423384672145464 
2184	 0.423179785820692 
2185	 0.423024906310949 
2186	 0.422911199107586 
2187	 0.422799797558364 
2188	 0.422718500527646 
2189	 0.422640266991172 
2190	 0.422573004421393 
2191	 0.42250166894714 
2192	 0.422503016787026 
2193	 0.422405491863208 
2194	 0.422287563151984 
2195	 0.422088440245252 
2196	 0.421795735834114 
2197	 0.421458628621698 
2198	 0.421082627970324 
2199	 0.420737407908092 
2200	 0.42039011334866 
2201	 0.420041302887677 
2202	 0.419696223899532 
2203	 0.419334014458947 
2204	 0.419031921179433 
2205	 0.418766003803132 
2206	 0.41849671858643 
2207	 0.418279363180136 
2208	 0.418017024135957 
2209	 0.417728427309155 
2210	 0.417440113849841 
2211	 0.417166284195729 
2212	 0.416852221458659 
2213	 0.416518431424043 
2214	 0.416167063011653 
2215	 0.415811435123805 
2216	 0.415385459715085 
2217	 0.41495196344108 
2218	 0.414432650574969 
2219	 0.413811628158665 
2220	 0.413185215880979 
2221	 0.412493372210143 
2222	 0.411780396199238 
2223	 0.411151817384261 
2224	 0.410401959530703 
2225	 0.40964933220077 
2226	 0.408849496897137 
2227	 0.407977175483458 
2228	 0.407017750901449 
2229	 0.406048466701484 
2230	 0.405059856257497 
2231	 0.403969327020043 
2232	 0.402839170654858 
2233	 0.401577061385157 
2234	 0.400227220669004 
2235	 0.398740476158972 
2236	 0.397165861434435 
2237	 0.395429710993144 
2238	 0.393487332085083 
2239	 0.391533141175335 
2240	 0.389487650449457 
2241	 0.387312456828115 
2242	 0.385104355740928 
2243	 0.382729147696873 
2244	 0.380098790119763 
2245	 0.377521706866602 
2246	 0.374785462482592 
2247	 0.372136233878918 
2248	 0.369552523115126 
2249	 0.366913168215356 
2250	 0.364289370914817 
2251	 0.361694230669148 
2252	 0.358756665998846 
2253	 0.355970007431733 
2254	 0.35312540355802 
2255	 0.350158496162094 
2256	 0.347533000005489 
2257	 0.344810742343281 
2258	 0.34216289753225 
2259	 0.339586367895583 
2260	 0.337031547899087 
2261	 0.33447591577757 
2262	 0.33203139351408 
2263	 0.329595178058606 
2264	 0.327335055899431 
2265	 0.325260672747867 
2266	 0.323104508795773 
2267	 0.32109319288178 
2268	 0.318956415011986 
2269	 0.316664901435168 
2270	 0.314545128430389 
2271	 0.312417545573975 
2272	 0.310432594475878 
2273	 0.308646139033382 
2274	 0.306769330000755 
2275	 0.305010293121291 
2276	 0.303125726266428 
2277	 0.301164069863775 
2278	 0.299169051361941 
2279	 0.297074307772748 
2280	 0.294981398320703 
2281	 0.292903562752809 
2282	 0.290741338091777 
2283	 0.288551689683326 
2284	 0.286314782253667 
2285	 0.283871087173165 
2286	 0.28139766995453 
2287	 0.278854663858014 
2288	 0.276239357067872 
2289	 0.273760294082813 
2290	 0.271197950214479 
2291	 0.268674238744579 
2292	 0.266165973174912 
2293	 0.263480780293257 
2294	 0.260935691060913 
2295	 0.258490377766892 
2296	 0.256096372172884 
2297	 0.254012841931952 
2298	 0.252152474750628 
2299	 0.250545974031143 
2300	 0.249135824442227 
2301	 0.248112550083402 
2302	 0.247373238864821 
2303	 0.247042569587712 
2304	 0.247118949931039 
2305	 0.247471219704946 
2306	 0.248241206491399 
2307	 0.249224859024336 
2308	 0.250519526949656 
2309	 0.252023984991179 
2310	 0.253871895236122 
2311	 0.25582407023105 
2312	 0.258164669404656 
2313	 0.260319948131243 
2314	 0.262613551693588 
2315	 0.264771986852457 
2316	 0.266880648849231 
2317	 0.268839248297592 
2318	 0.270806076850506 
2319	 0.272446231358577 
2320	 0.273939563019719 
2321	 0.275092283050362 
2322	 0.275918638990966 
2323	 0.276575493803467 
2324	 0.276895281236545 
2325	 0.277066809484053 
2326	 0.27700315367924 
2327	 0.276810455657422 
2328	 0.276394493589827 
2329	 0.275887235999459 
2330	 0.275260687338728 
2331	 0.27446662552614 
2332	 0.273568567948762 
2333	 0.272575370196645 
2334	 0.271249954129939 
2335	 0.26983355573896 
2336	 0.268201611144739 
2337	 0.266337003616048 
2338	 0.26473399378552 
2339	 0.263021092831764 
2340	 0.261303204667804 
2341	 0.259761215476611 
2342	 0.258133287090382 
2343	 0.256818487923117 
2344	 0.255786880600186 
2345	 0.254989281309033 
2346	 0.254692395731937 
2347	 0.254738293848238 
2348	 0.255057576286618 
2349	 0.255930020019222 
2350	 0.257054101868566 
2351	 0.258352064117238 
2352	 0.260045287165939 
2353	 0.261800636539603 
2354	 0.263369883168818 
2355	 0.264924499904097 
2356	 0.266170860817173 
2357	 0.267073254873355 
2358	 0.267990844521443 
2359	 0.268650690708297 
2360	 0.269254019603631 
2361	 0.269732277821405 
2362	 0.269809332526561 
2363	 0.269814018650906 
2364	 0.269701971685431 
2365	 0.269513644399664 
2366	 0.269415222384645 
2367	 0.269253828841423 
2368	 0.26911951566078 
2369	 0.26902790479426 
2370	 0.268970254714715 
2371	 0.269009956365478 
2372	 0.269017850756617 
2373	 0.268997350061773 
2374	 0.268935074404864 
2375	 0.268783109403682 
2376	 0.26864886917428 
2377	 0.268663159236165 
2378	 0.268792189478255 
2379	 0.269064338189356 
2380	 0.269282575221524 
2381	 0.269297997016279 
2382	 0.269382097526454 
2383	 0.269395646157832 
2384	 0.269423244711896 
2385	 0.269479314317122 
2386	 0.269572210763947 
2387	 0.269628479145911 
2388	 0.269712458462557 
2389	 0.269896199764484 
2390	 0.269993620456954 
2391	 0.270058894760593 
2392	 0.270134245842853 
2393	 0.270157639134143 
2394	 0.270219786854662 
2395	 0.270250347204375 
2396	 0.270341366892755 
2397	 0.270548177311282 
2398	 0.27061186377575 
2399	 0.270655949323923 
2400	 0.270688052924196 
2401	 0.270592987574134 
2402	 0.270499717997531 
2403	 0.27051137363843 
2404	 0.270582076123765 
2405	 0.270643518780194 
2406	 0.270725726899159 
2407	 0.270880424235956 
2408	 0.270869754134849 
2409	 0.270848519578146 
2410	 0.270980430919328 
2411	 0.271067776001016 
2412	 0.271079493374535 
2413	 0.271084992085118 
2414	 0.271094255372335 
2415	 0.271101725101973 
2416	 0.271417855188462 
2417	 0.271739170184427 
2418	 0.27173917003347 
2419	 0.271802045464475 
2420	 0.271804356686886 
2421	 0.271657450934311 
2422	 0.271723983020405 
2423	 0.271632919894924 
2424	 0.271186643144296 
2425	 0.27110119011592 
2426	 0.27104302771415 
2427	 0.271022808610059 
2428	 0.271448194624895 
2429	 0.271648048930922 
2430	 0.271784171638711 
2431	 0.271960189102491 
2432	 0.271657669633399 
2433	 0.27117260675915 
2434	 0.270876611496803 
2435	 0.270620261315086 
2436	 0.270599588991294 
2437	 0.270538620301084 
2438	 0.270165834893972 
2439	 0.27005315368162 
2440	 0.269848653244402 
2441	 0.269899106234368 
2442	 0.270233360537934 
2443	 0.270019119117962 
2444	 0.269989245508822 
2445	 0.269868048545661 
2446	 0.26938092070678 
2447	 0.269147451770124 
2448	 0.268737055362649 
2449	 0.268135967223328 
2450	 0.267845469055755 
2451	 0.267594916409385 
2452	 0.267279366025214 
2453	 0.266872947699017 
2454	 0.266082304075481 
2455	 0.265384613785518 
2456	 0.264861533178863 
2457	 0.264299827758422 
2458	 0.263857061833407 
2459	 0.263389516530474 
2460	 0.262787902862448 
2461	 0.262395501199277 
2462	 0.262303749344478 
2463	 0.261946772736999 
2464	 0.261341305403717 
2465	 0.260755802026969 
2466	 0.260413909310549 
2467	 0.260496915234864 
2468	 0.26062159590547 
2469	 0.260712394769975 
2470	 0.260638725439379 
2471	 0.260390321427377 
2472	 0.260187823755474 
2473	 0.260274610291142 
2474	 0.260454082486237 
2475	 0.260219985345419 
2476	 0.260458083440324 
2477	 0.260843135293734 
2478	 0.260733962869696 
2479	 0.260795115452113 
2480	 0.260289635389626 
2481	 0.259955151209639 
2482	 0.259560859258891 
2483	 0.259487201205837 
2484	 0.259662274390261 
2485	 0.259942500319211 
2486	 0.259767296633679 
2487	 0.259685763313342 
2488	 0.259722194356765 
2489	 0.259622568570067 
2490	 0.259756114688927 
2491	 0.260130779683157 
2492	 0.260521227442832 
2493	 0.260891877974055 
2494	 0.261758305430676 
2495	 0.262256311028368 
2496	 0.262845068908035 
2497	 0.263950637192051 
2498	 0.263852565556111 
2499	 0.263857634246642 
2500	 0.264120609138415 
