Wavelength	spectrum00024.asd
350	 3.99269828338131E-02 
351	 4.00776347920729E-02 
352	 4.00493665994737E-02 
353	 3.93372281846678E-02 
354	 0.038773039180922 
355	 4.00808066547117E-02 
356	 4.11100121251739E-02 
357	 0.040300125281185 
358	 4.05455786764472E-02 
359	 3.93243614686754E-02 
360	 3.78031102427775E-02 
361	 3.85267950098489E-02 
362	 3.88853796776714E-02 
363	 3.86353447231965E-02 
364	 3.80281090923478E-02 
365	 3.75935694421091E-02 
366	 3.81888181834369E-02 
367	 3.84858468785909E-02 
368	 3.76965558313194E-02 
369	 3.86733469638845E-02 
370	 3.84855098664554E-02 
371	 3.77548390786481E-02 
372	 3.87386134380748E-02 
373	 0.038697789312067 
374	 3.85431219630063E-02 
375	 3.87568393537334E-02 
376	 3.86552007439965E-02 
377	 3.81728983917424E-02 
378	 3.78627215574697E-02 
379	 3.81505489377549E-02 
380	 3.84849501669546E-02 
381	 3.87054429160245E-02 
382	 3.83970868936291E-02 
383	 3.73294686427337E-02 
384	 3.83777019177099E-02 
385	 3.89930883651223E-02 
386	 3.79658548682785E-02 
387	 3.69531843677697E-02 
388	 3.73079514795633E-02 
389	 3.80863700760025E-02 
390	 3.80255649773956E-02 
391	 3.73490877283665E-02 
392	 3.70777396806944E-02 
393	 0.037349679648573 
394	 0.037696491139881 
395	 3.82105357503123E-02 
396	 3.86901081810797E-02 
397	 3.88154291081326E-02 
398	 3.80417653556485E-02 
399	 3.78331401783991E-02 
400	 3.78877263344107E-02 
401	 3.76031068910953E-02 
402	 3.74849221074049E-02 
403	 3.76798242656193E-02 
404	 3.79761155469919E-02 
405	 3.79310794231128E-02 
406	 3.75219196088055E-02 
407	 3.72447334069285E-02 
408	 3.73574852642836E-02 
409	 3.75832854502877E-02 
410	 3.75914867474226E-02 
411	 0.037504055812837 
412	 3.75148766095093E-02 
413	 3.72615032421936E-02 
414	 3.71333792815504E-02 
415	 3.71664154991087E-02 
416	 0.037068068025599 
417	 3.72377778125446E-02 
418	 3.73440463016158E-02 
419	 3.71843649802057E-02 
420	 3.71489601019722E-02 
421	 3.69824979565436E-02 
422	 3.68969046793643E-02 
423	 3.71764253060958E-02 
424	 3.73355609155621E-02 
425	 3.72667044868319E-02 
426	 3.70824698044002E-02 
427	 3.70949535668136E-02 
428	 3.70579364368186E-02 
429	 3.70618742102729E-02 
430	 3.71645931522733E-02 
431	 0.037104503659559 
432	 0.037022610867426 
433	 3.69911655752314E-02 
434	 3.70283676871091E-02 
435	 3.70682411731699E-02 
436	 3.70831828182733E-02 
437	 3.70068409489488E-02 
438	 0.03667394516677 
439	 3.67753097461247E-02 
440	 3.69743520783168E-02 
441	 3.68326565951108E-02 
442	 0.03686782861748 
443	 3.69101253786744E-02 
444	 3.68791908316062E-02 
445	 3.67935655464431E-02 
446	 3.68016490899436E-02 
447	 3.67951592016104E-02 
448	 3.67375255629033E-02 
449	 3.68772108825172E-02 
450	 3.67929197162082E-02 
451	 3.66311517639025E-02 
452	 3.66922393698501E-02 
453	 0.036734876375038 
454	 3.67473262750115E-02 
455	 3.67758362071649E-02 
456	 3.69081366302852E-02 
457	 3.69025468769038E-02 
458	 3.67910353862455E-02 
459	 3.66888662294523E-02 
460	 3.67741879585255E-02 
461	 3.67030487456528E-02 
462	 3.65567046256709E-02 
463	 3.66186686388067E-02 
464	 3.66455734836147E-02 
465	 3.67075462093082E-02 
466	 3.67683620171215E-02 
467	 3.65642909246289E-02 
468	 3.65764149845839E-02 
469	 3.66059476594506E-02 
470	 3.64400263477086E-02 
471	 3.67344928545548E-02 
472	 3.67725135636643E-02 
473	 3.65527709629632E-02 
474	 3.66411012288387E-02 
475	 3.66145769009284E-02 
476	 3.65594441008832E-02 
477	 3.65707655134008E-02 
478	 3.65974774357627E-02 
479	 3.65137179011803E-02 
480	 3.64881377901972E-02 
481	 3.67053243701489E-02 
482	 3.66630793678618E-02 
483	 3.66041748127721E-02 
484	 3.66203262474422E-02 
485	 3.65697740669016E-02 
486	 3.66174436236587E-02 
487	 3.66475643185674E-02 
488	 3.65577984207305E-02 
489	 3.64698805823053E-02 
490	 3.65062448732575E-02 
491	 3.66130837423264E-02 
492	 3.66379804348253E-02 
493	 3.66080410454192E-02 
494	 0.036586641496589 
495	 3.65985007671324E-02 
496	 3.65970238759766E-02 
497	 3.65864210403364E-02 
498	 3.65533734963881E-02 
499	 3.65126105457619E-02 
500	 3.66347708566237E-02 
501	 3.66595053544048E-02 
502	 3.65593311418481E-02 
503	 0.036521497504868 
504	 3.64784557916071E-02 
505	 3.64708437617914E-02 
506	 3.65146619009891E-02 
507	 3.65326539003061E-02 
508	 3.65239450599808E-02 
509	 3.65151977352524E-02 
510	 3.65394789225157E-02 
511	 3.65634696978146E-02 
512	 3.65952913469665E-02 
513	 3.66173554306267E-02 
514	 3.65739181310966E-02 
515	 0.036585056846788 
516	 3.65799806495831E-02 
517	 3.65015940961925E-02 
518	 0.036518504513865 
519	 3.65715239483294E-02 
520	 3.66115953459212E-02 
521	 3.66052084479059E-02 
522	 3.65892116323126E-02 
523	 3.65396736320139E-02 
524	 3.64795681870776E-02 
525	 0.03655433550458 
526	 3.65568251473995E-02 
527	 3.65270327070321E-02 
528	 3.65688307826677E-02 
529	 0.036608497921815 
530	 3.66121939148809E-02 
531	 3.65973335452065E-02 
532	 3.66295853682348E-02 
533	 0.036605097285905 
534	 3.65666935922844E-02 
535	 0.036558319680998 
536	 3.65293414190405E-02 
537	 0.036508270228717 
538	 3.64992534483181E-02 
539	 3.64928070064458E-02 
540	 3.64891208937245E-02 
541	 3.64926456240012E-02 
542	 0.036496297573502 
543	 3.64725583419332E-02 
544	 3.64575663671015E-02 
545	 3.64312038452451E-02 
546	 3.63805023942404E-02 
547	 3.64065712530074E-02 
548	 3.64183190651996E-02 
549	 3.64106567320465E-02 
550	 3.64582076489088E-02 
551	 0.036500035037571 
552	 3.65646771006546E-02 
553	 3.66633852201843E-02 
554	 3.67235738307131E-02 
555	 3.67652914231904E-02 
556	 3.68241051280619E-02 
557	 3.69288454483298E-02 
558	 3.69827527805912E-02 
559	 0.037069152311774 
560	 3.71919687647232E-02 
561	 3.72233310716606E-02 
562	 3.72202034046726E-02 
563	 3.71880667518703E-02 
564	 3.71335218820393E-02 
565	 3.71121939571299E-02 
566	 3.70750079849279E-02 
567	 3.70311036001506E-02 
568	 3.70318115663025E-02 
569	 3.70601402108912E-02 
570	 3.70638078447967E-02 
571	 3.70394946220162E-02 
572	 3.71076045807061E-02 
573	 3.71226463463822E-02 
574	 3.71201132602767E-02 
575	 3.71772387642759E-02 
576	 3.71804904940144E-02 
577	 0.037115175609007 
578	 3.70053888401791E-02 
579	 3.69104338545572E-02 
580	 3.68729386977082E-02 
581	 3.68883839056047E-02 
582	 3.69322477064452E-02 
583	 0.036965405701393 
584	 3.70249884160209E-02 
585	 3.70841776739308E-02 
586	 3.70878729843229E-02 
587	 3.70933024693557E-02 
588	 3.71062115922947E-02 
589	 3.71252646208742E-02 
590	 3.71497702676718E-02 
591	 3.71473374244677E-02 
592	 3.71500202434342E-02 
593	 3.71926182587708E-02 
594	 3.72285129416911E-02 
595	 3.72587204421891E-02 
596	 3.72865152834872E-02 
597	 3.73142355869628E-02 
598	 3.73075580264934E-02 
599	 0.037315446391768 
600	 3.73578976819164E-02 
601	 3.73458476584947E-02 
602	 3.73529074032246E-02 
603	 3.73812238035336E-02 
604	 3.74019999021587E-02 
605	 3.74007172870276E-02 
606	 3.74202510960045E-02 
607	 3.74693907595714E-02 
608	 3.75094127646187E-02 
609	 3.75090409197416E-02 
610	 3.74981233346126E-02 
611	 3.75118694344575E-02 
612	 0.037547779264805 
613	 3.75645723742903E-02 
614	 3.75556743019278E-02 
615	 3.75418942902728E-02 
616	 3.75595780993376E-02 
617	 3.76006683686477E-02 
618	 3.76373932117127E-02 
619	 3.76166596694224E-02 
620	 3.76145722239192E-02 
621	 3.76347075512763E-02 
622	 3.76547525861209E-02 
623	 3.76576114273161E-02 
624	 3.76607907062395E-02 
625	 3.76744413528166E-02 
626	 3.76989870299956E-02 
627	 3.77176428835204E-02 
628	 3.77282180910112E-02 
629	 3.77337504643988E-02 
630	 0.037741778320429 
631	 0.037747429774576 
632	 3.77548013270273E-02 
633	 3.77703561003752E-02 
634	 3.77887011332694E-02 
635	 3.78055497682839E-02 
636	 3.78202964866112E-02 
637	 3.78366449010125E-02 
638	 3.78553340710961E-02 
639	 3.78613520801296E-02 
640	 3.78493151073646E-02 
641	 3.78565082666958E-02 
642	 3.78626565071587E-02 
643	 3.78740567954747E-02 
644	 3.79079573817663E-02 
645	 3.79237498754501E-02 
646	 3.79266662074341E-02 
647	 3.79277197975095E-02 
648	 3.79366843908741E-02 
649	 3.79582404536423E-02 
650	 0.037976806230341 
651	 0.037981383989833 
652	 3.80135529272303E-02 
653	 3.80141460214668E-02 
654	 3.79937789843767E-02 
655	 3.80162562814748E-02 
656	 3.80254167386413E-02 
657	 3.80405081677589E-02 
658	 3.80675097172843E-02 
659	 3.80528793847129E-02 
660	 3.80983510733003E-02 
661	 3.81406176611088E-02 
662	 3.80952282073797E-02 
663	 3.81286998933015E-02 
664	 3.81416423077998E-02 
665	 3.81178923921143E-02 
666	 3.81376181597254E-02 
667	 3.81593863145817E-02 
668	 3.81860355150751E-02 
669	 3.82149594165493E-02 
670	 3.82043946413998E-02 
671	 3.82191340184209E-02 
672	 3.82501354799785E-02 
673	 3.82606271875641E-02 
674	 3.82807554203258E-02 
675	 3.83011674436075E-02 
676	 3.83161100101221E-02 
677	 3.83279178296445E-02 
678	 3.83238033641654E-02 
679	 3.83240512779406E-02 
680	 3.83443421029219E-02 
681	 0.038365022808383 
682	 0.038370702824092 
683	 3.83764273358341E-02 
684	 3.84063426559452E-02 
685	 3.84069295949185E-02 
686	 0.038406415634045 
687	 3.84210892541429E-02 
688	 3.84386601237731E-02 
689	 3.84386401463536E-02 
690	 3.84303834105706E-02 
691	 3.84341109045888E-02 
692	 3.84789602950651E-02 
693	 3.85024932390581E-02 
694	 3.85042330479399E-02 
695	 3.85214452903727E-02 
696	 3.85358092060574E-02 
697	 0.038545538689911 
698	 3.85526156889395E-02 
699	 3.85618540968641E-02 
700	 3.85757189220445E-02 
701	 0.03859041527946 
702	 3.86013347679442E-02 
703	 3.86073879119395E-02 
704	 3.86253519988293E-02 
705	 0.03864448973754 
706	 3.86402058703316E-02 
707	 3.86569336984542E-02 
708	 3.86718908540322E-02 
709	 3.86723267398002E-02 
710	 3.86761171250589E-02 
711	 0.038699258965284 
712	 3.87169466469892E-02 
713	 3.87124210722516E-02 
714	 3.87569439118536E-02 
715	 3.87845466867568E-02 
716	 3.87793978044719E-02 
717	 3.87665518285982E-02 
718	 3.87622211524606E-02 
719	 3.87888080448473E-02 
720	 3.88317026682422E-02 
721	 3.88138713713626E-02 
722	 3.88124117719675E-02 
723	 3.88312043035117E-02 
724	 3.88503902412739E-02 
725	 3.88496120098176E-02 
726	 3.88578983493348E-02 
727	 3.88730108105741E-02 
728	 3.88724612490427E-02 
729	 3.88761474011269E-02 
730	 3.88958963282487E-02 
731	 3.89247709145146E-02 
732	 3.89277877484455E-02 
733	 3.89284428373225E-02 
734	 3.89401125514814E-02 
735	 3.89618791656595E-02 
736	 3.89472401204684E-02 
737	 3.89651791746022E-02 
738	 3.90039532583179E-02 
739	 0.03900332118527 
740	 3.89979815110496E-02 
741	 3.90094917492132E-02 
742	 3.90348248459239E-02 
743	 0.039037244042294 
744	 3.90445982419145E-02 
745	 3.90519678146853E-02 
746	 3.90520079252291E-02 
747	 3.90570699317389E-02 
748	 3.90776235824568E-02 
749	 3.90914854296359E-02 
750	 3.90692951078779E-02 
751	 3.90827997877727E-02 
752	 0.039103308341381 
753	 3.91134149607256E-02 
754	 3.91241290124829E-02 
755	 3.91229706492929E-02 
756	 3.91200021937197E-02 
757	 3.91225536854719E-02 
758	 3.91140554719739E-02 
759	 3.91069655198821E-02 
760	 3.91100793737181E-02 
761	 3.91259323453906E-02 
762	 3.91325138789191E-02 
763	 3.91345475072125E-02 
764	 3.91413857732369E-02 
765	 3.91626432829766E-02 
766	 3.91571482271727E-02 
767	 0.039144885418169 
768	 0.039147372446693 
769	 3.91619268005225E-02 
770	 3.91733535728592E-02 
771	 3.91798757073724E-02 
772	 3.91829205581129E-02 
773	 3.91693442494001E-02 
774	 3.91623912651943E-02 
775	 3.91702557233205E-02 
776	 3.91853456375084E-02 
777	 0.039186423878462 
778	 3.91911200297201E-02 
779	 3.92008444316481E-02 
780	 3.91792048198074E-02 
781	 0.039172680405545 
782	 3.91828312074987E-02 
783	 3.91965270529728E-02 
784	 3.92003742145652E-02 
785	 3.92004882692251E-02 
786	 3.92004768842563E-02 
787	 0.039202107197903 
788	 3.92058671727303E-02 
789	 3.92037028873254E-02 
790	 3.91996340060742E-02 
791	 3.92114457251446E-02 
792	 3.92194388725516E-02 
793	 3.92206756543581E-02 
794	 0.039219118789864 
795	 3.92276681772363E-02 
796	 3.92217871526005E-02 
797	 3.92145137947001E-02 
798	 3.92233693046758E-02 
799	 3.92139289661559E-02 
800	 3.92095419478641E-02 
801	 3.92117745007782E-02 
802	 3.92054256000367E-02 
803	 3.92047493891318E-02 
804	 3.92058541007367E-02 
805	 3.92081053828051E-02 
806	 3.92191582626524E-02 
807	 3.92213288015933E-02 
808	 3.92091412055564E-02 
809	 0.039188922884096 
810	 3.91903131440044E-02 
811	 3.91857246985962E-02 
812	 3.91812106342116E-02 
813	 3.91922031511537E-02 
814	 3.91963139182352E-02 
815	 3.91961959873883E-02 
816	 3.91940428365313E-02 
817	 3.91911269940521E-02 
818	 3.91990936949691E-02 
819	 3.92013863962596E-02 
820	 3.91917493236673E-02 
821	 3.91876472103025E-02 
822	 3.91779021055711E-02 
823	 3.91707106789263E-02 
824	 3.91746102923913E-02 
825	 3.91867187323705E-02 
826	 3.91754106202255E-02 
827	 3.91548740708468E-02 
828	 3.91565180930493E-02 
829	 3.91713884589174E-02 
830	 3.91855864122776E-02 
831	 3.91888069271791E-02 
832	 3.91786235847491E-02 
833	 3.91947483157181E-02 
834	 3.91969501289222E-02 
835	 3.91775903110267E-02 
836	 3.91958039662463E-02 
837	 3.92046248961035E-02 
838	 3.91929909161248E-02 
839	 3.91715854766875E-02 
840	 3.91862459337271E-02 
841	 3.91873887974201E-02 
842	 3.91788743324872E-02 
843	 3.91803449311933E-02 
844	 3.91729182927286E-02 
845	 3.91572215125664E-02 
846	 3.91552519119639E-02 
847	 3.91915740538103E-02 
848	 3.91824586931342E-02 
849	 3.91596136778139E-02 
850	 3.91489704907401E-02 
851	 3.91499944244023E-02 
852	 3.91494754154607E-02 
853	 3.91600148062219E-02 
854	 3.91762951720746E-02 
855	 3.91432800775542E-02 
856	 3.91190506018408E-02 
857	 3.91061887378689E-02 
858	 3.90954971353711E-02 
859	 3.91046661685586E-02 
860	 3.91089182097049E-02 
861	 3.91060184921099E-02 
862	 3.91032928251053E-02 
863	 3.90839871167154E-02 
864	 3.90709514369373E-02 
865	 3.90769477929463E-02 
866	 3.90972285630283E-02 
867	 0.039068102329167 
868	 3.90649176666974E-02 
869	 3.90956213402664E-02 
870	 3.90554244161563E-02 
871	 3.90505327147294E-02 
872	 3.90476724076373E-02 
873	 3.90245773790026E-02 
874	 3.90509327707385E-02 
875	 3.90832266410417E-02 
876	 3.90796969574527E-02 
877	 3.90321318008613E-02 
878	 0.039042018827085 
879	 3.90503118844675E-02 
880	 3.90474658824532E-02 
881	 3.90450718939478E-02 
882	 0.039023086810007 
883	 3.90146943621557E-02 
884	 3.90220957295923E-02 
885	 3.90217872936458E-02 
886	 3.90074015381213E-02 
887	 3.90045109096593E-02 
888	 3.90157910944362E-02 
889	 0.03901435359407 
890	 3.90032764759969E-02 
891	 3.89911782364792E-02 
892	 3.89903404028511E-02 
893	 3.90160781171549E-02 
894	 3.90020241971873E-02 
895	 3.89748590715193E-02 
896	 0.038971941846719 
897	 3.89948401661821E-02 
898	 3.89861925392043E-02 
899	 0.038966067039768 
900	 3.89659353767772E-02 
901	 3.89440083300456E-02 
902	 3.89415146351971E-02 
903	 3.89604891269163E-02 
904	 3.89773197623551E-02 
905	 3.89526470794192E-02 
906	 3.89570244534658E-02 
907	 3.89856069063551E-02 
908	 3.89817457050573E-02 
909	 3.89786270125916E-02 
910	 3.89504990107302E-02 
911	 3.89106033230487E-02 
912	 3.89105329926797E-02 
913	 3.89211622828421E-02 
914	 0.03895112033761 
915	 3.89804664824506E-02 
916	 3.89502929229643E-02 
917	 3.89275997960053E-02 
918	 3.89181685582262E-02 
919	 3.89215179315451E-02 
920	 3.89503764797343E-02 
921	 3.89337164091599E-02 
922	 3.88874872459959E-02 
923	 3.88545999698897E-02 
924	 0.03887967821304 
925	 3.89060724685419E-02 
926	 3.89239571869034E-02 
927	 3.89278309461577E-02 
928	 3.88638476022204E-02 
929	 3.88576259361457E-02 
930	 3.88935625230725E-02 
931	 0.038895893757612 
932	 3.88157627564064E-02 
933	 3.88412467154786E-02 
934	 3.89279890729924E-02 
935	 3.89249519480171E-02 
936	 3.88848471929826E-02 
937	 3.88635214745098E-02 
938	 3.88444620835424E-02 
939	 3.87870328370533E-02 
940	 3.88647579591434E-02 
941	 3.88672905554848E-02 
942	 3.88099740413295E-02 
943	 3.88925650054148E-02 
944	 3.89030794873544E-02 
945	 3.88550700409389E-02 
946	 3.88239365707506E-02 
947	 0.038896143601531 
948	 3.88816332479437E-02 
949	 3.88621230526987E-02 
950	 3.88633369720135E-02 
951	 3.88020759599301E-02 
952	 3.88417767061931E-02 
953	 3.88767229007421E-02 
954	 3.88491669049348E-02 
955	 3.88431990760097E-02 
956	 3.88547078744105E-02 
957	 3.88560349943831E-02 
958	 3.88397110007774E-02 
959	 3.88421106097351E-02 
960	 3.88317278723709E-02 
961	 3.88192118975415E-02 
962	 3.88227801379833E-02 
963	 3.88553800116735E-02 
964	 3.88300604533597E-02 
965	 3.87914851380051E-02 
966	 3.87911970004625E-02 
967	 0.038811453334066 
968	 3.88193342090842E-02 
969	 3.88199304464893E-02 
970	 3.88165660696237E-02 
971	 3.87762112359687E-02 
972	 3.87312877722717E-02 
973	 3.87157637867272E-02 
974	 3.87445604068678E-02 
975	 3.87881472704211E-02 
976	 3.87833240718823E-02 
977	 0.038763179806677 
978	 3.87583738205409E-02 
979	 3.86731230870102E-02 
980	 3.87169095400998E-02 
981	 3.87654331769516E-02 
982	 3.86866689761598E-02 
983	 3.87089944947619E-02 
984	 3.87236342002124E-02 
985	 3.87557660102953E-02 
986	 3.88339880782603E-02 
987	 3.88550708138709E-02 
988	 3.88156754657558E-02 
989	 3.87763661345229E-02 
990	 3.87846003378298E-02 
991	 3.87591201805296E-02 
992	 3.87208564245038E-02 
993	 3.86445070849862E-02 
994	 3.85610289511264E-02 
995	 3.87420464336943E-02 
996	 3.88017847343933E-02 
997	 3.87594733018664E-02 
998	 3.87527276898977E-02 
999	 3.87537957336922E-02 
1000	 3.88152096078639E-02 
1001	 3.92006765154426E-02 
1002	 3.91846860974647E-02 
1003	 3.91324595597597E-02 
1004	 3.91314400302928E-02 
1005	 0.039181249133449 
1006	 3.91878585723959E-02 
1007	 0.03918362733231 
1008	 3.91844250591074E-02 
1009	 0.039184370635594 
1010	 3.91712432469982E-02 
1011	 3.91340696632133E-02 
1012	 3.91348634181392E-02 
1013	 3.91572468764119E-02 
1014	 0.039162277332031 
1015	 3.91846665748557E-02 
1016	 3.91999227204139E-02 
1017	 3.91977924549946E-02 
1018	 3.91617710442179E-02 
1019	 3.91501767693746E-02 
1020	 3.91518770308358E-02 
1021	 3.91349945494513E-02 
1022	 3.91050014268737E-02 
1023	 3.90865080633172E-02 
1024	 3.90648176503483E-02 
1025	 3.90508290833171E-02 
1026	 3.90511025804728E-02 
1027	 3.90402297525627E-02 
1028	 0.039029771381611 
1029	 3.89994898375551E-02 
1030	 3.89828207496666E-02 
1031	 3.89763204038092E-02 
1032	 0.03900025835913 
1033	 3.90274496172967E-02 
1034	 3.90110150345483E-02 
1035	 3.90164254435145E-02 
1036	 3.90145202801997E-02 
1037	 3.89865314786766E-02 
1038	 3.89736676983287E-02 
1039	 0.038967304694517 
1040	 3.89652944830473E-02 
1041	 3.89933854070042E-02 
1042	 3.89729797610772E-02 
1043	 3.89185033577598E-02 
1044	 3.89021988793307E-02 
1045	 3.88953134125299E-02 
1046	 3.88566091560893E-02 
1047	 3.88805405605133E-02 
1048	 3.89120347362702E-02 
1049	 3.88891545674917E-02 
1050	 3.88678173658032E-02 
1051	 3.88685478241908E-02 
1052	 3.88678740162802E-02 
1053	 3.88695613057262E-02 
1054	 3.88853101369211E-02 
1055	 3.88925633093639E-02 
1056	 3.88859808983643E-02 
1057	 3.88934060253585E-02 
1058	 3.89044590456011E-02 
1059	 3.89277264510613E-02 
1060	 3.89492280417582E-02 
1061	 3.89577342175626E-02 
1062	 3.89726104827093E-02 
1063	 3.89823149215155E-02 
1064	 0.038990293662521 
1065	 3.90074751869375E-02 
1066	 0.039022408672787 
1067	 3.90433394447679E-02 
1068	 3.90408555943368E-02 
1069	 3.90293902206769E-02 
1070	 3.90291227012358E-02 
1071	 3.90318233385797E-02 
1072	 3.90165866631743E-02 
1073	 3.90282874219668E-02 
1074	 3.90490812712666E-02 
1075	 3.90379423069443E-02 
1076	 3.90245005500276E-02 
1077	 3.90280981067218E-02 
1078	 3.90438139147472E-02 
1079	 3.90702987510963E-02 
1080	 3.90904483548719E-02 
1081	 3.90737524880793E-02 
1082	 3.90361299561142E-02 
1083	 3.90123059123449E-02 
1084	 3.90236318130191E-02 
1085	 3.90388186383961E-02 
1086	 3.90489855294854E-02 
1087	 3.90680941328891E-02 
1088	 3.90949012538012E-02 
1089	 3.90895680999413E-02 
1090	 3.90836492297288E-02 
1091	 0.039098068226184 
1092	 3.91001865202441E-02 
1093	 3.90941113167664E-02 
1094	 3.91002194694162E-02 
1095	 3.90956523662536E-02 
1096	 3.90707042728802E-02 
1097	 3.90757130186867E-02 
1098	 0.039090507621953 
1099	 3.90925811119767E-02 
1100	 0.039102354870411 
1101	 3.91103505539274E-02 
1102	 3.91157494853885E-02 
1103	 3.91127197481706E-02 
1104	 3.91069355868243E-02 
1105	 3.91042344790812E-02 
1106	 3.91006583270554E-02 
1107	 3.90974473177212E-02 
1108	 3.91014233374904E-02 
1109	 3.90894629635593E-02 
1110	 3.90752223488981E-02 
1111	 3.90527042860083E-02 
1112	 3.90279702840224E-02 
1113	 3.90371904640462E-02 
1114	 3.90363718604282E-02 
1115	 0.039024224140835 
1116	 3.90244435306216E-02 
1117	 0.039004878921933 
1118	 3.89972000701746E-02 
1119	 3.90033060565935E-02 
1120	 3.90046897025001E-02 
1121	 3.90046336418068E-02 
1122	 3.90048594040941E-02 
1123	 0.039006931254648 
1124	 3.89762163816997E-02 
1125	 3.89510482114419E-02 
1126	 3.89451420143412E-02 
1127	 3.89282752003138E-02 
1128	 3.89210539257447E-02 
1129	 3.89201118106163E-02 
1130	 3.89108143899661E-02 
1131	 3.89030485846415E-02 
1132	 3.89019492870948E-02 
1133	 3.88971150307864E-02 
1134	 0.038885432173404 
1135	 3.88756756633743E-02 
1136	 3.88706158936807E-02 
1137	 3.88536815605427E-02 
1138	 3.88260998434963E-02 
1139	 3.88129003306922E-02 
1140	 3.88039538171565E-02 
1141	 3.87806488741699E-02 
1142	 3.87818101255702E-02 
1143	 3.87789375856886E-02 
1144	 0.038747100878936 
1145	 3.87463456871777E-02 
1146	 3.87477249656632E-02 
1147	 3.87317695361487E-02 
1148	 3.87338620409359E-02 
1149	 3.87248149351412E-02 
1150	 3.87102962909988E-02 
1151	 3.87036289814206E-02 
1152	 3.86937707130147E-02 
1153	 3.86852664007664E-02 
1154	 0.038677366522993 
1155	 3.86724143876288E-02 
1156	 3.86581312541726E-02 
1157	 3.86362690557163E-02 
1158	 3.86172155072902E-02 
1159	 3.85940768620964E-02 
1160	 3.85703653583467E-02 
1161	 3.85530944921675E-02 
1162	 3.85547115183401E-02 
1163	 3.85460033321298E-02 
1164	 3.85415528396399E-02 
1165	 3.85376867669538E-02 
1166	 3.85214878670094E-02 
1167	 3.85213088403815E-02 
1168	 3.85212290103941E-02 
1169	 3.85173056729175E-02 
1170	 3.85175675413429E-02 
1171	 3.85150846868183E-02 
1172	 3.85030881669918E-02 
1173	 3.84964386974485E-02 
1174	 3.84960816664649E-02 
1175	 3.84888680387626E-02 
1176	 3.84731692325466E-02 
1177	 3.84709135421047E-02 
1178	 3.84810928721383E-02 
1179	 3.84739046592621E-02 
1180	 3.84629708105772E-02 
1181	 3.84673845092226E-02 
1182	 0.038454350284784 
1183	 3.84388399438136E-02 
1184	 0.038434486628029 
1185	 3.84312930672165E-02 
1186	 0.038432651267349 
1187	 3.84325622727798E-02 
1188	 0.038441748574358 
1189	 3.84721572923535E-02 
1190	 3.84746429957411E-02 
1191	 3.84664828171989E-02 
1192	 3.84637127272008E-02 
1193	 3.84362552247108E-02 
1194	 3.84357881661283E-02 
1195	 3.84684096617742E-02 
1196	 3.84731381948947E-02 
1197	 3.84759780931071E-02 
1198	 3.84710545919178E-02 
1199	 3.84495762299028E-02 
1200	 3.84457483795744E-02 
1201	 3.84487942807401E-02 
1202	 3.84580487633317E-02 
1203	 3.84673365059056E-02 
1204	 3.84577596264274E-02 
1205	 3.84566662606014E-02 
1206	 0.03845618914126 
1207	 3.84524522193177E-02 
1208	 0.038447184641005 
1209	 3.84460358207782E-02 
1210	 3.84372067502759E-02 
1211	 3.84432020321469E-02 
1212	 3.84629206500837E-02 
1213	 3.84742843173823E-02 
1214	 3.84973752870111E-02 
1215	 3.85074155791738E-02 
1216	 3.85039016699179E-02 
1217	 3.85047064490364E-02 
1218	 3.85039710452106E-02 
1219	 3.84979393120969E-02 
1220	 3.84923042102269E-02 
1221	 3.84883951214073E-02 
1222	 3.84980198700114E-02 
1223	 3.85136662767099E-02 
1224	 3.85235138256853E-02 
1225	 3.85426768691434E-02 
1226	 3.85550181139793E-02 
1227	 3.85559904257378E-02 
1228	 3.85641584761791E-02 
1229	 3.85886865802256E-02 
1230	 3.85888302339415E-02 
1231	 3.85714416993245E-02 
1232	 3.85640630734558E-02 
1233	 3.85371809053685E-02 
1234	 3.85339661602428E-02 
1235	 3.85561410829091E-02 
1236	 3.85644104774418E-02 
1237	 0.038574925758382 
1238	 3.85867471556649E-02 
1239	 3.85956608219813E-02 
1240	 3.86030966786126E-02 
1241	 0.038611796910535 
1242	 3.86048935929919E-02 
1243	 3.86047980415019E-02 
1244	 3.85928185285092E-02 
1245	 3.85965344154637E-02 
1246	 3.86169503252916E-02 
1247	 3.86179707039669E-02 
1248	 3.86113153992789E-02 
1249	 3.86099616550692E-02 
1250	 3.86021783940616E-02 
1251	 3.85984860080486E-02 
1252	 3.86009905265253E-02 
1253	 3.86004912449938E-02 
1254	 3.86004799680595E-02 
1255	 3.85943285540197E-02 
1256	 3.85879445208763E-02 
1257	 3.85787975843234E-02 
1258	 3.85530924171208E-02 
1259	 3.85419324974709E-02 
1260	 3.85392543360548E-02 
1261	 3.85367698850659E-02 
1262	 0.03854355990659 
1263	 3.85509191421758E-02 
1264	 3.85480723505967E-02 
1265	 3.85390117572934E-02 
1266	 3.85309096755044E-02 
1267	 3.85121289061372E-02 
1268	 3.85108924485157E-02 
1269	 3.85223220126894E-02 
1270	 3.85211861508909E-02 
1271	 3.85224160597736E-02 
1272	 3.85215226481613E-02 
1273	 3.85073321631276E-02 
1274	 3.85061411829972E-02 
1275	 3.85102324764573E-02 
1276	 3.85212503208802E-02 
1277	 3.85441468566733E-02 
1278	 3.85589545827461E-02 
1279	 3.85747110284878E-02 
1280	 3.85931072900588E-02 
1281	 3.86149544154242E-02 
1282	 3.86259065145344E-02 
1283	 3.86251100071235E-02 
1284	 3.86392774714173E-02 
1285	 3.86563039005136E-02 
1286	 3.86688612193824E-02 
1287	 3.86821944549224E-02 
1288	 3.87083808039851E-02 
1289	 3.87262716127492E-02 
1290	 3.87355414074281E-02 
1291	 3.87431729679442E-02 
1292	 3.87537362215445E-02 
1293	 0.038762609466249 
1294	 3.87554103675493E-02 
1295	 3.87678764363106E-02 
1296	 3.88021445779104E-02 
1297	 3.88159012943704E-02 
1298	 3.88283109111568E-02 
1299	 3.88354249143686E-02 
1300	 3.88224686044861E-02 
1301	 3.88259725535343E-02 
1302	 3.88402941522036E-02 
1303	 3.88481860333218E-02 
1304	 3.88569402807361E-02 
1305	 3.88680930800409E-02 
1306	 3.88794990603223E-02 
1307	 3.88874217432661E-02 
1308	 3.88977898434469E-02 
1309	 3.89111119285635E-02 
1310	 3.89044877469949E-02 
1311	 3.88790891475264E-02 
1312	 3.88768807293807E-02 
1313	 3.88716941794853E-02 
1314	 3.88739427191062E-02 
1315	 0.038898160454755 
1316	 3.88990834903352E-02 
1317	 3.88882250789715E-02 
1318	 3.88810132117693E-02 
1319	 3.88637855255718E-02 
1320	 3.88592560377857E-02 
1321	 3.88642946255189E-02 
1322	 0.038860090943795 
1323	 3.88576106472871E-02 
1324	 3.88532805696631E-02 
1325	 3.88405557299395E-02 
1326	 3.88326307826501E-02 
1327	 3.88261497307155E-02 
1328	 3.88235958413044E-02 
1329	 3.88302139152292E-02 
1330	 3.88252705834286E-02 
1331	 3.88174665188673E-02 
1332	 3.88092633882207E-02 
1333	 0.038788870733582 
1334	 3.87729670622804E-02 
1335	 3.87650738551099E-02 
1336	 3.87664282155008E-02 
1337	 3.87585115747011E-02 
1338	 3.87515496456046E-02 
1339	 3.87423543305774E-02 
1340	 3.87264899700393E-02 
1341	 3.87188567792579E-02 
1342	 3.87147105018758E-02 
1343	 3.87114752921206E-02 
1344	 3.87147738136163E-02 
1345	 0.0387088425616 
1346	 3.87018046570022E-02 
1347	 0.038690448307338 
1348	 3.86678144019404E-02 
1349	 3.86551149377631E-02 
1350	 3.86453562974306E-02 
1351	 3.86362377056519E-02 
1352	 3.86337708185458E-02 
1353	 3.86263815604875E-02 
1354	 3.86164383291559E-02 
1355	 3.86053815506842E-02 
1356	 3.85898190149661E-02 
1357	 3.85785159147414E-02 
1358	 3.85726263432831E-02 
1359	 3.85612869713434E-02 
1360	 0.038546564227327 
1361	 3.85334302440343E-02 
1362	 3.85335796680724E-02 
1363	 3.85232215324459E-02 
1364	 0.038512328237555 
1365	 3.85077966354081E-02 
1366	 0.03849674602306 
1367	 0.038469796026575 
1368	 3.84635065718308E-02 
1369	 3.84742123757351E-02 
1370	 3.84655010120619E-02 
1371	 3.84561205645701E-02 
1372	 3.84429307992907E-02 
1373	 3.84143888983948E-02 
1374	 3.83986834983565E-02 
1375	 3.83908064898655E-02 
1376	 3.83781305303495E-02 
1377	 3.83616037197859E-02 
1378	 3.83533552088585E-02 
1379	 3.83537129844333E-02 
1380	 3.83442766747405E-02 
1381	 3.83370997364189E-02 
1382	 0.038325702943469 
1383	 3.83048581182738E-02 
1384	 3.82846743203192E-02 
1385	 3.82586992517129E-02 
1386	 3.82428882921847E-02 
1387	 3.82304870928367E-02 
1388	 0.038217823741971 
1389	 3.82162734442521E-02 
1390	 3.82096563656825E-02 
1391	 3.81981671746367E-02 
1392	 3.81860772016628E-02 
1393	 3.81755443235649E-02 
1394	 3.81598738044217E-02 
1395	 3.81532760601675E-02 
1396	 3.81534728390343E-02 
1397	 3.81406256602008E-02 
1398	 3.81270685680685E-02 
1399	 3.81129882571193E-02 
1400	 3.80855232675374E-02 
1401	 3.80721776062964E-02 
1402	 3.80738614670551E-02 
1403	 3.80595080129278E-02 
1404	 3.80383793976565E-02 
1405	 3.80231845646394E-02 
1406	 3.80059678670424E-02 
1407	 0.037985945983478 
1408	 0.03796636660808 
1409	 3.79493775864689E-02 
1410	 3.79300740227064E-02 
1411	 3.79098953338074E-02 
1412	 3.78934298421828E-02 
1413	 3.78774422467322E-02 
1414	 3.78534873527271E-02 
1415	 3.78381165908082E-02 
1416	 3.78340058467116E-02 
1417	 3.78238975445012E-02 
1418	 3.78172761524205E-02 
1419	 3.78032372674107E-02 
1420	 3.77814037725565E-02 
1421	 3.77623109251534E-02 
1422	 3.77363580215365E-02 
1423	 3.77179710153218E-02 
1424	 3.77067038992406E-02 
1425	 3.76935144222106E-02 
1426	 3.76900567362559E-02 
1427	 3.76699456879872E-02 
1428	 3.76364342947722E-02 
1429	 3.76176975093633E-02 
1430	 3.75944625249242E-02 
1431	 3.75649092801622E-02 
1432	 3.75458812085943E-02 
1433	 3.75351864673528E-02 
1434	 3.75189009084065E-02 
1435	 3.75082228128774E-02 
1436	 3.74843124336498E-02 
1437	 3.74528328325976E-02 
1438	 3.74235090218386E-02 
1439	 3.73832172286559E-02 
1440	 3.73555039861698E-02 
1441	 3.73360141633343E-02 
1442	 3.73122412915447E-02 
1443	 3.72872637559167E-02 
1444	 3.72703937562284E-02 
1445	 3.72501430299906E-02 
1446	 3.72445452569449E-02 
1447	 3.72499208027137E-02 
1448	 3.72608689481691E-02 
1449	 3.72864549269985E-02 
1450	 0.03730563511791 
1451	 3.73327837575149E-02 
1452	 3.73506647954208E-02 
1453	 3.73550958361473E-02 
1454	 3.73721838856763E-02 
1455	 3.73967947007036E-02 
1456	 3.74147894846788E-02 
1457	 3.74377601306761E-02 
1458	 3.74564596891436E-02 
1459	 3.74626394738226E-02 
1460	 3.74766917056631E-02 
1461	 3.74972628253685E-02 
1462	 3.75149612173206E-02 
1463	 3.75371204065146E-02 
1464	 3.75530579307664E-02 
1465	 3.75621495187404E-02 
1466	 3.75759576688093E-02 
1467	 3.75790363472576E-02 
1468	 3.75784208515346E-02 
1469	 3.75879955932965E-02 
1470	 3.75996835452936E-02 
1471	 3.76092807163932E-02 
1472	 3.76268325032704E-02 
1473	 3.76336912262331E-02 
1474	 3.76303479785539E-02 
1475	 3.76361837889266E-02 
1476	 3.76477170166569E-02 
1477	 3.76472903601869E-02 
1478	 3.76407163508878E-02 
1479	 3.76437078603267E-02 
1480	 3.76427499662839E-02 
1481	 3.76442850972134E-02 
1482	 3.76609710412929E-02 
1483	 3.76581177886031E-02 
1484	 3.76406465596795E-02 
1485	 3.76324019620211E-02 
1486	 3.76156803089414E-02 
1487	 3.76132617640234E-02 
1488	 3.76209923218793E-02 
1489	 3.76258880266004E-02 
1490	 3.76419691452975E-02 
1491	 3.76459169573261E-02 
1492	 3.76357562834093E-02 
1493	 3.76429039849494E-02 
1494	 3.76565595463087E-02 
1495	 0.037664833023009 
1496	 3.76794360572281E-02 
1497	 3.76951989716121E-02 
1498	 3.77105609548219E-02 
1499	 3.77189483089276E-02 
1500	 3.77219919517525E-02 
1501	 0.03773742536555 
1502	 3.77541246886356E-02 
1503	 3.77663971136011E-02 
1504	 3.77928308010771E-02 
1505	 3.78105969968773E-02 
1506	 3.78120136600942E-02 
1507	 3.78197333975552E-02 
1508	 3.78325993077389E-02 
1509	 3.78434862791382E-02 
1510	 3.78556301057303E-02 
1511	 3.78625377910276E-02 
1512	 0.037866979503929 
1513	 3.78704684578947E-02 
1514	 3.78649578836542E-02 
1515	 3.78655658420768E-02 
1516	 3.78686883588957E-02 
1517	 3.78740952256488E-02 
1518	 3.78904538728631E-02 
1519	 3.78965964730059E-02 
1520	 3.78966489045809E-02 
1521	 0.037898946987612 
1522	 3.78923784752536E-02 
1523	 3.78819910925503E-02 
1524	 0.037883810944014 
1525	 3.78924688745505E-02 
1526	 0.037895203099445 
1527	 3.79017314422227E-02 
1528	 3.79063565482633E-02 
1529	 3.79065120098551E-02 
1530	 3.79094598034952E-02 
1531	 3.79188599870586E-02 
1532	 3.79171246078656E-02 
1533	 3.79065435021403E-02 
1534	 3.79053483423931E-02 
1535	 0.037900732823628 
1536	 3.79057593314996E-02 
1537	 0.037922795183024 
1538	 3.79288014924054E-02 
1539	 3.79333494750042E-02 
1540	 3.79389332061064E-02 
1541	 3.79402201327946E-02 
1542	 3.79447447563066E-02 
1543	 3.79509691367248E-02 
1544	 3.79609536228321E-02 
1545	 3.79745062240777E-02 
1546	 3.79821696499162E-02 
1547	 3.79922131614042E-02 
1548	 3.79987811073805E-02 
1549	 3.79953103078425E-02 
1550	 3.80023607077736E-02 
1551	 3.80132000377599E-02 
1552	 3.80276961992821E-02 
1553	 3.80526232260331E-02 
1554	 3.80646006923135E-02 
1555	 3.80753430270289E-02 
1556	 3.80819092855467E-02 
1557	 3.80747162832769E-02 
1558	 0.038079287360881 
1559	 3.80861753625745E-02 
1560	 3.80982521858122E-02 
1561	 3.81236429430127E-02 
1562	 3.81329801917256E-02 
1563	 3.81346197795816E-02 
1564	 3.81434484096606E-02 
1565	 3.81481006304707E-02 
1566	 3.81519939063844E-02 
1567	 3.81636533125449E-02 
1568	 3.81693262888501E-02 
1569	 3.81639942799754E-02 
1570	 3.81656242400267E-02 
1571	 3.81717132188484E-02 
1572	 3.81766653751578E-02 
1573	 3.81807295323119E-02 
1574	 3.81871211187939E-02 
1575	 3.81963021346876E-02 
1576	 3.82041390442875E-02 
1577	 3.82140079941084E-02 
1578	 3.82205805752862E-02 
1579	 3.82231768439835E-02 
1580	 3.82291160835256E-02 
1581	 3.82351897201315E-02 
1582	 3.82416243566817E-02 
1583	 3.82530624512185E-02 
1584	 3.82586295710245E-02 
1585	 3.82561453093449E-02 
1586	 3.82617413851343E-02 
1587	 3.82740873242188E-02 
1588	 0.038277040927347 
1589	 3.82791699674183E-02 
1590	 3.82811791330824E-02 
1591	 3.82703472109839E-02 
1592	 3.82707437188933E-02 
1593	 3.82809135996051E-02 
1594	 3.82896747293934E-02 
1595	 3.83020592932026E-02 
1596	 0.038312544994568 
1597	 3.83242487230041E-02 
1598	 3.83334809377126E-02 
1599	 3.83443003309248E-02 
1600	 3.83491689523615E-02 
1601	 3.83431357425623E-02 
1602	 3.83480243682451E-02 
1603	 3.83557849296646E-02 
1604	 3.83615951806344E-02 
1605	 3.83767607419557E-02 
1606	 3.83860976845633E-02 
1607	 3.83887694947118E-02 
1608	 3.83928294240843E-02 
1609	 3.83946342984851E-02 
1610	 3.83983489410636E-02 
1611	 3.84004172433503E-02 
1612	 3.84061235972193E-02 
1613	 3.84200508906867E-02 
1614	 3.84278097342587E-02 
1615	 3.84316756928837E-02 
1616	 3.84384482310706E-02 
1617	 3.84426837920075E-02 
1618	 3.84483584994614E-02 
1619	 3.84616036352845E-02 
1620	 3.84666252624699E-02 
1621	 3.84604960723375E-02 
1622	 3.84651991961507E-02 
1623	 3.84738913543726E-02 
1624	 3.84792871305524E-02 
1625	 3.84914050260433E-02 
1626	 3.85000440022142E-02 
1627	 3.85031174847858E-02 
1628	 3.85064647582077E-02 
1629	 3.85138022453099E-02 
1630	 3.85158862597374E-02 
1631	 3.85087391514927E-02 
1632	 3.85069833232466E-02 
1633	 3.85082365131409E-02 
1634	 3.85041850854549E-02 
1635	 3.84937075186119E-02 
1636	 3.84959442520881E-02 
1637	 3.85018253700847E-02 
1638	 3.85076442870326E-02 
1639	 3.85306732615636E-02 
1640	 3.85392453386648E-02 
1641	 0.038533537702012 
1642	 3.85345821675189E-02 
1643	 3.85327473692627E-02 
1644	 3.85329118832052E-02 
1645	 3.85392018761226E-02 
1646	 0.038541800947819 
1647	 0.038539921177707 
1648	 3.85419715550636E-02 
1649	 3.85440682374701E-02 
1650	 3.85478370655187E-02 
1651	 3.85585856325676E-02 
1652	 3.85626604958294E-02 
1653	 3.85608459290436E-02 
1654	 3.85641142146673E-02 
1655	 3.85697178610569E-02 
1656	 0.038570935502491 
1657	 3.85659988091508E-02 
1658	 3.85724464199111E-02 
1659	 3.85852699663836E-02 
1660	 3.85907376109569E-02 
1661	 3.86090938919251E-02 
1662	 3.86141057405678E-02 
1663	 3.85952326116133E-02 
1664	 3.85923320354796E-02 
1665	 3.86002205482734E-02 
1666	 0.038596203031476 
1667	 3.85892608001686E-02 
1668	 3.85890563212919E-02 
1669	 3.85776915393525E-02 
1670	 3.85772229074606E-02 
1671	 3.86035839470874E-02 
1672	 3.86022758879009E-02 
1673	 3.85891667624688E-02 
1674	 3.85765966498952E-02 
1675	 3.85386347968512E-02 
1676	 3.85248114949632E-02 
1677	 3.85324420220488E-02 
1678	 3.85205404295098E-02 
1679	 3.85115025422047E-02 
1680	 3.84961049341987E-02 
1681	 3.84558536047433E-02 
1682	 3.84417932945175E-02 
1683	 3.84469252441718E-02 
1684	 3.84373801838956E-02 
1685	 3.84317866379719E-02 
1686	 3.84237331623817E-02 
1687	 3.84022407926873E-02 
1688	 3.83932559766133E-02 
1689	 3.83953628931518E-02 
1690	 0.038390319304645 
1691	 3.83880809593373E-02 
1692	 3.83813483999754E-02 
1693	 3.83671613866993E-02 
1694	 3.83596680565675E-02 
1695	 3.83554242642114E-02 
1696	 3.83406568047934E-02 
1697	 3.83189832894991E-02 
1698	 3.83140896813229E-02 
1699	 3.83145276584449E-02 
1700	 3.83091812351817E-02 
1701	 3.83153898908651E-02 
1702	 3.83122772183583E-02 
1703	 3.83008108130673E-02 
1704	 3.82730825010976E-02 
1705	 0.038232191610759 
1706	 3.81935637769377E-02 
1707	 3.81742528349346E-02 
1708	 3.81761934133973E-02 
1709	 3.81810721198582E-02 
1710	 3.81769980598102E-02 
1711	 3.81677701445887E-02 
1712	 3.81481378622464E-02 
1713	 3.81394371172425E-02 
1714	 3.81124117555013E-02 
1715	 3.80600113213538E-02 
1716	 3.80183165902413E-02 
1717	 3.79910461027489E-02 
1718	 3.79884640371056E-02 
1719	 3.79894483265093E-02 
1720	 3.79871916416255E-02 
1721	 3.79768325239774E-02 
1722	 3.79579967437863E-02 
1723	 3.79446634567343E-02 
1724	 3.79328167651972E-02 
1725	 3.79237609394992E-02 
1726	 3.79038871199121E-02 
1727	 3.78826467852167E-02 
1728	 0.037863891987785 
1729	 3.78334199293228E-02 
1730	 3.78246467962807E-02 
1731	 0.037834773161268 
1732	 3.78543671100121E-02 
1733	 3.78792760717497E-02 
1734	 3.78795154208332E-02 
1735	 3.78746264202976E-02 
1736	 3.78598920302764E-02 
1737	 0.037835166307456 
1738	 3.78239193927803E-02 
1739	 0.037818110976818 
1740	 3.78221968271851E-02 
1741	 3.78147228916756E-02 
1742	 3.78025282795623E-02 
1743	 0.037789864495217 
1744	 3.77625881426374E-02 
1745	 3.77577081674208E-02 
1746	 3.77722987649418E-02 
1747	 0.037776593203348 
1748	 3.77857694339756E-02 
1749	 3.77871942880766E-02 
1750	 3.77836444011126E-02 
1751	 3.77819136059759E-02 
1752	 3.77717333658775E-02 
1753	 3.77810920098854E-02 
1754	 3.77974161556219E-02 
1755	 3.78062120991071E-02 
1756	 3.78355107821613E-02 
1757	 3.78203717286597E-02 
1758	 3.78016274339633E-02 
1759	 3.77894358916122E-02 
1760	 3.77842302530164E-02 
1761	 3.77962948540018E-02 
1762	 3.78264340193975E-02 
1763	 3.78400437858577E-02 
1764	 3.78420523872877E-02 
1765	 3.78616014528397E-02 
1766	 3.78756305121881E-02 
1767	 3.78921219461711E-02 
1768	 3.79198986840521E-02 
1769	 3.79263928452489E-02 
1770	 3.79208960668888E-02 
1771	 3.79252809081966E-02 
1772	 3.79101911087671E-02 
1773	 3.78924794089313E-02 
1774	 3.78998779167487E-02 
1775	 3.79014178989162E-02 
1776	 3.79264847098157E-02 
1777	 3.79694138654799E-02 
1778	 3.79769676028391E-02 
1779	 3.79799743566337E-02 
1780	 0.037996441430712 
1781	 3.80045353563258E-02 
1782	 3.80310828827461E-02 
1783	 3.80804292444084E-02 
1784	 3.80857515808978E-02 
1785	 3.80644620736036E-02 
1786	 0.038068611781963 
1787	 3.80589093201729E-02 
1788	 3.80649021268316E-02 
1789	 3.81013274830521E-02 
1790	 3.81169956584062E-02 
1791	 3.81153961376418E-02 
1792	 3.81327388981442E-02 
1793	 3.81710165830366E-02 
1794	 3.81751225804146E-02 
1795	 3.81759482194097E-02 
1796	 3.81917068474113E-02 
1797	 3.81875891282307E-02 
1798	 3.82006781238035E-02 
1799	 3.82330991381279E-02 
1800	 3.82380454941713E-02 
1801	 3.99738036917797E-02 
1802	 0.039955141548335 
1803	 0.039958984631915 
1804	 3.99715126435246E-02 
1805	 0.039971300989958 
1806	 3.99810918870293E-02 
1807	 4.00110347665712E-02 
1808	 4.00225290083395E-02 
1809	 4.00165696802979E-02 
1810	 4.00272135844506E-02 
1811	 4.00443682231343E-02 
1812	 4.00530282591087E-02 
1813	 4.00567758551559E-02 
1814	 4.00834052281623E-02 
1815	 4.00887258718616E-02 
1816	 4.00845113168344E-02 
1817	 4.00891250319279E-02 
1818	 4.00963482609699E-02 
1819	 4.01009047818651E-02 
1820	 0.04010632310268 
1821	 4.01119519975537E-02 
1822	 4.01210121365502E-02 
1823	 4.01198503409688E-02 
1824	 4.01132985455898E-02 
1825	 0.04013297558904 
1826	 4.01459080779845E-02 
1827	 4.01610858292371E-02 
1828	 4.01757799957518E-02 
1829	 4.02000584287732E-02 
1830	 4.02076030049499E-02 
1831	 4.02083915320446E-02 
1832	 4.02019235688443E-02 
1833	 4.02028963751717E-02 
1834	 4.02114469748613E-02 
1835	 4.02120508120807E-02 
1836	 4.02235215441956E-02 
1837	 4.02262925712928E-02 
1838	 4.02137349030901E-02 
1839	 4.02124852629785E-02 
1840	 4.02221594261399E-02 
1841	 4.02253082578518E-02 
1842	 4.02260219103494E-02 
1843	 4.02250826258859E-02 
1844	 4.02445907912441E-02 
1845	 4.02527001304887E-02 
1846	 4.02514637506352E-02 
1847	 4.02653579453105E-02 
1848	 4.02702452750695E-02 
1849	 4.02586285545085E-02 
1850	 4.02521074250399E-02 
1851	 4.02456058210373E-02 
1852	 0.040253004579805 
1853	 4.02500980375599E-02 
1854	 4.02470789183667E-02 
1855	 4.02617149723184E-02 
1856	 4.02631689431694E-02 
1857	 4.02500842227431E-02 
1858	 4.02415229769689E-02 
1859	 4.02369303666046E-02 
1860	 4.02335316359904E-02 
1861	 4.02267871843579E-02 
1862	 4.02226467551999E-02 
1863	 4.02184139337672E-02 
1864	 0.040209927825059 
1865	 4.01914597466778E-02 
1866	 4.01727595638299E-02 
1867	 4.01541166434451E-02 
1868	 4.01248112451249E-02 
1869	 4.00925584251479E-02 
1870	 4.00613632707547E-02 
1871	 4.00215418000966E-02 
1872	 0.039993922404791 
1873	 3.99769351724108E-02 
1874	 3.99546410048919E-02 
1875	 3.99183394504165E-02 
1876	 3.98804534449733E-02 
1877	 3.98355318357221E-02 
1878	 3.97910726809135E-02 
1879	 0.03975562763837 
1880	 3.97176132915697E-02 
1881	 3.96781681829527E-02 
1882	 3.96364780150057E-02 
1883	 3.95925774858718E-02 
1884	 3.95367429060296E-02 
1885	 3.94966827830088E-02 
1886	 3.94705774340896E-02 
1887	 3.94144706448455E-02 
1888	 3.93604809698435E-02 
1889	 3.93158019035758E-02 
1890	 3.92421970958242E-02 
1891	 3.91648803738087E-02 
1892	 3.91061278259051E-02 
1893	 3.90400399053935E-02 
1894	 3.89632466170489E-02 
1895	 3.88912796048375E-02 
1896	 3.88402485237646E-02 
1897	 3.87683640773572E-02 
1898	 3.86969130993434E-02 
1899	 3.86345542887542E-02 
1900	 3.85677370933027E-02 
1901	 3.85074435461973E-02 
1902	 3.84431997224891E-02 
1903	 3.83776821947043E-02 
1904	 3.83152130833102E-02 
1905	 3.82496247978047E-02 
1906	 3.81831804907856E-02 
1907	 3.81229077178838E-02 
1908	 3.80672341338649E-02 
1909	 3.80047931493513E-02 
1910	 3.79370496348341E-02 
1911	 3.78593697132632E-02 
1912	 3.77858702973872E-02 
1913	 3.77149768872501E-02 
1914	 3.76368916595529E-02 
1915	 3.75710588215967E-02 
1916	 3.75209194024371E-02 
1917	 3.74658325030886E-02 
1918	 3.74059576513719E-02 
1919	 3.73509206631154E-02 
1920	 3.72906722945213E-02 
1921	 3.72224286268967E-02 
1922	 3.71412145212801E-02 
1923	 3.70685726085777E-02 
1924	 3.69941408175637E-02 
1925	 3.69140651595265E-02 
1926	 3.68458701052473E-02 
1927	 3.67865349785132E-02 
1928	 3.67204999589491E-02 
1929	 3.66552918573699E-02 
1930	 3.66030544593215E-02 
1931	 3.65308663966014E-02 
1932	 3.64671831033556E-02 
1933	 3.64126291738889E-02 
1934	 3.63553683793514E-02 
1935	 3.63254906877634E-02 
1936	 3.62990800655139E-02 
1937	 3.62698043687277E-02 
1938	 3.62435173720425E-02 
1939	 3.62273390372524E-02 
1940	 3.62108283942909E-02 
1941	 3.62028844108641E-02 
1942	 3.62077921143514E-02 
1943	 3.62135385723572E-02 
1944	 3.62199712881541E-02 
1945	 3.62314061608357E-02 
1946	 3.62588366218717E-02 
1947	 3.63008263310203E-02 
1948	 3.63401720852951E-02 
1949	 0.036389640621271 
1950	 0.036439423913104 
1951	 3.64887834601162E-02 
1952	 3.65401546798767E-02 
1953	 3.65916444405486E-02 
1954	 3.66560144990885E-02 
1955	 3.67279919705287E-02 
1956	 3.67982746986694E-02 
1957	 3.68789783590772E-02 
1958	 3.69525950671859E-02 
1959	 3.70042647814117E-02 
1960	 3.70606079981291E-02 
1961	 3.71172779038262E-02 
1962	 3.71679459315702E-02 
1963	 3.72200001411764E-02 
1964	 3.72836961975853E-02 
1965	 3.73295256651368E-02 
1966	 3.73618922464349E-02 
1967	 3.74028566555688E-02 
1968	 3.74399440341433E-02 
1969	 3.74598277536379E-02 
1970	 3.74831759056919E-02 
1971	 0.037512278322296 
1972	 3.75435104364331E-02 
1973	 3.75716835385062E-02 
1974	 3.75989073194669E-02 
1975	 3.76257518758981E-02 
1976	 0.037661624650984 
1977	 3.76974429914027E-02 
1978	 3.77361953331907E-02 
1979	 3.77879040279972E-02 
1980	 3.78322054234039E-02 
1981	 3.78701934146797E-02 
1982	 3.79183108895135E-02 
1983	 3.79774628696274E-02 
1984	 3.80275675481348E-02 
1985	 0.038065976089919 
1986	 3.81106538281385E-02 
1987	 3.81627366206448E-02 
1988	 3.82129307619165E-02 
1989	 3.82712867682116E-02 
1990	 3.83434432185963E-02 
1991	 3.84142093689819E-02 
1992	 3.84816946161272E-02 
1993	 3.85639865543552E-02 
1994	 3.86408877798228E-02 
1995	 3.87106884132746E-02 
1996	 3.87910813683369E-02 
1997	 3.88648596343787E-02 
1998	 3.89440713600527E-02 
1999	 3.90339122843739E-02 
2000	 3.91187218207783E-02 
2001	 3.92054955286807E-02 
2002	 3.92806817618661E-02 
2003	 3.93544614577753E-02 
2004	 3.94229268872661E-02 
2005	 3.94748997016119E-02 
2006	 3.95353847667481E-02 
2007	 3.95971876654682E-02 
2008	 3.96615556716723E-02 
2009	 3.97347972229948E-02 
2010	 0.039794628468147 
2011	 3.98406753984274E-02 
2012	 3.98854514201222E-02 
2013	 3.99277673012256E-02 
2014	 3.99514201892691E-02 
2015	 0.039993046206868 
2016	 4.00557052632125E-02 
2017	 4.00922375790294E-02 
2018	 4.01106181454714E-02 
2019	 4.01463026091564E-02 
2020	 4.01752957403578E-02 
2021	 4.02149641549122E-02 
2022	 4.02648784634942E-02 
2023	 0.040295326750839 
2024	 4.03072483721203E-02 
2025	 4.03115112388887E-02 
2026	 4.03278298137491E-02 
2027	 4.03422500935482E-02 
2028	 4.03682181458557E-02 
2029	 4.04110415256742E-02 
2030	 4.04385143011086E-02 
2031	 4.04720478567819E-02 
2032	 4.04915929779204E-02 
2033	 0.04049111145262 
2034	 4.05007674222111E-02 
2035	 4.05044475013061E-02 
2036	 4.05146354468106E-02 
2037	 0.040535294034166 
2038	 4.05560735702849E-02 
2039	 4.05739623403898E-02 
2040	 4.05940993399752E-02 
2041	 4.06076755508321E-02 
2042	 4.06127010293871E-02 
2043	 4.06288847370249E-02 
2044	 4.06492455481572E-02 
2045	 4.06665568951132E-02 
2046	 4.06861151430646E-02 
2047	 4.07077905807666E-02 
2048	 4.07260015719185E-02 
2049	 4.07486801461048E-02 
2050	 4.07792479139947E-02 
2051	 0.040810024555616 
2052	 0.040835444157522 
2053	 4.08487667338015E-02 
2054	 4.08696619185987E-02 
2055	 0.040893809986135 
2056	 4.09079086279201E-02 
2057	 4.09144873038791E-02 
2058	 4.09304018304563E-02 
2059	 4.09409237185328E-02 
2060	 4.09544095678708E-02 
2061	 4.09820734738578E-02 
2062	 4.10024761746249E-02 
2063	 4.10178864822709E-02 
2064	 4.10303624817427E-02 
2065	 4.10356378369065E-02 
2066	 4.10465656494995E-02 
2067	 4.10706495124016E-02 
2068	 0.04109111314183 
2069	 4.11071949228394E-02 
2070	 4.11353560104284E-02 
2071	 4.11451526897862E-02 
2072	 0.041126842835962 
2073	 0.041137661641641 
2074	 4.11598078471802E-02 
2075	 4.11791818832276E-02 
2076	 4.12139027440797E-02 
2077	 4.12375901135122E-02 
2078	 4.12512402264505E-02 
2079	 4.12692393819723E-02 
2080	 4.12867838613355E-02 
2081	 4.13054528934629E-02 
2082	 4.13266971031639E-02 
2083	 4.13495922141976E-02 
2084	 4.13660289166003E-02 
2085	 4.13761071777542E-02 
2086	 4.13842166084688E-02 
2087	 0.041379427133697 
2088	 4.13916265716244E-02 
2089	 4.14116923799069E-02 
2090	 4.14271443033405E-02 
2091	 4.14528538155567E-02 
2092	 4.14665970884079E-02 
2093	 4.14727991781341E-02 
2094	 4.14774105989581E-02 
2095	 4.14683969000514E-02 
2096	 4.14754420545744E-02 
2097	 4.14948883454639E-02 
2098	 4.14990369828381E-02 
2099	 4.15158388408248E-02 
2100	 4.15411027357748E-02 
2101	 0.041550676798634 
2102	 0.041546402882135 
2103	 4.15566320445562E-02 
2104	 4.15670013723028E-02 
2105	 4.15796462984022E-02 
2106	 4.16075715364494E-02 
2107	 4.16141924829009E-02 
2108	 4.15997993879876E-02 
2109	 4.16070676961167E-02 
2110	 4.16202690876533E-02 
2111	 4.16252679111943E-02 
2112	 0.041635998016865 
2113	 4.16512854144784E-02 
2114	 4.16612753107274E-02 
2115	 4.16693494621351E-02 
2116	 0.04169119642377 
2117	 0.041703052978908 
2118	 4.17085402587916E-02 
2119	 4.16951229479811E-02 
2120	 4.17021969243611E-02 
2121	 4.17157926365307E-02 
2122	 0.041727743544148 
2123	 4.17548581505131E-02 
2124	 4.17596518612964E-02 
2125	 4.17478800621441E-02 
2126	 4.17461863841956E-02 
2127	 4.17350188170472E-02 
2128	 4.17332452623075E-02 
2129	 4.17462239468806E-02 
2130	 4.17505616987929E-02 
2131	 4.17485838147706E-02 
2132	 4.17494193991118E-02 
2133	 4.17496498658324E-02 
2134	 4.17540480133758E-02 
2135	 4.17509231450064E-02 
2136	 4.17466342325938E-02 
2137	 4.17297906769379E-02 
2138	 0.041697156220749 
2139	 4.16741694981546E-02 
2140	 4.16430182116282E-02 
2141	 4.16271935908133E-02 
2142	 4.16212545209304E-02 
2143	 4.16121476908933E-02 
2144	 4.16131039877247E-02 
2145	 4.16028507169783E-02 
2146	 4.15968544650071E-02 
2147	 4.15730683636671E-02 
2148	 4.15243470785255E-02 
2149	 4.14946219431184E-02 
2150	 4.14678991617067E-02 
2151	 4.14326668506481E-02 
2152	 0.041392402837988 
2153	 4.13730712063973E-02 
2154	 4.13578802509733E-02 
2155	 4.13159113033049E-02 
2156	 4.12763804714698E-02 
2157	 4.12417301609295E-02 
2158	 4.12107523479399E-02 
2159	 4.11606202926569E-02 
2160	 4.11346781262594E-02 
2161	 4.11417864390957E-02 
2162	 4.11179189564976E-02 
2163	 4.10852855087245E-02 
2164	 0.041049863010521 
2165	 4.09984409742624E-02 
2166	 4.09582929660647E-02 
2167	 4.09220557688558E-02 
2168	 4.08823805934445E-02 
2169	 4.08419047263858E-02 
2170	 4.08057041207537E-02 
2171	 4.07602128647197E-02 
2172	 0.040730845606686 
2173	 4.07210580894888E-02 
2174	 4.07017508982107E-02 
2175	 0.040680897478059 
2176	 4.06817666038143E-02 
2177	 4.06637405060542E-02 
2178	 4.06361902027758E-02 
2179	 4.06147037830996E-02 
2180	 4.05992202704905E-02 
2181	 4.05626874728416E-02 
2182	 0.040503486754889 
2183	 4.04812194707377E-02 
2184	 4.04618226627107E-02 
2185	 4.04426714824745E-02 
2186	 4.04585339083054E-02 
2187	 4.04489892055342E-02 
2188	 4.04068513736498E-02 
2189	 4.03952404232142E-02 
2190	 4.04072855351064E-02 
2191	 4.03979906847581E-02 
2192	 4.03919114338109E-02 
2193	 4.03791324716444E-02 
2194	 4.03451012091024E-02 
2195	 4.03212540280065E-02 
2196	 0.040308290528462 
2197	 4.02796828252687E-02 
2198	 4.02645047982969E-02 
2199	 4.02612553424618E-02 
2200	 0.040252587656961 
2201	 4.02530993784278E-02 
2202	 4.02400855680998E-02 
2203	 4.02162960232251E-02 
2204	 4.02043983809396E-02 
2205	 4.01970311703349E-02 
2206	 4.01816486374632E-02 
2207	 4.01723989860185E-02 
2208	 4.01502689793245E-02 
2209	 4.01031160434035E-02 
2210	 4.00829353264748E-02 
2211	 4.00645266405301E-02 
2212	 4.00614667770728E-02 
2213	 4.00895504398536E-02 
2214	 4.00984415116839E-02 
2215	 4.01065374541736E-02 
2216	 4.01113310415282E-02 
2217	 4.01013814925505E-02 
2218	 4.01040193507631E-02 
2219	 4.01181766822975E-02 
2220	 4.01295316860296E-02 
2221	 4.01543264795208E-02 
2222	 4.01521432959851E-02 
2223	 4.01677971517748E-02 
2224	 4.01764124500234E-02 
2225	 4.01727209734307E-02 
2226	 4.01880951606636E-02 
2227	 4.02010948719384E-02 
2228	 4.02083625835127E-02 
2229	 4.02252472238231E-02 
2230	 4.02572737264311E-02 
2231	 4.02765252067463E-02 
2232	 4.02912976786177E-02 
2233	 4.03068488230886E-02 
2234	 4.03221301254777E-02 
2235	 4.03359038280525E-02 
2236	 4.03588858944117E-02 
2237	 4.03567298943902E-02 
2238	 4.03324090472024E-02 
2239	 4.03222042505306E-02 
2240	 4.02987623962871E-02 
2241	 4.02850873349677E-02 
2242	 4.02937775994327E-02 
2243	 4.02852564101793E-02 
2244	 4.02697956223367E-02 
2245	 4.02489525196409E-02 
2246	 4.02099019038045E-02 
2247	 4.01896075723656E-02 
2248	 4.01706805845485E-02 
2249	 4.01552575382874E-02 
2250	 4.01635466197015E-02 
2251	 4.01527963398484E-02 
2252	 4.01403860956394E-02 
2253	 4.01399629367643E-02 
2254	 4.00964818199708E-02 
2255	 4.00423330845632E-02 
2256	 0.040014090154899 
2257	 3.99696357640994E-02 
2258	 3.99507535707364E-02 
2259	 3.99856838482632E-02 
2260	 3.99609551415252E-02 
2261	 3.99004480895063E-02 
2262	 3.98724070011263E-02 
2263	 0.039832766500895 
2264	 3.98093428725623E-02 
2265	 3.98165792499037E-02 
2266	 3.98020014975229E-02 
2267	 3.97657889071955E-02 
2268	 3.97560664530611E-02 
2269	 0.039759841847459 
2270	 3.97633037881931E-02 
2271	 3.97887859497814E-02 
2272	 3.97990384549135E-02 
2273	 0.039797784805661 
2274	 3.97938494084705E-02 
2275	 3.97916952397089E-02 
2276	 3.97775940662858E-02 
2277	 3.97370326391689E-02 
2278	 3.97285486847166E-02 
2279	 3.97342224783504E-02 
2280	 3.97334217149334E-02 
2281	 3.97655773585208E-02 
2282	 0.03976736724926 
2283	 0.039737067423457 
2284	 3.97163009382644E-02 
2285	 3.97125629895566E-02 
2286	 3.96915079670571E-02 
2287	 3.96810445963604E-02 
2288	 3.96830530522354E-02 
2289	 3.96581770292643E-02 
2290	 3.96426013045558E-02 
2291	 3.96579486459165E-02 
2292	 3.96515363207814E-02 
2293	 3.96482008577638E-02 
2294	 3.96349430974349E-02 
2295	 3.95928668324744E-02 
2296	 0.039585586873286 
2297	 3.95812761599963E-02 
2298	 3.95762692188763E-02 
2299	 3.95972379838026E-02 
2300	 3.96476000952985E-02 
2301	 3.96676270402565E-02 
2302	 3.96987180210741E-02 
2303	 3.97105167249155E-02 
2304	 3.96963396525139E-02 
2305	 3.97068769452812E-02 
2306	 3.97231256899527E-02 
2307	 3.97401133488559E-02 
2308	 3.97521359881499E-02 
2309	 3.97794501652899E-02 
2310	 3.98051110486427E-02 
2311	 3.98515889650722E-02 
2312	 0.039945870401012 
2313	 4.00002470440643E-02 
2314	 4.00480776540297E-02 
2315	 4.00888335963292E-02 
2316	 4.00952503485143E-02 
2317	 4.01240478122484E-02 
2318	 4.01669223435906E-02 
2319	 4.02026571846045E-02 
2320	 4.02408389348046E-02 
2321	 0.040275806302216 
2322	 4.03103554870771E-02 
2323	 0.040337773949493 
2324	 0.040357311183301 
2325	 4.03796275674695E-02 
2326	 4.04059048453271E-02 
2327	 4.04306033960539E-02 
2328	 4.04461236070518E-02 
2329	 4.04595837076617E-02 
2330	 4.04873578121706E-02 
2331	 4.04801277274613E-02 
2332	 4.04271903871526E-02 
2333	 4.04518929272724E-02 
2334	 4.04692439348361E-02 
2335	 4.04510999397415E-02 
2336	 4.05050203875537E-02 
2337	 4.05641943852236E-02 
2338	 4.05439152726307E-02 
2339	 4.05250344178863E-02 
2340	 4.05060319260203E-02 
2341	 4.04332972960516E-02 
2342	 4.04314592946818E-02 
2343	 4.04731001854593E-02 
2344	 4.04491435163477E-02 
2345	 4.04433526637978E-02 
2346	 4.04422795591388E-02 
2347	 4.04356030097255E-02 
2348	 4.04913130307305E-02 
2349	 4.05261745970469E-02 
2350	 4.05317871361532E-02 
2351	 4.05553027860078E-02 
2352	 0.04054487332753 
2353	 0.040564845187976 
2354	 4.05737233971511E-02 
2355	 4.05683028746944E-02 
2356	 4.05996270982457E-02 
2357	 4.05609161014842E-02 
2358	 4.05976084186658E-02 
2359	 4.07031997947299E-02 
2360	 0.040719943901074 
2361	 4.07752724664035E-02 
2362	 0.040791721314328 
2363	 4.07016448356736E-02 
2364	 4.06449694756505E-02 
2365	 4.06484052414802E-02 
2366	 0.040692914532994 
2367	 4.06927653176169E-02 
2368	 4.06829793077938E-02 
2369	 4.07255972454343E-02 
2370	 4.07003305127321E-02 
2371	 4.06834485579469E-02 
2372	 4.07168359176205E-02 
2373	 4.06508962446256E-02 
2374	 4.06194398817826E-02 
2375	 4.06585103760297E-02 
2376	 4.06071383905981E-02 
2377	 4.05244179606776E-02 
2378	 4.04400268500119E-02 
2379	 4.03689798285008E-02 
2380	 0.040368518178512 
2381	 4.04095116163253E-02 
2382	 4.04214357905645E-02 
2383	 4.04490942384369E-02 
2384	 4.04301138724327E-02 
2385	 4.03650291343514E-02 
2386	 4.03323948227273E-02 
2387	 4.02898720224435E-02 
2388	 4.02556798110863E-02 
2389	 4.02453640237593E-02 
2390	 0.040217813863834 
2391	 4.01769656370702E-02 
2392	 0.04017245394424 
2393	 4.01995209333022E-02 
2394	 4.01588610949836E-02 
2395	 4.00841448539435E-02 
2396	 4.00349734097853E-02 
2397	 0.039951885778653 
2398	 3.99167654277812E-02 
2399	 3.99411706689136E-02 
2400	 3.99507093161412E-02 
2401	 3.99585074058749E-02 
2402	 0.03989064208053 
2403	 3.98665751536974E-02 
2404	 0.039870500234089 
2405	 3.98178190229567E-02 
2406	 3.98122877821157E-02 
2407	 3.98589034315779E-02 
2408	 3.97872236321525E-02 
2409	 3.97161974017299E-02 
2410	 3.96820828090908E-02 
2411	 3.95792325886119E-02 
2412	 3.94839446536765E-02 
2413	 3.94819953114348E-02 
2414	 3.94857716235693E-02 
2415	 3.95265050720673E-02 
2416	 3.96032153588691E-02 
2417	 3.95429376837702E-02 
2418	 3.95274201576129E-02 
2419	 3.95532776751548E-02 
2420	 0.039480381339288 
2421	 3.95414286978796E-02 
2422	 0.039613078319082 
2423	 3.95254128119763E-02 
2424	 3.94319134621755E-02 
2425	 0.039365521883484 
2426	 3.93230147364764E-02 
2427	 3.92868921967858E-02 
2428	 3.93586596561728E-02 
2429	 3.94585470433998E-02 
2430	 3.93853224260651E-02 
2431	 3.93393075383165E-02 
2432	 3.93590152620853E-02 
2433	 3.92709781570297E-02 
2434	 0.039148347404763 
2435	 0.039157381960923 
2436	 3.91256122832369E-02 
2437	 3.90833364027852E-02 
2438	 3.92010475733291E-02 
2439	 3.91732099765634E-02 
2440	 3.90993368327149E-02 
2441	 3.91422545229325E-02 
2442	 3.91523918858482E-02 
2443	 3.92015752497874E-02 
2444	 3.92965258776652E-02 
2445	 3.93124753496985E-02 
2446	 3.92179910003098E-02 
2447	 3.91245389401795E-02 
2448	 3.91806899346724E-02 
2449	 3.92265152614683E-02 
2450	 3.92018160271299E-02 
2451	 3.92801319532043E-02 
2452	 3.91384835793163E-02 
2453	 3.88756262509848E-02 
2454	 3.89813567543244E-02 
2455	 3.90847186478013E-02 
2456	 3.90834531628731E-02 
2457	 3.91542169518184E-02 
2458	 3.89912091923857E-02 
2459	 0.038804695529701 
2460	 3.87472536409511E-02 
2461	 3.86926261232088E-02 
2462	 3.87377782173877E-02 
2463	 3.88069241937501E-02 
2464	 3.88585695243424E-02 
2465	 3.89004385983698E-02 
2466	 3.88962524305396E-02 
2467	 3.88347015097297E-02 
2468	 3.88357747474466E-02 
2469	 3.89770943638662E-02 
2470	 3.90307545094777E-02 
2471	 0.039002238375979 
2472	 3.89953335609822E-02 
2473	 3.88776398275289E-02 
2474	 3.87987049787957E-02 
2475	 3.87806050447795E-02 
2476	 3.87470488969752E-02 
2477	 3.86857419832285E-02 
2478	 3.85684460282484E-02 
2479	 3.86140531725418E-02 
2480	 3.87234675864962E-02 
2481	 0.038740833215063 
2482	 3.88294766210609E-02 
2483	 3.88098059378251E-02 
2484	 3.86913266139033E-02 
2485	 3.85935856925351E-02 
2486	 3.84873159704233E-02 
2487	 3.85545916212786E-02 
2488	 0.038751612636898 
2489	 3.87520310451724E-02 
2490	 3.89475828388155E-02 
2491	 3.90542308712794E-02 
2492	 3.87541878643927E-02 
2493	 3.84724420378009E-02 
2494	 3.82930056497637E-02 
2495	 3.80769416121131E-02 
2496	 3.81481029071709E-02 
2497	 3.85483366035607E-02 
2498	 3.86124941064174E-02 
2499	 3.86856773996206E-02 
2500	 3.87618417132524E-02 
