Wavelength	spectrum00014.asd
350	 6.55898225202086E-02 
351	 6.58014261902601E-02 
352	 6.44696467379823E-02 
353	 6.24248206875252E-02 
354	 6.52308390405791E-02 
355	 6.60290269372887E-02 
356	 6.48499056285934E-02 
357	 0.063182412320496 
358	 6.14192308786068E-02 
359	 6.18539888475897E-02 
360	 6.31138331751548E-02 
361	 6.24947394447572E-02 
362	 6.33261821836794E-02 
363	 6.32456942326742E-02 
364	 6.17736474277137E-02 
365	 6.14875957269081E-02 
366	 6.30377241399576E-02 
367	 6.37163852134239E-02 
368	 6.20443306201276E-02 
369	 6.31900508931242E-02 
370	 6.42159492105969E-02 
371	 6.44586561888444E-02 
372	 6.46320015236713E-02 
373	 0.064858160621391 
374	 6.57166381216793E-02 
375	 0.067006723967364 
376	 6.74157798465877E-02 
377	 6.77600197102911E-02 
378	 6.75930629740136E-02 
379	 0.066796752381393 
380	 6.72838097276207E-02 
381	 6.89996624378194E-02 
382	 7.05220407516356E-02 
383	 7.00996177360139E-02 
384	 7.08931582506855E-02 
385	 7.17080158743157E-02 
386	 7.17709855260792E-02 
387	 7.16720988723362E-02 
388	 0.072557608345631 
389	 7.37471621043901E-02 
390	 7.42600405647946E-02 
391	 7.40489366164307E-02 
392	 7.40751719598498E-02 
393	 7.46828839851772E-02 
394	 7.56670996629294E-02 
395	 7.60077885895937E-02 
396	 7.65041234269237E-02 
397	 7.73821862282477E-02 
398	 7.75294691268187E-02 
399	 7.75394010127082E-02 
400	 7.78737139201639E-02 
401	 7.86490599536965E-02 
402	 7.87552625319185E-02 
403	 0.07899244352532 
404	 7.94599264565475E-02 
405	 0.07971650202054 
406	 8.01182173924309E-02 
407	 8.05430525751733E-02 
408	 8.09088679786804E-02 
409	 8.13959123764034E-02 
410	 0.081262648957122 
411	 8.13189941636509E-02 
412	 8.23820746131121E-02 
413	 8.26917573500452E-02 
414	 8.26820341933519E-02 
415	 8.28009387211534E-02 
416	 8.33586051068046E-02 
417	 8.40016565343114E-02 
418	 8.45034463418977E-02 
419	 8.47571503982278E-02 
420	 8.47787471441252E-02 
421	 8.51817260656351E-02 
422	 0.085802654678228 
423	 8.62248250354589E-02 
424	 8.67616958476805E-02 
425	 8.73360796816586E-02 
426	 8.79106164446696E-02 
427	 8.85271557736003E-02 
428	 8.89573737448378E-02 
429	 8.94484541055104E-02 
430	 9.01420092302975E-02 
431	 9.05023140207447E-02 
432	 9.11492993606276E-02 
433	 9.19783005936089E-02 
434	 0.092536788605353 
435	 0.093268249183771 
436	 9.40108944330932E-02 
437	 9.46541786486915E-02 
438	 9.52570209365165E-02 
439	 9.60418762101708E-02 
440	 9.69330850472788E-02 
441	 9.77750238805959E-02 
442	 9.85190641384117E-02 
443	 9.92188563668686E-02 
444	 9.98715781606239E-02 
445	 0.100435271936045 
446	 0.100976524478987 
447	 0.101633326129378 
448	 0.102415458620636 
449	 0.103018931721412 
450	 0.103749974958261 
451	 0.104529521744433 
452	 0.105166409262061 
453	 0.105760692056707 
454	 0.106364206459054 
455	 0.106960384270811 
456	 0.107465395154592 
457	 0.108013287667846 
458	 0.108575686245913 
459	 0.109106148014613 
460	 0.109621778878737 
461	 0.110106651958943 
462	 0.110514366698879 
463	 0.110818965234382 
464	 0.111308321141261 
465	 0.111795835935399 
466	 0.112141314223797 
467	 0.112353654906015 
468	 0.112689787974093 
469	 0.113089654963708 
470	 0.11344431521928 
471	 0.113911800970754 
472	 0.114205952666206 
473	 0.114391227033379 
474	 0.114788877334328 
475	 0.11500956840772 
476	 0.115216061812639 
477	 0.115546534277416 
478	 0.11589472784286 
479	 0.116228795119431 
480	 0.11654563633205 
481	 0.116859746064347 
482	 0.117174135178362 
483	 0.117552660869137 
484	 0.117960170399805 
485	 0.118249028501782 
486	 0.118646400123871 
487	 0.11905766126466 
488	 0.119384746159899 
489	 0.119750780804777 
490	 0.120187547577395 
491	 0.120647594786678 
492	 0.121052359790722 
493	 0.121527800751523 
494	 0.122012474372006 
495	 0.122481033454388 
496	 0.123004538925473 
497	 0.123546407833551 
498	 0.124114640984898 
499	 0.124726775147416 
500	 0.125396094444162 
501	 0.126050848712514 
502	 0.126674667578681 
503	 0.127307618254105 
504	 0.128049300572147 
505	 0.128806536449598 
506	 0.129509338349501 
507	 0.130233002023623 
508	 0.130948186809651 
509	 0.13163403294317 
510	 0.132292074024303 
511	 0.133054747522071 
512	 0.133849544143089 
513	 0.134610788452106 
514	 0.135310258505055 
515	 0.135987460267138 
516	 0.13669479397087 
517	 0.137449274674264 
518	 0.138134305190575 
519	 0.138842828831413 
520	 0.139580422442893 
521	 0.140287972644187 
522	 0.14093790361647 
523	 0.141559150657038 
524	 0.142173599648405 
525	 0.142768751883276 
526	 0.143384976084081 
527	 0.14400379965347 
528	 0.144590551754623 
529	 0.145154843906527 
530	 0.145692107629393 
531	 0.14622383212404 
532	 0.146795050319485 
533	 0.147261914699814 
534	 0.147676056177514 
535	 0.148109792561266 
536	 0.148566976576803 
537	 0.148990926222183 
538	 0.149374017301113 
539	 0.1497358719645 
540	 0.150051120620548 
541	 0.150380091154553 
542	 0.150722748461174 
543	 0.150965878510717 
544	 0.151197368191893 
545	 0.151434931227294 
546	 0.151685167963276 
547	 0.152006613432625 
548	 0.152316727294284 
549	 0.15261549861028 
550	 0.152977267394984 
551	 0.153331035950226 
552	 0.153697335777024 
553	 0.154090524620943 
554	 0.154469528908583 
555	 0.154807031880028 
556	 0.155124879265596 
557	 0.155457056021608 
558	 0.155720996812568 
559	 0.155981706957332 
560	 0.156245844022742 
561	 0.156423152447525 
562	 0.156450228294558 
563	 0.156374406118105 
564	 0.15626342796043 
565	 0.156107058156535 
566	 0.155964781078329 
567	 0.155854185104373 
568	 0.155765273071825 
569	 0.155775175340629 
570	 0.155886406856021 
571	 0.156057080387151 
572	 0.156185742880543 
573	 0.156281897956187 
574	 0.156309128254929 
575	 0.15622925246068 
576	 0.156079341918537 
577	 0.155828015799272 
578	 0.155509562487563 
579	 0.155235196317309 
580	 0.155045266004534 
581	 0.154932992500788 
582	 0.15487058009775 
583	 0.154828390110148 
584	 0.15474993056202 
585	 0.15466015444848 
586	 0.154622152730833 
587	 0.154550851435858 
588	 0.154453635997047 
589	 0.15436549622179 
590	 0.1543489246448 
591	 0.154319015756951 
592	 0.154280530919787 
593	 0.154262923923858 
594	 0.154278385790232 
595	 0.15426286237365 
596	 0.154193195614092 
597	 0.154087926139518 
598	 0.153986760811944 
599	 0.153890663357457 
600	 0.153793691190974 
601	 0.153693574191923 
602	 0.153609435375102 
603	 0.153518556850824 
604	 0.153395729921908 
605	 0.153329075593256 
606	 0.153275349695069 
607	 0.153214694951025 
608	 0.153170462103641 
609	 0.153082786907809 
610	 0.152975304232077 
611	 0.152887010103078 
612	 0.152836250973399 
613	 0.152762516153268 
614	 0.152663746414508 
615	 0.15257736870145 
616	 0.152516485322715 
617	 0.152446253332485 
618	 0.152349446037328 
619	 0.152249852672669 
620	 0.15216460417449 
621	 0.152081122340999 
622	 0.151987161004542 
623	 0.151932073706796 
624	 0.151858836553707 
625	 0.15176821471986 
626	 0.151714697544851 
627	 0.15164152579894 
628	 0.15153076518264 
629	 0.151405908579301 
630	 0.151378211210159 
631	 0.151333468489167 
632	 0.151273399873777 
633	 0.151238789797659 
634	 0.151156800300142 
635	 0.151064570157663 
636	 0.150992000920173 
637	 0.150947802537791 
638	 0.150870030457036 
639	 0.150791728799049 
640	 0.150741425143329 
641	 0.150647751146882 
642	 0.150566848228007 
643	 0.150521520739751 
644	 0.150501540836898 
645	 0.150408560769122 
646	 0.150303186653867 
647	 0.150235095683368 
648	 0.150203785956372 
649	 0.150161297274628 
650	 0.15009372178345 
651	 0.150007100919585 
652	 0.149933482865313 
653	 0.149861043930508 
654	 0.1497860648784 
655	 0.149713667840912 
656	 0.14966101574465 
657	 0.149631524595262 
658	 0.149610320447714 
659	 0.14954602688087 
660	 0.149516804255477 
661	 0.149470486644704 
662	 0.149347543715356 
663	 0.149331526933555 
664	 0.149280174383307 
665	 0.149175949160524 
666	 0.149141190398892 
667	 0.149104640278583 
668	 0.149079657900963 
669	 0.149066701167202 
670	 0.148989722835333 
671	 0.148913026423802 
672	 0.148860995991036 
673	 0.148833920945503 
674	 0.148807917973122 
675	 0.148764723352874 
676	 0.14871033058121 
677	 0.148677872727013 
678	 0.148650244060442 
679	 0.148613273484721 
680	 0.148575088874655 
681	 0.148620699075128 
682	 0.148587099450008 
683	 0.14850812947856 
684	 0.148512793682769 
685	 0.148531556366346 
686	 0.148533989677441 
687	 0.148507830989042 
688	 0.148460105063315 
689	 0.148450181231514 
690	 0.148454765724018 
691	 0.148445730630863 
692	 0.148464615424823 
693	 0.148490638258115 
694	 0.148514371572138 
695	 0.148533790020795 
696	 0.148538596405881 
697	 0.148555973070491 
698	 0.148590726179552 
699	 0.14860548159286 
700	 0.148643380839675 
701	 0.148689340347564 
702	 0.148726299633538 
703	 0.148800133506861 
704	 0.148853903102302 
705	 0.14886961033679 
706	 0.14886992034696 
707	 0.148973164355939 
708	 0.149111889349896 
709	 0.149210963424115 
710	 0.149222634806931 
711	 0.149301476753559 
712	 0.149424189410904 
713	 0.149527595655209 
714	 0.149631053826385 
715	 0.149745632336704 
716	 0.149851689707033 
717	 0.149920847749203 
718	 0.150081426469533 
719	 0.150257837716506 
720	 0.150393945255313 
721	 0.150514302177463 
722	 0.150645624132895 
723	 0.150779705313668 
724	 0.150910684093684 
725	 0.151090635350903 
726	 0.151290600948479 
727	 0.151479213556898 
728	 0.15163274843037 
729	 0.151803390914511 
730	 0.151994599305628 
731	 0.152200502768071 
732	 0.152413025393121 
733	 0.152625102027638 
734	 0.152848959860095 
735	 0.153095053348068 
736	 0.153343851275835 
737	 0.153594990884588 
738	 0.153848441615324 
739	 0.15410286234665 
740	 0.15434532438206 
741	 0.15458483587473 
742	 0.154829400957593 
743	 0.15508128922228 
744	 0.155333894466293 
745	 0.15561356520452 
746	 0.155934512563805 
747	 0.156246819829669 
748	 0.156531373732487 
749	 0.156818931034622 
750	 0.15715469310018 
751	 0.157448951917737 
752	 0.157761197960761 
753	 0.158099983362301 
754	 0.158390188520863 
755	 0.158708363386765 
756	 0.159071135343254 
757	 0.159454735091888 
758	 0.159761794359959 
759	 0.160076858419515 
760	 0.160419815274513 
761	 0.1607775373104 
762	 0.161144536494792 
763	 0.161504225488319 
764	 0.161852581016267 
765	 0.162201115219421 
766	 0.162573669646135 
767	 0.162941368666282 
768	 0.163288844330281 
769	 0.163656185887793 
770	 0.164027811842291 
771	 0.164384170697569 
772	 0.164717037270896 
773	 0.165082375715214 
774	 0.165446440773826 
775	 0.165800436298981 
776	 0.16616050713656 
777	 0.166539959673614 
778	 0.166927195488581 
779	 0.167297708290574 
780	 0.16761153675605 
781	 0.167938082772247 
782	 0.168293146327006 
783	 0.168661800183218 
784	 0.16898667310586 
785	 0.169305177406242 
786	 0.169628786578486 
787	 0.16995027561607 
788	 0.170250383809121 
789	 0.17053867704091 
790	 0.170825724057593 
791	 0.171119200770428 
792	 0.171404604320089 
793	 0.171678089340708 
794	 0.171945218323018 
795	 0.172231705089819 
796	 0.172473353182062 
797	 0.172700184373612 
798	 0.172959192406233 
799	 0.173192584936491 
800	 0.173418344246853 
801	 0.173633408504416 
802	 0.173821605194388 
803	 0.17402945366481 
804	 0.174213466222471 
805	 0.174371293215309 
806	 0.174577974581291 
807	 0.174739615519107 
808	 0.174872394391116 
809	 0.175007245308088 
810	 0.175127033200983 
811	 0.175275606977528 
812	 0.175413664063346 
813	 0.175488072457125 
814	 0.175594266514474 
815	 0.175711254217639 
816	 0.175807559897431 
817	 0.175856047538021 
818	 0.17591639597579 
819	 0.175974778245851 
820	 0.176019318673913 
821	 0.176060565193043 
822	 0.176093242182367 
823	 0.176122788178808 
824	 0.176156464384287 
825	 0.176204746343921 
826	 0.176200856708549 
827	 0.176160664403815 
828	 0.176139703901376 
829	 0.176165052663727 
830	 0.176179919467737 
831	 0.176164869189115 
832	 0.176137535039697 
833	 0.176075957878483 
834	 0.176021702351482 
835	 0.175996793404991 
836	 0.175979458113209 
837	 0.175935105303684 
838	 0.175878844301083 
839	 0.175824535711422 
840	 0.17573882410936 
841	 0.175669723052856 
842	 0.175619675941724 
843	 0.175562513964724 
844	 0.175433796998184 
845	 0.17534963407098 
846	 0.175321325526652 
847	 0.175273790166226 
848	 0.175165597740971 
849	 0.175052405902679 
850	 0.174960779124141 
851	 0.174865572344897 
852	 0.174798368453381 
853	 0.174747713861786 
854	 0.1746891724495 
855	 0.174591405788977 
856	 0.17448286389193 
857	 0.174384576645473 
858	 0.174308431144793 
859	 0.174247859689413 
860	 0.174154712922096 
861	 0.174056203097202 
862	 0.174003660633121 
863	 0.173934140378615 
864	 0.173865000389786 
865	 0.173786869963733 
866	 0.173672179461856 
867	 0.173588243326172 
868	 0.173544027337973 
869	 0.173506180506034 
870	 0.173403012906091 
871	 0.173361604383301 
872	 0.17332875348822 
873	 0.173254567605707 
874	 0.173183952058726 
875	 0.173150792735474 
876	 0.173133573748338 
877	 0.173098396790673 
878	 0.173040198495647 
879	 0.17301007494284 
880	 0.172994622383386 
881	 0.172956032742547 
882	 0.172917262745158 
883	 0.172879095711552 
884	 0.172859772509666 
885	 0.172882142397225 
886	 0.172894022524837 
887	 0.172907149955017 
888	 0.172929340957177 
889	 0.172954477775219 
890	 0.172972774274076 
891	 0.172965306332241 
892	 0.172943680601122 
893	 0.172969363634423 
894	 0.17302990880771 
895	 0.173070637166757 
896	 0.173070653975834 
897	 0.173124618128152 
898	 0.173166947227617 
899	 0.173216243794025 
900	 0.173299637774832 
901	 0.173365991493541 
902	 0.173441600848084 
903	 0.17353118891313 
904	 0.173630702520099 
905	 0.173759537198193 
906	 0.173852985770401 
907	 0.173918648559082 
908	 0.174015400850795 
909	 0.174134745150049 
910	 0.174263485558224 
911	 0.17437412950163 
912	 0.174438797682122 
913	 0.174564415063698 
914	 0.174688617514972 
915	 0.17480484703802 
916	 0.175009497384444 
917	 0.175159726252266 
918	 0.175290086781366 
919	 0.175440693756832 
920	 0.17559116030135 
921	 0.175716496665038 
922	 0.175831373290323 
923	 0.175965178615933 
924	 0.176153039576767 
925	 0.176358113561981 
926	 0.176558592547534 
927	 0.176738780949362 
928	 0.17688051322586 
929	 0.177051444832159 
930	 0.177224885247761 
931	 0.177355840108513 
932	 0.177500955870322 
933	 0.177727597028621 
934	 0.177984498759015 
935	 0.178171982204955 
936	 0.178305391147719 
937	 0.178538727750119 
938	 0.178807699384558 
939	 0.178931552012248 
940	 0.179062286705752 
941	 0.179254523663411 
942	 0.179471258541055 
943	 0.1796279137177 
944	 0.179890369938877 
945	 0.180094492070749 
946	 0.180234688828544 
947	 0.180484077963861 
948	 0.180636315706519 
949	 0.180786436914955 
950	 0.181001258113599 
951	 0.181248290220585 
952	 0.181421273112507 
953	 0.181574280263419 
954	 0.181757426357422 
955	 0.181966956458762 
956	 0.182260824945028 
957	 0.18250534726637 
958	 0.182634688674498 
959	 0.182765516169774 
960	 0.182910455033865 
961	 0.183098864433549 
962	 0.183342623746609 
963	 0.183622605168722 
964	 0.183784309740397 
965	 0.183913359433638 
966	 0.184106082655835 
967	 0.184324930260659 
968	 0.184521466481099 
969	 0.184696806277025 
970	 0.184876875371888 
971	 0.18510435672601 
972	 0.185311694583536 
973	 0.185493092831357 
974	 0.185672563364882 
975	 0.185897454227416 
976	 0.186077983130161 
977	 0.186282432842286 
978	 0.186540538495302 
979	 0.186597902757501 
980	 0.186776495496074 
981	 0.186987671378576 
982	 0.187085550075449 
983	 0.187208169325455 
984	 0.187450333359059 
985	 0.187717863110616 
986	 0.187895543755883 
987	 0.188054476866145 
988	 0.188203732361698 
989	 0.188371013288928 
990	 0.188546750742171 
991	 0.188581332889044 
992	 0.188684616405614 
993	 0.188903398006716 
994	 0.189176256867939 
995	 0.189336030148972 
996	 0.189439886170968 
997	 0.189539962552862 
998	 0.189684531513271 
999	 0.189917799983008 
1000	 0.190056860685631 
1001	 0.190901398726843 
1002	 0.191038096961701 
1003	 0.191139274240787 
1004	 0.191248551559623 
1005	 0.191357507360933 
1006	 0.191469837592626 
1007	 0.191559059109358 
1008	 0.191685336855439 
1009	 0.191845691128072 
1010	 0.191965397154634 
1011	 0.192087799015307 
1012	 0.192206654579187 
1013	 0.192307397194703 
1014	 0.192403814172752 
1015	 0.192510761530462 
1016	 0.19258206240552 
1017	 0.192679393645151 
1018	 0.192785135000662 
1019	 0.192862739768016 
1020	 0.192926012255618 
1021	 0.192993967146979 
1022	 0.19301238484473 
1023	 0.193085646179838 
1024	 0.193214205215462 
1025	 0.193307151518676 
1026	 0.193387596195556 
1027	 0.193480064296192 
1028	 0.19358338639881 
1029	 0.19365489966164 
1030	 0.193715336445724 
1031	 0.193803716259874 
1032	 0.193848516155669 
1033	 0.19389670839591 
1034	 0.193983727043553 
1035	 0.194048745474054 
1036	 0.194132885665932 
1037	 0.194239620401701 
1038	 0.194320508630218 
1039	 0.194402025026137 
1040	 0.19447940513136 
1041	 0.194525339408259 
1042	 0.194601275366403 
1043	 0.194700502712002 
1044	 0.194779297191636 
1045	 0.194862264386023 
1046	 0.194969194715089 
1047	 0.195059539724132 
1048	 0.195142340480723 
1049	 0.195254772775953 
1050	 0.19537252507152 
1051	 0.1954564276673 
1052	 0.195550878233041 
1053	 0.195652993822932 
1054	 0.195744807337214 
1055	 0.195832819603557 
1056	 0.195935170481329 
1057	 0.196038708655282 
1058	 0.196124169873355 
1059	 0.19624135870588 
1060	 0.196373506615992 
1061	 0.196467890779067 
1062	 0.196582911319304 
1063	 0.196688605306625 
1064	 0.196791398767024 
1065	 0.196931824321443 
1066	 0.197062780805117 
1067	 0.197179643152924 
1068	 0.197290876122338 
1069	 0.197379017752734 
1070	 0.197471823101988 
1071	 0.197555380443578 
1072	 0.197651110584356 
1073	 0.197762561060355 
1074	 0.197893383970226 
1075	 0.198022502319922 
1076	 0.198134365686095 
1077	 0.198234523574757 
1078	 0.198334100942785 
1079	 0.198441305688201 
1080	 0.198571870231602 
1081	 0.198718608155384 
1082	 0.198881693303922 
1083	 0.199062601346885 
1084	 0.199221126338608 
1085	 0.199364897036961 
1086	 0.199504280235842 
1087	 0.199627494432712 
1088	 0.199737870164772 
1089	 0.199866969633956 
1090	 0.200014052265035 
1091	 0.200176245195917 
1092	 0.20032978435848 
1093	 0.200478404881915 
1094	 0.200628380226131 
1095	 0.200750943260395 
1096	 0.200891960695653 
1097	 0.201062468642893 
1098	 0.201215108037801 
1099	 0.201383804206261 
1100	 0.201567864888558 
1101	 0.201719912824926 
1102	 0.201886796635515 
1103	 0.202063408770403 
1104	 0.20224875924565 
1105	 0.202414427659771 
1106	 0.202601331787729 
1107	 0.202787289750499 
1108	 0.202958941020585 
1109	 0.203141925868349 
1110	 0.203332640551032 
1111	 0.20353322734023 
1112	 0.203719525984454 
1113	 0.203908893402695 
1114	 0.204127774032515 
1115	 0.204321720516911 
1116	 0.204520092554061 
1117	 0.20473535499602 
1118	 0.204933913314409 
1119	 0.205109825399517 
1120	 0.205304068273735 
1121	 0.205503778668868 
1122	 0.205699042149837 
1123	 0.205909736993417 
1124	 0.206124428895309 
1125	 0.206347979992035 
1126	 0.206569715413043 
1127	 0.206797240904061 
1128	 0.207046984107963 
1129	 0.207297621671805 
1130	 0.207542472496605 
1131	 0.207781586005218 
1132	 0.207992575797578 
1133	 0.208216217585122 
1134	 0.208451851886736 
1135	 0.208684959083781 
1136	 0.208929619131482 
1137	 0.209175597735205 
1138	 0.209418721245764 
1139	 0.209663678827634 
1140	 0.20992159805024 
1141	 0.210150915216819 
1142	 0.210396743735076 
1143	 0.210642842334414 
1144	 0.210888424014769 
1145	 0.211162405905751 
1146	 0.211420407192228 
1147	 0.211678702542272 
1148	 0.211946240407522 
1149	 0.212195122485617 
1150	 0.212456577178804 
1151	 0.212713337772809 
1152	 0.212976851920808 
1153	 0.21324083388239 
1154	 0.213520002109055 
1155	 0.213817626664455 
1156	 0.214106361761257 
1157	 0.214396562100445 
1158	 0.214681723280911 
1159	 0.214963075485407 
1160	 0.21523762603415 
1161	 0.21551707477869 
1162	 0.215824691367291 
1163	 0.216124174626412 
1164	 0.216432296480727 
1165	 0.216747127776566 
1166	 0.217058282812171 
1167	 0.217401044924069 
1168	 0.217726035140729 
1169	 0.218059796290972 
1170	 0.218405833792673 
1171	 0.21875010538544 
1172	 0.219083643875179 
1173	 0.219441719901579 
1174	 0.219817804611462 
1175	 0.220178606945753 
1176	 0.220534495493684 
1177	 0.220910029140452 
1178	 0.221280942865953 
1179	 0.221677456227853 
1180	 0.222077483414282 
1181	 0.222484629460777 
1182	 0.222897661453363 
1183	 0.223291934985566 
1184	 0.22370692189572 
1185	 0.224129425871336 
1186	 0.224547547048253 
1187	 0.224966323584159 
1188	 0.225384634150145 
1189	 0.225794667433976 
1190	 0.226230010967534 
1191	 0.226672144966236 
1192	 0.227112565098232 
1193	 0.227568426131406 
1194	 0.228026140909124 
1195	 0.228495688545174 
1196	 0.228954310978063 
1197	 0.229411159724973 
1198	 0.229873495017702 
1199	 0.230334647129611 
1200	 0.230763179389866 
1201	 0.231246196455502 
1202	 0.231724875305707 
1203	 0.232180685102286 
1204	 0.232693487101911 
1205	 0.233185048383368 
1206	 0.233669330319968 
1207	 0.234170265966939 
1208	 0.234683960849766 
1209	 0.235187637405406 
1210	 0.235683343347707 
1211	 0.236203156546751 
1212	 0.236737661560953 
1213	 0.237272994270133 
1214	 0.237826819481206 
1215	 0.238380174360712 
1216	 0.238938774261639 
1217	 0.239479132374491 
1218	 0.240012682242255 
1219	 0.240550296819269 
1220	 0.241082819495777 
1221	 0.241652280508722 
1222	 0.242205161255554 
1223	 0.24276537616748 
1224	 0.243317957750879 
1225	 0.243842287477932 
1226	 0.244392795244877 
1227	 0.244955556120703 
1228	 0.245527126905429 
1229	 0.246122829570205 
1230	 0.246695388348298 
1231	 0.247270313061311 
1232	 0.247838673550254 
1233	 0.248368851168585 
1234	 0.248933186830328 
1235	 0.249522520628034 
1236	 0.250102803812898 
1237	 0.250700967044966 
1238	 0.251289595334583 
1239	 0.251853791822495 
1240	 0.252439786093177 
1241	 0.253072058009684 
1242	 0.253654953621314 
1243	 0.254253628707096 
1244	 0.254866501072505 
1245	 0.255470249384757 
1246	 0.256063408083788 
1247	 0.256655187133495 
1248	 0.257256450697047 
1249	 0.257845079709955 
1250	 0.25841521727974 
1251	 0.258991317045024 
1252	 0.259567281285391 
1253	 0.260145996261331 
1254	 0.260716972283991 
1255	 0.261304828308098 
1256	 0.261908817371491 
1257	 0.262510835962437 
1258	 0.263120225064269 
1259	 0.263727899529827 
1260	 0.264331587624325 
1261	 0.264943989858466 
1262	 0.265547558740234 
1263	 0.266191472329962 
1264	 0.266809152039331 
1265	 0.267426922467736 
1266	 0.268048344297547 
1267	 0.268662580348559 
1268	 0.269282274838008 
1269	 0.269905665874568 
1270	 0.270538709418448 
1271	 0.271176414328353 
1272	 0.271811642078122 
1273	 0.272454979323115 
1274	 0.273097223659894 
1275	 0.273730509007776 
1276	 0.274367968043137 
1277	 0.275012579206874 
1278	 0.275654095804678 
1279	 0.276291923118672 
1280	 0.276929693713452 
1281	 0.277563693888223 
1282	 0.278202514783571 
1283	 0.278842315564842 
1284	 0.279476959417356 
1285	 0.280110105240009 
1286	 0.280738512172614 
1287	 0.281385715674848 
1288	 0.282040088047528 
1289	 0.282681075855378 
1290	 0.283329267185001 
1291	 0.283973994626186 
1292	 0.284598082684401 
1293	 0.285239247792702 
1294	 0.285890966159476 
1295	 0.286546141276288 
1296	 0.28721902737944 
1297	 0.287858814518814 
1298	 0.288480177591848 
1299	 0.289118755239954 
1300	 0.28974115581842 
1301	 0.29036954985344 
1302	 0.291021287001767 
1303	 0.291660676350107 
1304	 0.292282998276558 
1305	 0.292909973096157 
1306	 0.293542469655527 
1307	 0.294171476397012 
1308	 0.294775498802906 
1309	 0.295420654203864 
1310	 0.296038254078716 
1311	 0.29665129095802 
1312	 0.297268677275769 
1313	 0.297888242844961 
1314	 0.298489352068023 
1315	 0.299080231479788 
1316	 0.299683623996374 
1317	 0.300275177564195 
1318	 0.300877691479528 
1319	 0.301504420878054 
1320	 0.302107446928668 
1321	 0.302695962675313 
1322	 0.303287011546982 
1323	 0.303880491366736 
1324	 0.304457610063668 
1325	 0.305030272168379 
1326	 0.305591279220503 
1327	 0.306121360431834 
1328	 0.306673771000795 
1329	 0.307236629264558 
1330	 0.30778835793196 
1331	 0.308358096339313 
1332	 0.308903226264888 
1333	 0.309418458421028 
1334	 0.309948878888188 
1335	 0.310450673412933 
1336	 0.310926291000555 
1337	 0.31143168520481 
1338	 0.311935963395928 
1339	 0.312439658881339 
1340	 0.31296492547889 
1341	 0.313461569822308 
1342	 0.313943283273135 
1343	 0.314419141476703 
1344	 0.314883589722878 
1345	 0.315350866192034 
1346	 0.315808619394075 
1347	 0.316269420963453 
1348	 0.316729577727286 
1349	 0.317194533913251 
1350	 0.31767082003164 
1351	 0.31812899330822 
1352	 0.318578901156407 
1353	 0.319035421968812 
1354	 0.319491614841282 
1355	 0.31993224019044 
1356	 0.320364481011419 
1357	 0.32080621192059 
1358	 0.321226722409072 
1359	 0.321669553320683 
1360	 0.322125291359611 
1361	 0.322608713231931 
1362	 0.323094299221351 
1363	 0.323533005816557 
1364	 0.323988024554818 
1365	 0.324436099431842 
1366	 0.324883862195397 
1367	 0.325340115314078 
1368	 0.3257664191951 
1369	 0.326181918887471 
1370	 0.326582859857322 
1371	 0.326969158739191 
1372	 0.327329432838712 
1373	 0.327680955245726 
1374	 0.328003465773062 
1375	 0.328311341642054 
1376	 0.328573636702409 
1377	 0.32883293799677 
1378	 0.329010933947332 
1379	 0.329164134843196 
1380	 0.329205554230195 
1381	 0.329222074244387 
1382	 0.329063010716267 
1383	 0.328812073730505 
1384	 0.328387023641572 
1385	 0.327798443395694 
1386	 0.32708599035611 
1387	 0.326139423987444 
1388	 0.325222870489387 
1389	 0.324133350143985 
1390	 0.323152631543288 
1391	 0.322191568270786 
1392	 0.321250211295724 
1393	 0.320459994672995 
1394	 0.319772525581906 
1395	 0.319216219920531 
1396	 0.318821627391339 
1397	 0.318437379273756 
1398	 0.318185870364664 
1399	 0.317851570106666 
1400	 0.317568472234833 
1401	 0.317192861442263 
1402	 0.316784610639986 
1403	 0.316322137380719 
1404	 0.315798239007673 
1405	 0.315268460666385 
1406	 0.314686559266471 
1407	 0.314116666294305 
1408	 0.313502159886495 
1409	 0.312953093890019 
1410	 0.312378396157838 
1411	 0.311909633663799 
1412	 0.31148373252813 
1413	 0.311161908410164 
1414	 0.310916540527539 
1415	 0.310755118755232 
1416	 0.310703986356892 
1417	 0.310692330774322 
1418	 0.310761489335979 
1419	 0.310866093384954 
1420	 0.311035600814662 
1421	 0.311221674823101 
1422	 0.31145415574868 
1423	 0.311701062791497 
1424	 0.311964629796487 
1425	 0.312263480086826 
1426	 0.312579518481293 
1427	 0.312892168356189 
1428	 0.313220442655983 
1429	 0.313516591184517 
1430	 0.313773349773202 
1431	 0.314016123866636 
1432	 0.314202086822208 
1433	 0.314340459984076 
1434	 0.314449173915972 
1435	 0.314516543268541 
1436	 0.31455960404737 
1437	 0.314552177439431 
1438	 0.314562207749996 
1439	 0.314520426807915 
1440	 0.314561282077093 
1441	 0.3145902798525 
1442	 0.314738788904912 
1443	 0.314917251758099 
1444	 0.315257005899349 
1445	 0.315690832143937 
1446	 0.316259731544485 
1447	 0.316966261300944 
1448	 0.31778329616868 
1449	 0.318762776947146 
1450	 0.319775352584222 
1451	 0.320943841055782 
1452	 0.322068656962344 
1453	 0.323255338095888 
1454	 0.324383613294273 
1455	 0.325514739360959 
1456	 0.326597701826396 
1457	 0.327661440802789 
1458	 0.328666195058004 
1459	 0.329613264685362 
1460	 0.330538816835832 
1461	 0.331406435080015 
1462	 0.332254845150367 
1463	 0.333068807477682 
1464	 0.333882417055045 
1465	 0.334662069616222 
1466	 0.335461124829272 
1467	 0.336236207617136 
1468	 0.337003885045377 
1469	 0.337766469684202 
1470	 0.33847688875296 
1471	 0.339171008119678 
1472	 0.339844415305013 
1473	 0.340500832373965 
1474	 0.341127501096575 
1475	 0.34174158767506 
1476	 0.342355349690127 
1477	 0.342918999853451 
1478	 0.343454467257067 
1479	 0.34393863604231 
1480	 0.344387296084982 
1481	 0.344789430457263 
1482	 0.34512611856431 
1483	 0.345471758791957 
1484	 0.345769850344913 
1485	 0.346100686501968 
1486	 0.346411922799441 
1487	 0.346776409426774 
1488	 0.347134726741017 
1489	 0.34758488342295 
1490	 0.34807760083895 
1491	 0.348654199952276 
1492	 0.34930296202727 
1493	 0.350023191644033 
1494	 0.350829160222981 
1495	 0.351671402092182 
1496	 0.352584152918247 
1497	 0.353534647488211 
1498	 0.354560096692344 
1499	 0.355575851542963 
1500	 0.356631389739271 
1501	 0.357690509130595 
1502	 0.358764171972296 
1503	 0.359821419945498 
1504	 0.360907003390366 
1505	 0.361955194428928 
1506	 0.362983451049431 
1507	 0.363986776635096 
1508	 0.364963602812859 
1509	 0.365928284681463 
1510	 0.366862874739632 
1511	 0.367786972268908 
1512	 0.368705982689372 
1513	 0.369602125855043 
1514	 0.370489009737222 
1515	 0.371344056563386 
1516	 0.372156386379265 
1517	 0.372972682684766 
1518	 0.373779853281254 
1519	 0.374558153088385 
1520	 0.375319293046869 
1521	 0.376075716809956 
1522	 0.376793694365771 
1523	 0.377521506590439 
1524	 0.378229483577417 
1525	 0.378933457607922 
1526	 0.379632379965673 
1527	 0.38030937696525 
1528	 0.381003082854227 
1529	 0.381703340894281 
1530	 0.382404887764172 
1531	 0.383106236870327 
1532	 0.383814490506654 
1533	 0.384524965254969 
1534	 0.385253967167029 
1535	 0.385988682208486 
1536	 0.386736103250256 
1537	 0.387492013372566 
1538	 0.388279681770692 
1539	 0.389091026142571 
1540	 0.38990020643664 
1541	 0.390721405639594 
1542	 0.391577683506749 
1543	 0.392444656920261 
1544	 0.393325650303264 
1545	 0.394254964981985 
1546	 0.395162175380871 
1547	 0.396060437034024 
1548	 0.396965761538689 
1549	 0.39787986524408 
1550	 0.398795245589917 
1551	 0.399705693371275 
1552	 0.400625854525316 
1553	 0.40155820483618 
1554	 0.402487955428966 
1555	 0.403432612195272 
1556	 0.404347465286936 
1557	 0.405252061518303 
1558	 0.406151065098966 
1559	 0.407032359532295 
1560	 0.407906525014148 
1561	 0.408767222810514 
1562	 0.409644264957365 
1563	 0.410522826654389 
1564	 0.411388339156552 
1565	 0.412260649957492 
1566	 0.413128623392649 
1567	 0.413981211072177 
1568	 0.414831605721152 
1569	 0.415689396669945 
1570	 0.416539474928696 
1571	 0.417381077219345 
1572	 0.418208278946811 
1573	 0.41902531331447 
1574	 0.419848400255137 
1575	 0.420657823232789 
1576	 0.421470879639709 
1577	 0.422296328813669 
1578	 0.423113577877645 
1579	 0.423921253731017 
1580	 0.424726516210111 
1581	 0.425528218003289 
1582	 0.426335196920503 
1583	 0.42714923899908 
1584	 0.427945186052377 
1585	 0.428730281791785 
1586	 0.429525337501516 
1587	 0.430305182636046 
1588	 0.431095218980157 
1589	 0.431907420653909 
1590	 0.432706636920657 
1591	 0.433502998504351 
1592	 0.434292331924224 
1593	 0.435063620661828 
1594	 0.4358570645186 
1595	 0.43664807450157 
1596	 0.437452236260074 
1597	 0.438286790759266 
1598	 0.439106942218669 
1599	 0.439933073101004 
1600	 0.440746188301133 
1601	 0.441550078283788 
1602	 0.442350818750174 
1603	 0.443140504153866 
1604	 0.44392675516032 
1605	 0.444705989104207 
1606	 0.44548862484365 
1607	 0.446275257565063 
1608	 0.447053366328609 
1609	 0.447820676423207 
1610	 0.448599249628955 
1611	 0.449384587443884 
1612	 0.450151269326023 
1613	 0.450929444319994 
1614	 0.451686036405766 
1615	 0.452407741104716 
1616	 0.453141909447479 
1617	 0.453870630426222 
1618	 0.454601136641514 
1619	 0.455347953358949 
1620	 0.456065576936402 
1621	 0.45676410771147 
1622	 0.457464844793166 
1623	 0.458143619580648 
1624	 0.458835344090268 
1625	 0.459526151445625 
1626	 0.460233432935817 
1627	 0.460960197537431 
1628	 0.461667314569578 
1629	 0.462388018932431 
1630	 0.463089292564782 
1631	 0.463764675535257 
1632	 0.464445240443575 
1633	 0.465120494095958 
1634	 0.465795817105812 
1635	 0.466477578228326 
1636	 0.467135287707116 
1637	 0.467784355439057 
1638	 0.468419855274466 
1639	 0.469028861232114 
1640	 0.469645427638884 
1641	 0.470256806601473 
1642	 0.470869528298909 
1643	 0.471493416655543 
1644	 0.472089813591805 
1645	 0.472671783059837 
1646	 0.47324726805538 
1647	 0.473816340613891 
1648	 0.474359625962555 
1649	 0.474897228702829 
1650	 0.475404803083774 
1651	 0.475870073893907 
1652	 0.47632992622467 
1653	 0.47677439756229 
1654	 0.477204008240951 
1655	 0.47761912398633 
1656	 0.478024377108579 
1657	 0.47843792703427 
1658	 0.478796988761231 
1659	 0.479135710142173 
1660	 0.4794212383084 
1661	 0.479654866191692 
1662	 0.479849338128516 
1663	 0.479999318798618 
1664	 0.480117534925587 
1665	 0.480201226851279 
1666	 0.480232674927584 
1667	 0.480222958451982 
1668	 0.480171133175633 
1669	 0.480062295506339 
1670	 0.479920092780406 
1671	 0.479745911855854 
1672	 0.479518625563141 
1673	 0.479241334139392 
1674	 0.478921754079997 
1675	 0.478540275165113 
1676	 0.478158873031045 
1677	 0.477724293231992 
1678	 0.477317536872833 
1679	 0.476903698133718 
1680	 0.476496139106079 
1681	 0.47608682436321 
1682	 0.475703738099871 
1683	 0.475308773698403 
1684	 0.474990075751331 
1685	 0.474710912663122 
1686	 0.474472668842339 
1687	 0.474287951479282 
1688	 0.474136546901846 
1689	 0.47402216710751 
1690	 0.47394607441031 
1691	 0.473926454287593 
1692	 0.4739215451434 
1693	 0.473965078113861 
1694	 0.473980673276947 
1695	 0.474022176479894 
1696	 0.474016434931197 
1697	 0.473995306663459 
1698	 0.473933302025719 
1699	 0.473839750716586 
1700	 0.473733353300697 
1701	 0.473597288338256 
1702	 0.473430516047968 
1703	 0.473248407322614 
1704	 0.473016085512027 
1705	 0.472736297735219 
1706	 0.472430218791769 
1707	 0.472124470271451 
1708	 0.471765479458282 
1709	 0.471360948357024 
1710	 0.470893465310198 
1711	 0.470311341919635 
1712	 0.469674755819174 
1713	 0.468949149105732 
1714	 0.468128579543942 
1715	 0.467304301806093 
1716	 0.46642599943035 
1717	 0.465525708632849 
1718	 0.464618112713283 
1719	 0.463663441301197 
1720	 0.462756529046946 
1721	 0.461852521240848 
1722	 0.460963572880741 
1723	 0.460183014962993 
1724	 0.459399493390464 
1725	 0.458677598245299 
1726	 0.458079172927356 
1727	 0.457496507911237 
1728	 0.457012243949049 
1729	 0.456628283554864 
1730	 0.456294347426628 
1731	 0.456044126447831 
1732	 0.455856764330992 
1733	 0.455706865468634 
1734	 0.455608906486672 
1735	 0.455548339545166 
1736	 0.45550614648022 
1737	 0.455477292802583 
1738	 0.455474522320833 
1739	 0.455490399702084 
1740	 0.455512767171692 
1741	 0.455585667426138 
1742	 0.455680923740175 
1743	 0.455826710489504 
1744	 0.456033589935061 
1745	 0.45628446752615 
1746	 0.456562397821993 
1747	 0.456893958191765 
1748	 0.457283038878016 
1749	 0.457701595332954 
1750	 0.458175845962845 
1751	 0.458687511889801 
1752	 0.45923417079065 
1753	 0.459827843065632 
1754	 0.46046876922043 
1755	 0.461107307073511 
1756	 0.461789942302993 
1757	 0.462449284799335 
1758	 0.463169814551291 
1759	 0.463879322749921 
1760	 0.464595654727248 
1761	 0.465341734286292 
1762	 0.466024107994916 
1763	 0.466709533483622 
1764	 0.467392867592399 
1765	 0.468070975545796 
1766	 0.468793229642811 
1767	 0.469487732901522 
1768	 0.470190110054008 
1769	 0.470859058487416 
1770	 0.47144808837364 
1771	 0.472051036173284 
1772	 0.472635074267917 
1773	 0.473196856522637 
1774	 0.473762020151534 
1775	 0.474284699644443 
1776	 0.474826590635495 
1777	 0.475396071671381 
1778	 0.475968166319096 
1779	 0.476570488184792 
1780	 0.477157662475057 
1781	 0.477748482899761 
1782	 0.478350561963202 
1783	 0.478941429494348 
1784	 0.479562529604084 
1785	 0.480148120089338 
1786	 0.480771889468394 
1787	 0.481464514082605 
1788	 0.482115799392919 
1789	 0.482766589198023 
1790	 0.483406759115086 
1791	 0.484008992991149 
1792	 0.484651895101308 
1793	 0.48530964448403 
1794	 0.485960020768072 
1795	 0.486613838027996 
1796	 0.48722595411268 
1797	 0.487846573673669 
1798	 0.48847602905707 
1799	 0.489131315479412 
1800	 0.489771961432769 
1801	 0.503768749804219 
1802	 0.504430618172415 
1803	 0.505061777161745 
1804	 0.505660148636793 
1805	 0.506248313510039 
1806	 0.506826663348126 
1807	 0.507391592381382 
1808	 0.507964913557612 
1809	 0.508537532876964 
1810	 0.509095160920926 
1811	 0.509671815502551 
1812	 0.510210068485763 
1813	 0.51071090801642 
1814	 0.511234180466369 
1815	 0.511714173344942 
1816	 0.512196057711733 
1817	 0.512681356279401 
1818	 0.513170954043914 
1819	 0.513634960318851 
1820	 0.51410526082542 
1821	 0.514541854070763 
1822	 0.51494002601868 
1823	 0.51535165769534 
1824	 0.515730974750057 
1825	 0.516132106949339 
1826	 0.516519323344061 
1827	 0.516906015956843 
1828	 0.517264168976365 
1829	 0.517616726765699 
1830	 0.517948176915086 
1831	 0.518257333166457 
1832	 0.518559336366038 
1833	 0.518855858359458 
1834	 0.519128065867168 
1835	 0.519362449088679 
1836	 0.519582467654427 
1837	 0.519794103814322 
1838	 0.519997075973983 
1839	 0.520159694795361 
1840	 0.520322675743261 
1841	 0.52043366010157 
1842	 0.520517545588544 
1843	 0.520524277231019 
1844	 0.520510704644154 
1845	 0.520480424544992 
1846	 0.520374474553246 
1847	 0.520224897443839 
1848	 0.520019089802702 
1849	 0.519757399101133 
1850	 0.519440913570426 
1851	 0.519086226098394 
1852	 0.518660582023358 
1853	 0.518127848756709 
1854	 0.517542304739574 
1855	 0.516848827007305 
1856	 0.516101525789854 
1857	 0.5153079946285 
1858	 0.514357253026177 
1859	 0.513313561612806 
1860	 0.512176977919024 
1861	 0.510902693162737 
1862	 0.509484741647676 
1863	 0.508042778123748 
1864	 0.506439982384644 
1865	 0.504752713223392 
1866	 0.502936791777934 
1867	 0.500849541502843 
1868	 0.498706489189812 
1869	 0.496340225323559 
1870	 0.493804001118093 
1871	 0.491142734153892 
1872	 0.488353783297884 
1873	 0.485394614345347 
1874	 0.482316317671594 
1875	 0.479119294839478 
1876	 0.475529099157495 
1877	 0.471886182267953 
1878	 0.467941125751625 
1879	 0.463661427257522 
1880	 0.459483220270094 
1881	 0.454989174303825 
1882	 0.450200133027678 
1883	 0.44528244479367 
1884	 0.440187197403943 
1885	 0.43447803409129 
1886	 0.428713947060364 
1887	 0.422542976198243 
1888	 0.415971198765845 
1889	 0.409677618588799 
1890	 0.402937891560872 
1891	 0.396110300987044 
1892	 0.38927680645701 
1893	 0.382121842308305 
1894	 0.37455207611799 
1895	 0.367188154989232 
1896	 0.35966063488408 
1897	 0.352032987223076 
1898	 0.345033051202132 
1899	 0.337898455186743 
1900	 0.331000843308355 
1901	 0.324511389864711 
1902	 0.317777331881146 
1903	 0.311572608358813 
1904	 0.305717167005549 
1905	 0.300107712857541 
1906	 0.294832002144697 
1907	 0.290347670004408 
1908	 0.286055288845863 
1909	 0.282119274134526 
1910	 0.278649332007659 
1911	 0.275231291248591 
1912	 0.272194525796401 
1913	 0.2694002741636 
1914	 0.26675617924784 
1915	 0.264382011638188 
1916	 0.262348630518405 
1917	 0.260354856952645 
1918	 0.258487228958355 
1919	 0.256771131343775 
1920	 0.255000049286895 
1921	 0.253320534009317 
1922	 0.251661140503764 
1923	 0.249980189124343 
1924	 0.248469824929711 
1925	 0.24692886913896 
1926	 0.245403610056548 
1927	 0.243936006860014 
1928	 0.242458818535657 
1929	 0.240934944694096 
1930	 0.23949585322729 
1931	 0.238127662219713 
1932	 0.23683458054101 
1933	 0.235736445123962 
1934	 0.234724044988294 
1935	 0.233820888525902 
1936	 0.23310937753902 
1937	 0.232529548820119 
1938	 0.232041656010289 
1939	 0.231784117819283 
1940	 0.231705864165354 
1941	 0.231801554198074 
1942	 0.232078470751558 
1943	 0.232528926412641 
1944	 0.233103043835408 
1945	 0.233859379059413 
1946	 0.234854439698892 
1947	 0.235972408698079 
1948	 0.237331281008425 
1949	 0.238937648283618 
1950	 0.240620424213483 
1951	 0.242455500209186 
1952	 0.244450235880527 
1953	 0.246590938356525 
1954	 0.248829007929369 
1955	 0.251318512072827 
1956	 0.253804488059695 
1957	 0.256329080152188 
1958	 0.258861251820814 
1959	 0.261148233423779 
1960	 0.263358716884071 
1961	 0.265408812678045 
1962	 0.267266909558593 
1963	 0.269044602987663 
1964	 0.270716708056674 
1965	 0.272239126179491 
1966	 0.273625283995242 
1967	 0.274934349201497 
1968	 0.276069080055989 
1969	 0.277217506924009 
1970	 0.278338259820527 
1971	 0.279458526491486 
1972	 0.280689410810895 
1973	 0.281922399562317 
1974	 0.283230195561094 
1975	 0.284643932389546 
1976	 0.286048085857087 
1977	 0.287462138158414 
1978	 0.28895312215825 
1979	 0.290479409746346 
1980	 0.292026392974916 
1981	 0.293753817711306 
1982	 0.295475763328243 
1983	 0.297309625394172 
1984	 0.299260488953752 
1985	 0.301140624257463 
1986	 0.303155016934278 
1987	 0.305267679567246 
1988	 0.307364496440584 
1989	 0.309735897087005 
1990	 0.312307255482674 
1991	 0.31496493337591 
1992	 0.31780014663636 
1993	 0.320817830792908 
1994	 0.323720390724455 
1995	 0.326826136305716 
1996	 0.32993412608682 
1997	 0.333003024634585 
1998	 0.336198088795843 
1999	 0.339548177482632 
2000	 0.342704048782511 
2001	 0.345994054169528 
2002	 0.348986531954495 
2003	 0.351784937160302 
2004	 0.354512943627933 
2005	 0.357040880268902 
2006	 0.35954119582405 
2007	 0.362030896742984 
2008	 0.364313322439594 
2009	 0.366495074167315 
2010	 0.368595906047544 
2011	 0.370409275213157 
2012	 0.372148429537134 
2013	 0.373785712751245 
2014	 0.375267277701989 
2015	 0.376703846520437 
2016	 0.378088266336507 
2017	 0.379322724409339 
2018	 0.380480933665851 
2019	 0.381492410620015 
2020	 0.38233245336013 
2021	 0.383100736182324 
2022	 0.383780561305889 
2023	 0.384337316793338 
2024	 0.384852675904936 
2025	 0.385270839979707 
2026	 0.385612938146519 
2027	 0.385853202412924 
2028	 0.386055709643269 
2029	 0.386156506933178 
2030	 0.386263891797964 
2031	 0.386296971033259 
2032	 0.386364819618124 
2033	 0.386392813215706 
2034	 0.386474565661869 
2035	 0.386558847245959 
2036	 0.386704195046145 
2037	 0.386884306053947 
2038	 0.387118573776987 
2039	 0.387420303572 
2040	 0.387769418799734 
2041	 0.388203498505048 
2042	 0.388710407123233 
2043	 0.389278736609384 
2044	 0.389946434935688 
2045	 0.390631012921715 
2046	 0.391366879892154 
2047	 0.392149827412887 
2048	 0.392971813149192 
2049	 0.393836821583929 
2050	 0.394782701995601 
2051	 0.395714713627247 
2052	 0.396691709985319 
2053	 0.397719614548356 
2054	 0.398714667390586 
2055	 0.39971217599784 
2056	 0.400743411193803 
2057	 0.401744546731406 
2058	 0.402824660299107 
2059	 0.403980761446396 
2060	 0.405106972297407 
2061	 0.406293949745599 
2062	 0.407434453197986 
2063	 0.408532459643598 
2064	 0.409660964041215 
2065	 0.410793884485895 
2066	 0.411908041972033 
2067	 0.413086947734342 
2068	 0.414215720493481 
2069	 0.4153280988682 
2070	 0.416447967303548 
2071	 0.417505383124979 
2072	 0.418526927483758 
2073	 0.419514523439038 
2074	 0.420458189939567 
2075	 0.421373905725391 
2076	 0.422274007200117 
2077	 0.423099347653726 
2078	 0.423899749908654 
2079	 0.424617184190528 
2080	 0.425247747862362 
2081	 0.42583868934806 
2082	 0.42636040137084 
2083	 0.426832778685353 
2084	 0.427304652386001 
2085	 0.427709063133288 
2086	 0.428078515377146 
2087	 0.428423134694744 
2088	 0.428711010938594 
2089	 0.428936028904523 
2090	 0.429133035242698 
2091	 0.429295460656196 
2092	 0.429407563807472 
2093	 0.429453902741508 
2094	 0.429492832881989 
2095	 0.429493625093744 
2096	 0.429475598786052 
2097	 0.429443553245035 
2098	 0.429378532813865 
2099	 0.429274206136637 
2100	 0.429152642661657 
2101	 0.429000541415634 
2102	 0.42881142348076 
2103	 0.428618549267027 
2104	 0.428403711954028 
2105	 0.428171878667621 
2106	 0.427922007689504 
2107	 0.42765793079382 
2108	 0.427371309935319 
2109	 0.427078750266173 
2110	 0.426781519792705 
2111	 0.426462699953799 
2112	 0.426118687039243 
2113	 0.425771477522625 
2114	 0.425407967185841 
2115	 0.425036574506641 
2116	 0.424661920423054 
2117	 0.424288381549686 
2118	 0.423866470435702 
2119	 0.4234253887267 
2120	 0.422952227437405 
2121	 0.422429317834487 
2122	 0.421914574153865 
2123	 0.421401261201761 
2124	 0.420831460827165 
2125	 0.420266248992695 
2126	 0.419610281696177 
2127	 0.418881078642142 
2128	 0.418125370348119 
2129	 0.417295776024607 
2130	 0.416453379734555 
2131	 0.415601673019984 
2132	 0.41468437760556 
2133	 0.41372308800757 
2134	 0.412736590515791 
2135	 0.411616266913597 
2136	 0.410487554131372 
2137	 0.409317299147023 
2138	 0.408056886399005 
2139	 0.406846384778721 
2140	 0.405652139893155 
2141	 0.404400125698288 
2142	 0.403157167161282 
2143	 0.401834678519023 
2144	 0.400438543981505 
2145	 0.399041782178268 
2146	 0.397568489447655 
2147	 0.396140245862081 
2148	 0.394718077179805 
2149	 0.39328978179861 
2150	 0.391917563909294 
2151	 0.390469662874815 
2152	 0.388951228579396 
2153	 0.387466617828883 
2154	 0.385938480821194 
2155	 0.384396331564513 
2156	 0.382941441337679 
2157	 0.381542566719419 
2158	 0.380129299838014 
2159	 0.378760696071349 
2160	 0.377376150032696 
2161	 0.375948105834744 
2162	 0.37463069595965 
2163	 0.373323064241504 
2164	 0.372127737290546 
2165	 0.37101249395304 
2166	 0.369977685116677 
2167	 0.369054131304599 
2168	 0.368156914889237 
2169	 0.367307034607186 
2170	 0.366551329461221 
2171	 0.365843562479125 
2172	 0.365221982242526 
2173	 0.364697038616332 
2174	 0.364256588411614 
2175	 0.363884737093439 
2176	 0.363582130841238 
2177	 0.363318095798863 
2178	 0.363127709518969 
2179	 0.362975220252644 
2180	 0.362866576870676 
2181	 0.362799417779684 
2182	 0.362800948253909 
2183	 0.362817341565579 
2184	 0.362875911440995 
2185	 0.36293723721357 
2186	 0.36303955715311 
2187	 0.36313201798803 
2188	 0.363234266035215 
2189	 0.363331450220079 
2190	 0.36346110101106 
2191	 0.363540616658186 
2192	 0.36360958842766 
2193	 0.363635121977085 
2194	 0.363624245746306 
2195	 0.363580791068443 
2196	 0.363496733870819 
2197	 0.363396692098465 
2198	 0.363246096420246 
2199	 0.363048696697348 
2200	 0.362839927288729 
2201	 0.362597261115858 
2202	 0.362325316595338 
2203	 0.362034039474174 
2204	 0.361707600831113 
2205	 0.36130414066164 
2206	 0.36097099708085 
2207	 0.360620699766694 
2208	 0.360324364467281 
2209	 0.360061010124607 
2210	 0.359845760587646 
2211	 0.359665708134568 
2212	 0.359527069566514 
2213	 0.359426445878694 
2214	 0.359384954486911 
2215	 0.359395628065584 
2216	 0.359438455607318 
2217	 0.359539109362696 
2218	 0.359676778727809 
2219	 0.359885631905215 
2220	 0.360066420587498 
2221	 0.360276984002628 
2222	 0.360493861575195 
2223	 0.360677233608336 
2224	 0.360834048873532 
2225	 0.360970515474893 
2226	 0.361031514922166 
2227	 0.360965991059264 
2228	 0.360804382262653 
2229	 0.3605537394769 
2230	 0.360191581929436 
2231	 0.359745802982371 
2232	 0.35924096319491 
2233	 0.358565543965159 
2234	 0.357771606686371 
2235	 0.35684135095009 
2236	 0.35571962643127 
2237	 0.354576702987421 
2238	 0.353283838327751 
2239	 0.352006263488135 
2240	 0.350700638367482 
2241	 0.349327389949392 
2242	 0.347931813578046 
2243	 0.346450355741615 
2244	 0.344848460709903 
2245	 0.343267633620711 
2246	 0.341592015769882 
2247	 0.339974051746729 
2248	 0.338393299961598 
2249	 0.336790094414995 
2250	 0.335205846540864 
2251	 0.33361713235936 
2252	 0.331910439702318 
2253	 0.33030400842616 
2254	 0.328695390938786 
2255	 0.327117642360502 
2256	 0.325737069198108 
2257	 0.324376070119956 
2258	 0.323119849339447 
2259	 0.321985058258709 
2260	 0.320862878361191 
2261	 0.319789939431106 
2262	 0.31881155468989 
2263	 0.317879825824715 
2264	 0.317055919556862 
2265	 0.316373914287601 
2266	 0.315662591735922 
2267	 0.315019677910588 
2268	 0.314380110798995 
2269	 0.313772347466609 
2270	 0.313155414818134 
2271	 0.312555294933273 
2272	 0.311956478948308 
2273	 0.311364638546623 
2274	 0.310745062126734 
2275	 0.310176968189246 
2276	 0.309514487095542 
2277	 0.308775592856558 
2278	 0.308036029661308 
2279	 0.307194725758353 
2280	 0.306418076374642 
2281	 0.305662603637749 
2282	 0.304911799114365 
2283	 0.304168830488573 
2284	 0.303496761542722 
2285	 0.302751179501083 
2286	 0.302044045472311 
2287	 0.3013566559716 
2288	 0.300676075935872 
2289	 0.300102622681696 
2290	 0.299558913777217 
2291	 0.299093980777442 
2292	 0.298692791262401 
2293	 0.298285056779086 
2294	 0.29797269586233 
2295	 0.297704830408152 
2296	 0.297476049877355 
2297	 0.297322644349152 
2298	 0.297267220987925 
2299	 0.297196169448943 
2300	 0.297186287635267 
2301	 0.297154573183317 
2302	 0.297140539244077 
2303	 0.297109439432409 
2304	 0.297070770595158 
2305	 0.297024079699014 
2306	 0.296959898494442 
2307	 0.296918534825562 
2308	 0.296887716455757 
2309	 0.296856034684979 
2310	 0.2968179687649 
2311	 0.296817500455109 
2312	 0.296816564269677 
2313	 0.296854841002714 
2314	 0.29692163017361 
2315	 0.29704388824727 
2316	 0.297198764362183 
2317	 0.297400587000317 
2318	 0.297683827496121 
2319	 0.297962385420415 
2320	 0.298265092289808 
2321	 0.298584954966586 
2322	 0.298963483481214 
2323	 0.299295819575084 
2324	 0.299631411069644 
2325	 0.299939134433172 
2326	 0.30023475822454 
2327	 0.300467913774541 
2328	 0.300684505949301 
2329	 0.300830670934083 
2330	 0.300885621931624 
2331	 0.300944989177878 
2332	 0.300951712571994 
2333	 0.300870889394823 
2334	 0.300759902095231 
2335	 0.3005687978264 
2336	 0.300355915864165 
2337	 0.300113501325212 
2338	 0.29977084455224 
2339	 0.299339211362379 
2340	 0.298832796583664 
2341	 0.298337006893245 
2342	 0.297906984169776 
2343	 0.297480969231316 
2344	 0.29706370147452 
2345	 0.296679107924738 
2346	 0.296353714389209 
2347	 0.29610160396036 
2348	 0.29590342528138 
2349	 0.295755885673597 
2350	 0.295607083934183 
2351	 0.295551025119495 
2352	 0.295580973758025 
2353	 0.295627809877795 
2354	 0.29567294746474 
2355	 0.295722502670347 
2356	 0.295797006781709 
2357	 0.295810350173438 
2358	 0.295795330881188 
2359	 0.295743388831305 
2360	 0.295589729918182 
2361	 0.295356921666275 
2362	 0.295115953849371 
2363	 0.294860286336265 
2364	 0.294531721307539 
2365	 0.294181183504044 
2366	 0.29377691031064 
2367	 0.293322190897243 
2368	 0.292821211241605 
2369	 0.292208064461367 
2370	 0.291563612934919 
2371	 0.290938710572956 
2372	 0.290310621798154 
2373	 0.289659812629544 
2374	 0.288991151466415 
2375	 0.288267325572173 
2376	 0.287439654045093 
2377	 0.286601751531624 
2378	 0.285766571443744 
2379	 0.284846298364462 
2380	 0.283928187605143 
2381	 0.283017616124532 
2382	 0.282044283140038 
2383	 0.281030241019126 
2384	 0.279986717802974 
2385	 0.278867927551147 
2386	 0.277792145484264 
2387	 0.27668895122444 
2388	 0.275606498509185 
2389	 0.274581439414302 
2390	 0.273479991415771 
2391	 0.272385610755618 
2392	 0.271229993249835 
2393	 0.269924664687478 
2394	 0.268769808794405 
2395	 0.267649559642776 
2396	 0.266532427794206 
2397	 0.265522034198691 
2398	 0.264470158524935 
2399	 0.263398082638562 
2400	 0.262312876384781 
2401	 0.261205931140136 
2402	 0.260171024310982 
2403	 0.25911614558035 
2404	 0.258095485883909 
2405	 0.257128729611729 
2406	 0.256048454653113 
2407	 0.25487817040684 
2408	 0.253814973146719 
2409	 0.252855506318708 
2410	 0.251910910996446 
2411	 0.250946929613811 
2412	 0.250016493988589 
2413	 0.249124211020468 
2414	 0.248174227076579 
2415	 0.247312078242552 
2416	 0.246402928985484 
2417	 0.245359778076481 
2418	 0.244537406587647 
2419	 0.243739545975224 
2420	 0.242889812678778 
2421	 0.242120204740952 
2422	 0.241209011655456 
2423	 0.240249895002414 
2424	 0.239289613891725 
2425	 0.238329616909458 
2426	 0.237562819566026 
2427	 0.236842592575323 
2428	 0.236095743390616 
2429	 0.235383962843121 
2430	 0.234438758807986 
2431	 0.233388223115919 
2432	 0.232476287872984 
2433	 0.231544771908831 
2434	 0.23073030130566 
2435	 0.22993256286702 
2436	 0.228971624801727 
2437	 0.228066141274702 
2438	 0.227113193488714 
2439	 0.226111889546406 
2440	 0.225251520875093 
2441	 0.224416271997193 
2442	 0.223643058700761 
2443	 0.222953504403765 
2444	 0.222179245349652 
2445	 0.221347899065337 
2446	 0.22046085715323 
2447	 0.21951874209366 
2448	 0.218715848056733 
2449	 0.218099921257295 
2450	 0.217414681535639 
2451	 0.216608669900788 
2452	 0.21587355426034 
2453	 0.215052627172116 
2454	 0.214198189788531 
2455	 0.213508319545327 
2456	 0.212656898711529 
2457	 0.21177240364592 
2458	 0.210919558473808 
2459	 0.20998473364152 
2460	 0.2092721650878 
2461	 0.208476542720323 
2462	 0.207659029947995 
2463	 0.206951976809042 
2464	 0.206175139733939 
2465	 0.205474190921655 
2466	 0.204742859779646 
2467	 0.204073055633579 
2468	 0.203412983739896 
2469	 0.202711278579082 
2470	 0.202073386166488 
2471	 0.201549366226124 
2472	 0.201129579758122 
2473	 0.200481124076909 
2474	 0.199917952853433 
2475	 0.199445681873455 
2476	 0.198686223034041 
2477	 0.198157326661152 
2478	 0.197865548601496 
2479	 0.197398926601374 
2480	 0.196892363259671 
2481	 0.196512648891873 
2482	 0.196000500072845 
2483	 0.195743494298828 
2484	 0.195649674851728 
2485	 0.195527458268046 
2486	 0.195504005832169 
2487	 0.195447814016102 
2488	 0.195110110051094 
2489	 0.194881502414648 
2490	 0.194574924077862 
2491	 0.194124446732334 
2492	 0.193962975345555 
2493	 0.193588198291979 
2494	 0.193042697518344 
2495	 0.192740249807211 
2496	 0.192607311935164 
2497	 0.192605047836534 
2498	 0.192704648968898 
2499	 0.192809858682722 
2500	 0.192843050430009 
