Wavelength	spectrum00015.asd
350	 0.04365832562182 
351	 0.041533430830672 
352	 3.84772577572982E-02 
353	 3.64571377424306E-02 
354	 3.65853300992533E-02 
355	 3.65037836367296E-02 
356	 3.62526754525067E-02 
357	 3.57946177715078E-02 
358	 3.28390403250275E-02 
359	 3.06741556439326E-02 
360	 3.05175724782721E-02 
361	 3.19126915017654E-02 
362	 3.15680000940507E-02 
363	 3.02653260321581E-02 
364	 2.89303642731336E-02 
365	 2.80182419778951E-02 
366	 2.91283300962366E-02 
367	 2.98472284496674E-02 
368	 2.85876011135514E-02 
369	 2.97590397429542E-02 
370	 2.98413065545835E-02 
371	 2.87075064016628E-02 
372	 2.82001368251619E-02 
373	 0.028685302954449 
374	 0.028921210960612 
375	 2.86491814226558E-02 
376	 2.92675988049678E-02 
377	 2.95539805960162E-02 
378	 0.0290614366668 
379	 2.79932282600094E-02 
380	 2.79001852686281E-02 
381	 2.81985973343523E-02 
382	 2.84484614554769E-02 
383	 2.83963680358697E-02 
384	 2.84227344388168E-02 
385	 2.88472372940076E-02 
386	 2.91875116670724E-02 
387	 2.77331715079454E-02 
388	 2.75217448883434E-02 
389	 2.83241758729776E-02 
390	 0.028993213323213 
391	 2.86956804750733E-02 
392	 2.88661075468609E-02 
393	 2.91701159643895E-02 
394	 2.83617110435097E-02 
395	 2.90381959575884E-02 
396	 2.97709209638349E-02 
397	 2.96721818555289E-02 
398	 2.95575726646741E-02 
399	 2.98409601652611E-02 
400	 3.02088904357347E-02 
401	 3.02040170730415E-02 
402	 2.97100449456826E-02 
403	 3.00849444796141E-02 
404	 3.11349280297249E-02 
405	 3.15474928618275E-02 
406	 3.17497013511383E-02 
407	 3.19825362531725E-02 
408	 3.23213047749855E-02 
409	 3.25789295116491E-02 
410	 3.26359340227908E-02 
411	 3.28923448904593E-02 
412	 3.36665272064813E-02 
413	 3.40274385029033E-02 
414	 3.42195437130767E-02 
415	 3.45176074673278E-02 
416	 3.51293537887187E-02 
417	 3.55838269425015E-02 
418	 3.59912250019492E-02 
419	 3.65159834537581E-02 
420	 3.72313781342978E-02 
421	 3.76877995959843E-02 
422	 3.81950030399877E-02 
423	 3.91918952468093E-02 
424	 3.97654113131304E-02 
425	 4.02548175357476E-02 
426	 4.09368312910715E-02 
427	 4.18941835114402E-02 
428	 4.25661926565034E-02 
429	 4.32818336464864E-02 
430	 4.42664512431349E-02 
431	 4.47360422379353E-02 
432	 4.57175911161632E-02 
433	 4.69386763426946E-02 
434	 4.75245237680163E-02 
435	 4.83398832257174E-02 
436	 4.94381849095085E-02 
437	 0.050609358651061 
438	 5.13765743770277E-02 
439	 0.052255357458695 
440	 5.32469566813349E-02 
441	 5.42193684577471E-02 
442	 5.51511439053522E-02 
443	 5.61881818337491E-02 
444	 5.72515749124859E-02 
445	 5.81092180453042E-02 
446	 5.90727829782592E-02 
447	 5.99979204258749E-02 
448	 6.08613546781934E-02 
449	 6.21023980170389E-02 
450	 6.31826350676694E-02 
451	 6.40837309970722E-02 
452	 6.49865781716274E-02 
453	 6.58982964509567E-02 
454	 6.69806349291369E-02 
455	 6.81628966602599E-02 
456	 6.91238482582303E-02 
457	 7.01088474188582E-02 
458	 7.10979388133413E-02 
459	 7.20670376639723E-02 
460	 7.31554357262217E-02 
461	 7.42467330098457E-02 
462	 7.52334143398388E-02 
463	 7.60614303927736E-02 
464	 7.70488061795769E-02 
465	 7.80951505783609E-02 
466	 7.90759690358205E-02 
467	 0.079905625313752 
468	 8.08142425724178E-02 
469	 8.17721237565188E-02 
470	 8.27251745323747E-02 
471	 8.38898872203259E-02 
472	 8.48884575290587E-02 
473	 8.57156908199133E-02 
474	 8.66631910243302E-02 
475	 8.75523431192205E-02 
476	 8.85419343883376E-02 
477	 8.96432124789141E-02 
478	 9.03984859033846E-02 
479	 9.13669305448182E-02 
480	 9.24963522923337E-02 
481	 9.35163920674171E-02 
482	 9.44347673325797E-02 
483	 9.54491932617707E-02 
484	 9.65819409952042E-02 
485	 9.76392390485379E-02 
486	 9.87749490447905E-02 
487	 9.99139516208738E-02 
488	 0.100967745386422 
489	 0.101954178089046 
490	 0.103043694008367 
491	 0.104176578876311 
492	 0.105185016626056 
493	 0.106306859174857 
494	 0.107413223414673 
495	 0.108454143658021 
496	 0.109575742746485 
497	 0.110796698693411 
498	 0.112026087802621 
499	 0.113193510250588 
500	 0.114530096844589 
501	 0.115793633060528 
502	 0.116985854327542 
503	 0.118325902803263 
504	 0.119616005038824 
505	 0.120899909567015 
506	 0.12221314590584 
507	 0.1234615255086 
508	 0.124711618736962 
509	 0.125991137826765 
510	 0.127286998777867 
511	 0.128440307724476 
512	 0.129616559270124 
513	 0.130895890023453 
514	 0.132219805736666 
515	 0.13339541659612 
516	 0.134518144677775 
517	 0.13571576952158 
518	 0.136934002728166 
519	 0.13812561942717 
520	 0.139297400209728 
521	 0.140484506394985 
522	 0.141576619201684 
523	 0.142629067300279 
524	 0.143695482272039 
525	 0.144780014985998 
526	 0.145879247558752 
527	 0.146979369613705 
528	 0.14806143637236 
529	 0.149105292759082 
530	 0.150114095363372 
531	 0.151115362256095 
532	 0.152155567013799 
533	 0.15314079615089 
534	 0.154102018242626 
535	 0.155067891077833 
536	 0.155974085971048 
537	 0.156896800960726 
538	 0.157830738837156 
539	 0.158727659426343 
540	 0.159594767390253 
541	 0.160449712743911 
542	 0.16130040481695 
543	 0.162137248294429 
544	 0.162923709299454 
545	 0.16369989272805 
546	 0.164514527606437 
547	 0.165336009006682 
548	 0.166163087725711 
549	 0.167030408534887 
550	 0.167995645606401 
551	 0.168917518064345 
552	 0.169876850201046 
553	 0.170925658686359 
554	 0.171934098442642 
555	 0.172927392303894 
556	 0.173918624358827 
557	 0.174911073982182 
558	 0.175860367177356 
559	 0.176823268976896 
560	 0.177771005184821 
561	 0.17854512321755 
562	 0.179211978586312 
563	 0.179785377319543 
564	 0.180273599078935 
565	 0.180693898186039 
566	 0.181096392297908 
567	 0.181505082470974 
568	 0.181930449038848 
569	 0.18250127295303 
570	 0.183138336428943 
571	 0.183784349445232 
572	 0.184514062742793 
573	 0.18519648135554 
574	 0.185837541372468 
575	 0.18645667125956 
576	 0.186818361170508 
577	 0.187020804723783 
578	 0.187172952931803 
579	 0.187364940775266 
580	 0.187685682267237 
581	 0.188068244119529 
582	 0.188439851635786 
583	 0.188840472168475 
584	 0.189278270985294 
585	 0.189749707195518 
586	 0.190242616241848 
587	 0.190744727169046 
588	 0.191240102817336 
589	 0.191729552933317 
590	 0.192242351248684 
591	 0.192699278203908 
592	 0.193157331230877 
593	 0.193684854178534 
594	 0.194210753488674 
595	 0.194675578860916 
596	 0.195081387702951 
597	 0.195480730562323 
598	 0.195823931782562 
599	 0.196143298536005 
600	 0.196472480553253 
601	 0.196812543190022 
602	 0.197155160758861 
603	 0.197486361040171 
604	 0.197806668163467 
605	 0.198233143974836 
606	 0.198643256300625 
607	 0.198990019391671 
608	 0.199344135658769 
609	 0.19966702980698 
610	 0.199965243552739 
611	 0.200260756042097 
612	 0.200592760961124 
613	 0.200887358998057 
614	 0.201142519235307 
615	 0.201401152068745 
616	 0.201623630808707 
617	 0.201892748383509 
618	 0.202213617039994 
619	 0.202425729063018 
620	 0.202660186715937 
621	 0.202923680152519 
622	 0.203183197515798 
623	 0.203424466575877 
624	 0.203653181479914 
625	 0.203877919908011 
626	 0.204108344649131 
627	 0.204335033320026 
628	 0.204533642602327 
629	 0.204716785316241 
630	 0.205003447785465 
631	 0.205241811985839 
632	 0.205435605177025 
633	 0.205649816676951 
634	 0.205844452332094 
635	 0.20602640891736 
636	 0.206212461555334 
637	 0.206425343663457 
638	 0.206610275642986 
639	 0.206808118096555 
640	 0.207041582867929 
641	 0.207191742256368 
642	 0.207355855100405 
643	 0.207555819365991 
644	 0.207759841580215 
645	 0.207915806624742 
646	 0.208058348833177 
647	 0.208229251128692 
648	 0.20846627943093 
649	 0.208664717987706 
650	 0.208804315355032 
651	 0.20892464871295 
652	 0.209194905668544 
653	 0.209386493809342 
654	 0.209469778906303 
655	 0.209589887104385 
656	 0.20981942251188 
657	 0.210032070590465 
658	 0.210164205877264 
659	 0.210359056981372 
660	 0.210543941108223 
661	 0.210693226038151 
662	 0.210817659109345 
663	 0.211039811426072 
664	 0.211222774345988 
665	 0.211351700425099 
666	 0.21154475935689 
667	 0.211696099858359 
668	 0.211890598494557 
669	 0.212155221501243 
670	 0.212267086282737 
671	 0.212411449842342 
672	 0.212621086846487 
673	 0.212849591039955 
674	 0.213032291236609 
675	 0.21319001690889 
676	 0.213348788503444 
677	 0.213529402180795 
678	 0.213759218069889 
679	 0.213973591659266 
680	 0.214138973185895 
681	 0.214391149911736 
682	 0.214585561450544 
683	 0.214745268423956 
684	 0.2149731275396 
685	 0.215196501756582 
686	 0.215402317315639 
687	 0.215602501625019 
688	 0.215835329770349 
689	 0.216049336337315 
690	 0.216277968892083 
691	 0.216546602544117 
692	 0.216774135634615 
693	 0.216998964994311 
694	 0.217244767942434 
695	 0.217519386830352 
696	 0.217783492001611 
697	 0.218068312962825 
698	 0.218358893775158 
699	 0.218551941696656 
700	 0.21881835885756 
701	 0.219118884736933 
702	 0.219387228953643 
703	 0.219707410151253 
704	 0.220010623235398 
705	 0.220288695827569 
706	 0.220579973564167 
707	 0.220911810182339 
708	 0.221288261628905 
709	 0.221666656206334 
710	 0.221931028623388 
711	 0.222248810816485 
712	 0.222621456222621 
713	 0.222999475506064 
714	 0.223354089044519 
715	 0.223722693325237 
716	 0.224088991631542 
717	 0.224409934974964 
718	 0.224808084522759 
719	 0.22524687208231 
720	 0.225672790800625 
721	 0.226041318752907 
722	 0.226430426835886 
723	 0.226855608382975 
724	 0.227306625497603 
725	 0.22776022145622 
726	 0.228227592451518 
727	 0.228675437151101 
728	 0.229056068803506 
729	 0.229514260617963 
730	 0.230001800845828 
731	 0.230488466948161 
732	 0.23102225707241 
733	 0.231503301223026 
734	 0.231992948863929 
735	 0.232561846563683 
736	 0.233128011211701 
737	 0.23367771218107 
738	 0.234219141389635 
739	 0.234772002815995 
740	 0.235315976540136 
741	 0.235878406138503 
742	 0.236468525838904 
743	 0.237062159869121 
744	 0.237633425012214 
745	 0.238215421778855 
746	 0.238839397437909 
747	 0.239474470142674 
748	 0.240091877673234 
749	 0.240704577477606 
750	 0.241342314932615 
751	 0.241956658363676 
752	 0.242595221696894 
753	 0.243261978829636 
754	 0.243892958376893 
755	 0.244538443515621 
756	 0.245241450568881 
757	 0.245985551066112 
758	 0.246582961226393 
759	 0.247228305131377 
760	 0.247924687678564 
761	 0.24859389058686 
762	 0.249277933146341 
763	 0.249973537168144 
764	 0.250669135910773 
765	 0.251351996149909 
766	 0.252077552055635 
767	 0.252825853297306 
768	 0.253566902677421 
769	 0.254282655878751 
770	 0.255002069118888 
771	 0.255727602183294 
772	 0.256451467355929 
773	 0.257174402910339 
774	 0.257866741301881 
775	 0.258530176895581 
776	 0.259199509755034 
777	 0.259954936331732 
778	 0.260741318652344 
779	 0.261481319481317 
780	 0.262095463714896 
781	 0.262755334701433 
782	 0.26346449388551 
783	 0.264182620187442 
784	 0.264916911085455 
785	 0.26559180945002 
786	 0.266227650627649 
787	 0.266893842449752 
788	 0.267570328148637 
789	 0.26819619954657 
790	 0.268795952765539 
791	 0.269490356764568 
792	 0.270087900362276 
793	 0.270643502014886 
794	 0.271239211464676 
795	 0.271899526082329 
796	 0.272501944458288 
797	 0.273068171102198 
798	 0.273652595813986 
799	 0.274168132763446 
800	 0.274706479122612 
801	 0.275266970747325 
802	 0.275776172291942 
803	 0.276250621549857 
804	 0.276738521131122 
805	 0.277244426797048 
806	 0.277702036040876 
807	 0.278167573240793 
808	 0.278621245749719 
809	 0.279041607001806 
810	 0.279456182585066 
811	 0.279879749898537 
812	 0.280302692742989 
813	 0.280709515975699 
814	 0.281127185742071 
815	 0.281515184550374 
816	 0.28188364340627 
817	 0.282281433923749 
818	 0.282626063677415 
819	 0.282922282597769 
820	 0.28320509377324 
821	 0.283532574514276 
822	 0.283863288326299 
823	 0.284189674405857 
824	 0.284509276895762 
825	 0.284813399168066 
826	 0.285075132047949 
827	 0.285301116525145 
828	 0.285527030261341 
829	 0.285842522788269 
830	 0.286140541786933 
831	 0.28638176621586 
832	 0.286599138824516 
833	 0.286792443363262 
834	 0.286989204029761 
835	 0.287212210212065 
836	 0.287471361760312 
837	 0.287686245493808 
838	 0.287842667337395 
839	 0.287969592316918 
840	 0.288153438315494 
841	 0.288378985845056 
842	 0.288590834055095 
843	 0.288735849026498 
844	 0.288862594178807 
845	 0.289005537750112 
846	 0.289171801229952 
847	 0.289345111422767 
848	 0.28950665573741 
849	 0.289654718819394 
850	 0.289790369640111 
851	 0.289914865396395 
852	 0.290028695976969 
853	 0.290164902956053 
854	 0.290329639018307 
855	 0.290461177257411 
856	 0.290574423318255 
857	 0.290716826340719 
858	 0.290908195556761 
859	 0.291034719828244 
860	 0.291139817964352 
861	 0.291255814010515 
862	 0.291401558886012 
863	 0.291561974702069 
864	 0.291704331558116 
865	 0.291811114626279 
866	 0.291889544604621 
867	 0.292022579540289 
868	 0.292226790601885 
869	 0.292451380095919 
870	 0.292579604300509 
871	 0.292764823749663 
872	 0.292934963691702 
873	 0.293049100896706 
874	 0.293241669822669 
875	 0.293467132459861 
876	 0.293705969313746 
877	 0.29392390087717 
878	 0.294002256718606 
879	 0.294195310619307 
880	 0.294455509224221 
881	 0.294615196695829 
882	 0.294753894607384 
883	 0.294938543232364 
884	 0.295143894537315 
885	 0.295300107350423 
886	 0.295599138024613 
887	 0.295897443270256 
888	 0.296126353643123 
889	 0.29634933504071 
890	 0.296580997336457 
891	 0.296788405165096 
892	 0.296978522924524 
893	 0.297238654244306 
894	 0.297515855969672 
895	 0.297788859216092 
896	 0.298053108271247 
897	 0.298329476196894 
898	 0.298563822905302 
899	 0.298789925600619 
900	 0.299056773659512 
901	 0.299340030333542 
902	 0.299666409660453 
903	 0.299968883987959 
904	 0.300187267330112 
905	 0.300549344394323 
906	 0.300902951274786 
907	 0.301194069496321 
908	 0.301466311371167 
909	 0.301782131139003 
910	 0.302120029431123 
911	 0.302461013604275 
912	 0.30280059088383 
913	 0.303143265850148 
914	 0.303516050461307 
915	 0.303921715001374 
916	 0.304326026604592 
917	 0.30466919890492 
918	 0.305032090709676 
919	 0.30545291599479 
920	 0.305836921540405 
921	 0.306222797749914 
922	 0.306652160906379 
923	 0.30713042883605 
924	 0.307575831856095 
925	 0.307982898897621 
926	 0.308414630091677 
927	 0.308903288408694 
928	 0.309293620038474 
929	 0.309710455254104 
930	 0.310166643633509 
931	 0.310623107780484 
932	 0.311045390073668 
933	 0.311510208977225 
934	 0.312013366133652 
935	 0.31251193667334 
936	 0.313038587258085 
937	 0.313517689524083 
938	 0.313929751840134 
939	 0.314319950673319 
940	 0.314830902624301 
941	 0.315348782498967 
942	 0.315810040695088 
943	 0.316229505285631 
944	 0.316681219253572 
945	 0.317167572671347 
946	 0.317637413164587 
947	 0.318017691068335 
948	 0.31850298266643 
949	 0.318978421894668 
950	 0.319378642565034 
951	 0.319763106293017 
952	 0.320166254751832 
953	 0.320607411793272 
954	 0.321070920327591 
955	 0.321503002261693 
956	 0.321978423180741 
957	 0.322399723007246 
958	 0.322733552538797 
959	 0.323110599595548 
960	 0.323488205085752 
961	 0.323853225887312 
962	 0.324234186683999 
963	 0.324727635846071 
964	 0.325073227232518 
965	 0.325398074306269 
966	 0.325832014499177 
967	 0.326272183187663 
968	 0.326581256331769 
969	 0.326857084827519 
970	 0.327215496279476 
971	 0.327622489399085 
972	 0.328046059116458 
973	 0.328391281824128 
974	 0.328645124991967 
975	 0.329054750003159 
976	 0.329446578805137 
977	 0.329785775429606 
978	 0.330093246728269 
979	 0.330412593882205 
980	 0.330706349180814 
981	 0.331012630693262 
982	 0.331360732647244 
983	 0.331669276806603 
984	 0.332037806932637 
985	 0.332396216588321 
986	 0.332684877951423 
987	 0.333084687705751 
988	 0.333449352818554 
989	 0.333809493098286 
990	 0.33419848478869 
991	 0.334442556649664 
992	 0.334596242207248 
993	 0.334858283059073 
994	 0.335338377508826 
995	 0.33569479745184 
996	 0.336024324347205 
997	 0.336362399966731 
998	 0.336711857600838 
999	 0.337026761161637 
1000	 0.337373745878962 
1001	 0.340916656924628 
1002	 0.341267415512716 
1003	 0.341630392676003 
1004	 0.341984275620996 
1005	 0.342341373938018 
1006	 0.342720636998814 
1007	 0.343090320467672 
1008	 0.343491268542365 
1009	 0.343968777421887 
1010	 0.344361004885564 
1011	 0.344719719105646 
1012	 0.345071465817318 
1013	 0.345362922131545 
1014	 0.345697173158025 
1015	 0.346045046658603 
1016	 0.346402993574741 
1017	 0.346800132463259 
1018	 0.347142443278778 
1019	 0.347431373441503 
1020	 0.347715679599198 
1021	 0.348003738422611 
1022	 0.348248019636413 
1023	 0.348546025443911 
1024	 0.34890352955328 
1025	 0.349199372163916 
1026	 0.349472573124449 
1027	 0.34973791427649 
1028	 0.349974037268117 
1029	 0.350227556856555 
1030	 0.350472934315372 
1031	 0.350731140198003 
1032	 0.35097670350956 
1033	 0.351182818986668 
1034	 0.351422698948732 
1035	 0.351695399229501 
1036	 0.351951846569832 
1037	 0.352227324281264 
1038	 0.35249272875804 
1039	 0.352743112151063 
1040	 0.352991777209559 
1041	 0.353253909945014 
1042	 0.353495239091192 
1043	 0.353713974975022 
1044	 0.353939755797413 
1045	 0.354188549687421 
1046	 0.354453583443241 
1047	 0.354722497176836 
1048	 0.355021257099778 
1049	 0.355309245722339 
1050	 0.355583769032465 
1051	 0.355878241239458 
1052	 0.356134723628517 
1053	 0.356412926021627 
1054	 0.356698421253627 
1055	 0.356975470989071 
1056	 0.357261183069963 
1057	 0.357546563988164 
1058	 0.357814728475019 
1059	 0.358083122640441 
1060	 0.358421769431235 
1061	 0.358755067292174 
1062	 0.359093811281665 
1063	 0.359441192137235 
1064	 0.359697793133023 
1065	 0.359965903128878 
1066	 0.360254601851759 
1067	 0.360518265242787 
1068	 0.360856801266856 
1069	 0.361181435117398 
1070	 0.361482987818606 
1071	 0.361768685094967 
1072	 0.362081626439372 
1073	 0.362361833667247 
1074	 0.362643835221527 
1075	 0.362935162813775 
1076	 0.363252635148472 
1077	 0.363574554461375 
1078	 0.363835918039391 
1079	 0.364142402446923 
1080	 0.364445570632606 
1081	 0.364689098430187 
1082	 0.364994388040966 
1083	 0.36529203489795 
1084	 0.365557972987085 
1085	 0.365856049197155 
1086	 0.366160023345945 
1087	 0.366473767451099 
1088	 0.366794312694514 
1089	 0.367097320339383 
1090	 0.367371419773499 
1091	 0.36763647013375 
1092	 0.367879907406796 
1093	 0.368122303537514 
1094	 0.36838414121389 
1095	 0.368633634399669 
1096	 0.368880311057831 
1097	 0.369137938998245 
1098	 0.369393502498457 
1099	 0.369663912174255 
1100	 0.369934199521869 
1101	 0.370189722439455 
1102	 0.370452528787406 
1103	 0.370711007230124 
1104	 0.370957706563262 
1105	 0.371213135410439 
1106	 0.371493077727382 
1107	 0.371753571813383 
1108	 0.372005966156383 
1109	 0.372256088486917 
1110	 0.372508458280942 
1111	 0.372786979583181 
1112	 0.373055283446334 
1113	 0.373335128642173 
1114	 0.373617137091004 
1115	 0.373846011648607 
1116	 0.374101240739921 
1117	 0.374359830137104 
1118	 0.374600240839922 
1119	 0.374823594389268 
1120	 0.375069812379812 
1121	 0.375314653687491 
1122	 0.375559075062858 
1123	 0.37582866656654 
1124	 0.376078275385937 
1125	 0.376322526286494 
1126	 0.376544613950833 
1127	 0.376742345252151 
1128	 0.37695542431067 
1129	 0.377158216291972 
1130	 0.377361500834232 
1131	 0.377565375442095 
1132	 0.377731491863119 
1133	 0.377896658288465 
1134	 0.378071071920972 
1135	 0.378236415910424 
1136	 0.378412572422863 
1137	 0.378561706896924 
1138	 0.378689310369358 
1139	 0.378814677665007 
1140	 0.378924849058911 
1141	 0.379041006412926 
1142	 0.379137155213671 
1143	 0.379225390465066 
1144	 0.379310177715634 
1145	 0.379380098214859 
1146	 0.37944569817022 
1147	 0.379513829326951 
1148	 0.379575413949993 
1149	 0.379601536130722 
1150	 0.379620389336436 
1151	 0.379650054988199 
1152	 0.379653422640639 
1153	 0.379633227696829 
1154	 0.379607885463661 
1155	 0.379578127423984 
1156	 0.379522342072571 
1157	 0.379460778575178 
1158	 0.379374018555225 
1159	 0.379265483364523 
1160	 0.379126901107212 
1161	 0.378985368925485 
1162	 0.378815807077756 
1163	 0.378662902522687 
1164	 0.378521316690063 
1165	 0.378361882807046 
1166	 0.378234113850497 
1167	 0.37811762995191 
1168	 0.377981333159886 
1169	 0.377867408141158 
1170	 0.377773696386616 
1171	 0.377675788116574 
1172	 0.377573528262639 
1173	 0.377499417989013 
1174	 0.377428473910092 
1175	 0.377384124312908 
1176	 0.377360954998708 
1177	 0.37735585177532 
1178	 0.377359843725195 
1179	 0.37740395122739 
1180	 0.377475791958156 
1181	 0.377583438929991 
1182	 0.377722254194743 
1183	 0.377880873680845 
1184	 0.378075822615172 
1185	 0.378290603998194 
1186	 0.37855041654747 
1187	 0.378865911577491 
1188	 0.379182375842219 
1189	 0.379527886008082 
1190	 0.379882892731993 
1191	 0.380246909147301 
1192	 0.380628561596704 
1193	 0.381032078058861 
1194	 0.381444229893645 
1195	 0.381888202778299 
1196	 0.382320555145272 
1197	 0.382751877336891 
1198	 0.383193389876245 
1199	 0.383639204975964 
1200	 0.384062983386896 
1201	 0.384513201103065 
1202	 0.384972874486063 
1203	 0.385460032836018 
1204	 0.385999814039882 
1205	 0.386568459262267 
1206	 0.387169317836408 
1207	 0.387830525065328 
1208	 0.388524055244331 
1209	 0.389271250167262 
1210	 0.390075148407309 
1211	 0.390921427747776 
1212	 0.391825250910679 
1213	 0.392762762268693 
1214	 0.393764994988504 
1215	 0.394775263196317 
1216	 0.395837842719116 
1217	 0.396868508498685 
1218	 0.397908569352649 
1219	 0.398938292034402 
1220	 0.399953541829582 
1221	 0.401003758341153 
1222	 0.402007918021753 
1223	 0.403014706700544 
1224	 0.403993734524721 
1225	 0.404936462309002 
1226	 0.405868583940562 
1227	 0.406787964515646 
1228	 0.407698818987827 
1229	 0.408595564146219 
1230	 0.409478159757522 
1231	 0.410344487689627 
1232	 0.411217029228262 
1233	 0.412073569985497 
1234	 0.41292088613125 
1235	 0.413757897649672 
1236	 0.414612485448026 
1237	 0.415471450297239 
1238	 0.416322202237678 
1239	 0.417176707173168 
1240	 0.418046901139391 
1241	 0.41891704122231 
1242	 0.419708158458094 
1243	 0.42052252578572 
1244	 0.42134021473533 
1245	 0.422133243720495 
1246	 0.422911032887551 
1247	 0.423675036716309 
1248	 0.424431663069485 
1249	 0.425161154460309 
1250	 0.425872880965188 
1251	 0.426554794114447 
1252	 0.427208451591544 
1253	 0.427851905631904 
1254	 0.428462584913786 
1255	 0.429083365879165 
1256	 0.429691519424242 
1257	 0.430308286742352 
1258	 0.430932457498432 
1259	 0.431545979113159 
1260	 0.432155294918953 
1261	 0.43276842259806 
1262	 0.433366028644939 
1263	 0.433992771161463 
1264	 0.434593789214652 
1265	 0.435186060998381 
1266	 0.435803574917829 
1267	 0.436419268468188 
1268	 0.437035185264639 
1269	 0.437669512313852 
1270	 0.438301484519268 
1271	 0.438922619737699 
1272	 0.439553969217781 
1273	 0.440198652959842 
1274	 0.440843905020471 
1275	 0.44147976908569 
1276	 0.442126891559945 
1277	 0.442805346064324 
1278	 0.44344948499427 
1279	 0.44407354171292 
1280	 0.444702266158622 
1281	 0.445306518786234 
1282	 0.44592370274183 
1283	 0.446540494709316 
1284	 0.447169277488239 
1285	 0.447804861572126 
1286	 0.448453284525918 
1287	 0.449073045629177 
1288	 0.449697025135408 
1289	 0.450299089363021 
1290	 0.450868546009674 
1291	 0.45145381397359 
1292	 0.452051717823409 
1293	 0.452613161999949 
1294	 0.453139384463733 
1295	 0.45369990088169 
1296	 0.454264722340857 
1297	 0.454811131638592 
1298	 0.455389481918295 
1299	 0.455917894926486 
1300	 0.456391587617076 
1301	 0.456880526011315 
1302	 0.457350365413867 
1303	 0.457832818111166 
1304	 0.458338483236373 
1305	 0.458810485538865 
1306	 0.459273613032874 
1307	 0.459724029058078 
1308	 0.460137117917465 
1309	 0.460565582366368 
1310	 0.460966500219545 
1311	 0.461360878964366 
1312	 0.461739671147711 
1313	 0.46210489272964 
1314	 0.462443750960559 
1315	 0.462760680974331 
1316	 0.463082458016003 
1317	 0.463384566406926 
1318	 0.463683774780799 
1319	 0.463998452197983 
1320	 0.464276796751159 
1321	 0.464532793756658 
1322	 0.464770837491743 
1323	 0.464985854294207 
1324	 0.465194401163525 
1325	 0.465388443086394 
1326	 0.465567377003956 
1327	 0.465735545247278 
1328	 0.465891658555626 
1329	 0.466049212344138 
1330	 0.466164410849921 
1331	 0.466263920673089 
1332	 0.466331299419604 
1333	 0.466356889726083 
1334	 0.466357333243631 
1335	 0.466352580991866 
1336	 0.466337802602192 
1337	 0.466285569122843 
1338	 0.466218939882254 
1339	 0.466112054649023 
1340	 0.46597211127432 
1341	 0.465802541096566 
1342	 0.465608579632934 
1343	 0.465374292642432 
1344	 0.465098039499475 
1345	 0.46480811257159 
1346	 0.464482362398938 
1347	 0.464151799450439 
1348	 0.463806779099657 
1349	 0.463444641580972 
1350	 0.463056268569831 
1351	 0.46267130553699 
1352	 0.462266516484072 
1353	 0.461872845960544 
1354	 0.461468651510236 
1355	 0.461090233301763 
1356	 0.460717365888352 
1357	 0.460363786660144 
1358	 0.460037905647369 
1359	 0.459712602548391 
1360	 0.459403358076761 
1361	 0.45909745781238 
1362	 0.458765017252439 
1363	 0.458450424638314 
1364	 0.458113310100024 
1365	 0.457767739367968 
1366	 0.457398085893645 
1367	 0.45701930036479 
1368	 0.456620243654123 
1369	 0.456197097065571 
1370	 0.455763221258298 
1371	 0.455314298184124 
1372	 0.454863461294043 
1373	 0.454394153159029 
1374	 0.453927093576468 
1375	 0.453455916913502 
1376	 0.452981466616113 
1377	 0.452508554736538 
1378	 0.452011619400118 
1379	 0.451517582332132 
1380	 0.450988855926253 
1381	 0.450468045688761 
1382	 0.449859981742141 
1383	 0.449225566736612 
1384	 0.448506157126485 
1385	 0.447704475875316 
1386	 0.446852673072653 
1387	 0.445903236635165 
1388	 0.444971098525454 
1389	 0.443959352795531 
1390	 0.443001148059608 
1391	 0.442080133848391 
1392	 0.441124374975012 
1393	 0.440275517919708 
1394	 0.43942772853759 
1395	 0.438563410251514 
1396	 0.437758631316621 
1397	 0.436831813529286 
1398	 0.435895469798386 
1399	 0.434791235898694 
1400	 0.433615762697835 
1401	 0.432281093450985 
1402	 0.430813445208363 
1403	 0.429216311689007 
1404	 0.427477750184865 
1405	 0.425669423864177 
1406	 0.423740959480906 
1407	 0.421725935965996 
1408	 0.419580593680634 
1409	 0.417429975669606 
1410	 0.415167817058686 
1411	 0.41292631047901 
1412	 0.410651080604659 
1413	 0.408425869000941 
1414	 0.406178110015301 
1415	 0.40397632113523 
1416	 0.401794424723088 
1417	 0.399665518434261 
1418	 0.397555918456195 
1419	 0.395500592613639 
1420	 0.393484098180542 
1421	 0.391558360638902 
1422	 0.389699348005366 
1423	 0.38788497519901 
1424	 0.386201027454693 
1425	 0.384457015081572 
1426	 0.382835956612834 
1427	 0.381161603186712 
1428	 0.379421742136624 
1429	 0.37774759781567 
1430	 0.375871489822334 
1431	 0.373930604242898 
1432	 0.371758070068622 
1433	 0.369448211989555 
1434	 0.366946022089823 
1435	 0.364217950309165 
1436	 0.361405143626172 
1437	 0.358364683827958 
1438	 0.355456771166126 
1439	 0.352344324683365 
1440	 0.349582144629177 
1441	 0.346767660003891 
1442	 0.344527498681899 
1443	 0.342409863005142 
1444	 0.341039947687674 
1445	 0.340134731087819 
1446	 0.339891190879992 
1447	 0.340273827246366 
1448	 0.341178990598095 
1449	 0.34286871349252 
1450	 0.344716711143906 
1451	 0.347204953886662 
1452	 0.349651813339191 
1453	 0.352488753725777 
1454	 0.355099855985008 
1455	 0.357831531071974 
1456	 0.360349690302469 
1457	 0.362761968058161 
1458	 0.365009660520197 
1459	 0.367104708139059 
1460	 0.369083601326582 
1461	 0.370890800699359 
1462	 0.372587513240123 
1463	 0.374127307370857 
1464	 0.375628391308102 
1465	 0.376984880315832 
1466	 0.378351972030246 
1467	 0.379647141353825 
1468	 0.380904504205178 
1469	 0.382137870650501 
1470	 0.383251469996625 
1471	 0.384352624297305 
1472	 0.385419643766401 
1473	 0.386422046959141 
1474	 0.387382255979658 
1475	 0.388246466910449 
1476	 0.389074829723591 
1477	 0.389745641085249 
1478	 0.390314061897499 
1479	 0.390747628134232 
1480	 0.391052837801574 
1481	 0.391248301806876 
1482	 0.391280964110026 
1483	 0.391308425014493 
1484	 0.391183497289492 
1485	 0.391162193186491 
1486	 0.39106298161113 
1487	 0.39116165909003 
1488	 0.391259743293087 
1489	 0.391641918642947 
1490	 0.392190598646751 
1491	 0.392947934535817 
1492	 0.393916525200644 
1493	 0.395081841090584 
1494	 0.396477317706569 
1495	 0.397986505773084 
1496	 0.399725006776636 
1497	 0.401523307733153 
1498	 0.403522080227587 
1499	 0.405462417006878 
1500	 0.407518391891016 
1501	 0.409491730829715 
1502	 0.411479587494178 
1503	 0.413334076490115 
1504	 0.415151315737273 
1505	 0.416851107885952 
1506	 0.418443147518001 
1507	 0.419922940120989 
1508	 0.421298773943666 
1509	 0.422582584283982 
1510	 0.42373428392457 
1511	 0.424806085647322 
1512	 0.42577781132909 
1513	 0.426692317566719 
1514	 0.427522276594323 
1515	 0.428281467871124 
1516	 0.428981668417789 
1517	 0.429602386207744 
1518	 0.430119478448181 
1519	 0.430590316548626 
1520	 0.430993989873869 
1521	 0.431345220454195 
1522	 0.431634063913616 
1523	 0.431882200685871 
1524	 0.432102581389726 
1525	 0.432269372250016 
1526	 0.432438600241993 
1527	 0.432580873120847 
1528	 0.432726401345457 
1529	 0.432851469598807 
1530	 0.432994162219345 
1531	 0.433129883179791 
1532	 0.433296577025777 
1533	 0.433452846826137 
1534	 0.43369835665804 
1535	 0.433964587914924 
1536	 0.434338607537547 
1537	 0.434778482314375 
1538	 0.435324076005912 
1539	 0.435951018166556 
1540	 0.436686012134336 
1541	 0.437517489692283 
1542	 0.438460004376075 
1543	 0.439523442384119 
1544	 0.440641510133423 
1545	 0.441859692231002 
1546	 0.443145245930743 
1547	 0.444529199482349 
1548	 0.445914621862502 
1549	 0.447389865875292 
1550	 0.448837599412301 
1551	 0.450286563673798 
1552	 0.451748275827178 
1553	 0.453249463214903 
1554	 0.454708108775163 
1555	 0.456175863278445 
1556	 0.45758530986911 
1557	 0.458953892486121 
1558	 0.460309273032161 
1559	 0.461628473856331 
1560	 0.46293094623126 
1561	 0.464221491092964 
1562	 0.465482414047746 
1563	 0.466717175420872 
1564	 0.467921004804724 
1565	 0.469094990425837 
1566	 0.470252405409114 
1567	 0.471375668406675 
1568	 0.472489356779279 
1569	 0.47358705046044 
1570	 0.474672721423592 
1571	 0.475747980155794 
1572	 0.47679291973008 
1573	 0.477815223137672 
1574	 0.478827286584796 
1575	 0.479820958439776 
1576	 0.480788139045357 
1577	 0.481742116165924 
1578	 0.482673616315422 
1579	 0.483557349192995 
1580	 0.484455056359789 
1581	 0.485347340112219 
1582	 0.486235925850563 
1583	 0.487132359132432 
1584	 0.488004791770062 
1585	 0.488853306739317 
1586	 0.489712715488401 
1587	 0.490565603732392 
1588	 0.491409578583688 
1589	 0.492247820736518 
1590	 0.493097119068287 
1591	 0.493942412973005 
1592	 0.494788390661758 
1593	 0.495645425611751 
1594	 0.496503596931891 
1595	 0.497358360657179 
1596	 0.498206708646743 
1597	 0.499051082492093 
1598	 0.499908958727286 
1599	 0.500769431449849 
1600	 0.501629151092224 
1601	 0.50251554902341 
1602	 0.503375843659772 
1603	 0.504231761452779 
1604	 0.5050510648865 
1605	 0.505843047100216 
1606	 0.50662469374287 
1607	 0.507378333611839 
1608	 0.508120609689 
1609	 0.50885086616651 
1610	 0.509571959158323 
1611	 0.510277044450279 
1612	 0.510963905455542 
1613	 0.511641212136678 
1614	 0.512303454842148 
1615	 0.512955827400404 
1616	 0.513577554437785 
1617	 0.514177702134568 
1618	 0.514760720557904 
1619	 0.51531700369697 
1620	 0.515847215244123 
1621	 0.516349318270753 
1622	 0.516850939612846 
1623	 0.517330992007619 
1624	 0.517800909027539 
1625	 0.518258784718618 
1626	 0.518720540710018 
1627	 0.519167887470141 
1628	 0.519613094385346 
1629	 0.5200564583761 
1630	 0.520513488865058 
1631	 0.520973684045971 
1632	 0.521428575285853 
1633	 0.521913015087527 
1634	 0.522360549857539 
1635	 0.52276880456578 
1636	 0.523189949771096 
1637	 0.523602846939506 
1638	 0.524013131222019 
1639	 0.524436790645132 
1640	 0.524839031159048 
1641	 0.525231769380499 
1642	 0.525604204573727 
1643	 0.525983884162693 
1644	 0.526303765075991 
1645	 0.526593905558415 
1646	 0.526834608816999 
1647	 0.527024630699929 
1648	 0.527170963832424 
1649	 0.527270439487005 
1650	 0.527337277986342 
1651	 0.527359925131813 
1652	 0.527337901663754 
1653	 0.527293960852398 
1654	 0.527178656181441 
1655	 0.527009914127434 
1656	 0.526776049467544 
1657	 0.526500047780811 
1658	 0.526113074230428 
1659	 0.52566800492629 
1660	 0.525096136225915 
1661	 0.524423492854438 
1662	 0.523621419216874 
1663	 0.522696935821284 
1664	 0.521645201180205 
1665	 0.520476417792385 
1666	 0.51914847771184 
1667	 0.517683692782334 
1668	 0.516093747791229 
1669	 0.514370381712688 
1670	 0.51248151324872 
1671	 0.510413664791544 
1672	 0.508249309951079 
1673	 0.505919814416216 
1674	 0.503504269601401 
1675	 0.500972552418658 
1676	 0.498429528671291 
1677	 0.49578882428279 
1678	 0.493106828262836 
1679	 0.490350137406587 
1680	 0.487601243567102 
1681	 0.484785844807644 
1682	 0.481973827717832 
1683	 0.479186816994567 
1684	 0.476409344608814 
1685	 0.473593814055569 
1686	 0.470814540398579 
1687	 0.46801506388935 
1688	 0.465291145015924 
1689	 0.462585097989267 
1690	 0.45994615404728 
1691	 0.457420317471682 
1692	 0.454930422334894 
1693	 0.452487899438968 
1694	 0.450054719022004 
1695	 0.447657073822644 
1696	 0.445256682462211 
1697	 0.44287151419015 
1698	 0.440471466608639 
1699	 0.438091663196426 
1700	 0.435760255046321 
1701	 0.433419415455638 
1702	 0.431137346406305 
1703	 0.428888319751087 
1704	 0.426678819156266 
1705	 0.424483967999698 
1706	 0.422308124996588 
1707	 0.420344216086563 
1708	 0.418405767286695 
1709	 0.416540308494327 
1710	 0.414757571334336 
1711	 0.412902652588084 
1712	 0.41111150072604 
1713	 0.409266793171946 
1714	 0.407397684138442 
1715	 0.405682026242405 
1716	 0.403920889791239 
1717	 0.402211101650023 
1718	 0.400554893686198 
1719	 0.398808499215924 
1720	 0.397178523224349 
1721	 0.395613293744658 
1722	 0.394085177329924 
1723	 0.392772087655536 
1724	 0.391556596909491 
1725	 0.390485433541279 
1726	 0.389643692335811 
1727	 0.388919975511992 
1728	 0.388371019175642 
1729	 0.387972818984856 
1730	 0.387730507498641 
1731	 0.387659200135564 
1732	 0.387702743623566 
1733	 0.387778785133679 
1734	 0.387862525577058 
1735	 0.387918938954703 
1736	 0.387894642467293 
1737	 0.387825671115722 
1738	 0.387699076363594 
1739	 0.387508395470504 
1740	 0.387246155920968 
1741	 0.386947342542568 
1742	 0.386538789882652 
1743	 0.386196256171238 
1744	 0.385785981745486 
1745	 0.385520405833516 
1746	 0.385312842842319 
1747	 0.385244157625676 
1748	 0.385263775177399 
1749	 0.385450616894994 
1750	 0.385764138257302 
1751	 0.386235536248357 
1752	 0.386861789723165 
1753	 0.387663469677016 
1754	 0.388635367137976 
1755	 0.389714515941183 
1756	 0.390968192379535 
1757	 0.392285103776157 
1758	 0.393789692359944 
1759	 0.39538015700272 
1760	 0.397112745907261 
1761	 0.398951836343509 
1762	 0.400751364180366 
1763	 0.402649575762396 
1764	 0.404597001142034 
1765	 0.406577748564661 
1766	 0.408690887678676 
1767	 0.410746144187357 
1768	 0.412794467733893 
1769	 0.41480464132131 
1770	 0.416651270588349 
1771	 0.418500636166553 
1772	 0.420242700360795 
1773	 0.421870198810826 
1774	 0.42352036685617 
1775	 0.425035937354362 
1776	 0.426533134422974 
1777	 0.428038174614478 
1778	 0.429390084557304 
1779	 0.430751684047484 
1780	 0.432083570805147 
1781	 0.433351468588462 
1782	 0.434692041920925 
1783	 0.435982158067203 
1784	 0.437296220985889 
1785	 0.438592016665235 
1786	 0.43983887024986 
1787	 0.441096219386918 
1788	 0.442305074657706 
1789	 0.443462347359214 
1790	 0.444638613306485 
1791	 0.445802095361005 
1792	 0.44696296700693 
1793	 0.448114058698301 
1794	 0.44919513791079 
1795	 0.450289653911194 
1796	 0.451308908608194 
1797	 0.452331744017879 
1798	 0.453313041055261 
1799	 0.454235997291541 
1800	 0.455158070558508 
1801	 0.468315502702406 
1802	 0.469221110407498 
1803	 0.470094149224004 
1804	 0.470910264526232 
1805	 0.471716346824563 
1806	 0.472487122528612 
1807	 0.473236239462671 
1808	 0.473972518862764 
1809	 0.474689317253971 
1810	 0.4753682550822 
1811	 0.476022512742713 
1812	 0.476672905785851 
1813	 0.477269029448492 
1814	 0.477915448353278 
1815	 0.478548830565577 
1816	 0.479169222741672 
1817	 0.479798078017811 
1818	 0.480433493163619 
1819	 0.481035464556909 
1820	 0.481632771117654 
1821	 0.482220780819557 
1822	 0.482788831772064 
1823	 0.483351719606054 
1824	 0.483875530439181 
1825	 0.48441709594632 
1826	 0.484921011535144 
1827	 0.485388655408795 
1828	 0.485831298722354 
1829	 0.486251855978402 
1830	 0.48666622679921 
1831	 0.487048029516173 
1832	 0.48744470376044 
1833	 0.487809654029174 
1834	 0.48814206744011 
1835	 0.488438161137952 
1836	 0.488690508107048 
1837	 0.488952188347875 
1838	 0.489228786118108 
1839	 0.489448053858369 
1840	 0.489645966704029 
1841	 0.48980762259625 
1842	 0.489950009569464 
1843	 0.490020687024438 
1844	 0.490062468691969 
1845	 0.490077766704043 
1846	 0.489985106116102 
1847	 0.489839223932658 
1848	 0.489609049810325 
1849	 0.489315356997833 
1850	 0.488913922573362 
1851	 0.488451063687602 
1852	 0.487856365296194 
1853	 0.487129040427755 
1854	 0.48634551184035 
1855	 0.485431560205381 
1856	 0.484430423051882 
1857	 0.483328218281321 
1858	 0.482036586455428 
1859	 0.480642928788417 
1860	 0.479130422725459 
1861	 0.4774576188102 
1862	 0.47562572818485 
1863	 0.473751674852437 
1864	 0.471675886560233 
1865	 0.469514408978939 
1866	 0.467232120652834 
1867	 0.464631772153679 
1868	 0.46198980939677 
1869	 0.459103103657064 
1870	 0.456038672542924 
1871	 0.452860257961937 
1872	 0.449532961215188 
1873	 0.445998297826866 
1874	 0.442374477565073 
1875	 0.43865348341709 
1876	 0.434517241062897 
1877	 0.430397193141389 
1878	 0.426016586692057 
1879	 0.421342978146801 
1880	 0.416848414982791 
1881	 0.412083660634602 
1882	 0.407078593899152 
1883	 0.40198705156003 
1884	 0.396779600047319 
1885	 0.391048620278675 
1886	 0.385347642609656 
1887	 0.379365920776147 
1888	 0.373096306416921 
1889	 0.367164969643358 
1890	 0.360939017753604 
1891	 0.354732735447472 
1892	 0.348659123435179 
1893	 0.342363127769594 
1894	 0.335803527549872 
1895	 0.329491016824201 
1896	 0.323073788858335 
1897	 0.316611610525152 
1898	 0.310689434822564 
1899	 0.304661006496674 
1900	 0.298794482411755 
1901	 0.293175232788452 
1902	 0.287258997528296 
1903	 0.281668965052049 
1904	 0.276200275489579 
1905	 0.27079922762118 
1906	 0.265496784995834 
1907	 0.260752074318037 
1908	 0.255956818788673 
1909	 0.251350617815233 
1910	 0.247006162621397 
1911	 0.242438941834645 
1912	 0.2381207183888 
1913	 0.233834813975087 
1914	 0.22948232772659 
1915	 0.225349767620654 
1916	 0.221469046437652 
1917	 0.217444148350354 
1918	 0.213474311886405 
1919	 0.209568144483239 
1920	 0.205366937532582 
1921	 0.201278339640061 
1922	 0.197085974571135 
1923	 0.192763429456095 
1924	 0.18875675056834 
1925	 0.184610767558274 
1926	 0.180546490850586 
1927	 0.176602556528748 
1928	 0.172631736957522 
1929	 0.168542403783209 
1930	 0.164724842190752 
1931	 0.161004489981772 
1932	 0.157437657308552 
1933	 0.154383673882749 
1934	 0.151499470358282 
1935	 0.148903651849191 
1936	 0.146733602069533 
1937	 0.144783111073547 
1938	 0.143063977141248 
1939	 0.14173659095521 
1940	 0.140723976234457 
1941	 0.140014544341583 
1942	 0.139688565242595 
1943	 0.139610587434179 
1944	 0.139792275096299 
1945	 0.140296301858663 
1946	 0.141146644865736 
1947	 0.142222741742962 
1948	 0.143744817885685 
1949	 0.145694235466548 
1950	 0.147900889018014 
1951	 0.150471328827571 
1952	 0.153380988823651 
1953	 0.156593207434339 
1954	 0.16012693381997 
1955	 0.164140191999143 
1956	 0.168181960635604 
1957	 0.172329962984906 
1958	 0.176500939568239 
1959	 0.180218255432263 
1960	 0.183731823229358 
1961	 0.1868925365543 
1962	 0.189687518659609 
1963	 0.192199391518855 
1964	 0.194427527062653 
1965	 0.196325182254791 
1966	 0.197879812361903 
1967	 0.199208630429143 
1968	 0.200228445037888 
1969	 0.201216285212739 
1970	 0.202150877432247 
1971	 0.203087314912424 
1972	 0.204148414120831 
1973	 0.205276028304877 
1974	 0.206531676944598 
1975	 0.20793637092847 
1976	 0.209392113098472 
1977	 0.210927049496578 
1978	 0.212568171315749 
1979	 0.214290002803627 
1980	 0.216070725701017 
1981	 0.21808149720815 
1982	 0.220107721868038 
1983	 0.222322590597828 
1984	 0.224723086325995 
1985	 0.227093817561057 
1986	 0.229716678745328 
1987	 0.232584578198585 
1988	 0.235483953205824 
1989	 0.238906423682982 
1990	 0.242708005635406 
1991	 0.246771494051169 
1992	 0.251200960093161 
1993	 0.256042964424921 
1994	 0.260778387378241 
1995	 0.265908602693407 
1996	 0.271123057019623 
1997	 0.27631651667553 
1998	 0.281703548008499 
1999	 0.287411068837908 
2000	 0.292766768606469 
2001	 0.298349619372911 
2002	 0.303386531776526 
2003	 0.308099862504931 
2004	 0.312670508075312 
2005	 0.316874442134698 
2006	 0.320984374535359 
2007	 0.32505059480855 
2008	 0.328757209905162 
2009	 0.332250260330665 
2010	 0.335584335867985 
2011	 0.338448725730342 
2012	 0.341196758229194 
2013	 0.343761207421542 
2014	 0.346042145463848 
2015	 0.348253358267034 
2016	 0.350353933105084 
2017	 0.352253251554093 
2018	 0.354021727325617 
2019	 0.355588747892333 
2020	 0.35691121766883 
2021	 0.358148512691828 
2022	 0.359243408453661 
2023	 0.360158416362772 
2024	 0.361038095502882 
2025	 0.361785329656656 
2026	 0.362419113847323 
2027	 0.362921684507939 
2028	 0.363350243077281 
2029	 0.363630980708872 
2030	 0.363899021161049 
2031	 0.364069395170878 
2032	 0.364237051511452 
2033	 0.364335113482025 
2034	 0.364448930571193 
2035	 0.364540345011598 
2036	 0.364636189774203 
2037	 0.364724488073179 
2038	 0.364829842737361 
2039	 0.364935882347764 
2040	 0.365027235434866 
2041	 0.365166946933961 
2042	 0.365328423370651 
2043	 0.365506460628777 
2044	 0.365726944988685 
2045	 0.365936554339849 
2046	 0.36616376648721 
2047	 0.36637557236504 
2048	 0.366592483513525 
2049	 0.366796328217723 
2050	 0.367000388636906 
2051	 0.367171298470171 
2052	 0.367341489587484 
2053	 0.367507820267522 
2054	 0.367652434943786 
2055	 0.367783603365721 
2056	 0.367894288753014 
2057	 0.367974522110636 
2058	 0.368066797249303 
2059	 0.368140981432792 
2060	 0.368227268046881 
2061	 0.368322128865356 
2062	 0.36841425535653 
2063	 0.368486941653366 
2064	 0.368590972231261 
2065	 0.368703007609433 
2066	 0.368837457820499 
2067	 0.369004067577425 
2068	 0.369170170715612 
2069	 0.369339946441018 
2070	 0.369526613215758 
2071	 0.36969935535403 
2072	 0.369881951005065 
2073	 0.370038140256378 
2074	 0.370188633389041 
2075	 0.370310933353584 
2076	 0.370426945511662 
2077	 0.370495421603225 
2078	 0.370537233799228 
2079	 0.370545012527429 
2080	 0.370518242882406 
2081	 0.370447632032473 
2082	 0.370337385076274 
2083	 0.370198518527645 
2084	 0.370014604132183 
2085	 0.369803796253333 
2086	 0.369555982654622 
2087	 0.369269835065735 
2088	 0.368969708554019 
2089	 0.368634791081449 
2090	 0.368280235352512 
2091	 0.367921400914277 
2092	 0.367513429595022 
2093	 0.367072407550844 
2094	 0.366590254423118 
2095	 0.366054768185988 
2096	 0.365506365306495 
2097	 0.364930658585403 
2098	 0.364315255097266 
2099	 0.363698968090763 
2100	 0.363063439711962 
2101	 0.362377925318224 
2102	 0.36165383366414 
2103	 0.360918703796255 
2104	 0.360139314780203 
2105	 0.359355444376723 
2106	 0.358558015970374 
2107	 0.357742284067505 
2108	 0.356915529518139 
2109	 0.356054720575855 
2110	 0.355171454925387 
2111	 0.354270734290088 
2112	 0.353307117889488 
2113	 0.352374533467275 
2114	 0.351451135524612 
2115	 0.350514173423938 
2116	 0.349568840419384 
2117	 0.34866195519232 
2118	 0.347697625760783 
2119	 0.346691498595645 
2120	 0.345737549543698 
2121	 0.344758276850373 
2122	 0.343835398228564 
2123	 0.342962194884238 
2124	 0.342088342895339 
2125	 0.341246284241881 
2126	 0.340391052021704 
2127	 0.339541363423865 
2128	 0.338705519604018 
2129	 0.33784310597589 
2130	 0.33703689141909 
2131	 0.336273584933767 
2132	 0.335517666584711 
2133	 0.334797565488608 
2134	 0.33410011690261 
2135	 0.333336196489158 
2136	 0.332625353342297 
2137	 0.331908505011379 
2138	 0.331168692461352 
2139	 0.330476625760141 
2140	 0.329836222086806 
2141	 0.329155365375379 
2142	 0.328486040838934 
2143	 0.327796546069257 
2144	 0.327076808143975 
2145	 0.326384213599068 
2146	 0.325667975795171 
2147	 0.32500312034161 
2148	 0.324389208312068 
2149	 0.323752025069865 
2150	 0.323154647516642 
2151	 0.322525788960336 
2152	 0.321858725050991 
2153	 0.321212145505879 
2154	 0.320570570702234 
2155	 0.319875332505835 
2156	 0.31922420782099 
2157	 0.318599530599582 
2158	 0.317922507842956 
2159	 0.317238524074534 
2160	 0.316545892937558 
2161	 0.315807454090262 
2162	 0.315100452758383 
2163	 0.314385919821742 
2164	 0.313718061252801 
2165	 0.31306803428191 
2166	 0.312431858251136 
2167	 0.311847759758249 
2168	 0.311247925367482 
2169	 0.310603350283134 
2170	 0.310044353681485 
2171	 0.309497603157664 
2172	 0.309022009491732 
2173	 0.308626503492914 
2174	 0.308266403586011 
2175	 0.307939796065947 
2176	 0.307695561457954 
2177	 0.307467988009092 
2178	 0.307279634128341 
2179	 0.30714332443726 
2180	 0.307074486036633 
2181	 0.306980500673719 
2182	 0.306937268365976 
2183	 0.306856779330871 
2184	 0.306753106870436 
2185	 0.306659602593421 
2186	 0.306600279882315 
2187	 0.306474813685844 
2188	 0.306316447328928 
2189	 0.306145523048864 
2190	 0.305947564457246 
2191	 0.305714475560694 
2192	 0.305494438828369 
2193	 0.305191525042316 
2194	 0.304816134255108 
2195	 0.3044086511377 
2196	 0.303945397451877 
2197	 0.303442125091666 
2198	 0.302917925759606 
2199	 0.302326310370389 
2200	 0.3017095248448 
2201	 0.301055958217037 
2202	 0.300348551209763 
2203	 0.29959194627377 
2204	 0.298811602007305 
2205	 0.297956666334704 
2206	 0.29713495401818 
2207	 0.296288779153827 
2208	 0.295468069998754 
2209	 0.294661696843735 
2210	 0.293853313311549 
2211	 0.293005184043747 
2212	 0.292261994849654 
2213	 0.291506570247082 
2214	 0.290888032189154 
2215	 0.290365733910369 
2216	 0.289944424870601 
2217	 0.289623195349735 
2218	 0.289398719126001 
2219	 0.289305014013718 
2220	 0.289265731153957 
2221	 0.289319331376374 
2222	 0.289447953926439 
2223	 0.289613672214829 
2224	 0.289812923723 
2225	 0.290018984621848 
2226	 0.290182691930608 
2227	 0.290192651198229 
2228	 0.290157465000887 
2229	 0.289927043587826 
2230	 0.289556111679333 
2231	 0.289017042912536 
2232	 0.288346309732696 
2233	 0.287472190998483 
2234	 0.286426706467268 
2235	 0.285173886409207 
2236	 0.283707856200799 
2237	 0.282102217983834 
2238	 0.28025640023667 
2239	 0.27833374522329 
2240	 0.276263580344427 
2241	 0.274077350104478 
2242	 0.271826200723261 
2243	 0.269345372267626 
2244	 0.266637916712184 
2245	 0.263882426521137 
2246	 0.260835932160309 
2247	 0.257886357711072 
2248	 0.254971444098197 
2249	 0.251960631126145 
2250	 0.248915552832929 
2251	 0.245865320043056 
2252	 0.24257815825459 
2253	 0.23938150343812 
2254	 0.23616432960231 
2255	 0.232951223750378 
2256	 0.230000422514816 
2257	 0.22701575594243 
2258	 0.224155803199013 
2259	 0.221436033227804 
2260	 0.218709782574421 
2261	 0.215978156423988 
2262	 0.213464063563848 
2263	 0.21098820893634 
2264	 0.208759076147204 
2265	 0.206766012788287 
2266	 0.204843222824506 
2267	 0.20310119565165 
2268	 0.201432078607969 
2269	 0.199893741147086 
2270	 0.198431562716534 
2271	 0.197072359921348 
2272	 0.195781101424395 
2273	 0.194630514784063 
2274	 0.193448822265988 
2275	 0.192395245247808 
2276	 0.191227417983296 
2277	 0.190049943613581 
2278	 0.18878830526549 
2279	 0.187414305470548 
2280	 0.186036661285099 
2281	 0.184633867721518 
2282	 0.183151665204387 
2283	 0.181621411737443 
2284	 0.180076300658152 
2285	 0.178344821638282 
2286	 0.176623873254738 
2287	 0.174842266715025 
2288	 0.172993897053544 
2289	 0.171236517530535 
2290	 0.169450181496742 
2291	 0.167725842080106 
2292	 0.166022158759177 
2293	 0.164262907120051 
2294	 0.162630998523327 
2295	 0.161083377331233 
2296	 0.15966348308353 
2297	 0.158518683281438 
2298	 0.157587172843283 
2299	 0.156880675330812 
2300	 0.156409960448033 
2301	 0.156186390750952 
2302	 0.156193502661909 
2303	 0.156472453275257 
2304	 0.157041044738673 
2305	 0.157814526094529 
2306	 0.158895853503981 
2307	 0.160117207357035 
2308	 0.1615533924664 
2309	 0.16318262712369 
2310	 0.16506887989879 
2311	 0.167006262582528 
2312	 0.169271129732499 
2313	 0.171348896672149 
2314	 0.173483365621569 
2315	 0.175496688306304 
2316	 0.177460518691401 
2317	 0.179259127992313 
2318	 0.181018448610842 
2319	 0.182520146023989 
2320	 0.183870899566974 
2321	 0.184968793257838 
2322	 0.185779747803175 
2323	 0.186476737311174 
2324	 0.18694556995771 
2325	 0.187268886971745 
2326	 0.187440885387571 
2327	 0.187437136225785 
2328	 0.187210006329586 
2329	 0.186865338627095 
2330	 0.186348272879345 
2331	 0.185708923482714 
2332	 0.184957355876174 
2333	 0.184044169574051 
2334	 0.182952411404662 
2335	 0.18178348971469 
2336	 0.180440640572505 
2337	 0.178991797731538 
2338	 0.17765281059138 
2339	 0.176244281929066 
2340	 0.17486639964077 
2341	 0.173620930781887 
2342	 0.17239056169638 
2343	 0.171305179724914 
2344	 0.170422999974253 
2345	 0.169856375067367 
2346	 0.169592409779756 
2347	 0.169565699315302 
2348	 0.169804038351875 
2349	 0.170339651363087 
2350	 0.171094359264453 
2351	 0.172041623624186 
2352	 0.173068758649519 
2353	 0.174113673623506 
2354	 0.175053863242474 
2355	 0.175906891726941 
2356	 0.176725776537982 
2357	 0.177357402509191 
2358	 0.177869223831448 
2359	 0.178188338566882 
2360	 0.178274372353276 
2361	 0.178178592470903 
2362	 0.17797643590122 
2363	 0.177647379025161 
2364	 0.177239819258415 
2365	 0.176803618097852 
2366	 0.176279548377074 
2367	 0.175749570382667 
2368	 0.175175376926178 
2369	 0.174567301021008 
2370	 0.173940616001797 
2371	 0.173196303193724 
2372	 0.17243829748967 
2373	 0.171730014240668 
2374	 0.170965617572349 
2375	 0.170223076248073 
2376	 0.169523954862283 
2377	 0.168718151988484 
2378	 0.167872672702388 
2379	 0.167028221161633 
2380	 0.166129003682024 
2381	 0.165168090797675 
2382	 0.164228785608696 
2383	 0.163309027764103 
2384	 0.162361795763613 
2385	 0.161405790415387 
2386	 0.160391721815237 
2387	 0.159326672538844 
2388	 0.158235810608772 
2389	 0.157097737770259 
2390	 0.155973316517378 
2391	 0.154857628915899 
2392	 0.153734613657526 
2393	 0.152565951143384 
2394	 0.151413137763018 
2395	 0.150257711003031 
2396	 0.149110186837221 
2397	 0.147991546529435 
2398	 0.146817140248207 
2399	 0.145633209376862 
2400	 0.144464254393148 
2401	 0.143227160578574 
2402	 0.142037859490588 
2403	 0.140911549918076 
2404	 0.139772492849056 
2405	 0.138695132515677 
2406	 0.137667972008999 
2407	 0.136680448627247 
2408	 0.135713641598628 
2409	 0.134728506910051 
2410	 0.13383311997202 
2411	 0.13294080206639 
2412	 0.132090237570309 
2413	 0.131315904743373 
2414	 0.130493381564194 
2415	 0.129733295924408 
2416	 0.129012991002372 
2417	 0.128323738509651 
2418	 0.127706534646089 
2419	 0.127103188796225 
2420	 0.126511805929744 
2421	 0.125964546712364 
2422	 0.125501042490186 
2423	 0.124989832647617 
2424	 0.124473839738782 
2425	 0.124075640387145 
2426	 0.123730006114103 
2427	 0.123403608432064 
2428	 0.123073853292836 
2429	 0.122741086872132 
2430	 0.122288925827816 
2431	 0.121809545133065 
2432	 0.121398165377257 
2433	 0.120938584067757 
2434	 0.120608215522542 
2435	 0.120394661533277 
2436	 0.120102187328283 
2437	 0.119756387111905 
2438	 0.119399435966379 
2439	 0.119059884540334 
2440	 0.118777990645412 
2441	 0.118572521641484 
2442	 0.118354453871078 
2443	 0.118038980570791 
2444	 0.117721861192244 
2445	 0.11743315996221 
2446	 0.117097402237654 
2447	 0.116783473003811 
2448	 0.116489137755369 
2449	 0.116181140153094 
2450	 0.115916416439723 
2451	 0.115617389956806 
2452	 0.115248299702 
2453	 0.115004239705026 
2454	 0.11480784816897 
2455	 0.114476743380842 
2456	 0.114059532433069 
2457	 0.113560321492479 
2458	 0.112981039643318 
2459	 0.112361355944635 
2460	 0.11196915672239 
2461	 0.111554428075667 
2462	 0.110954079958828 
2463	 0.110528191593995 
2464	 0.110032981871326 
2465	 0.109439048036901 
2466	 0.108988411066246 
2467	 0.108526899484956 
2468	 0.108029564564225 
2469	 0.107637119272813 
2470	 0.107228165910926 
2471	 0.106785259461605 
2472	 0.106350135480734 
2473	 0.105962876524126 
2474	 0.105733974380853 
2475	 0.105485290381511 
2476	 0.105333353436067 
2477	 0.105219422598494 
2478	 0.104920934723957 
2479	 0.104705743929326 
2480	 0.104581628314159 
2481	 0.104534082631352 
2482	 0.104673312282704 
2483	 0.10468760027153 
2484	 0.104596589756986 
2485	 0.104585935562084 
2486	 0.104545425152243 
2487	 0.104482518879541 
2488	 0.104402517909572 
2489	 0.10443284959423 
2490	 0.104738153655953 
2491	 0.105104622242407 
2492	 0.105586844977595 
2493	 0.106020004736007 
2494	 0.106270181304213 
2495	 0.106481296285645 
2496	 0.106700725797164 
2497	 0.106936655363022 
2498	 0.107172141518047 
2499	 0.107310469760351 
2500	 0.107535782641569 
