Wavelength	spectrum00017.asd
350	 3.23981467911766E-02 
351	 2.99130690014502E-02 
352	 2.96027546846189E-02 
353	 3.14525694197513E-02 
354	 3.12511231668399E-02 
355	 3.17435058520124E-02 
356	 3.16027233054571E-02 
357	 2.99250823948064E-02 
358	 2.95568758301743E-02 
359	 2.88965088516084E-02 
360	 0.028954423232125 
361	 3.13409320390789E-02 
362	 0.031463095000794 
363	 3.04961352324626E-02 
364	 2.96081802488002E-02 
365	 2.91208132866643E-02 
366	 2.95131609303324E-02 
367	 2.97920573173958E-02 
368	 2.91929357289554E-02 
369	 2.87178018607547E-02 
370	 2.93449121179667E-02 
371	 3.03082876185349E-02 
372	 3.01295371607466E-02 
373	 3.07571270688086E-02 
374	 3.06019742680211E-02 
375	 2.97196068673079E-02 
376	 3.10047800359049E-02 
377	 3.12117624254593E-02 
378	 3.05846374342102E-02 
379	 3.01657974644011E-02 
380	 3.03327404026054E-02 
381	 3.07369525060984E-02 
382	 3.09257225124928E-02 
383	 3.05314255000482E-02 
384	 3.02707245705443E-02 
385	 0.030919298170951 
386	 0.031785614124337 
387	 2.99559916245539E-02 
388	 2.99821461933424E-02 
389	 3.08017369766732E-02 
390	 3.05424772610945E-02 
391	 3.04131725127335E-02 
392	 3.07362866731188E-02 
393	 3.12215108135938E-02 
394	 3.12544045203908E-02 
395	 3.12742230324921E-02 
396	 3.13740440452234E-02 
397	 3.15309181629383E-02 
398	 3.16449442124096E-02 
399	 3.11787101956985E-02 
400	 3.08519305254564E-02 
401	 3.12952851836011E-02 
402	 3.11650710010694E-02 
403	 0.031299971006405 
404	 3.15489575587168E-02 
405	 3.10844486947558E-02 
406	 3.10522030510897E-02 
407	 3.10943060384295E-02 
408	 3.10355298506204E-02 
409	 3.15421971856905E-02 
410	 3.18508369937614E-02 
411	 3.17943886818422E-02 
412	 3.14974859849928E-02 
413	 3.13694259658386E-02 
414	 0.031405871125113 
415	 3.14898864570984E-02 
416	 3.14438756094739E-02 
417	 3.14438458888087E-02 
418	 3.14342745838828E-02 
419	 3.13686793668083E-02 
420	 3.13339770365144E-02 
421	 3.10726385769204E-02 
422	 3.09650606449754E-02 
423	 3.14515546224686E-02 
424	 3.16278720724633E-02 
425	 0.031513487818683 
426	 3.13148662145479E-02 
427	 3.13465866050691E-02 
428	 0.03119471557107 
429	 3.11785718570637E-02 
430	 3.14761385627465E-02 
431	 3.13256686031173E-02 
432	 3.13770190420016E-02 
433	 3.15754388675606E-02 
434	 3.15080865742326E-02 
435	 3.14547865147993E-02 
436	 3.13746734308561E-02 
437	 3.12766851181618E-02 
438	 3.13024367059834E-02 
439	 3.13719141347785E-02 
440	 3.13422980484024E-02 
441	 3.11678943902615E-02 
442	 3.12770933937026E-02 
443	 3.13473875977957E-02 
444	 0.031337040794787 
445	 3.14363113762658E-02 
446	 3.15122869585364E-02 
447	 0.031503138267587 
448	 3.14069817612656E-02 
449	 3.13104802560484E-02 
450	 3.12856195102418E-02 
451	 3.13198815867534E-02 
452	 3.13557335757095E-02 
453	 3.13204930327542E-02 
454	 3.13737520824636E-02 
455	 3.14869641447517E-02 
456	 0.031414626407379 
457	 3.14165334851484E-02 
458	 3.14410200833699E-02 
459	 3.14103307537122E-02 
460	 3.13683550267691E-02 
461	 3.14620437414204E-02 
462	 3.15305748704234E-02 
463	 3.13115798649792E-02 
464	 3.12827767032554E-02 
465	 0.03135610173416 
466	 3.13965877860913E-02 
467	 3.13000568790926E-02 
468	 3.11965185091793E-02 
469	 3.11890048966646E-02 
470	 3.13282598526007E-02 
471	 3.15438626437619E-02 
472	 3.14889609098966E-02 
473	 0.031313845839676 
474	 3.15169767053355E-02 
475	 3.14684162227916E-02 
476	 3.13438024714466E-02 
477	 3.13216149280848E-02 
478	 3.12865565769061E-02 
479	 3.13116767617988E-02 
480	 3.13250402563454E-02 
481	 3.12497924436349E-02 
482	 0.031350795638463 
483	 3.13991212871575E-02 
484	 3.13336288063873E-02 
485	 3.13243183611488E-02 
486	 3.15522626722857E-02 
487	 3.17144389345155E-02 
488	 0.031572140979478 
489	 0.031419662496945 
490	 3.14028236942527E-02 
491	 3.14975053523012E-02 
492	 3.15675461890213E-02 
493	 0.031537511173227 
494	 3.14941992921351E-02 
495	 3.14904186396393E-02 
496	 3.14890072203087E-02 
497	 3.14394860491096E-02 
498	 0.03144470470652 
499	 3.15790322162749E-02 
500	 3.15710480894706E-02 
501	 3.15002923507709E-02 
502	 3.14386012425239E-02 
503	 3.14343087045803E-02 
504	 3.14937736620939E-02 
505	 3.15424944383777E-02 
506	 3.15246058436843E-02 
507	 3.14485248123814E-02 
508	 3.14543853817001E-02 
509	 0.031486918547051 
510	 3.14330246468164E-02 
511	 3.14690143141192E-02 
512	 3.14982629098191E-02 
513	 3.14774332095242E-02 
514	 0.031461840099475 
515	 3.14634293448168E-02 
516	 3.14359671074831E-02 
517	 3.13701765382409E-02 
518	 0.03145528476965 
519	 3.14601566497531E-02 
520	 3.14136411658147E-02 
521	 3.15058238408904E-02 
522	 3.14941183673881E-02 
523	 3.14579533885725E-02 
524	 3.14671179592584E-02 
525	 3.14863175661491E-02 
526	 0.031453831215013 
527	 3.14279458077979E-02 
528	 3.14757102887954E-02 
529	 3.14371175951238E-02 
530	 0.031440122127303 
531	 3.14955444898632E-02 
532	 3.14755685038178E-02 
533	 3.14821472098838E-02 
534	 3.14855240076822E-02 
535	 3.14588404634281E-02 
536	 3.14683504709178E-02 
537	 3.14603625984099E-02 
538	 0.031431413772392 
539	 0.031405244464569 
540	 3.13717988476885E-02 
541	 3.13466091787059E-02 
542	 3.13385908524546E-02 
543	 0.031342940865766 
544	 3.13594732724056E-02 
545	 3.13409024001528E-02 
546	 3.12617112475928E-02 
547	 3.12474043398534E-02 
548	 3.12766330644322E-02 
549	 3.13080780912739E-02 
550	 3.12923261584157E-02 
551	 3.12726368108762E-02 
552	 0.031299391933259 
553	 3.13763405076337E-02 
554	 3.13860523076788E-02 
555	 3.14145324273529E-02 
556	 3.14719442266899E-02 
557	 0.03153163311615 
558	 3.15739551708843E-02 
559	 3.16567779103729E-02 
560	 3.17649227574046E-02 
561	 3.17732530967287E-02 
562	 0.031774645831287 
563	 3.17584648363809E-02 
564	 3.17129368504536E-02 
565	 3.17345228453288E-02 
566	 3.17008684929788E-02 
567	 3.16206309664986E-02 
568	 3.15979022332572E-02 
569	 3.15697553149526E-02 
570	 3.15488653274476E-02 
571	 3.15354710873664E-02 
572	 3.14693704460374E-02 
573	 3.14871797662522E-02 
574	 0.031556803285863 
575	 3.15826157295884E-02 
576	 3.15388262355286E-02 
577	 3.14828746246942E-02 
578	 3.14339940304994E-02 
579	 3.13620075308708E-02 
580	 3.13474080128653E-02 
581	 3.13605118060884E-02 
582	 3.13637696142806E-02 
583	 3.13842572050657E-02 
584	 0.031397064560034 
585	 3.13888678104406E-02 
586	 0.031362648486081 
587	 3.13977055145135E-02 
588	 3.14112448067928E-02 
589	 3.13811095107043E-02 
590	 3.14171573482948E-02 
591	 3.14159066198142E-02 
592	 3.14078438876234E-02 
593	 3.14396775310908E-02 
594	 3.14414141112305E-02 
595	 3.14397328486874E-02 
596	 3.14348511037743E-02 
597	 3.14040924914853E-02 
598	 0.031387869024012 
599	 0.031406622584936 
600	 3.14428775896368E-02 
601	 3.13898692718243E-02 
602	 3.13987169145026E-02 
603	 3.14444519307865E-02 
604	 3.14387911847967E-02 
605	 3.14398678131874E-02 
606	 3.14423067675093E-02 
607	 3.14456145627836E-02 
608	 0.031461072452987 
609	 3.14639079113943E-02 
610	 3.14585405288958E-02 
611	 3.14600350986005E-02 
612	 3.14994820323207E-02 
613	 3.14848332747622E-02 
614	 3.14383397390204E-02 
615	 3.14468383668484E-02 
616	 3.14230184017467E-02 
617	 3.14032975688952E-02 
618	 3.14170350286074E-02 
619	 3.14589558131266E-02 
620	 3.14297711410738E-02 
621	 0.031386226298814 
622	 3.14084491632404E-02 
623	 3.14043224463773E-02 
624	 3.14101932857672E-02 
625	 3.14251517379532E-02 
626	 3.14115741974251E-02 
627	 3.14021623102311E-02 
628	 3.13992969805101E-02 
629	 3.14011406596681E-02 
630	 3.14141763788757E-02 
631	 0.031394784175729 
632	 3.13732700209807E-02 
633	 3.13972850666778E-02 
634	 3.13804784486706E-02 
635	 3.13531903285236E-02 
636	 3.13505466761362E-02 
637	 0.031399807007065 
638	 3.13992863807543E-02 
639	 3.13654666301587E-02 
640	 3.13452355116055E-02 
641	 3.13825898900803E-02 
642	 3.13805823752883E-02 
643	 3.13473352283878E-02 
644	 3.13511429652131E-02 
645	 3.13500262568696E-02 
646	 3.13479932478078E-02 
647	 0.031346364372853 
648	 3.13319936068865E-02 
649	 3.13496627668627E-02 
650	 3.13672192034085E-02 
651	 0.031345297320147 
652	 3.13186985390887E-02 
653	 3.13195296140978E-02 
654	 3.13316297785161E-02 
655	 3.13057722651725E-02 
656	 3.13079140695175E-02 
657	 3.13109690692768E-02 
658	 3.12984334073027E-02 
659	 3.13095519263243E-02 
660	 3.13108458986882E-02 
661	 3.13075555425719E-02 
662	 3.13162528925428E-02 
663	 3.13386484209098E-02 
664	 3.13135756275177E-02 
665	 3.12631079328773E-02 
666	 3.12898648960912E-02 
667	 3.12899562504469E-02 
668	 0.031291594205991 
669	 3.13141850032169E-02 
670	 3.12809676059904E-02 
671	 0.031279184673806 
672	 3.12979918728063E-02 
673	 0.031291050051515 
674	 3.13061158315389E-02 
675	 3.13196210762526E-02 
676	 3.13124588345486E-02 
677	 3.12788450396183E-02 
678	 3.12796211254362E-02 
679	 3.12895034821146E-02 
680	 0.031280843928422 
681	 0.031287623283291 
682	 3.12851174453425E-02 
683	 3.12776798666179E-02 
684	 3.12809703549116E-02 
685	 3.12606126235183E-02 
686	 3.12503717341429E-02 
687	 3.12626070787951E-02 
688	 3.12704262225584E-02 
689	 3.12730943539796E-02 
690	 3.12650717738938E-02 
691	 3.12474750817014E-02 
692	 3.12437084042517E-02 
693	 3.12431473868191E-02 
694	 3.12460686679229E-02 
695	 3.12566856997467E-02 
696	 3.12476475369767E-02 
697	 3.12357780680919E-02 
698	 3.12311697830851E-02 
699	 3.12245779871649E-02 
700	 0.031219802339092 
701	 3.12152278559845E-02 
702	 3.12099234928796E-02 
703	 0.031210750548373 
704	 0.031215543642594 
705	 3.12178417955253E-02 
706	 3.12104481204475E-02 
707	 3.12090832197941E-02 
708	 3.12057253256848E-02 
709	 0.031197309481772 
710	 3.11939515771434E-02 
711	 3.11987667690899E-02 
712	 3.11995881398805E-02 
713	 3.11894064684798E-02 
714	 0.031201915215274 
715	 3.12124685203512E-02 
716	 3.12051806742168E-02 
717	 3.11784891486503E-02 
718	 3.11984102324838E-02 
719	 3.12162291710362E-02 
720	 3.12013099827044E-02 
721	 3.11799785882406E-02 
722	 3.11650928065158E-02 
723	 3.11718935351799E-02 
724	 3.11995576074803E-02 
725	 3.11895693807468E-02 
726	 3.11846304617842E-02 
727	 3.11867234388905E-02 
728	 3.11709557648023E-02 
729	 3.11687530409444E-02 
730	 3.11681589906544E-02 
731	 3.11648164027087E-02 
732	 3.11771772935939E-02 
733	 3.11686605886608E-02 
734	 3.11562338779532E-02 
735	 3.11641939094263E-02 
736	 3.11834972938611E-02 
737	 3.11855327170874E-02 
738	 3.11722529739496E-02 
739	 3.11670938944424E-02 
740	 0.03118365164539 
741	 3.11912225481758E-02 
742	 3.11805578261111E-02 
743	 3.11824876731306E-02 
744	 0.031178633265498 
745	 3.11726996475293E-02 
746	 3.11727940932014E-02 
747	 3.11840260739334E-02 
748	 3.11853577485047E-02 
749	 3.11739016820797E-02 
750	 3.11596687425738E-02 
751	 3.11551900987845E-02 
752	 0.031170143454946 
753	 3.11934502374795E-02 
754	 3.11897137517736E-02 
755	 3.11623457451557E-02 
756	 3.11496623108858E-02 
757	 3.11684780543467E-02 
758	 3.11486331782734E-02 
759	 3.11475416421459E-02 
760	 3.11484485643324E-02 
761	 3.11149709672806E-02 
762	 3.11231999973031E-02 
763	 3.11325020707443E-02 
764	 3.11280930525344E-02 
765	 3.11312129721238E-02 
766	 3.11205087490198E-02 
767	 3.11078581132729E-02 
768	 3.11091677417856E-02 
769	 3.11392937025868E-02 
770	 3.11396589997556E-02 
771	 3.11268026187487E-02 
772	 0.031133487250945 
773	 3.11192077677497E-02 
774	 3.11003766201428E-02 
775	 0.031091154039202 
776	 3.10988636171802E-02 
777	 3.11001038071297E-02 
778	 3.11034621979657E-02 
779	 3.11078277781574E-02 
780	 3.10871900140259E-02 
781	 3.10800355005661E-02 
782	 3.10829686833347E-02 
783	 3.10868824677481E-02 
784	 3.11124329480909E-02 
785	 3.11125373338552E-02 
786	 3.11003017114974E-02 
787	 3.11152345784137E-02 
788	 0.031110006650551 
789	 3.10929268597319E-02 
790	 3.10826301147546E-02 
791	 3.11006554729097E-02 
792	 3.10938416306584E-02 
793	 3.10808470980933E-02 
794	 3.10847739502706E-02 
795	 0.031103133513461 
796	 3.11125358305813E-02 
797	 3.11123520782854E-02 
798	 3.11076937431805E-02 
799	 3.10813220789703E-02 
800	 3.10585639328093E-02 
801	 3.10519047950076E-02 
802	 3.10599544777155E-02 
803	 3.10705904038005E-02 
804	 3.10672804790182E-02 
805	 3.10557245590217E-02 
806	 3.10736852654737E-02 
807	 3.10845273543856E-02 
808	 3.10827548487841E-02 
809	 3.10744917210476E-02 
810	 3.10743816723872E-02 
811	 3.10752728028602E-02 
812	 3.10782520033058E-02 
813	 0.031084418641099 
814	 3.10734266534972E-02 
815	 3.10756698699176E-02 
816	 3.10863487323893E-02 
817	 3.10715667663695E-02 
818	 3.10737214680311E-02 
819	 3.10693817426578E-02 
820	 3.10501918771008E-02 
821	 3.10477456364569E-02 
822	 3.10601074103734E-02 
823	 3.10722926833017E-02 
824	 3.10734872922575E-02 
825	 3.10806793253056E-02 
826	 3.10690951051723E-02 
827	 3.10593371852611E-02 
828	 3.10794007999226E-02 
829	 3.10705600872922E-02 
830	 3.10682198268752E-02 
831	 3.10803374537348E-02 
832	 0.031086645680133 
833	 3.10925175991542E-02 
834	 0.031083016749358 
835	 3.10659191762994E-02 
836	 0.031085837690808 
837	 3.10935044514947E-02 
838	 3.10936661621819E-02 
839	 3.10994160867422E-02 
840	 3.11097924444535E-02 
841	 3.10961383483426E-02 
842	 3.10763329564341E-02 
843	 3.10787993652175E-02 
844	 3.10804468828593E-02 
845	 3.10674521528093E-02 
846	 3.10573657981029E-02 
847	 3.10821049335617E-02 
848	 3.10915752844917E-02 
849	 3.10874276795914E-02 
850	 3.10730036833536E-02 
851	 3.10476462282962E-02 
852	 0.031063049438213 
853	 3.10896729256302E-02 
854	 3.10989644774076E-02 
855	 3.11049055700064E-02 
856	 3.10771608199055E-02 
857	 3.10520539104326E-02 
858	 3.10679182315014E-02 
859	 3.10962095421282E-02 
860	 3.10748440781842E-02 
861	 3.10442325161909E-02 
862	 0.031075701557995 
863	 3.10755592444098E-02 
864	 3.10665918619628E-02 
865	 3.10604941054596E-02 
866	 3.10525722443002E-02 
867	 0.03103392596093 
868	 3.10604514081277E-02 
869	 3.11102318155262E-02 
870	 3.10533365630756E-02 
871	 3.10428468234028E-02 
872	 3.10496012642623E-02 
873	 3.10423605240912E-02 
874	 3.10787560065979E-02 
875	 3.10817677650491E-02 
876	 3.10590865582051E-02 
877	 3.10481771250968E-02 
878	 3.10889483947063E-02 
879	 3.10969098710312E-02 
880	 3.10716055251312E-02 
881	 3.10551166567853E-02 
882	 3.10593855969115E-02 
883	 3.10760550926393E-02 
884	 0.031088791625376 
885	 3.10818747512661E-02 
886	 3.10826452954539E-02 
887	 3.10845984622414E-02 
888	 3.10929875945803E-02 
889	 3.11258054868111E-02 
890	 3.11109344333906E-02 
891	 3.10872597100064E-02 
892	 3.10854078081498E-02 
893	 3.10854805236423E-02 
894	 3.10921690953701E-02 
895	 3.10948122225097E-02 
896	 3.10885359238636E-02 
897	 3.10939018790786E-02 
898	 3.10752708735601E-02 
899	 0.031054664385513 
900	 3.10586467810354E-02 
901	 3.10505323796246E-02 
902	 3.10452040373309E-02 
903	 3.10587187670737E-02 
904	 3.10899457690794E-02 
905	 3.10483285159039E-02 
906	 3.10379730710753E-02 
907	 0.031077627467107 
908	 3.11085409779081E-02 
909	 3.10586684342902E-02 
910	 3.10254021157142E-02 
911	 3.10360933037956E-02 
912	 3.10347908475067E-02 
913	 3.10871337652132E-02 
914	 3.11129848956947E-02 
915	 0.031080774468307 
916	 3.10546634338234E-02 
917	 3.10791551997533E-02 
918	 3.10829912582394E-02 
919	 3.10474877178534E-02 
920	 3.10955095340499E-02 
921	 3.10497317486185E-02 
922	 3.10145471794872E-02 
923	 3.10716743983295E-02 
924	 3.10545854057721E-02 
925	 3.10590296490036E-02 
926	 3.10750461160573E-02 
927	 3.10688666665567E-02 
928	 3.10388435273588E-02 
929	 3.10484563327036E-02 
930	 3.10538684650315E-02 
931	 3.10012820877627E-02 
932	 3.10027392971978E-02 
933	 3.10140106981129E-02 
934	 3.10265855106409E-02 
935	 3.10459199825652E-02 
936	 3.10285234895226E-02 
937	 3.10365271725777E-02 
938	 3.10747026724904E-02 
939	 3.10989801589295E-02 
940	 0.031059744106725 
941	 3.10313353832429E-02 
942	 3.10423159112082E-02 
943	 0.031066495830803 
944	 3.10658166441193E-02 
945	 3.11002906426195E-02 
946	 0.031138475928994 
947	 3.10653988435643E-02 
948	 0.031059027611258 
949	 3.10448390992516E-02 
950	 3.10134161135283E-02 
951	 3.10697735657864E-02 
952	 3.10740634753018E-02 
953	 3.10718784438882E-02 
954	 3.10889394429416E-02 
955	 3.10746963572914E-02 
956	 3.10552376607213E-02 
957	 3.10947168939242E-02 
958	 3.11638015991705E-02 
959	 3.10752168990218E-02 
960	 3.10647250976684E-02 
961	 3.10797470743074E-02 
962	 3.10777110788791E-02 
963	 3.11736154971485E-02 
964	 3.11577386110833E-02 
965	 3.10633471855471E-02 
966	 3.09936772553837E-02 
967	 3.10438587441821E-02 
968	 3.10883153257008E-02 
969	 3.11543830171874E-02 
970	 3.12370227807094E-02 
971	 3.11381390247449E-02 
972	 3.11022807466988E-02 
973	 0.031083367161495 
974	 3.10214715246823E-02 
975	 3.10871969228619E-02 
976	 3.10545217932116E-02 
977	 3.10097454056996E-02 
978	 3.10666496301429E-02 
979	 3.11055156612129E-02 
980	 3.10615616134972E-02 
981	 3.10304858440093E-02 
982	 3.10891252856604E-02 
983	 0.031057617809594 
984	 3.10680544516317E-02 
985	 3.11269853432864E-02 
986	 3.11879092778376E-02 
987	 3.11970162068298E-02 
988	 3.11498077684279E-02 
989	 3.10839630128252E-02 
990	 3.10408265701485E-02 
991	 3.10101101082603E-02 
992	 3.10070934744333E-02 
993	 3.10533065726351E-02 
994	 3.11352614916073E-02 
995	 3.11227402539204E-02 
996	 3.11815373237103E-02 
997	 3.11536931870682E-02 
998	 3.09476458435141E-02 
999	 3.10706451245852E-02 
1000	 3.12097182395529E-02 
1001	 3.21981786489547E-02 
1002	 3.22013999576946E-02 
1003	 3.22346755116175E-02 
1004	 3.22338136563175E-02 
1005	 3.22132721738145E-02 
1006	 3.22169911715383E-02 
1007	 0.032220689722377 
1008	 3.22216392884704E-02 
1009	 3.22379870417438E-02 
1010	 0.032248683816828 
1011	 3.22517060926846E-02 
1012	 3.22539511741803E-02 
1013	 3.22553733286089E-02 
1014	 0.032260672596105 
1015	 3.22554751905527E-02 
1016	 3.22699660858952E-02 
1017	 3.22829443134438E-02 
1018	 3.22878858688771E-02 
1019	 0.032304881877691 
1020	 3.23125006453358E-02 
1021	 3.23131234350405E-02 
1022	 3.23132640584176E-02 
1023	 0.032313507010172 
1024	 0.032308411049682 
1025	 3.22972765359471E-02 
1026	 3.22884045436856E-02 
1027	 3.22801956061575E-02 
1028	 3.22678525119208E-02 
1029	 0.032230222841445 
1030	 3.22265555620909E-02 
1031	 3.22512744200167E-02 
1032	 3.22579221954315E-02 
1033	 3.22625229914356E-02 
1034	 0.032262606194267 
1035	 3.22203016357068E-02 
1036	 3.22135073345448E-02 
1037	 3.22308797739151E-02 
1038	 3.22208181527677E-02 
1039	 3.22032876841559E-02 
1040	 0.032206881163654 
1041	 3.21969011205348E-02 
1042	 3.21892658615063E-02 
1043	 3.22008889923327E-02 
1044	 3.22189610445386E-02 
1045	 3.22094601410838E-02 
1046	 3.22050692464611E-02 
1047	 3.22141424054213E-02 
1048	 0.032213539810937 
1049	 3.21987553607364E-02 
1050	 3.21801060677227E-02 
1051	 3.21740040770364E-02 
1052	 3.21873398109839E-02 
1053	 3.21959933066675E-02 
1054	 0.032216999633346 
1055	 3.22266499743207E-02 
1056	 3.22363103693525E-02 
1057	 3.22354329199612E-02 
1058	 3.22171291749569E-02 
1059	 3.22298695615064E-02 
1060	 3.22396360999911E-02 
1061	 3.22074319000307E-02 
1062	 3.21967290877265E-02 
1063	 3.22066898504328E-02 
1064	 3.22148810639528E-02 
1065	 3.22170568703816E-02 
1066	 3.22301363240782E-02 
1067	 3.22622406964631E-02 
1068	 3.22868852421687E-02 
1069	 3.23106215904761E-02 
1070	 3.23255716730602E-02 
1071	 0.032343316467802 
1072	 0.032334641299223 
1073	 3.23326191612032E-02 
1074	 0.032336621104146 
1075	 3.23459946510435E-02 
1076	 3.23809885983471E-02 
1077	 3.24060883235022E-02 
1078	 3.24156501620133E-02 
1079	 3.24296599236389E-02 
1080	 0.032430955443844 
1081	 3.24323807903668E-02 
1082	 3.24401617187623E-02 
1083	 3.24456450244582E-02 
1084	 3.24478121807836E-02 
1085	 3.24457531242454E-02 
1086	 3.24550790720282E-02 
1087	 3.24750660339872E-02 
1088	 3.25053912266754E-02 
1089	 3.25213106074909E-02 
1090	 3.25235618820405E-02 
1091	 3.25190974975401E-02 
1092	 3.25312228807182E-02 
1093	 3.25444815875739E-02 
1094	 3.25580172013437E-02 
1095	 3.25797079574403E-02 
1096	 0.032560726861016 
1097	 3.25369728387509E-02 
1098	 3.25327623779446E-02 
1099	 0.032521672128369 
1100	 3.25339884379375E-02 
1101	 3.25635410148554E-02 
1102	 3.25843813254608E-02 
1103	 3.26014492759713E-02 
1104	 3.26188064198123E-02 
1105	 3.26289032632028E-02 
1106	 0.032615109394495 
1107	 3.26083065271087E-02 
1108	 3.26180830364366E-02 
1109	 3.26138869426432E-02 
1110	 3.26063558952746E-02 
1111	 3.25989727277659E-02 
1112	 3.25763349907873E-02 
1113	 3.25730690263623E-02 
1114	 3.25936354854776E-02 
1115	 3.26058506081296E-02 
1116	 3.26133103752535E-02 
1117	 3.26003879056891E-02 
1118	 3.25890304671081E-02 
1119	 3.25688483817888E-02 
1120	 3.25554291121437E-02 
1121	 0.032536416888134 
1122	 3.25346617049638E-02 
1123	 3.25426264634146E-02 
1124	 3.25566200922795E-02 
1125	 3.25601205795999E-02 
1126	 3.25560383833689E-02 
1127	 3.25414163099276E-02 
1128	 3.25079642781672E-02 
1129	 0.032494495768205 
1130	 3.24923145622169E-02 
1131	 3.24960387480856E-02 
1132	 3.25068295983842E-02 
1133	 3.25000678227117E-02 
1134	 3.24920091744973E-02 
1135	 3.24852501773363E-02 
1136	 3.24650977391516E-02 
1137	 3.24541037499697E-02 
1138	 3.24542240448492E-02 
1139	 3.24485065164498E-02 
1140	 3.24355145308404E-02 
1141	 3.24352534151711E-02 
1142	 3.24344515049017E-02 
1143	 3.24211972691497E-02 
1144	 3.24126503871428E-02 
1145	 3.23981009638376E-02 
1146	 3.23883230315239E-02 
1147	 3.23828494695198E-02 
1148	 3.23727176155081E-02 
1149	 3.23724637417842E-02 
1150	 3.23633797803512E-02 
1151	 3.23584367202149E-02 
1152	 3.23584772604102E-02 
1153	 3.23657285526762E-02 
1154	 3.23636401822821E-02 
1155	 3.23600225583318E-02 
1156	 3.23566066414766E-02 
1157	 3.23503153350473E-02 
1158	 3.23458345945994E-02 
1159	 3.23418036650335E-02 
1160	 0.032343590091326 
1161	 3.23363331353303E-02 
1162	 3.23186577074457E-02 
1163	 3.23140230980846E-02 
1164	 0.032309416052327 
1165	 3.22938848640363E-02 
1166	 3.22934274679661E-02 
1167	 3.22951101407725E-02 
1168	 0.032282884075196 
1169	 3.22829472422107E-02 
1170	 3.23014796443065E-02 
1171	 3.23047178918684E-02 
1172	 3.23005678738968E-02 
1173	 3.22999727577034E-02 
1174	 3.22939570252216E-02 
1175	 3.22954054768451E-02 
1176	 3.23053096928315E-02 
1177	 3.23095189386651E-02 
1178	 3.23164070208512E-02 
1179	 3.23163394384056E-02 
1180	 3.23219662910217E-02 
1181	 3.23200036881807E-02 
1182	 3.23247590332576E-02 
1183	 3.23361252135655E-02 
1184	 3.23356648062126E-02 
1185	 3.23315936912773E-02 
1186	 3.23312275054168E-02 
1187	 3.23292092789968E-02 
1188	 0.032332252950223 
1189	 3.23390439938038E-02 
1190	 3.23431641131757E-02 
1191	 3.23496928668363E-02 
1192	 3.23548729815339E-02 
1193	 3.23566129066214E-02 
1194	 0.032363401291118 
1195	 3.23807685162953E-02 
1196	 3.23818518916288E-02 
1197	 3.23728537890181E-02 
1198	 0.032368901352016 
1199	 3.23619969861624E-02 
1200	 3.23532015825977E-02 
1201	 3.23611800043737E-02 
1202	 3.23704204532725E-02 
1203	 3.23609577026949E-02 
1204	 3.23522933450781E-02 
1205	 3.23537225416695E-02 
1206	 3.23517049584151E-02 
1207	 3.23594289974881E-02 
1208	 3.23860040392853E-02 
1209	 3.23995015636692E-02 
1210	 3.24102329298075E-02 
1211	 3.24203249238785E-02 
1212	 3.24262843664263E-02 
1213	 3.24334683658005E-02 
1214	 3.24441156698027E-02 
1215	 3.24476160845363E-02 
1216	 3.24407233377787E-02 
1217	 3.24452886089669E-02 
1218	 3.24556427569222E-02 
1219	 3.24609523836166E-02 
1220	 3.24649139484823E-02 
1221	 3.24662138331356E-02 
1222	 3.24544207669281E-02 
1223	 3.24419657206296E-02 
1224	 3.24467846164057E-02 
1225	 3.24645126144583E-02 
1226	 3.24764986252969E-02 
1227	 3.25012359375272E-02 
1228	 3.25128456747706E-02 
1229	 0.032515470717246 
1230	 3.25226081765231E-02 
1231	 3.25274855708941E-02 
1232	 3.25325021558221E-02 
1233	 3.25391108138232E-02 
1234	 3.25449640851352E-02 
1235	 3.25503552156473E-02 
1236	 3.25531153375288E-02 
1237	 3.25487977471477E-02 
1238	 3.25536917058232E-02 
1239	 3.25582264480382E-02 
1240	 3.25715264882834E-02 
1241	 3.25989472190328E-02 
1242	 3.26151295869927E-02 
1243	 3.26188695137141E-02 
1244	 0.032613298524456 
1245	 3.26116457221604E-02 
1246	 3.25953350602072E-02 
1247	 3.25940604325089E-02 
1248	 3.26056277924079E-02 
1249	 3.26057783316357E-02 
1250	 0.032609261256332 
1251	 3.26015260521629E-02 
1252	 3.25700422320854E-02 
1253	 0.032567760605553 
1254	 3.25865434431093E-02 
1255	 3.25822708202612E-02 
1256	 3.25816851311888E-02 
1257	 3.25797567726245E-02 
1258	 3.25500797188761E-02 
1259	 3.25387951138248E-02 
1260	 3.25523211491574E-02 
1261	 3.25544959893463E-02 
1262	 3.25597765573835E-02 
1263	 3.25514596929776E-02 
1264	 0.032546123873354 
1265	 3.25330349640342E-02 
1266	 0.032532392662038 
1267	 3.25326383317099E-02 
1268	 3.25402383443065E-02 
1269	 3.25619359207877E-02 
1270	 3.25700748773278E-02 
1271	 3.25760773014891E-02 
1272	 3.25817383666555E-02 
1273	 3.25776887643113E-02 
1274	 3.25838997330379E-02 
1275	 3.25973235241685E-02 
1276	 3.26077764208006E-02 
1277	 0.032618269381786 
1278	 3.26321668457086E-02 
1279	 3.26524032696324E-02 
1280	 0.032664033412533 
1281	 3.26686837622001E-02 
1282	 3.26826023114502E-02 
1283	 3.26926065754299E-02 
1284	 3.27074767103499E-02 
1285	 3.27277445533099E-02 
1286	 3.27599488190532E-02 
1287	 3.27853531619153E-02 
1288	 0.032810911571422 
1289	 3.28329501404638E-02 
1290	 3.28606914456099E-02 
1291	 3.28714287254738E-02 
1292	 3.28660350521943E-02 
1293	 3.28746255824484E-02 
1294	 0.032875060276946 
1295	 3.28897481934107E-02 
1296	 3.29205439543123E-02 
1297	 3.29439569111226E-02 
1298	 3.29712820364651E-02 
1299	 0.032993252881285 
1300	 3.30137846180987E-02 
1301	 0.033031331432842 
1302	 3.30435538669121E-02 
1303	 3.30576458094235E-02 
1304	 3.30712494014307E-02 
1305	 3.30836167411097E-02 
1306	 3.31000719204836E-02 
1307	 3.31090777096462E-02 
1308	 3.31077397740735E-02 
1309	 3.31109645630269E-02 
1310	 3.31218919392594E-02 
1311	 3.31359231522713E-02 
1312	 3.31423311498281E-02 
1313	 3.31565253668961E-02 
1314	 3.31591522809255E-02 
1315	 3.31463956621382E-02 
1316	 3.31446835291663E-02 
1317	 3.31443195707754E-02 
1318	 3.31482352057101E-02 
1319	 3.31538719135538E-02 
1320	 3.31619233865367E-02 
1321	 3.31771410915954E-02 
1322	 3.31877118249378E-02 
1323	 3.32010400346246E-02 
1324	 0.033207524342179 
1325	 3.32130707411587E-02 
1326	 0.033210916615159 
1327	 3.31957864509688E-02 
1328	 3.31885989451962E-02 
1329	 3.31770824054621E-02 
1330	 3.31718334131316E-02 
1331	 0.033181623360553 
1332	 0.033179558756562 
1333	 3.31807720032177E-02 
1334	 3.31654277088237E-02 
1335	 3.31531184318431E-02 
1336	 3.31272147501912E-02 
1337	 3.31237928610421E-02 
1338	 3.31319380340624E-02 
1339	 3.31279024886434E-02 
1340	 3.31320099025125E-02 
1341	 3.31235355595838E-02 
1342	 3.30995921389472E-02 
1343	 3.30850344744608E-02 
1344	 3.30721219109058E-02 
1345	 3.30601569523908E-02 
1346	 3.30487302171102E-02 
1347	 3.30369885972157E-02 
1348	 3.30232375812434E-02 
1349	 3.30161911464252E-02 
1350	 3.30161444360178E-02 
1351	 3.30089771294414E-02 
1352	 3.30016879107513E-02 
1353	 3.29954346794195E-02 
1354	 3.29842178806612E-02 
1355	 3.29747991189119E-02 
1356	 3.29709738945477E-02 
1357	 3.29643603394584E-02 
1358	 3.29556770769847E-02 
1359	 3.29447250677183E-02 
1360	 3.29291687746553E-02 
1361	 3.29176312137818E-02 
1362	 3.29104294639222E-02 
1363	 3.29082983212611E-02 
1364	 3.29035290639991E-02 
1365	 0.032907266754025 
1366	 3.28991689488536E-02 
1367	 3.28808240601279E-02 
1368	 3.28718455956271E-02 
1369	 3.28655119617581E-02 
1370	 3.28555806395429E-02 
1371	 3.28475786891134E-02 
1372	 3.28379917959177E-02 
1373	 3.28216776464278E-02 
1374	 3.28121288116299E-02 
1375	 3.28069311976931E-02 
1376	 3.28013507510791E-02 
1377	 3.27963972673576E-02 
1378	 3.27945286419058E-02 
1379	 3.27973046347034E-02 
1380	 0.032795266686864 
1381	 3.27960279080985E-02 
1382	 3.27912010732854E-02 
1383	 0.032779605708163 
1384	 3.27698255742995E-02 
1385	 3.27567119652344E-02 
1386	 0.032745774448109 
1387	 3.27315340333845E-02 
1388	 3.27252159407686E-02 
1389	 3.27247172493351E-02 
1390	 3.27248631939799E-02 
1391	 0.032732855608633 
1392	 3.27396225258392E-02 
1393	 3.27338601954725E-02 
1394	 3.27307394508297E-02 
1395	 0.032727597036504 
1396	 3.27221840285971E-02 
1397	 0.032712148875876 
1398	 3.26973027700006E-02 
1399	 3.26961619764041E-02 
1400	 3.26964418922099E-02 
1401	 3.26947141064517E-02 
1402	 3.27055514076517E-02 
1403	 3.27064996436145E-02 
1404	 0.032699297490796 
1405	 3.26906605612125E-02 
1406	 0.032680775401705 
1407	 3.26732440804289E-02 
1408	 3.26572494680858E-02 
1409	 3.26495200624008E-02 
1410	 3.26524299160654E-02 
1411	 3.26491781371262E-02 
1412	 0.032645154933255 
1413	 3.26395819406546E-02 
1414	 3.26289501393541E-02 
1415	 3.26245237843352E-02 
1416	 3.26210638791664E-02 
1417	 0.032619887767002 
1418	 3.26304053172642E-02 
1419	 3.26295679276053E-02 
1420	 3.26231471449834E-02 
1421	 3.26161706919282E-02 
1422	 3.25977459385549E-02 
1423	 3.25868857179516E-02 
1424	 3.25782037302835E-02 
1425	 3.25737015869616E-02 
1426	 3.25748358802072E-02 
1427	 3.25783866568267E-02 
1428	 3.25775015354947E-02 
1429	 3.25768898567578E-02 
1430	 3.25799148005464E-02 
1431	 3.25819621091566E-02 
1432	 3.25850824114372E-02 
1433	 3.25960374783227E-02 
1434	 3.25966091395864E-02 
1435	 3.25889147761472E-02 
1436	 3.25882100179328E-02 
1437	 3.25885778690196E-02 
1438	 3.25854805629067E-02 
1439	 3.25811675892951E-02 
1440	 3.25812672053929E-02 
1441	 3.25796052472022E-02 
1442	 3.25807892330268E-02 
1443	 3.25845817586572E-02 
1444	 3.25953127884432E-02 
1445	 0.032613400288679 
1446	 3.26219596819061E-02 
1447	 3.26324015374168E-02 
1448	 3.26422417295167E-02 
1449	 3.26449242330324E-02 
1450	 0.032649537956775 
1451	 3.26520051870038E-02 
1452	 3.26655271500566E-02 
1453	 3.26875293358781E-02 
1454	 3.26994096659168E-02 
1455	 3.27194096395831E-02 
1456	 3.27324952058485E-02 
1457	 3.27239906190239E-02 
1458	 3.27310899249122E-02 
1459	 3.27556898714735E-02 
1460	 3.27661433057752E-02 
1461	 3.27735091944904E-02 
1462	 3.27806757134272E-02 
1463	 3.27747637383299E-02 
1464	 3.27761882403643E-02 
1465	 3.27812034846251E-02 
1466	 3.27937555181604E-02 
1467	 0.032801966592232 
1468	 0.032808196309276 
1469	 3.28119284632862E-02 
1470	 3.28106870029984E-02 
1471	 0.032810805029401 
1472	 3.28064118828232E-02 
1473	 0.032811611370569 
1474	 3.28224687158908E-02 
1475	 3.28258590664767E-02 
1476	 3.28317853292835E-02 
1477	 3.28332060996468E-02 
1478	 3.28242580458866E-02 
1479	 3.28292586490635E-02 
1480	 3.28422694491326E-02 
1481	 3.28493061840125E-02 
1482	 3.28601983026797E-02 
1483	 3.28665244176002E-02 
1484	 3.28680182153514E-02 
1485	 3.28707678750212E-02 
1486	 3.28724922947171E-02 
1487	 3.28761447594265E-02 
1488	 3.28786703171813E-02 
1489	 3.28837994001238E-02 
1490	 3.28949197110582E-02 
1491	 3.28983261212727E-02 
1492	 3.28947827613267E-02 
1493	 3.28996464712566E-02 
1494	 3.29066234764643E-02 
1495	 3.29114254147855E-02 
1496	 3.29188017323342E-02 
1497	 0.032928170209324 
1498	 3.29375301151591E-02 
1499	 3.29444607600896E-02 
1500	 3.29505225305594E-02 
1501	 3.29627550571444E-02 
1502	 3.29791762656847E-02 
1503	 3.29869695120614E-02 
1504	 3.29959446285933E-02 
1505	 3.30057977361282E-02 
1506	 3.30069447309729E-02 
1507	 3.30106903615011E-02 
1508	 3.30198101190123E-02 
1509	 3.30278850697682E-02 
1510	 3.30375324068904E-02 
1511	 0.033039586887006 
1512	 0.033034337576282 
1513	 3.30375868575922E-02 
1514	 3.30357835616217E-02 
1515	 3.30391894268792E-02 
1516	 3.30589527494783E-02 
1517	 3.30698858412483E-02 
1518	 3.30734011365774E-02 
1519	 3.30802277467721E-02 
1520	 3.30851654192562E-02 
1521	 0.033094075414268 
1522	 3.30952260517705E-02 
1523	 0.033095858343321 
1524	 3.30959566770747E-02 
1525	 3.30867033753835E-02 
1526	 3.30940193006775E-02 
1527	 3.31136748385808E-02 
1528	 3.31187059871686E-02 
1529	 3.31244210665467E-02 
1530	 3.31279189187461E-02 
1531	 3.31195834208202E-02 
1532	 3.31250152812773E-02 
1533	 3.31425552417064E-02 
1534	 3.31458823453591E-02 
1535	 3.31450625425817E-02 
1536	 3.31476912647794E-02 
1537	 0.033145594950034 
1538	 3.31456334215738E-02 
1539	 3.31511452255005E-02 
1540	 3.31514907633695E-02 
1541	 0.033141561930643 
1542	 3.31486825367029E-02 
1543	 3.31683024192342E-02 
1544	 3.31736846201662E-02 
1545	 3.31813375234355E-02 
1546	 3.31863287099564E-02 
1547	 3.31778890732394E-02 
1548	 3.31816522868887E-02 
1549	 3.31934279780059E-02 
1550	 3.32047026830163E-02 
1551	 3.32183411548871E-02 
1552	 3.32305721246926E-02 
1553	 3.32488972803466E-02 
1554	 3.32576568048084E-02 
1555	 3.32573608405895E-02 
1556	 3.32645471825488E-02 
1557	 3.32715464543155E-02 
1558	 3.32779967951252E-02 
1559	 3.32891063783725E-02 
1560	 3.32963280361792E-02 
1561	 3.32993681600354E-02 
1562	 3.33033207563138E-02 
1563	 3.33086817469466E-02 
1564	 3.33112688635717E-02 
1565	 3.33088374483194E-02 
1566	 3.33117959256579E-02 
1567	 3.33185585170683E-02 
1568	 3.33206457149576E-02 
1569	 3.33186898994189E-02 
1570	 3.33254638064214E-02 
1571	 3.33322198601724E-02 
1572	 3.33427844780482E-02 
1573	 3.33709097471713E-02 
1574	 3.33804556145772E-02 
1575	 3.33778530071429E-02 
1576	 3.33805193639369E-02 
1577	 3.33773925814075E-02 
1578	 3.33754924967334E-02 
1579	 3.33732508302721E-02 
1580	 3.33770461980373E-02 
1581	 3.33842910923088E-02 
1582	 3.33875302384944E-02 
1583	 3.33973921363558E-02 
1584	 3.34008877638995E-02 
1585	 3.33901356938999E-02 
1586	 3.33919057207324E-02 
1587	 3.34025843087906E-02 
1588	 3.34081673123054E-02 
1589	 3.34156754707114E-02 
1590	 3.34238753795236E-02 
1591	 3.34338314792801E-02 
1592	 3.34360557065867E-02 
1593	 3.34325080256811E-02 
1594	 3.34352709281469E-02 
1595	 3.34383405026269E-02 
1596	 0.033435056061299 
1597	 3.34309788112605E-02 
1598	 0.033432656234822 
1599	 3.34251660991252E-02 
1600	 3.34273238452919E-02 
1601	 3.34465741806472E-02 
1602	 3.34568750206029E-02 
1603	 3.34656763172299E-02 
1604	 3.34727256451148E-02 
1605	 3.34773657120279E-02 
1606	 0.033481652486222 
1607	 3.34790187632624E-02 
1608	 3.34849917991423E-02 
1609	 3.35009315490029E-02 
1610	 3.35067971427619E-02 
1611	 3.35145115293956E-02 
1612	 3.35172760205284E-02 
1613	 0.033505230880762 
1614	 3.35022688578931E-02 
1615	 3.35000558733004E-02 
1616	 3.35033213355139E-02 
1617	 3.35157002564017E-02 
1618	 3.35238110068184E-02 
1619	 3.35321246671668E-02 
1620	 3.35440850777352E-02 
1621	 3.35562380941267E-02 
1622	 0.033567469521991 
1623	 0.033586245937637 
1624	 3.35966860352278E-02 
1625	 3.35990144008056E-02 
1626	 3.36039334104789E-02 
1627	 3.36056303390189E-02 
1628	 3.36085716282684E-02 
1629	 3.36152033761986E-02 
1630	 3.36176399514949E-02 
1631	 3.36122321554616E-02 
1632	 3.36164647006229E-02 
1633	 3.36313720194861E-02 
1634	 3.36333887263133E-02 
1635	 3.36348383640608E-02 
1636	 3.36335542700687E-02 
1637	 3.36114076492239E-02 
1638	 3.36077943549468E-02 
1639	 3.36204224563095E-02 
1640	 3.36256987328214E-02 
1641	 3.36298744445644E-02 
1642	 3.36419266213686E-02 
1643	 3.36632195488873E-02 
1644	 3.36694861906981E-02 
1645	 3.36774905325694E-02 
1646	 3.36808380571305E-02 
1647	 3.36612644679822E-02 
1648	 3.36582882088604E-02 
1649	 3.36657237300841E-02 
1650	 3.36714852307958E-02 
1651	 0.033684294812303 
1652	 3.36919164161946E-02 
1653	 3.36931743224511E-02 
1654	 3.37020360072759E-02 
1655	 3.37146072481759E-02 
1656	 3.37252968174977E-02 
1657	 3.37445159895648E-02 
1658	 3.37550507603223E-02 
1659	 0.033763061428542 
1660	 0.033763789141988 
1661	 3.37531171598172E-02 
1662	 3.37458241346737E-02 
1663	 0.033724476705312 
1664	 3.37238497691006E-02 
1665	 3.37443553973303E-02 
1666	 3.37507872529805E-02 
1667	 3.37677755742842E-02 
1668	 3.37676097413105E-02 
1669	 3.37415208929956E-02 
1670	 3.37325083831842E-02 
1671	 3.37247089277523E-02 
1672	 3.37203177342004E-02 
1673	 3.37291773000306E-02 
1674	 0.033728792344385 
1675	 3.37192189688622E-02 
1676	 3.37191273294215E-02 
1677	 3.37194393269373E-02 
1678	 3.37201033954324E-02 
1679	 3.37367002858995E-02 
1680	 0.033737219306745 
1681	 3.37359362054136E-02 
1682	 3.37187559774089E-02 
1683	 3.36674417778595E-02 
1684	 3.36555107354779E-02 
1685	 3.36527024793467E-02 
1686	 3.36450970261291E-02 
1687	 0.033668412938026 
1688	 3.36623776629228E-02 
1689	 3.36284421626237E-02 
1690	 3.36187331728365E-02 
1691	 3.36130430108213E-02 
1692	 3.36089460495631E-02 
1693	 3.36166154264154E-02 
1694	 0.033606167830034 
1695	 3.35889019849817E-02 
1696	 3.35749072012676E-02 
1697	 3.35536757844986E-02 
1698	 3.35418611661917E-02 
1699	 3.35311766147445E-02 
1700	 0.033524446547493 
1701	 3.35228338458445E-02 
1702	 0.033514976915759 
1703	 3.35182298527137E-02 
1704	 3.35028497807999E-02 
1705	 3.34683043886722E-02 
1706	 3.34537352774705E-02 
1707	 3.34317501717272E-02 
1708	 3.34140369321765E-02 
1709	 3.34205433906828E-02 
1710	 3.34141356210009E-02 
1711	 3.33945463783425E-02 
1712	 3.33862146175479E-02 
1713	 3.33562516805746E-02 
1714	 0.033341071537255 
1715	 3.33355652403284E-02 
1716	 3.33310070270921E-02 
1717	 3.33489602033011E-02 
1718	 3.33538824976286E-02 
1719	 3.33582414102545E-02 
1720	 3.33505333072628E-02 
1721	 0.03332909196763 
1722	 0.033303868198006 
1723	 0.033271556185617 
1724	 3.32529154355623E-02 
1725	 3.32405048143966E-02 
1726	 3.32395439207772E-02 
1727	 3.32407324048359E-02 
1728	 3.32442476589973E-02 
1729	 3.32461883334315E-02 
1730	 3.32407711662122E-02 
1731	 3.32608631214321E-02 
1732	 3.32733103399763E-02 
1733	 3.32757009995175E-02 
1734	 3.32979201567595E-02 
1735	 3.33063450250384E-02 
1736	 3.32996984000347E-02 
1737	 3.32945738354411E-02 
1738	 3.32658922503309E-02 
1739	 3.32631287565446E-02 
1740	 0.033288016755859 
1741	 3.32985073557072E-02 
1742	 3.33222975051255E-02 
1743	 3.33312936022718E-02 
1744	 3.33124500790203E-02 
1745	 3.33075298442685E-02 
1746	 3.33142794657966E-02 
1747	 0.033302372817261 
1748	 3.32742039753127E-02 
1749	 3.32688023670745E-02 
1750	 3.32677313250046E-02 
1751	 0.033272909561446 
1752	 3.32969719894075E-02 
1753	 3.33077285431031E-02 
1754	 3.33100441914694E-02 
1755	 0.033303220494981 
1756	 3.32937275199612E-02 
1757	 3.32810922407809E-02 
1758	 3.32735834373292E-02 
1759	 3.32872267638407E-02 
1760	 0.033314992601136 
1761	 3.33461815095256E-02 
1762	 3.33613425965504E-02 
1763	 3.33465501285066E-02 
1764	 3.33261355081531E-02 
1765	 3.33318160450875E-02 
1766	 3.33491613423361E-02 
1767	 3.33865746475144E-02 
1768	 3.34302604225091E-02 
1769	 3.34329331101025E-02 
1770	 3.34354521891733E-02 
1771	 0.033450728746774 
1772	 3.34482949709014E-02 
1773	 3.34658102983254E-02 
1774	 3.34888865087737E-02 
1775	 3.34879066086591E-02 
1776	 3.34983830947967E-02 
1777	 3.35094239098637E-02 
1778	 3.35103637387223E-02 
1779	 3.35269509333532E-02 
1780	 3.35390311264784E-02 
1781	 3.35548418348634E-02 
1782	 3.35845225844319E-02 
1783	 3.35957192950462E-02 
1784	 3.36141145104812E-02 
1785	 3.36331067141748E-02 
1786	 3.36382024614431E-02 
1787	 3.36432071932173E-02 
1788	 0.033654543901512 
1789	 3.36655709879736E-02 
1790	 3.36596576355384E-02 
1791	 3.36381623504618E-02 
1792	 3.36413582014409E-02 
1793	 3.36402547445747E-02 
1794	 3.36533389067432E-02 
1795	 3.36796028535223E-02 
1796	 3.36756586665326E-02 
1797	 3.36830537628629E-02 
1798	 3.37157288693789E-02 
1799	 3.37315572986326E-02 
1800	 3.37314305284042E-02 
1801	 3.47945098928706E-02 
1802	 3.48023343683679E-02 
1803	 3.48111174378168E-02 
1804	 3.48193155488484E-02 
1805	 3.48277639660954E-02 
1806	 3.48431863810753E-02 
1807	 3.48670324829186E-02 
1808	 3.48790786286152E-02 
1809	 3.48926259401609E-02 
1810	 3.49034596466872E-02 
1811	 3.49030890347682E-02 
1812	 3.49104689211238E-02 
1813	 3.49229710258038E-02 
1814	 3.49335642567219E-02 
1815	 3.49393465651423E-02 
1816	 3.49532944329152E-02 
1817	 3.49653623815961E-02 
1818	 3.49765986188827E-02 
1819	 3.49871964252476E-02 
1820	 3.49916544892317E-02 
1821	 3.50073952646191E-02 
1822	 3.50215714599726E-02 
1823	 3.50577435179748E-02 
1824	 3.50789962451741E-02 
1825	 3.51061908816205E-02 
1826	 3.51254421418281E-02 
1827	 3.51282497742406E-02 
1828	 0.03513848046309 
1829	 3.51594683280243E-02 
1830	 3.51691909186842E-02 
1831	 0.035168835290554 
1832	 3.51774912881964E-02 
1833	 3.51842645583153E-02 
1834	 3.51785185807921E-02 
1835	 3.51883463684887E-02 
1836	 3.52185589508112E-02 
1837	 3.52335819130839E-02 
1838	 3.52495711579984E-02 
1839	 3.52615693712968E-02 
1840	 3.52579148212858E-02 
1841	 3.52695939856454E-02 
1842	 0.035287452803853 
1843	 3.53176105298772E-02 
1844	 3.53314183078955E-02 
1845	 3.53389038841186E-02 
1846	 3.53454725608863E-02 
1847	 3.53429283906007E-02 
1848	 3.53493140868761E-02 
1849	 3.53675567212101E-02 
1850	 3.53793108369452E-02 
1851	 3.53882687838873E-02 
1852	 3.53972126494434E-02 
1853	 3.54085602484612E-02 
1854	 3.54225757840512E-02 
1855	 3.54213238754015E-02 
1856	 3.54246043370629E-02 
1857	 3.54286218225462E-02 
1858	 3.54125635311996E-02 
1859	 0.0354108377337 
1860	 3.54220883198279E-02 
1861	 3.54212019421221E-02 
1862	 0.035416494223174 
1863	 3.54147725344259E-02 
1864	 0.035409372906133 
1865	 3.54007481606464E-02 
1866	 3.53981304728126E-02 
1867	 3.54057562333125E-02 
1868	 3.54128525234687E-02 
1869	 3.54043589298893E-02 
1870	 3.53910672818846E-02 
1871	 3.53676156822929E-02 
1872	 0.035347360625427 
1873	 3.53212241230865E-02 
1874	 3.52961689498078E-02 
1875	 3.52740554085562E-02 
1876	 3.52603773098362E-02 
1877	 3.52455815080983E-02 
1878	 3.52249869238858E-02 
1879	 3.52107153366161E-02 
1880	 3.51943055991263E-02 
1881	 3.51674536705806E-02 
1882	 3.51317882231689E-02 
1883	 3.50998585874149E-02 
1884	 3.50594239834512E-02 
1885	 3.50180329175032E-02 
1886	 3.49826714297563E-02 
1887	 0.034940708263051 
1888	 3.49073938365238E-02 
1889	 3.48628606279121E-02 
1890	 3.48050081148723E-02 
1891	 3.47563761511743E-02 
1892	 3.47004683147205E-02 
1893	 3.46444326845593E-02 
1894	 3.45860531722584E-02 
1895	 3.45335185664184E-02 
1896	 3.44764367605318E-02 
1897	 3.44188820336272E-02 
1898	 3.43522925409733E-02 
1899	 3.42829028325757E-02 
1900	 3.42183330823322E-02 
1901	 3.41402607138474E-02 
1902	 3.40599923708733E-02 
1903	 3.39868040670422E-02 
1904	 3.39125862972014E-02 
1905	 3.38324974166487E-02 
1906	 0.033762608301285 
1907	 3.37007445609764E-02 
1908	 3.36223644926294E-02 
1909	 3.35404624343334E-02 
1910	 3.34688325173667E-02 
1911	 3.33971898997189E-02 
1912	 3.33347043719708E-02 
1913	 3.32762815079435E-02 
1914	 3.32035174737489E-02 
1915	 3.31452338912176E-02 
1916	 3.30872086319705E-02 
1917	 3.30440754212094E-02 
1918	 3.30033756103276E-02 
1919	 3.29764069796231E-02 
1920	 3.29427625624886E-02 
1921	 3.29024807645573E-02 
1922	 3.28783894779717E-02 
1923	 0.032856623060694 
1924	 3.28384594886204E-02 
1925	 3.28240245487339E-02 
1926	 3.28090876170339E-02 
1927	 3.27919982018645E-02 
1928	 3.27788983172019E-02 
1929	 3.27655493552138E-02 
1930	 3.27642142082802E-02 
1931	 3.27636045600184E-02 
1932	 3.27564773746937E-02 
1933	 3.27530600048898E-02 
1934	 3.27416365450187E-02 
1935	 3.27266277362852E-02 
1936	 3.27217767998546E-02 
1937	 3.27224982385939E-02 
1938	 3.27341528177316E-02 
1939	 3.27381146498927E-02 
1940	 3.27425806287819E-02 
1941	 3.27497606928652E-02 
1942	 3.27521897014795E-02 
1943	 3.27619734024376E-02 
1944	 3.27788124874333E-02 
1945	 3.27990070404861E-02 
1946	 3.28388224586181E-02 
1947	 3.28825741074859E-02 
1948	 0.032928661699142 
1949	 3.29727266534785E-02 
1950	 3.30195575054991E-02 
1951	 3.30566311898645E-02 
1952	 3.31148668148545E-02 
1953	 3.31803104333492E-02 
1954	 0.033261248516585 
1955	 3.33549016248607E-02 
1956	 3.34365264704432E-02 
1957	 3.35139971986263E-02 
1958	 3.35827160491628E-02 
1959	 3.36412200391388E-02 
1960	 3.36958843786423E-02 
1961	 3.37490081635387E-02 
1962	 3.37955330333899E-02 
1963	 3.38462239299832E-02 
1964	 3.39046773984986E-02 
1965	 3.39459153119467E-02 
1966	 3.39799372813679E-02 
1967	 3.40114071594235E-02 
1968	 3.40327987047775E-02 
1969	 3.40444120921584E-02 
1970	 3.40582773631336E-02 
1971	 3.40880885616507E-02 
1972	 3.41180490248004E-02 
1973	 3.41381494415682E-02 
1974	 3.41648851064558E-02 
1975	 3.41946444829416E-02 
1976	 3.42235858457971E-02 
1977	 3.42461198553344E-02 
1978	 3.42889814021993E-02 
1979	 0.034347515599705 
1980	 3.43991227495899E-02 
1981	 3.44559987957925E-02 
1982	 3.44979486221031E-02 
1983	 0.034526782893905 
1984	 3.45626198119141E-02 
1985	 3.45967430029181E-02 
1986	 3.46414806885612E-02 
1987	 3.46869564468733E-02 
1988	 3.47302367050373E-02 
1989	 3.47835627717756E-02 
1990	 3.48451018572009E-02 
1991	 3.49073277410764E-02 
1992	 3.49771645189775E-02 
1993	 3.50483982689388E-02 
1994	 3.51125367385849E-02 
1995	 3.51893469677255E-02 
1996	 3.52630638033821E-02 
1997	 0.035333570444884 
1998	 3.54078990527821E-02 
1999	 3.54844320791232E-02 
2000	 3.55555048189697E-02 
2001	 3.56340234712793E-02 
2002	 0.035699427389266 
2003	 3.57514076626873E-02 
2004	 3.58101321054513E-02 
2005	 3.58644286786103E-02 
2006	 3.59177095929308E-02 
2007	 3.59712361874264E-02 
2008	 3.60335668077507E-02 
2009	 3.60791112131364E-02 
2010	 3.61120732914515E-02 
2011	 3.61545696789815E-02 
2012	 3.61928040829048E-02 
2013	 3.62387420065699E-02 
2014	 3.63015662003704E-02 
2015	 3.63455651504199E-02 
2016	 0.03638353900599 
2017	 3.64209649345987E-02 
2018	 3.64439017765717E-02 
2019	 3.64773429443549E-02 
2020	 3.65240543323765E-02 
2021	 3.65542013380807E-02 
2022	 3.65778217550905E-02 
2023	 3.66101349218708E-02 
2024	 3.66222977652381E-02 
2025	 3.66318277215485E-02 
2026	 3.66455007095378E-02 
2027	 3.66566985121664E-02 
2028	 0.036670557140578 
2029	 3.66899565849555E-02 
2030	 3.67042276406973E-02 
2031	 3.67130820714632E-02 
2032	 3.67301221407616E-02 
2033	 3.67498192259706E-02 
2034	 3.67666248610777E-02 
2035	 3.67886293661964E-02 
2036	 3.68093852995957E-02 
2037	 3.68238858959152E-02 
2038	 3.68373684201079E-02 
2039	 3.68519223047792E-02 
2040	 3.68663343215422E-02 
2041	 3.68841370187049E-02 
2042	 3.69084622554928E-02 
2043	 3.69233608538857E-02 
2044	 0.036930364890436 
2045	 3.69453545825457E-02 
2046	 0.036957406263739 
2047	 3.69709478411344E-02 
2048	 3.69919389448143E-02 
2049	 0.037014850091149 
2050	 3.70403549756336E-02 
2051	 3.70604785843049E-02 
2052	 3.70804043168633E-02 
2053	 3.70968210078855E-02 
2054	 3.71091229229308E-02 
2055	 3.71056993989199E-02 
2056	 3.71246913122413E-02 
2057	 0.037156623733038 
2058	 0.037175323895149 
2059	 3.72032676317767E-02 
2060	 3.72163898821591E-02 
2061	 3.72011245381995E-02 
2062	 3.72133671146672E-02 
2063	 3.72431233507052E-02 
2064	 3.72610924196312E-02 
2065	 0.037277659583148 
2066	 0.037310189544208 
2067	 0.037327908487088 
2068	 3.73248284214414E-02 
2069	 3.73451885859918E-02 
2070	 3.73782465498923E-02 
2071	 3.74000388948781E-02 
2072	 3.74289807625061E-02 
2073	 3.74467386144662E-02 
2074	 3.74496522844213E-02 
2075	 3.74646438532764E-02 
2076	 3.74854578770201E-02 
2077	 0.03750042635936 
2078	 3.75177850941043E-02 
2079	 3.75292001955825E-02 
2080	 3.75243617170728E-02 
2081	 3.75322868790436E-02 
2082	 3.75407357275385E-02 
2083	 3.75671549563719E-02 
2084	 3.75785321810025E-02 
2085	 0.037600194881028 
2086	 3.76186347345792E-02 
2087	 3.76319577794577E-02 
2088	 3.76473371742672E-02 
2089	 3.76694550440556E-02 
2090	 3.76843054372769E-02 
2091	 3.76940492634105E-02 
2092	 0.037703025210557 
2093	 3.77031545822394E-02 
2094	 3.77180341247416E-02 
2095	 3.77433675676964E-02 
2096	 3.77604350702141E-02 
2097	 3.77841228135332E-02 
2098	 3.78017599575323E-02 
2099	 3.78171774797896E-02 
2100	 3.78314996219015E-02 
2101	 3.78463410333634E-02 
2102	 3.78664291630316E-02 
2103	 3.78826013186945E-02 
2104	 3.78957207345758E-02 
2105	 3.79064755678261E-02 
2106	 0.037913982687381 
2107	 3.79286140069985E-02 
2108	 3.79439923845393E-02 
2109	 3.79561453859609E-02 
2110	 3.79774546069029E-02 
2111	 0.037989855997409 
2112	 3.79820832566699E-02 
2113	 3.79917172837722E-02 
2114	 0.038013397380078 
2115	 3.80296459759892E-02 
2116	 3.80496676370161E-02 
2117	 3.80752078397379E-02 
2118	 3.80927549458271E-02 
2119	 3.81042831351137E-02 
2120	 3.81104209429721E-02 
2121	 3.81110793233889E-02 
2122	 3.81195774070814E-02 
2123	 0.038118761467393 
2124	 3.81346812266624E-02 
2125	 3.81721362574397E-02 
2126	 3.81914276459784E-02 
2127	 3.82129393921409E-02 
2128	 3.82229512226763E-02 
2129	 0.038214181088836 
2130	 0.038216266143047 
2131	 3.82103110548584E-02 
2132	 3.82177179520057E-02 
2133	 3.82379894097543E-02 
2134	 3.82660398044512E-02 
2135	 3.82644446551655E-02 
2136	 3.82592296395188E-02 
2137	 3.82547937821421E-02 
2138	 3.82261789328204E-02 
2139	 3.82233347468604E-02 
2140	 3.82424287137242E-02 
2141	 3.82460664854092E-02 
2142	 3.82555003643217E-02 
2143	 3.82433754573598E-02 
2144	 3.82058439979047E-02 
2145	 3.81955526739761E-02 
2146	 3.81905184802428E-02 
2147	 0.038179117612539 
2148	 3.81849854832654E-02 
2149	 3.81765081754048E-02 
2150	 3.81391425261633E-02 
2151	 3.81235621173925E-02 
2152	 3.81184966263492E-02 
2153	 3.81222532915077E-02 
2154	 3.81153632372942E-02 
2155	 3.80939152233237E-02 
2156	 3.80741854556472E-02 
2157	 3.80418222492318E-02 
2158	 3.80124632562739E-02 
2159	 3.79852511665641E-02 
2160	 3.79558214889563E-02 
2161	 3.79120507421785E-02 
2162	 3.78872150872622E-02 
2163	 3.78807723268997E-02 
2164	 3.78584772613683E-02 
2165	 3.78349850272843E-02 
2166	 3.78110591679343E-02 
2167	 3.77813522483919E-02 
2168	 3.77502665228389E-02 
2169	 0.037714359588589 
2170	 3.76889086685514E-02 
2171	 3.76605426988969E-02 
2172	 3.76388639395591E-02 
2173	 3.76310861731587E-02 
2174	 3.76239943670882E-02 
2175	 0.037610096436998 
2176	 3.76015853535409E-02 
2177	 3.75842419202969E-02 
2178	 0.037561039508459 
2179	 3.75420821981089E-02 
2180	 3.75250762888103E-02 
2181	 3.75000063740089E-02 
2182	 0.037460338424065 
2183	 3.74489383500237E-02 
2184	 3.74462344369343E-02 
2185	 3.74387182431324E-02 
2186	 3.74593906629725E-02 
2187	 3.74571111609446E-02 
2188	 3.74368073152764E-02 
2189	 3.74167742085025E-02 
2190	 3.73858418741863E-02 
2191	 3.73641193163284E-02 
2192	 3.73298608864092E-02 
2193	 3.73166292956605E-02 
2194	 3.73302266473279E-02 
2195	 3.73317600112918E-02 
2196	 3.73419871244448E-02 
2197	 3.73482158628231E-02 
2198	 3.73368558636694E-02 
2199	 3.73068357287568E-02 
2200	 0.037291031817126 
2201	 3.72698366119609E-02 
2202	 3.72549464326849E-02 
2203	 3.72466724995241E-02 
2204	 3.72440109412739E-02 
2205	 3.72480144092912E-02 
2206	 3.72414093175119E-02 
2207	 3.72351439631248E-02 
2208	 3.72284832967766E-02 
2209	 3.72037589720457E-02 
2210	 3.72025775412133E-02 
2211	 3.72257813409671E-02 
2212	 3.72323745055805E-02 
2213	 3.72386228492851E-02 
2214	 3.72479415294869E-02 
2215	 0.037253660060249 
2216	 3.72563150360448E-02 
2217	 3.72579881935527E-02 
2218	 3.72658898830886E-02 
2219	 3.72721084058976E-02 
2220	 3.72794089859092E-02 
2221	 3.72924929898438E-02 
2222	 3.73089544080241E-02 
2223	 3.73284325811393E-02 
2224	 3.73354548472236E-02 
2225	 3.73467372470263E-02 
2226	 3.73597219663773E-02 
2227	 3.73692590133992E-02 
2228	 3.73672405307949E-02 
2229	 3.73810359816506E-02 
2230	 3.74056215151603E-02 
2231	 3.74182150519274E-02 
2232	 3.74410479293586E-02 
2233	 3.74426419625809E-02 
2234	 0.037427815651509 
2235	 3.74151924017092E-02 
2236	 3.73806836408305E-02 
2237	 3.73699847131029E-02 
2238	 3.73723193799127E-02 
2239	 3.73689918227461E-02 
2240	 0.037379717365263 
2241	 3.73763381434832E-02 
2242	 3.73662792469986E-02 
2243	 3.73501518086689E-02 
2244	 3.73303827994426E-02 
2245	 3.73054177342297E-02 
2246	 0.037266832028335 
2247	 3.72302901066172E-02 
2248	 0.037188132997944 
2249	 3.71493348779599E-02 
2250	 3.71151136130171E-02 
2251	 3.70742050699109E-02 
2252	 3.70372757148149E-02 
2253	 3.69979300201439E-02 
2254	 3.69473712298267E-02 
2255	 0.036920845596552 
2256	 3.68943633191007E-02 
2257	 3.68401237617786E-02 
2258	 3.67884884855583E-02 
2259	 3.67189299490283E-02 
2260	 3.66758316153129E-02 
2261	 3.66409535689333E-02 
2262	 3.66092149817594E-02 
2263	 3.65935486094993E-02 
2264	 0.036574356430829 
2265	 3.65640928636586E-02 
2266	 3.65254021865631E-02 
2267	 0.036474158088588 
2268	 3.64312080498433E-02 
2269	 0.036368146089873 
2270	 3.63142464333976E-02 
2271	 3.62643919109353E-02 
2272	 3.62383544518648E-02 
2273	 3.62281238964847E-02 
2274	 3.61995758954978E-02 
2275	 3.61888042843243E-02 
2276	 3.61644041410969E-02 
2277	 0.036108153245213 
2278	 3.60716012011875E-02 
2279	 3.60527235581417E-02 
2280	 0.036025910033605 
2281	 3.59983194221862E-02 
2282	 3.59657797568902E-02 
2283	 3.59381535602053E-02 
2284	 3.58944062580184E-02 
2285	 3.58342003972089E-02 
2286	 3.57829512275038E-02 
2287	 3.57288091776694E-02 
2288	 0.035699851635978 
2289	 3.57007310671808E-02 
2290	 3.56638613350001E-02 
2291	 3.55990175054117E-02 
2292	 3.55452382788061E-02 
2293	 3.54866220849618E-02 
2294	 0.03542805970751 
2295	 3.53874817210697E-02 
2296	 3.53501700386256E-02 
2297	 3.53134440058941E-02 
2298	 3.52644013644186E-02 
2299	 3.52443358097495E-02 
2300	 3.52431574635777E-02 
2301	 3.52473011681099E-02 
2302	 3.52558018359388E-02 
2303	 3.52931507984739E-02 
2304	 3.53673594578206E-02 
2305	 3.54007834067094E-02 
2306	 3.54337051544056E-02 
2307	 3.54750320538765E-02 
2308	 3.54827608705624E-02 
2309	 3.55312477676162E-02 
2310	 3.56209622858085E-02 
2311	 3.56978568746292E-02 
2312	 3.57791070252036E-02 
2313	 3.58672408347838E-02 
2314	 3.59671062237501E-02 
2315	 0.03604924710763 
2316	 3.61375571858502E-02 
2317	 3.62072799271478E-02 
2318	 3.62449651571306E-02 
2319	 3.63156448493412E-02 
2320	 3.64042709521363E-02 
2321	 3.64597390081615E-02 
2322	 3.65299498336276E-02 
2323	 3.65661084776278E-02 
2324	 3.65346273244207E-02 
2325	 3.65626835465139E-02 
2326	 3.66274649983216E-02 
2327	 3.66493216425999E-02 
2328	 3.66821888926622E-02 
2329	 3.66963733854052E-02 
2330	 3.66767952089311E-02 
2331	 3.66391737488831E-02 
2332	 3.66160795984815E-02 
2333	 0.036565153523872 
2334	 3.65175925770702E-02 
2335	 0.036491112540144 
2336	 0.03645804517229 
2337	 3.64391590997156E-02 
2338	 3.63792335344599E-02 
2339	 3.62881000484347E-02 
2340	 3.62169723762323E-02 
2341	 3.61587731071584E-02 
2342	 3.61488304202831E-02 
2343	 3.61752930631323E-02 
2344	 3.61845632287577E-02 
2345	 3.61850199568707E-02 
2346	 3.61958558014011E-02 
2347	 3.62096436162819E-02 
2348	 3.62587098465631E-02 
2349	 3.63401694318419E-02 
2350	 3.63803950705731E-02 
2351	 3.64032988450547E-02 
2352	 0.036446834996136 
2353	 3.64763347260557E-02 
2354	 3.64838273082238E-02 
2355	 3.64978885060911E-02 
2356	 3.65055637221291E-02 
2357	 3.64953840424948E-02 
2358	 3.65271469265067E-02 
2359	 3.65716885933849E-02 
2360	 3.65750282109851E-02 
2361	 0.036585304407599 
2362	 3.65924450191914E-02 
2363	 3.65767619812051E-02 
2364	 3.65806422961823E-02 
2365	 3.65923845260161E-02 
2366	 3.65911008282156E-02 
2367	 3.65891786623579E-02 
2368	 3.65944538623779E-02 
2369	 3.65948583712661E-02 
2370	 3.65725675158879E-02 
2371	 3.65470636672692E-02 
2372	 3.65073890300665E-02 
2373	 3.64936243985146E-02 
2374	 3.65294124149506E-02 
2375	 0.036527341621803 
2376	 0.036528808107968 
2377	 3.65213011620768E-02 
2378	 3.64615245701079E-02 
2379	 3.64575395300072E-02 
2380	 0.036412499493024 
2381	 3.63378079870476E-02 
2382	 3.63160704871621E-02 
2383	 3.62920919188755E-02 
2384	 0.036276108269595 
2385	 3.63272298270357E-02 
2386	 3.63445055016417E-02 
2387	 3.63489340231564E-02 
2388	 3.63394749467724E-02 
2389	 3.63248447004596E-02 
2390	 3.63141503247625E-02 
2391	 3.62846819763172E-02 
2392	 3.62433447603436E-02 
2393	 3.62130723356051E-02 
2394	 0.036149255266394 
2395	 3.60286608098172E-02 
2396	 3.59719194260531E-02 
2397	 3.59382920869821E-02 
2398	 3.59033822436296E-02 
2399	 3.59071856004282E-02 
2400	 3.58765213985603E-02 
2401	 3.58021956178462E-02 
2402	 3.58250965686594E-02 
2403	 3.57991963223638E-02 
2404	 3.56997764067633E-02 
2405	 3.57114220222922E-02 
2406	 3.56950989429798E-02 
2407	 3.56717913476421E-02 
2408	 3.56836927442207E-02 
2409	 3.56367743218139E-02 
2410	 3.55799450964908E-02 
2411	 3.55527348226221E-02 
2412	 3.55646285765113E-02 
2413	 3.55017466503942E-02 
2414	 3.54078572945018E-02 
2415	 3.53979928369443E-02 
2416	 3.53853547781804E-02 
2417	 0.035403129022467 
2418	 0.035450131151477 
2419	 3.53263754172052E-02 
2420	 0.035163017654228 
2421	 0.035161001815369 
2422	 3.52042062897953E-02 
2423	 3.52495669633747E-02 
2424	 3.52402685689561E-02 
2425	 3.52169909919086E-02 
2426	 3.52152108132484E-02 
2427	 3.52386507247947E-02 
2428	 3.53355591939709E-02 
2429	 3.52984213326975E-02 
2430	 3.51924406483172E-02 
2431	 0.035112300938179 
2432	 3.50075088170691E-02 
2433	 3.50694155789715E-02 
2434	 3.51214070351395E-02 
2435	 3.51281360646142E-02 
2436	 0.035225132521033 
2437	 3.51418814987747E-02 
2438	 3.50458084576032E-02 
2439	 3.50383567221322E-02 
2440	 3.49603808361818E-02 
2441	 3.49505559846785E-02 
2442	 3.49358380870989E-02 
2443	 0.034822371006295 
2444	 3.46887950837577E-02 
2445	 3.46419359350438E-02 
2446	 3.47048115079655E-02 
2447	 3.47861874822662E-02 
2448	 3.48211711495482E-02 
2449	 3.47959288478045E-02 
2450	 0.034747586326023 
2451	 3.46252440064997E-02 
2452	 3.46258274902928E-02 
2453	 3.46343299182787E-02 
2454	 3.44978479085689E-02 
2455	 0.034647363506831 
2456	 3.47689636177296E-02 
2457	 3.46300889889721E-02 
2458	 3.46353915599147E-02 
2459	 3.45555916872716E-02 
2460	 3.43977414677436E-02 
2461	 0.034526728778884 
2462	 3.47469306837525E-02 
2463	 3.48793707425666E-02 
2464	 3.46839000003105E-02 
2465	 0.034329244222752 
2466	 3.41290311441582E-02 
2467	 3.39188860589208E-02 
2468	 3.39135347949766E-02 
2469	 3.41846358966903E-02 
2470	 3.43498602472867E-02 
2471	 3.42733626019479E-02 
2472	 3.42938026847761E-02 
2473	 3.42873016866739E-02 
2474	 3.40914178284058E-02 
2475	 3.39636040919128E-02 
2476	 3.38739024622282E-02 
2477	 0.033944131831148 
2478	 3.40940353692655E-02 
2479	 3.42138584561646E-02 
2480	 3.44209967489324E-02 
2481	 3.43677181838607E-02 
2482	 3.40226380103383E-02 
2483	 3.39566525059969E-02 
2484	 3.38783499663488E-02 
2485	 3.40621212285318E-02 
2486	 3.44115943797582E-02 
2487	 3.44103750204107E-02 
2488	 3.44489269411965E-02 
2489	 3.45406304072409E-02 
2490	 3.43968572101247E-02 
2491	 3.43948416540457E-02 
2492	 3.44849234413322E-02 
2493	 3.43609954366436E-02 
2494	 3.42028107171026E-02 
2495	 3.41604366759484E-02 
2496	 3.41221018569653E-02 
2497	 3.41768335376301E-02 
2498	 3.43330961703579E-02 
2499	 0.034313750913832 
2500	 0.034138292754803 
