Wavelength	spectrum00009.asd
350	 5.31530671147011E-02 
351	 5.22460562422044E-02 
352	 5.17061968858749E-02 
353	 5.24261575639756E-02 
354	 5.09957112825927E-02 
355	 5.15848809671055E-02 
356	 5.25942356210066E-02 
357	 0.052108187715628 
358	 5.11581696069515E-02 
359	 4.97464962527296E-02 
360	 4.95436717314582E-02 
361	 5.21948820269519E-02 
362	 5.27446240590967E-02 
363	 5.22444527031813E-02 
364	 5.17926348618013E-02 
365	 5.16550949608405E-02 
366	 5.34251860168859E-02 
367	 5.53931436820411E-02 
368	 5.59013589816592E-02 
369	 5.60408496654844E-02 
370	 5.62997577069965E-02 
371	 5.70620925587271E-02 
372	 5.84673523299642E-02 
373	 5.94791126523631E-02 
374	 6.04892789039179E-02 
375	 6.17261387133258E-02 
376	 6.29455150362646E-02 
377	 6.42578447473235E-02 
378	 6.56008210613737E-02 
379	 6.67492087591998E-02 
380	 6.68666055995246E-02 
381	 6.82329482511698E-02 
382	 7.03997236195735E-02 
383	 7.14786571217007E-02 
384	 7.32353371192517E-02 
385	 0.07533600827027 
386	 7.72706778791802E-02 
387	 7.85994396798001E-02 
388	 8.04655497155058E-02 
389	 8.25286319396455E-02 
390	 0.084212374875096 
391	 8.56063265940603E-02 
392	 8.77709421604453E-02 
393	 9.03220359047876E-02 
394	 0.092104505465291 
395	 9.47991877322125E-02 
396	 9.72356299643833E-02 
397	 9.90196065660845E-02 
398	 0.101656939847424 
399	 0.103953078407563 
400	 0.106066789256066 
401	 0.108442164867928 
402	 0.110966873320571 
403	 0.113777294860595 
404	 0.116462129600642 
405	 0.118347909218392 
406	 0.120743431566497 
407	 0.12310545619225 
408	 0.125179039413555 
409	 0.127819722500449 
410	 0.13045283811932 
411	 0.132794418824502 
412	 0.134860060245671 
413	 0.137736845160302 
414	 0.139985581755155 
415	 0.141622200884688 
416	 0.144002255090068 
417	 0.146375421860411 
418	 0.14866673078351 
419	 0.150911957357829 
420	 0.15317668734487 
421	 0.155099343057343 
422	 0.15698494933848 
423	 0.159283135482784 
424	 0.16145562879431 
425	 0.163358731406654 
426	 0.165128728542507 
427	 0.167165058109488 
428	 0.169090213910269 
429	 0.170969478415399 
430	 0.172885651156205 
431	 0.174655149494224 
432	 0.176575567941645 
433	 0.178504642577976 
434	 0.180133809069302 
435	 0.182055440302793 
436	 0.183976346153782 
437	 0.185734827760321 
438	 0.1875193349605 
439	 0.18933301171154 
440	 0.191175144735559 
441	 0.193039144153387 
442	 0.194927226592101 
443	 0.196865618223202 
444	 0.19882599148754 
445	 0.200746136783487 
446	 0.202681520525351 
447	 0.204528144309529 
448	 0.206291360298767 
449	 0.208258376179783 
450	 0.210342720557168 
451	 0.212383325666369 
452	 0.214249230720131 
453	 0.216215881740511 
454	 0.218187552508044 
455	 0.22015314031344 
456	 0.222230480830151 
457	 0.224301058315798 
458	 0.226303121515513 
459	 0.228271228128429 
460	 0.230496982810924 
461	 0.232489563328552 
462	 0.23431523300313 
463	 0.236335305657754 
464	 0.238433365681048 
465	 0.240597668695737 
466	 0.242763048186848 
467	 0.244769896021291 
468	 0.246845820198782 
469	 0.248934306046177 
470	 0.250962617361506 
471	 0.253150472505291 
472	 0.255250369993723 
473	 0.25726538504352 
474	 0.259393737112547 
475	 0.261463230630825 
476	 0.263479643850471 
477	 0.265470487982674 
478	 0.267450560932178 
479	 0.269356486738025 
480	 0.271313290896757 
481	 0.273444942339582 
482	 0.275384943166439 
483	 0.277287581213177 
484	 0.279245966771963 
485	 0.281231895746883 
486	 0.283228586931367 
487	 0.285097962707227 
488	 0.286803810004591 
489	 0.288684616571042 
490	 0.290626544340174 
491	 0.292530148568866 
492	 0.294316498601155 
493	 0.296013579634558 
494	 0.297703429603881 
495	 0.299453606697811 
496	 0.301314793885127 
497	 0.302909362607899 
498	 0.304421320760241 
499	 0.306118837231965 
500	 0.307787734528218 
501	 0.309342100210431 
502	 0.31083469073623 
503	 0.312426953816508 
504	 0.313997869397557 
505	 0.315453849885178 
506	 0.316796411892983 
507	 0.318236182953241 
508	 0.319647381571415 
509	 0.320996321571644 
510	 0.322296999984756 
511	 0.323608724388848 
512	 0.324931295252608 
513	 0.326232393798109 
514	 0.327453261243696 
515	 0.328566206669394 
516	 0.329665268857178 
517	 0.330813650893039 
518	 0.331845412500736 
519	 0.332850421739722 
520	 0.333857023510411 
521	 0.334842773859325 
522	 0.335776211093086 
523	 0.336660229163508 
524	 0.337498094375266 
525	 0.338284021193694 
526	 0.33902026409124 
527	 0.339753018814347 
528	 0.340493578614251 
529	 0.340969278697369 
530	 0.341451971641664 
531	 0.342001008997175 
532	 0.342417835049597 
533	 0.34274918485018 
534	 0.343031994017153 
535	 0.343278826114411 
536	 0.343429679510187 
537	 0.343533072280935 
538	 0.343561066504626 
539	 0.343453509395 
540	 0.343266817673513 
541	 0.343030115381774 
542	 0.342738748027867 
543	 0.342337900009135 
544	 0.341920954034179 
545	 0.341412481130203 
546	 0.340729487746538 
547	 0.339993293073378 
548	 0.3391971183063 
549	 0.338347559679034 
550	 0.337465930986249 
551	 0.336533241425864 
552	 0.335553426801182 
553	 0.334512752853089 
554	 0.333347883270092 
555	 0.332060705582891 
556	 0.33068771323016 
557	 0.329278223838645 
558	 0.32781903488877 
559	 0.326253520130963 
560	 0.324567321875377 
561	 0.322805926921015 
562	 0.32099210024066 
563	 0.319153926124758 
564	 0.317278585610169 
565	 0.315214655230485 
566	 0.31303797213207 
567	 0.310776953717001 
568	 0.308429099498158 
569	 0.306050107957708 
570	 0.303630607733854 
571	 0.301214307337109 
572	 0.298980034676177 
573	 0.296835488982109 
574	 0.294692658073382 
575	 0.292470675717709 
576	 0.290191592752774 
577	 0.287833590053646 
578	 0.285410273490832 
579	 0.282975787677299 
580	 0.280362913918905 
581	 0.277645300135596 
582	 0.274905970435297 
583	 0.27207227735038 
584	 0.269228621163911 
585	 0.266411950730656 
586	 0.263625773260937 
587	 0.260864093816422 
588	 0.258107211849827 
589	 0.255335324183191 
590	 0.252538466945525 
591	 0.249711808212325 
592	 0.246899408886023 
593	 0.244145523016568 
594	 0.241433384544534 
595	 0.238720036371636 
596	 0.236002680044768 
597	 0.233310166010681 
598	 0.230555549412295 
599	 0.227791296288352 
600	 0.225066331216421 
601	 0.222363684483926 
602	 0.219710329872359 
603	 0.217043234825846 
604	 0.214295817695869 
605	 0.211625461597298 
606	 0.209037734882839 
607	 0.20650827653694 
608	 0.203995128306891 
609	 0.201520745417674 
610	 0.199087625723814 
611	 0.196691952990997 
612	 0.194349876082086 
613	 0.192060976120099 
614	 0.189796951365596 
615	 0.18751745230016 
616	 0.185310514788465 
617	 0.183136958765145 
618	 0.180976272582847 
619	 0.178861566566656 
620	 0.176805999734408 
621	 0.174793951231521 
622	 0.17280055415724 
623	 0.170813604063816 
624	 0.168910014636779 
625	 0.167080566602531 
626	 0.165235312244923 
627	 0.163421467012254 
628	 0.161656995322191 
629	 0.159940437830647 
630	 0.15823261106076 
631	 0.156578800525263 
632	 0.154978832783408 
633	 0.153411034897219 
634	 0.151840877431846 
635	 0.150304014004465 
636	 0.148816494741912 
637	 0.14736903578782 
638	 0.145964680506044 
639	 0.144574418809176 
640	 0.143180825363774 
641	 0.141816990857345 
642	 0.140518483081315 
643	 0.139262657390172 
644	 0.137997810415331 
645	 0.136786426019139 
646	 0.135598753678729 
647	 0.134426831110431 
648	 0.133317708073052 
649	 0.132213797905752 
650	 0.131123530073428 
651	 0.130065951850166 
652	 0.129012951787836 
653	 0.127975995870476 
654	 0.126970019192115 
655	 0.12600745078948 
656	 0.125055173529149 
657	 0.124117738041072 
658	 0.123209718765689 
659	 0.122358654467822 
660	 0.121486087740158 
661	 0.120607078259948 
662	 0.119768766942972 
663	 0.118975820142041 
664	 0.118154735418896 
665	 0.117325249403208 
666	 0.11659752714597 
667	 0.115874693378864 
668	 0.11516701026592 
669	 0.1144798737057 
670	 0.113742600363361 
671	 0.113041778420152 
672	 0.112369512913919 
673	 0.111686445347991 
674	 0.111067882142885 
675	 0.110452621753536 
676	 0.109816181053356 
677	 0.109191521836699 
678	 0.108584050208902 
679	 0.107987956668672 
680	 0.10740310645156 
681	 0.106860753982601 
682	 0.106313255275342 
683	 0.105761748912644 
684	 0.105229388641906 
685	 0.104685374463555 
686	 0.104148643703986 
687	 0.103635459383424 
688	 0.10315067345244 
689	 0.10264577316984 
690	 0.102141118053504 
691	 0.10166353005715 
692	 0.101193312907284 
693	 0.100757687806895 
694	 0.100327474848795 
695	 9.98476299729462E-02 
696	 9.93764621697718E-02 
697	 9.89304052857829E-02 
698	 9.85066112775197E-02 
699	 9.80817513673828E-02 
700	 9.76676579452244E-02 
701	 9.72423188339122E-02 
702	 9.67940220089764E-02 
703	 9.63803362240225E-02 
704	 9.60092944583308E-02 
705	 9.56415164001107E-02 
706	 9.52180902786504E-02 
707	 9.48329817562894E-02 
708	 9.44722045410833E-02 
709	 9.41156221753106E-02 
710	 9.37589731695236E-02 
711	 9.33952267427535E-02 
712	 0.093035397625757 
713	 9.26900648171074E-02 
714	 9.23442261722018E-02 
715	 9.19964459408477E-02 
716	 9.16543463846157E-02 
717	 9.13293327561014E-02 
718	 9.09917185826136E-02 
719	 9.06647332485844E-02 
720	 9.03616421153934E-02 
721	 9.00681022168751E-02 
722	 8.97853727788771E-02 
723	 8.94927254366539E-02 
724	 8.91738822567211E-02 
725	 0.088847513870045 
726	 8.85535605456645E-02 
727	 8.82931900214949E-02 
728	 8.80374547072334E-02 
729	 0.087762356506885 
730	 8.74834503311717E-02 
731	 0.087217498612397 
732	 8.69733727349313E-02 
733	 8.67067317745337E-02 
734	 8.64436523979643E-02 
735	 8.62118650374443E-02 
736	 0.08596405746721 
737	 8.57247168389177E-02 
738	 8.54908871766258E-02 
739	 8.52458391270453E-02 
740	 8.50256811615022E-02 
741	 8.48103766331176E-02 
742	 8.45925884539466E-02 
743	 8.43940157326864E-02 
744	 8.41966579927377E-02 
745	 8.39883818902914E-02 
746	 8.37699797674064E-02 
747	 8.35778085279676E-02 
748	 8.33997929202592E-02 
749	 8.32132860771851E-02 
750	 8.30006920807069E-02 
751	 8.28318278343481E-02 
752	 8.26673221100458E-02 
753	 8.24902997798939E-02 
754	 8.23276294017806E-02 
755	 8.21824694560894E-02 
756	 8.20221063063381E-02 
757	 8.18326162238431E-02 
758	 8.16776717907452E-02 
759	 8.15322671929758E-02 
760	 8.13860419325673E-02 
761	 8.12380056955931E-02 
762	 8.11063253713886E-02 
763	 8.09615677637771E-02 
764	 8.08072892582394E-02 
765	 8.06826557691487E-02 
766	 8.05533451821079E-02 
767	 8.04175159917703E-02 
768	 8.02879385518944E-02 
769	 0.0802004151996 
770	 8.00883492045198E-02 
771	 7.99625525594899E-02 
772	 7.98543424552724E-02 
773	 7.97385573729576E-02 
774	 0.079633243931348 
775	 7.95390190563686E-02 
776	 7.94413994730726E-02 
777	 7.93418081811739E-02 
778	 7.92461068339577E-02 
779	 7.91569935504578E-02 
780	 7.90710452356822E-02 
781	 7.89790718101562E-02 
782	 7.88938640620818E-02 
783	 7.88240075810134E-02 
784	 7.87390045170449E-02 
785	 7.86687969579412E-02 
786	 7.86070504833228E-02 
787	 0.07852921354989 
788	 7.84462470218775E-02 
789	 7.83616235560062E-02 
790	 0.078279593895339 
791	 7.82056771069634E-02 
792	 7.81521896267971E-02 
793	 7.81048813633256E-02 
794	 0.078049015250198 
795	 7.79806451391706E-02 
796	 7.79302420400742E-02 
797	 7.78925319394519E-02 
798	 0.077847900246374 
799	 7.77830015541943E-02 
800	 0.077721840067401 
801	 7.76721714518819E-02 
802	 7.76266277867008E-02 
803	 7.75771999206888E-02 
804	 7.75328465429893E-02 
805	 7.74998491614384E-02 
806	 7.74767454527596E-02 
807	 7.74490635432435E-02 
808	 7.74057404446864E-02 
809	 7.73538232490405E-02 
810	 7.73482919404593E-02 
811	 7.73413531970594E-02 
812	 7.73226248130631E-02 
813	 7.72985425250767E-02 
814	 7.72620069960246E-02 
815	 7.72520582926019E-02 
816	 7.72571117876187E-02 
817	 7.72261226085167E-02 
818	 7.72276671487125E-02 
819	 7.72252803382008E-02 
820	 7.71967626481452E-02 
821	 7.71685223112318E-02 
822	 7.71653844308816E-02 
823	 7.71843813727378E-02 
824	 7.72097842429347E-02 
825	 7.72199471605693E-02 
826	 7.72051833593523E-02 
827	 7.72004273334667E-02 
828	 7.72453436739501E-02 
829	 7.72817582174508E-02 
830	 7.73048393193567E-02 
831	 7.73139833019323E-02 
832	 7.73130388852341E-02 
833	 7.73360556540532E-02 
834	 7.73661266090703E-02 
835	 7.73922697198285E-02 
836	 7.74251211094688E-02 
837	 7.74720615993666E-02 
838	 7.75258900110093E-02 
839	 7.75790627044416E-02 
840	 7.76343687297969E-02 
841	 7.76993821449273E-02 
842	 0.07776382450011 
843	 7.78195650086128E-02 
844	 0.077905306955461 
845	 7.80030056066803E-02 
846	 7.80919696627492E-02 
847	 7.81570312483594E-02 
848	 7.82268040288144E-02 
849	 0.078298059907506 
850	 7.83734629846101E-02 
851	 7.84667448185053E-02 
852	 0.078579171907816 
853	 7.86947641120678E-02 
854	 7.88045754813914E-02 
855	 7.89222451659889E-02 
856	 7.90503166037972E-02 
857	 7.91821309169691E-02 
858	 7.93099151680283E-02 
859	 7.94331292624694E-02 
860	 7.95762290402476E-02 
861	 7.97307185545543E-02 
862	 7.98759687097911E-02 
863	 8.00336316323984E-02 
864	 8.02061350921567E-02 
865	 8.03742042168974E-02 
866	 8.05094157426202E-02 
867	 8.06662952214474E-02 
868	 8.08493583308348E-02 
869	 8.10435988715207E-02 
870	 8.12205070800026E-02 
871	 8.14415329781157E-02 
872	 8.16445249323188E-02 
873	 8.18096123390767E-02 
874	 8.20704866256601E-02 
875	 8.23153728898397E-02 
876	 8.25346206299154E-02 
877	 0.082754683918685 
878	 8.30043674415152E-02 
879	 8.32614352882067E-02 
880	 8.34964149571817E-02 
881	 8.37022080981682E-02 
882	 8.40006124590121E-02 
883	 8.42911669541927E-02 
884	 8.45539384968236E-02 
885	 8.48379779158056E-02 
886	 8.51262562290414E-02 
887	 8.54181748922095E-02 
888	 8.57190288064331E-02 
889	 8.60362104364104E-02 
890	 8.63295561488921E-02 
891	 8.66194079718687E-02 
892	 8.69270441413844E-02 
893	 8.72540653708733E-02 
894	 8.75963465182718E-02 
895	 8.79497224053597E-02 
896	 8.83032150305414E-02 
897	 8.86258388392809E-02 
898	 8.89647959301602E-02 
899	 8.93148160875455E-02 
900	 8.96687560801826E-02 
901	 9.00885956867926E-02 
902	 9.04775225258762E-02 
903	 9.08457656187253E-02 
904	 9.12498709713875E-02 
905	 0.091668342323702 
906	 9.20784837587236E-02 
907	 9.24885417454477E-02 
908	 9.29211496484276E-02 
909	 9.33174577755845E-02 
910	 9.37391686409473E-02 
911	 9.41962103324264E-02 
912	 9.46385375778324E-02 
913	 9.50930257912544E-02 
914	 9.55461722364062E-02 
915	 9.59937013404544E-02 
916	 9.64519204307296E-02 
917	 0.096929443719019 
918	 0.097421085661357 
919	 9.79186731648746E-02 
920	 9.84169764172094E-02 
921	 9.88327165646311E-02 
922	 9.92858571991339E-02 
923	 9.98547202574439E-02 
924	 0.100378986697858 
925	 0.100900182572357 
926	 0.101399776386333 
927	 0.101877413723982 
928	 0.102442858410217 
929	 0.103007155256693 
930	 0.103550735269188 
931	 0.104088489362453 
932	 0.104643630954356 
933	 0.105182055906745 
934	 0.105722500579378 
935	 0.106299160398845 
936	 0.106857865104794 
937	 0.107433474499589 
938	 0.108036901048558 
939	 0.108648686675593 
940	 0.109192010491896 
941	 0.109766433845519 
942	 0.110368265983664 
943	 0.110914787520161 
944	 0.11156553893439 
945	 0.112175820525061 
946	 0.112726615152377 
947	 0.113348552880893 
948	 0.113897010603791 
949	 0.114483569788269 
950	 0.115129378779576 
951	 0.115707875251399 
952	 0.116312693881397 
953	 0.116964591133313 
954	 0.117628110846432 
955	 0.118214529403968 
956	 0.118845197473654 
957	 0.119487457977847 
958	 0.120113867046239 
959	 0.120760699467297 
960	 0.121365853907012 
961	 0.12197103839624 
962	 0.122605064790058 
963	 0.123221707440246 
964	 0.123808545411205 
965	 0.124405097827004 
966	 0.125038836399614 
967	 0.125677523962033 
968	 0.126323440997886 
969	 0.127004474950495 
970	 0.127701318648609 
971	 0.128261028143455 
972	 0.128862991010177 
973	 0.129542087709577 
974	 0.130261902398846 
975	 0.13093463983835 
976	 0.131550484087018 
977	 0.13221407336278 
978	 0.132956438116198 
979	 0.133463682475793 
980	 0.134092010037015 
981	 0.134773531688974 
982	 0.13536329345456 
983	 0.135957227897538 
984	 0.136666759032043 
985	 0.137365264499922 
986	 0.137930834121347 
987	 0.13855901965144 
988	 0.139212647330929 
989	 0.139852958071128 
990	 0.14046258709774 
991	 0.141107709971805 
992	 0.141742713962246 
993	 0.142390335241379 
994	 0.14307139867019 
995	 0.143721406307974 
996	 0.144338237301794 
997	 0.144933451611154 
998	 0.145537303913909 
999	 0.146221886666697 
1000	 0.146855051869373 
1001	 0.150909080787867 
1002	 0.151606310424933 
1003	 0.152310955728612 
1004	 0.152921754844521 
1005	 0.153498096794917 
1006	 0.154094870459901 
1007	 0.15460851417462 
1008	 0.1551956758556 
1009	 0.155853751034127 
1010	 0.156464405023471 
1011	 0.157064024275046 
1012	 0.157654087625607 
1013	 0.158227698027613 
1014	 0.158812738269501 
1015	 0.159391424732453 
1016	 0.159974679654105 
1017	 0.160555207681866 
1018	 0.161146059300802 
1019	 0.161757581670349 
1020	 0.16233775138468 
1021	 0.162892161151496 
1022	 0.163439882200074 
1023	 0.163964872387481 
1024	 0.164420934054881 
1025	 0.16495799420444 
1026	 0.16554707330347 
1027	 0.166086986297291 
1028	 0.166649443905932 
1029	 0.167186699158422 
1030	 0.167637426871693 
1031	 0.168107992145939 
1032	 0.168562182623559 
1033	 0.168994010378512 
1034	 0.169477349636682 
1035	 0.16994450205208 
1036	 0.170410827462972 
1037	 0.17092396710831 
1038	 0.171355539588349 
1039	 0.171719878127023 
1040	 0.172132670186979 
1041	 0.172536313228454 
1042	 0.172934587237868 
1043	 0.173357922312675 
1044	 0.173754964954149 
1045	 0.174129643604276 
1046	 0.174490847866379 
1047	 0.174865215853237 
1048	 0.175273956508353 
1049	 0.175620972521573 
1050	 0.175942743346041 
1051	 0.176305852098593 
1052	 0.176613675559656 
1053	 0.17693527703757 
1054	 0.177290167842013 
1055	 0.177626540444682 
1056	 0.177936690177174 
1057	 0.178253429968726 
1058	 0.17858580799002 
1059	 0.178887469372335 
1060	 0.179151129773059 
1061	 0.179424997458398 
1062	 0.17972610865372 
1063	 0.180010087300792 
1064	 0.18027974799668 
1065	 0.180534785769045 
1066	 0.180770037107121 
1067	 0.181004922173711 
1068	 0.181259533835292 
1069	 0.18151842963819 
1070	 0.181766953128302 
1071	 0.182014536808605 
1072	 0.182241970868052 
1073	 0.182451986415858 
1074	 0.182677016685659 
1075	 0.182885557430766 
1076	 0.183081589115625 
1077	 0.183286236175234 
1078	 0.183456308587115 
1079	 0.183628161078705 
1080	 0.18380582357059 
1081	 0.183945833681103 
1082	 0.184090531427027 
1083	 0.184248900485243 
1084	 0.184391826316407 
1085	 0.184537084443009 
1086	 0.184684775763546 
1087	 0.184839905669303 
1088	 0.184983245286236 
1089	 0.185114238200622 
1090	 0.185236594550679 
1091	 0.185348285095561 
1092	 0.185432055510888 
1093	 0.185514732944687 
1094	 0.185621402864041 
1095	 0.18572005427248 
1096	 0.185815463801134 
1097	 0.185907496627368 
1098	 0.185977671063762 
1099	 0.186064497518914 
1100	 0.186150429355759 
1101	 0.186222898209674 
1102	 0.186306005348573 
1103	 0.18636638806879 
1104	 0.186404966822831 
1105	 0.186438951595241 
1106	 0.186489489756932 
1107	 0.186527841518654 
1108	 0.18658263882858 
1109	 0.186641154810609 
1110	 0.186673918386248 
1111	 0.18670775621918 
1112	 0.186734134541129 
1113	 0.186746299438647 
1114	 0.186775392709383 
1115	 0.186798094661403 
1116	 0.186791138614651 
1117	 0.186785346839989 
1118	 0.186783100518278 
1119	 0.186758333385557 
1120	 0.186759321010695 
1121	 0.186776687378605 
1122	 0.186803030229598 
1123	 0.186823117979105 
1124	 0.186838963127934 
1125	 0.186838311432788 
1126	 0.186831509839785 
1127	 0.186827751786408 
1128	 0.186822746407053 
1129	 0.186816590043183 
1130	 0.186811931414991 
1131	 0.186801482603403 
1132	 0.18677637492178 
1133	 0.186760783228658 
1134	 0.186743801416392 
1135	 0.186736558684535 
1136	 0.186746222399438 
1137	 0.186742265013471 
1138	 0.186738549168441 
1139	 0.186731502485361 
1140	 0.186712921959178 
1141	 0.186696544088223 
1142	 0.186697952626946 
1143	 0.186681109395779 
1144	 0.186666633156488 
1145	 0.186639205392346 
1146	 0.186596982617424 
1147	 0.186573123545956 
1148	 0.186552455069216 
1149	 0.18652415980707 
1150	 0.186496799795646 
1151	 0.186484176530268 
1152	 0.186467947625483 
1153	 0.186456583903148 
1154	 0.186434733474068 
1155	 0.186408745847517 
1156	 0.186384305308358 
1157	 0.186361402685177 
1158	 0.186328928422698 
1159	 0.186294140774737 
1160	 0.186249125294725 
1161	 0.18621244126639 
1162	 0.18618892541152 
1163	 0.186181339246616 
1164	 0.186182746700589 
1165	 0.186176873547196 
1166	 0.186160606735848 
1167	 0.186145292830831 
1168	 0.186144560289371 
1169	 0.186154533644304 
1170	 0.186177878635877 
1171	 0.186196123498021 
1172	 0.186221933362565 
1173	 0.186248879741193 
1174	 0.186271306527995 
1175	 0.186304685019211 
1176	 0.186351891831968 
1177	 0.18639274629973 
1178	 0.186436357503984 
1179	 0.186475040344511 
1180	 0.186508103935814 
1181	 0.186556333403725 
1182	 0.186599900416136 
1183	 0.186656521977904 
1184	 0.186744905096952 
1185	 0.186824126142888 
1186	 0.186902704099989 
1187	 0.186994733916871 
1188	 0.187077963421586 
1189	 0.187144672654489 
1190	 0.187227713862933 
1191	 0.18732118449074 
1192	 0.187412887136459 
1193	 0.187502313849 
1194	 0.187603153944784 
1195	 0.187713481805926 
1196	 0.187822943476566 
1197	 0.187934189368119 
1198	 0.188055747333951 
1199	 0.188184382885594 
1200	 0.188296744476068 
1201	 0.188404881010749 
1202	 0.188516906744152 
1203	 0.188648654062884 
1204	 0.188804245210807 
1205	 0.188950056381097 
1206	 0.18911311077746 
1207	 0.189276709927745 
1208	 0.189426333328572 
1209	 0.18959529823122 
1210	 0.189788459495854 
1211	 0.189977016545034 
1212	 0.190157246928915 
1213	 0.190360110606813 
1214	 0.19057758451558 
1215	 0.190803119989537 
1216	 0.191050154329956 
1217	 0.191290314753633 
1218	 0.191535948328446 
1219	 0.191777721870403 
1220	 0.192020230738743 
1221	 0.192284266187059 
1222	 0.192534346233567 
1223	 0.192781171342161 
1224	 0.193025653419657 
1225	 0.193257582708366 
1226	 0.193497543379972 
1227	 0.193744572710079 
1228	 0.193983671269126 
1229	 0.194211700195316 
1230	 0.19446020998968 
1231	 0.194718880792143 
1232	 0.194971727473162 
1233	 0.195233289980229 
1234	 0.195490977367964 
1235	 0.195739181477863 
1236	 0.195994997049826 
1237	 0.19625821141566 
1238	 0.196522184704216 
1239	 0.196790338336897 
1240	 0.197052242338732 
1241	 0.197311754100571 
1242	 0.197578126915088 
1243	 0.197851630895811 
1244	 0.198124105962636 
1245	 0.198407766740256 
1246	 0.198710911611578 
1247	 0.198997635407001 
1248	 0.199282686816902 
1249	 0.199569024981442 
1250	 0.199858454281508 
1251	 0.200129804472017 
1252	 0.200382594042018 
1253	 0.200657473215783 
1254	 0.200923294636071 
1255	 0.201207498766079 
1256	 0.201529313434568 
1257	 0.20183051372626 
1258	 0.202128369885111 
1259	 0.202419157173857 
1260	 0.202686116108046 
1261	 0.202977451357278 
1262	 0.203276978003522 
1263	 0.203587352159137 
1264	 0.203886116239967 
1265	 0.20419875712984 
1266	 0.204498492424524 
1267	 0.204779099454734 
1268	 0.205073434439362 
1269	 0.205376626796052 
1270	 0.205675195273896 
1271	 0.205970995689901 
1272	 0.206267452996354 
1273	 0.20656709782873 
1274	 0.206862596550078 
1275	 0.207137749201903 
1276	 0.207444293954985 
1277	 0.207757805621273 
1278	 0.20808569452674 
1279	 0.208445985215463 
1280	 0.208796260831234 
1281	 0.209142718302555 
1282	 0.209500745081945 
1283	 0.209863267703173 
1284	 0.21022807110446 
1285	 0.210597846816644 
1286	 0.210975838921729 
1287	 0.211355700743476 
1288	 0.21173838443304 
1289	 0.212121048244418 
1290	 0.212511895981179 
1291	 0.212891245136002 
1292	 0.213255229723528 
1293	 0.21364129176835 
1294	 0.214027291575068 
1295	 0.214427426107627 
1296	 0.214855386561427 
1297	 0.215260990883577 
1298	 0.215659321487631 
1299	 0.216062786398144 
1300	 0.216465093484067 
1301	 0.21685958587063 
1302	 0.217247878479545 
1303	 0.217645517942984 
1304	 0.218039884927882 
1305	 0.218434205202748 
1306	 0.218827877150086 
1307	 0.219236050344462 
1308	 0.219640931847652 
1309	 0.220063954042057 
1310	 0.220477457244635 
1311	 0.220911070149286 
1312	 0.221314795232723 
1313	 0.22169516209357 
1314	 0.222093484770527 
1315	 0.222493208377225 
1316	 0.222886067628671 
1317	 0.223278871750761 
1318	 0.223675080998724 
1319	 0.224061217909793 
1320	 0.22445962296978 
1321	 0.224879522313173 
1322	 0.225275344268769 
1323	 0.225663882093123 
1324	 0.226048038496426 
1325	 0.226419284528324 
1326	 0.226791252080435 
1327	 0.227158942818867 
1328	 0.227528842625743 
1329	 0.22789476455566 
1330	 0.228261411407399 
1331	 0.228634488173299 
1332	 0.22900062928829 
1333	 0.229342374294893 
1334	 0.229722135989519 
1335	 0.230085648366146 
1336	 0.230445114000542 
1337	 0.230811528702269 
1338	 0.231183036195922 
1339	 0.231551599625672 
1340	 0.231924699956891 
1341	 0.232287934503101 
1342	 0.232645420810106 
1343	 0.23300837185981 
1344	 0.233367325971481 
1345	 0.233730316339643 
1346	 0.234103743003178 
1347	 0.234463387218209 
1348	 0.234816806979575 
1349	 0.235169279725989 
1350	 0.235519890888968 
1351	 0.235864686937221 
1352	 0.236194236793294 
1353	 0.236544967415418 
1354	 0.236904196848202 
1355	 0.237258208938022 
1356	 0.237619410719664 
1357	 0.237986901246569 
1358	 0.238348655340113 
1359	 0.238719839703188 
1360	 0.23910116469276 
1361	 0.23949145282749 
1362	 0.239904396565433 
1363	 0.240288851025379 
1364	 0.240677019112669 
1365	 0.241069149268839 
1366	 0.24145758083405 
1367	 0.241833511302975 
1368	 0.242216791440442 
1369	 0.242609491977267 
1370	 0.24299274571065 
1371	 0.243366000780082 
1372	 0.243745240708987 
1373	 0.244133637606377 
1374	 0.244505596678323 
1375	 0.244875716285269 
1376	 0.245238221121921 
1377	 0.245588810345927 
1378	 0.245941832718816 
1379	 0.246300757665756 
1380	 0.246641588259436 
1381	 0.246969516292217 
1382	 0.247297491808484 
1383	 0.247619817739539 
1384	 0.247932120708839 
1385	 0.248228774386499 
1386	 0.248538984762565 
1387	 0.248840527152991 
1388	 0.249147712165886 
1389	 0.24945862104065 
1390	 0.249786877732437 
1391	 0.250114582581529 
1392	 0.250465438748736 
1393	 0.250838642857586 
1394	 0.251216811618327 
1395	 0.251582751202038 
1396	 0.251962546798448 
1397	 0.252293356578519 
1398	 0.25260236964788 
1399	 0.25289962124981 
1400	 0.253177268007422 
1401	 0.25342649678763 
1402	 0.25367320567462 
1403	 0.253866246149729 
1404	 0.254016667039093 
1405	 0.254138444082211 
1406	 0.254223866374873 
1407	 0.254289214983963 
1408	 0.254309052535058 
1409	 0.254338064033907 
1410	 0.254355228245365 
1411	 0.254358466762379 
1412	 0.254354544338277 
1413	 0.254338445994298 
1414	 0.254292417589172 
1415	 0.254263331930822 
1416	 0.254232413922644 
1417	 0.254207066360077 
1418	 0.254172715774289 
1419	 0.254168960822577 
1420	 0.254186024226226 
1421	 0.254203246317399 
1422	 0.254231867212541 
1423	 0.254280184564577 
1424	 0.254331833754537 
1425	 0.254400815514177 
1426	 0.254495269578536 
1427	 0.254600530896284 
1428	 0.254717476111189 
1429	 0.254810111646436 
1430	 0.254876975813109 
1431	 0.25494982137963 
1432	 0.25495023316316 
1433	 0.254909636407343 
1434	 0.254826221678053 
1435	 0.25469667698562 
1436	 0.254529685320678 
1437	 0.254303638411139 
1438	 0.254087518785614 
1439	 0.25380590162877 
1440	 0.253606914293206 
1441	 0.253380780940953 
1442	 0.253293168233412 
1443	 0.253233172413461 
1444	 0.253349099679375 
1445	 0.253563075771091 
1446	 0.253945031472764 
1447	 0.254487530255735 
1448	 0.255142331129255 
1449	 0.255988362128535 
1450	 0.25686147773878 
1451	 0.257851822447229 
1452	 0.258875579199266 
1453	 0.260012918144 
1454	 0.261090673781132 
1455	 0.26222069681526 
1456	 0.263296221617547 
1457	 0.264348817078015 
1458	 0.265350462581297 
1459	 0.266328656083209 
1460	 0.267257670307964 
1461	 0.268114746634439 
1462	 0.268949313643025 
1463	 0.269741125285792 
1464	 0.270519945443724 
1465	 0.271249184093401 
1466	 0.272004488973277 
1467	 0.272724032648711 
1468	 0.273432101606005 
1469	 0.274142591764016 
1470	 0.274799280467505 
1471	 0.275470264442033 
1472	 0.276129745715345 
1473	 0.276789578285943 
1474	 0.277453096222405 
1475	 0.278087923058257 
1476	 0.278717102833389 
1477	 0.27931671111372 
1478	 0.279893916280463 
1479	 0.280437539235702 
1480	 0.280969270264619 
1481	 0.281444796231988 
1482	 0.281866171323565 
1483	 0.282285474214815 
1484	 0.282653368252609 
1485	 0.283050829596019 
1486	 0.283424641723566 
1487	 0.283851224081361 
1488	 0.284266588704836 
1489	 0.284776901295637 
1490	 0.28533717690655 
1491	 0.285966166784562 
1492	 0.286655698794254 
1493	 0.28742523626956 
1494	 0.288280602967208 
1495	 0.289162618050082 
1496	 0.290123205264422 
1497	 0.291104897330251 
1498	 0.292139214104822 
1499	 0.293169210045029 
1500	 0.29423952372714 
1501	 0.295303784929987 
1502	 0.296380130740296 
1503	 0.297430081425887 
1504	 0.298508601770378 
1505	 0.299525426327423 
1506	 0.300509566698117 
1507	 0.301450667888042 
1508	 0.302336786521691 
1509	 0.303208088327686 
1510	 0.304042683730458 
1511	 0.304851033927291 
1512	 0.305630207319286 
1513	 0.306394733512689 
1514	 0.307142721704697 
1515	 0.307855915905608 
1516	 0.30853590943683 
1517	 0.309208698466022 
1518	 0.309858400683982 
1519	 0.3104787191293 
1520	 0.311078817890485 
1521	 0.311667193784617 
1522	 0.312219989364898 
1523	 0.312791878770546 
1524	 0.313339041795527 
1525	 0.313885626174584 
1526	 0.314422944676956 
1527	 0.314935331411897 
1528	 0.315463866105655 
1529	 0.315993211813247 
1530	 0.316542439854092 
1531	 0.31709496266985 
1532	 0.317661364401052 
1533	 0.318237967621112 
1534	 0.318851785735683 
1535	 0.319468631306752 
1536	 0.320140164021564 
1537	 0.320853873092029 
1538	 0.321605833426442 
1539	 0.322384635665036 
1540	 0.323226538265295 
1541	 0.324121409308897 
1542	 0.325058277983702 
1543	 0.326051217131128 
1544	 0.327068521615697 
1545	 0.328125749750727 
1546	 0.329217929359022 
1547	 0.330356808420124 
1548	 0.331502520510881 
1549	 0.332682543791498 
1550	 0.333873865132258 
1551	 0.335088905766426 
1552	 0.336295144005213 
1553	 0.337524198480375 
1554	 0.338736937723122 
1555	 0.33994589170577 
1556	 0.341139053023374 
1557	 0.342319500078723 
1558	 0.343508841889567 
1559	 0.344702372668119 
1560	 0.345863896202397 
1561	 0.34701879935262 
1562	 0.348166361235015 
1563	 0.349286448460635 
1564	 0.350400509829331 
1565	 0.351517560913235 
1566	 0.352622370247605 
1567	 0.353702204242667 
1568	 0.35478410641842 
1569	 0.355876436550643 
1570	 0.356944397549027 
1571	 0.35800237995106 
1572	 0.359032737810006 
1573	 0.360025312853932 
1574	 0.361038813021763 
1575	 0.362042206128553 
1576	 0.363045075117594 
1577	 0.364053667233438 
1578	 0.365068670835894 
1579	 0.366081429152501 
1580	 0.367086942468659 
1581	 0.368104578679825 
1582	 0.369112357870721 
1583	 0.370101213584698 
1584	 0.371097567944078 
1585	 0.372082377773695 
1586	 0.373098358969122 
1587	 0.374131471275549 
1588	 0.375160388075315 
1589	 0.376206528266033 
1590	 0.377258809445926 
1591	 0.378305371399015 
1592	 0.379365813091089 
1593	 0.380456262791227 
1594	 0.381532101586685 
1595	 0.38260052474134 
1596	 0.383670025639247 
1597	 0.384715484008263 
1598	 0.385803369405964 
1599	 0.386925218814137 
1600	 0.388035532903847 
1601	 0.38916854989226 
1602	 0.390297621607386 
1603	 0.391415985321533 
1604	 0.39253099630182 
1605	 0.393654029016323 
1606	 0.394773710975956 
1607	 0.395896108226953 
1608	 0.396999444108555 
1609	 0.398094960861409 
1610	 0.399187232175347 
1611	 0.4002613240859 
1612	 0.401324435538808 
1613	 0.402385236570041 
1614	 0.403440120374468 
1615	 0.404481044309861 
1616	 0.405518511758096 
1617	 0.406561000905959 
1618	 0.407587285532179 
1619	 0.408602085398988 
1620	 0.409595424449455 
1621	 0.41055243135184 
1622	 0.411533670899046 
1623	 0.412518113413138 
1624	 0.413498438344559 
1625	 0.41448958808206 
1626	 0.415481808390454 
1627	 0.416467061891693 
1628	 0.417440374424672 
1629	 0.418427673093997 
1630	 0.419391475988567 
1631	 0.420318568781952 
1632	 0.421269135853966 
1633	 0.422215365522452 
1634	 0.423177571956115 
1635	 0.424164580031461 
1636	 0.425128975000569 
1637	 0.426087578434842 
1638	 0.427048530917827 
1639	 0.428011639247377 
1640	 0.428961686464683 
1641	 0.429921657986566 
1642	 0.430855254542289 
1643	 0.431764263708097 
1644	 0.432651295001168 
1645	 0.433510047517462 
1646	 0.434369836488927 
1647	 0.43523778166116 
1648	 0.436061308924916 
1649	 0.436867904897489 
1650	 0.437646085097399 
1651	 0.438369579943202 
1652	 0.439084784679132 
1653	 0.439780533601087 
1654	 0.440470555255745 
1655	 0.44116326459882 
1656	 0.441811314807822 
1657	 0.442457135422011 
1658	 0.443045082210566 
1659	 0.443580615531587 
1660	 0.444068434455464 
1661	 0.444499539111405 
1662	 0.444910432115497 
1663	 0.445279075643769 
1664	 0.445623199242624 
1665	 0.445958295295082 
1666	 0.446231839911893 
1667	 0.446465122141388 
1668	 0.446636151140386 
1669	 0.446758582531462 
1670	 0.446815608023635 
1671	 0.446805463728664 
1672	 0.446742238031603 
1673	 0.446613752831706 
1674	 0.446438331993461 
1675	 0.446210115610192 
1676	 0.44593783662791 
1677	 0.445605373858296 
1678	 0.445239829558581 
1679	 0.444827519814245 
1680	 0.444374019015941 
1681	 0.443874583071054 
1682	 0.443342520532799 
1683	 0.442757089691291 
1684	 0.442172997144098 
1685	 0.441563215532887 
1686	 0.440940469257618 
1687	 0.440296056650854 
1688	 0.439647958203893 
1689	 0.438977057428414 
1690	 0.438310965199339 
1691	 0.437666564466369 
1692	 0.436974429902372 
1693	 0.436269123511067 
1694	 0.435522805851177 
1695	 0.434729761632219 
1696	 0.433924473738641 
1697	 0.433104190599397 
1698	 0.432221527744312 
1699	 0.431294434336781 
1700	 0.430376699349474 
1701	 0.429405649442372 
1702	 0.428470058086507 
1703	 0.427529198832403 
1704	 0.426634312681344 
1705	 0.425748600892459 
1706	 0.424891583054162 
1707	 0.424098907454971 
1708	 0.423333901813123 
1709	 0.422618820139829 
1710	 0.421930499045766 
1711	 0.421222449965569 
1712	 0.420517556506825 
1713	 0.419771398350981 
1714	 0.418997565698513 
1715	 0.418274937283789 
1716	 0.417536920018109 
1717	 0.416800917878526 
1718	 0.416089148368638 
1719	 0.415371612825992 
1720	 0.414707172074682 
1721	 0.414075766911272 
1722	 0.413491495021732 
1723	 0.413023650543518 
1724	 0.412619356626288 
1725	 0.412273716488606 
1726	 0.412054117004883 
1727	 0.411928779719524 
1728	 0.411886875229585 
1729	 0.411955203576616 
1730	 0.412123960774046 
1731	 0.412352233065697 
1732	 0.412642704201717 
1733	 0.412988592692243 
1734	 0.413365765273284 
1735	 0.413743348375482 
1736	 0.414101858133026 
1737	 0.414395544170202 
1738	 0.414584956034029 
1739	 0.41476230143033 
1740	 0.414881044959549 
1741	 0.414984536789534 
1742	 0.415051131216054 
1743	 0.415135363237721 
1744	 0.415163462329075 
1745	 0.415264800623797 
1746	 0.415404501339283 
1747	 0.415575981140978 
1748	 0.415762290161365 
1749	 0.41603935270046 
1750	 0.41636563664243 
1751	 0.416774157293071 
1752	 0.41727335868286 
1753	 0.417836397720943 
1754	 0.418449645692121 
1755	 0.41914357658699 
1756	 0.419922051693822 
1757	 0.42075109517402 
1758	 0.421708076735352 
1759	 0.422683072103969 
1760	 0.423734415977847 
1761	 0.424889966204445 
1762	 0.426005729251205 
1763	 0.427182067887756 
1764	 0.428390980018603 
1765	 0.429569808139509 
1766	 0.430814530981743 
1767	 0.432045632985783 
1768	 0.433283637565737 
1769	 0.434538716228212 
1770	 0.435697073459426 
1771	 0.43683449553712 
1772	 0.43792996713198 
1773	 0.43895392869708 
1774	 0.440020923949122 
1775	 0.441086578464584 
1776	 0.44216373703058 
1777	 0.443245440233495 
1778	 0.444276403219987 
1779	 0.445328426281981 
1780	 0.44634444025262 
1781	 0.447352622001064 
1782	 0.448421535097838 
1783	 0.449456265662545 
1784	 0.450526391068523 
1785	 0.451551616914572 
1786	 0.452564636040659 
1787	 0.453559252563192 
1788	 0.454579844586418 
1789	 0.455643592782571 
1790	 0.456671997266414 
1791	 0.457690960296651 
1792	 0.458727130245335 
1793	 0.459722234574872 
1794	 0.460747867866216 
1795	 0.461768727024651 
1796	 0.462737065267927 
1797	 0.463759092549708 
1798	 0.464736973292525 
1799	 0.465687429482603 
1800	 0.466610950105343 
1801	 0.458088485005559 
1802	 0.458988297149726 
1803	 0.45985791072995 
1804	 0.460678232218599 
1805	 0.461508566825265 
1806	 0.462290605755549 
1807	 0.463056793692934 
1808	 0.463788038804637 
1809	 0.464474606591889 
1810	 0.465160220969267 
1811	 0.465837637974034 
1812	 0.466489459560768 
1813	 0.467104220516547 
1814	 0.46775126715989 
1815	 0.468360243588027 
1816	 0.468971179895905 
1817	 0.469595412610465 
1818	 0.470239313015384 
1819	 0.470845462506749 
1820	 0.471466000546932 
1821	 0.472047188000337 
1822	 0.472580984284712 
1823	 0.473139691494799 
1824	 0.473677820610329 
1825	 0.474186800781203 
1826	 0.474685349748477 
1827	 0.475190409187383 
1828	 0.47562785901397 
1829	 0.476038286639193 
1830	 0.476412523051124 
1831	 0.476739788884457 
1832	 0.477044301281406 
1833	 0.477326441853321 
1834	 0.477592949279585 
1835	 0.477828935689856 
1836	 0.478034343353475 
1837	 0.478225131761775 
1838	 0.478383671377087 
1839	 0.478543056924705 
1840	 0.478695218450587 
1841	 0.478824226377512 
1842	 0.478942863987051 
1843	 0.479051616998257 
1844	 0.4791170549942 
1845	 0.479160910748648 
1846	 0.479196762558111 
1847	 0.479194586527858 
1848	 0.479173350111116 
1849	 0.479146377815371 
1850	 0.479063936124696 
1851	 0.478963280008664 
1852	 0.478801212889741 
1853	 0.47856325133393 
1854	 0.478274772860185 
1855	 0.477906110757049 
1856	 0.477482811412936 
1857	 0.476979418682723 
1858	 0.47635807322429 
1859	 0.47566253960351 
1860	 0.474888911267068 
1861	 0.473994919031508 
1862	 0.472990121698795 
1863	 0.471955440661302 
1864	 0.470756401986036 
1865	 0.469483418086896 
1866	 0.468113468553357 
1867	 0.466522655506087 
1868	 0.464891893686935 
1869	 0.46311088160005 
1870	 0.461228563554381 
1871	 0.459258021732523 
1872	 0.457224320326761 
1873	 0.455075555798886 
1874	 0.452890106962838 
1875	 0.450653912511515 
1876	 0.448174965489062 
1877	 0.445734433267515 
1878	 0.443129800272229 
1879	 0.440354632229471 
1880	 0.437715503849788 
1881	 0.434939525266283 
1882	 0.432030044135746 
1883	 0.429109915464391 
1884	 0.426161764622493 
1885	 0.422931246577695 
1886	 0.419749550526061 
1887	 0.416451573743095 
1888	 0.413030941041836 
1889	 0.409824996136794 
1890	 0.406492461364939 
1891	 0.403162966544179 
1892	 0.399913127089848 
1893	 0.396549113727675 
1894	 0.39304912298608 
1895	 0.389681551170195 
1896	 0.386277780137213 
1897	 0.382831670697871 
1898	 0.379665957944489 
1899	 0.376414020647662 
1900	 0.373215221862851 
1901	 0.370148128756687 
1902	 0.366905112638162 
1903	 0.363819170638729 
1904	 0.360775484223625 
1905	 0.357750962498632 
1906	 0.354745083393553 
1907	 0.352034024594343 
1908	 0.349283290808269 
1909	 0.346624032572578 
1910	 0.34409714885575 
1911	 0.34142942311209 
1912	 0.338886542891 
1913	 0.336336204812482 
1914	 0.333756698112608 
1915	 0.33132489471341 
1916	 0.329045605834219 
1917	 0.326673013086002 
1918	 0.324374991705696 
1919	 0.322153912602556 
1920	 0.319744456490598 
1921	 0.317441706217554 
1922	 0.315130103664705 
1923	 0.312743434838569 
1924	 0.310559031197212 
1925	 0.308352957840334 
1926	 0.306199066174978 
1927	 0.304139342512244 
1928	 0.302061276916709 
1929	 0.299943206331337 
1930	 0.297957535408185 
1931	 0.296020501563597 
1932	 0.294177040700387 
1933	 0.292617579140472 
1934	 0.291159646048772 
1935	 0.289837062168666 
1936	 0.28873429387708 
1937	 0.287751613027435 
1938	 0.286892358285037 
1939	 0.286220509942129 
1940	 0.285716295486434 
1941	 0.285359480642028 
1942	 0.285174852705729 
1943	 0.285097698020565 
1944	 0.285145424323391 
1945	 0.285353575800943 
1946	 0.285726517511123 
1947	 0.286213475763166 
1948	 0.286908721794041 
1949	 0.287808994166091 
1950	 0.288828159574028 
1951	 0.290020691098609 
1952	 0.291357271700432 
1953	 0.292833447642131 
1954	 0.294454075918912 
1955	 0.296284765253216 
1956	 0.298120998548515 
1957	 0.300025670348701 
1958	 0.301952924163786 
1959	 0.303667572596787 
1960	 0.305336020878584 
1961	 0.306846928242815 
1962	 0.30821374274014 
1963	 0.309434672789664 
1964	 0.310529956973443 
1965	 0.311479211981408 
1966	 0.312266868656462 
1967	 0.31295912329611 
1968	 0.313526171636872 
1969	 0.314075741440646 
1970	 0.31458323950874 
1971	 0.31510527019215 
1972	 0.315697561963448 
1973	 0.316314588888482 
1974	 0.316981084656395 
1975	 0.317709257664596 
1976	 0.318463537180625 
1977	 0.31924110721674 
1978	 0.320082446065357 
1979	 0.32095972951914 
1980	 0.321899227092177 
1981	 0.322945878291617 
1982	 0.323970180282865 
1983	 0.325097065797876 
1984	 0.32628276575436 
1985	 0.327435827841199 
1986	 0.328734640930684 
1987	 0.330167215069422 
1988	 0.331609614626811 
1989	 0.333354289155191 
1990	 0.335304363857487 
1991	 0.337410035004826 
1992	 0.339725458438295 
1993	 0.342277053212624 
1994	 0.344778419087926 
1995	 0.347520546170463 
1996	 0.350314919691779 
1997	 0.353143375457442 
1998	 0.356121101242553 
1999	 0.359312332437927 
2000	 0.362341128053244 
2001	 0.365545293005309 
2002	 0.368460713369185 
2003	 0.37123905514597 
2004	 0.373935538045224 
2005	 0.376455297614224 
2006	 0.378924270025671 
2007	 0.381391985259649 
2008	 0.383622002095582 
2009	 0.38574317441681 
2010	 0.38779470643512 
2011	 0.38956199353857 
2012	 0.391270347572539 
2013	 0.392859181547303 
2014	 0.394282154217902 
2015	 0.395661634046771 
2016	 0.39697280694323 
2017	 0.398153929309296 
2018	 0.399268316632151 
2019	 0.400241717613524 
2020	 0.401056006570066 
2021	 0.401804411996909 
2022	 0.402445896362126 
2023	 0.402940606055452 
2024	 0.403417185250567 
2025	 0.403804650386993 
2026	 0.404135739993339 
2027	 0.40439284847006 
2028	 0.404626796703046 
2029	 0.40477007557407 
2030	 0.404927999270067 
2031	 0.405048211641104 
2032	 0.405182818663838 
2033	 0.405287501768644 
2034	 0.405421099713858 
2035	 0.405563453748529 
2036	 0.40572410844669 
2037	 0.405884207056496 
2038	 0.406087139167708 
2039	 0.40632703578103 
2040	 0.406591153425562 
2041	 0.406902706487939 
2042	 0.407269474570367 
2043	 0.407644103965999 
2044	 0.408065035647009 
2045	 0.408478525151539 
2046	 0.408918818969707 
2047	 0.409347711651132 
2048	 0.409769048117549 
2049	 0.410206023199989 
2050	 0.410673297806186 
2051	 0.411100145194549 
2052	 0.411536113302453 
2053	 0.41195285075332 
2054	 0.41231958011323 
2055	 0.412634433022405 
2056	 0.412955063005504 
2057	 0.413223149642802 
2058	 0.41354079504738 
2059	 0.413870522260557 
2060	 0.414194228274315 
2061	 0.414524722959741 
2062	 0.41487172480189 
2063	 0.415215398042477 
2064	 0.415577987090415 
2065	 0.415966401194549 
2066	 0.416360728960171 
2067	 0.416775439283463 
2068	 0.41717392369637 
2069	 0.417575173547297 
2070	 0.417996377495768 
2071	 0.418390392391378 
2072	 0.418783351437387 
2073	 0.419134871612735 
2074	 0.419453832150234 
2075	 0.419777855353266 
2076	 0.420102857302145 
2077	 0.420367079405734 
2078	 0.420625400971049 
2079	 0.420834696177002 
2080	 0.420967635474243 
2081	 0.421089883094107 
2082	 0.421205518930612 
2083	 0.421280947298315 
2084	 0.421284341960651 
2085	 0.421240736525542 
2086	 0.421160506727376 
2087	 0.421001631902345 
2088	 0.420860044208642 
2089	 0.42070534568176 
2090	 0.420521821743468 
2091	 0.420345996038748 
2092	 0.420090500036143 
2093	 0.419766159078476 
2094	 0.419439679716822 
2095	 0.419035053310372 
2096	 0.418664115804792 
2097	 0.418308591591094 
2098	 0.417941656325741 
2099	 0.417555300819767 
2100	 0.417184626598449 
2101	 0.416748164232423 
2102	 0.416257291072097 
2103	 0.415799130568374 
2104	 0.415299602145444 
2105	 0.414846377086849 
2106	 0.414433440291158 
2107	 0.41399864199006 
2108	 0.413581022656111 
2109	 0.413133082782108 
2110	 0.412653556455788 
2111	 0.412198362436659 
2112	 0.411728131709557 
2113	 0.41127509112193 
2114	 0.410843594520201 
2115	 0.410419364037131 
2116	 0.409998969561888 
2117	 0.409592492324829 
2118	 0.409185077889585 
2119	 0.408804151379611 
2120	 0.408376939968018 
2121	 0.407918390877417 
2122	 0.407490037641796 
2123	 0.407048398143385 
2124	 0.40662019875642 
2125	 0.406251475317851 
2126	 0.405806651024501 
2127	 0.405315950250833 
2128	 0.404834436204303 
2129	 0.404316476465801 
2130	 0.403803703378825 
2131	 0.403319797718869 
2132	 0.402793610364859 
2133	 0.402257322087376 
2134	 0.401681473788189 
2135	 0.401041897730214 
2136	 0.40039883989404 
2137	 0.39972871287722 
2138	 0.399017031486884 
2139	 0.398298232865642 
2140	 0.39757052992783 
2141	 0.396811565514529 
2142	 0.396045674673159 
2143	 0.395210622759637 
2144	 0.394318911203021 
2145	 0.393436171891742 
2146	 0.392487602249366 
2147	 0.391565503335753 
2148	 0.390684238695811 
2149	 0.389747139032142 
2150	 0.388798671295999 
2151	 0.387808635011932 
2152	 0.386754756634784 
2153	 0.385720591113996 
2154	 0.384661432967469 
2155	 0.383550657017025 
2156	 0.382484041237279 
2157	 0.381422493670883 
2158	 0.380362192606478 
2159	 0.379339486474175 
2160	 0.378250047278171 
2161	 0.377115130930854 
2162	 0.376023795436555 
2163	 0.374867497785044 
2164	 0.373818095311396 
2165	 0.372842387527307 
2166	 0.37187714723492 
2167	 0.37096848275993 
2168	 0.370060892039252 
2169	 0.369142954469192 
2170	 0.368294783062099 
2171	 0.367463604575081 
2172	 0.366702958802853 
2173	 0.36603450095112 
2174	 0.365374748853272 
2175	 0.364743896159609 
2176	 0.3641687306101 
2177	 0.363611776701168 
2178	 0.363080977021832 
2179	 0.362585182854435 
2180	 0.362137752329775 
2181	 0.361682206576018 
2182	 0.361258712470803 
2183	 0.360813641787734 
2184	 0.360389339236005 
2185	 0.359918478419845 
2186	 0.359442892964961 
2187	 0.358921307837971 
2188	 0.358342331302453 
2189	 0.357770694975265 
2190	 0.357211538454341 
2191	 0.356569770809442 
2192	 0.355939829999847 
2193	 0.355191912954346 
2194	 0.354324171537282 
2195	 0.353427906008215 
2196	 0.352476841906076 
2197	 0.351428086020642 
2198	 0.350387371899017 
2199	 0.349251884198773 
2200	 0.348051619193164 
2201	 0.346809399110905 
2202	 0.345421261968667 
2203	 0.343913223853803 
2204	 0.34237422458486 
2205	 0.340667892340334 
2206	 0.339061461615682 
2207	 0.337426467133387 
2208	 0.335851332846956 
2209	 0.334299303470217 
2210	 0.332800606688015 
2211	 0.331271707420624 
2212	 0.329937242381908 
2213	 0.328612664510932 
2214	 0.327558904738496 
2215	 0.326699491992166 
2216	 0.326024688813505 
2217	 0.32556499681902 
2218	 0.325280809979389 
2219	 0.325235122190566 
2220	 0.325286171998583 
2221	 0.32552657786394 
2222	 0.325884628359466 
2223	 0.326297867544723 
2224	 0.326774643832602 
2225	 0.327244329779253 
2226	 0.327672686823069 
2227	 0.32801604170124 
2228	 0.328335325538631 
2229	 0.328498435141756 
2230	 0.328579837141658 
2231	 0.328517326999815 
2232	 0.328321955064778 
2233	 0.328021009196894 
2234	 0.327599404052799 
2235	 0.327066646864525 
2236	 0.326411150289405 
2237	 0.325655744607482 
2238	 0.324745766860517 
2239	 0.323802403621961 
2240	 0.322792636617608 
2241	 0.321660401710716 
2242	 0.320506616608659 
2243	 0.319144725878777 
2244	 0.31761939741076 
2245	 0.315964739232703 
2246	 0.314075083404715 
2247	 0.312161299184118 
2248	 0.310181243121424 
2249	 0.308047426481673 
2250	 0.305805866403813 
2251	 0.303505645920811 
2252	 0.300889153448323 
2253	 0.298271433590851 
2254	 0.295570571238767 
2255	 0.292763058146497 
2256	 0.290146945051206 
2257	 0.287478941332275 
2258	 0.284895211146485 
2259	 0.282368432023255 
2260	 0.279903195698367 
2261	 0.277396581579188 
2262	 0.275200530888713 
2263	 0.273065655990796 
2264	 0.271294630117501 
2265	 0.269814295178802 
2266	 0.268529879188084 
2267	 0.267529260176702 
2268	 0.266713811368792 
2269	 0.266127811839617 
2270	 0.265735711733009 
2271	 0.265600518833998 
2272	 0.265589705865427 
2273	 0.265833415716299 
2274	 0.266113259111725 
2275	 0.266541069026754 
2276	 0.267030231218495 
2277	 0.267663141759398 
2278	 0.268269085640574 
2279	 0.2689775963749 
2280	 0.269634636970938 
2281	 0.270252811902245 
2282	 0.270902152653812 
2283	 0.271559100272802 
2284	 0.272213932904944 
2285	 0.272933481827789 
2286	 0.273611718655768 
2287	 0.274271991977664 
2288	 0.274931319088576 
2289	 0.275501134462092 
2290	 0.276028551705721 
2291	 0.276527570024559 
2292	 0.276986021021878 
2293	 0.277451354302314 
2294	 0.277887785785992 
2295	 0.278348893065123 
2296	 0.278830939767148 
2297	 0.27935221373815 
2298	 0.279895147326602 
2299	 0.280520035832025 
2300	 0.281167352268791 
2301	 0.281934108006114 
2302	 0.282779118326349 
2303	 0.283708940223148 
2304	 0.284771218996807 
2305	 0.28584157595367 
2306	 0.286983226517932 
2307	 0.288184048301719 
2308	 0.289395448480868 
2309	 0.29073100635705 
2310	 0.292222745131256 
2311	 0.293644946542055 
2312	 0.295210067009526 
2313	 0.296600018479887 
2314	 0.297890085733923 
2315	 0.299161854385173 
2316	 0.300379111926018 
2317	 0.301489931227229 
2318	 0.302625435010469 
2319	 0.303513392023624 
2320	 0.304252163074982 
2321	 0.304809023273507 
2322	 0.305123116658535 
2323	 0.30536200646973 
2324	 0.305440897423872 
2325	 0.305401095348253 
2326	 0.305264913706306 
2327	 0.30495542081158 
2328	 0.304460492245487 
2329	 0.303847008450107 
2330	 0.303081421886758 
2331	 0.30216973175279 
2332	 0.301170500909771 
2333	 0.300023418466555 
2334	 0.298664493046878 
2335	 0.297199945509951 
2336	 0.295545971403125 
2337	 0.293811984860529 
2338	 0.292130205928849 
2339	 0.29032210872456 
2340	 0.288518742935608 
2341	 0.286665720944046 
2342	 0.284637562157357 
2343	 0.282704757052879 
2344	 0.280812292592017 
2345	 0.278964809298518 
2346	 0.277372179452462 
2347	 0.275915587297083 
2348	 0.274594346331614 
2349	 0.27348434297975 
2350	 0.272520973950878 
2351	 0.271719988874251 
2352	 0.271060758718308 
2353	 0.270599660383164 
2354	 0.270275690974613 
2355	 0.270079323854856 
2356	 0.269991219316359 
2357	 0.269973226418773 
2358	 0.270052273911241 
2359	 0.270188786878591 
2360	 0.270428789474076 
2361	 0.270740883542597 
2362	 0.271079593277027 
2363	 0.2714743844587 
2364	 0.271819148509361 
2365	 0.272111799787529 
2366	 0.272381532696436 
2367	 0.272517820006174 
2368	 0.272592980435944 
2369	 0.272640616276191 
2370	 0.272587891557108 
2371	 0.272498437474415 
2372	 0.272362624180811 
2373	 0.272114669394443 
2374	 0.271827984655547 
2375	 0.271473492184778 
2376	 0.271016970452305 
2377	 0.2705345424118 
2378	 0.269998431993753 
2379	 0.269416357811079 
2380	 0.268910061867492 
2381	 0.268392079915549 
2382	 0.267816435775131 
2383	 0.267251315912527 
2384	 0.266613657236636 
2385	 0.265842582920764 
2386	 0.265174988198414 
2387	 0.264501734481029 
2388	 0.263849560331178 
2389	 0.263290416065722 
2390	 0.262607306776755 
2391	 0.261919259931 
2392	 0.261147198344138 
2393	 0.260234346856633 
2394	 0.259393604180004 
2395	 0.258504258992918 
2396	 0.257667367314055 
2397	 0.256863346591706 
2398	 0.256085232572807 
2399	 0.255297019772695 
2400	 0.254673574161497 
2401	 0.25416719997963 
2402	 0.253733207607828 
2403	 0.253267886841115 
2404	 0.252696576285076 
2405	 0.252193050054926 
2406	 0.251804093970782 
2407	 0.25149346673734 
2408	 0.251239160517765 
2409	 0.251024886373295 
2410	 0.250758345223276 
2411	 0.250427639534575 
2412	 0.250219600331674 
2413	 0.250031077524735 
2414	 0.249775820152523 
2415	 0.249549842603481 
2416	 0.249270096946166 
2417	 0.248979704203566 
2418	 0.248760140877071 
2419	 0.248553389134237 
2420	 0.248354412370758 
2421	 0.248129000227845 
2422	 0.247949504660869 
2423	 0.247840619814402 
2424	 0.247743232023851 
2425	 0.247691155816127 
2426	 0.247641146105937 
2427	 0.247615584750395 
2428	 0.247627837277809 
2429	 0.247659628367804 
2430	 0.247823524589822 
2431	 0.247987100792945 
2432	 0.2480915786249 
2433	 0.248277275685038 
2434	 0.248344763204629 
2435	 0.24834116637435 
2436	 0.248351607479008 
2437	 0.248360628952393 
2438	 0.248467322453201 
2439	 0.24861397752632 
2440	 0.24887575073684 
2441	 0.249102242184016 
2442	 0.249161184558503 
2443	 0.249219215402973 
2444	 0.249371609068621 
2445	 0.249575343814781 
2446	 0.249810080187144 
2447	 0.250140598629554 
2448	 0.250402499887319 
2449	 0.250620027572687 
2450	 0.250883638977696 
2451	 0.251086197033675 
2452	 0.251371059305288 
2453	 0.251744138878739 
2454	 0.252027847475417 
2455	 0.252289252282609 
2456	 0.252450188107227 
2457	 0.252412495300673 
2458	 0.252554163612525 
2459	 0.252760691308681 
2460	 0.252758177716787 
2461	 0.252842606397849 
2462	 0.25285273327401 
2463	 0.252736205258478 
2464	 0.252758023704326 
2465	 0.252792083241416 
2466	 0.252755152518394 
2467	 0.252697837199262 
2468	 0.252657643748838 
2469	 0.252555797633443 
2470	 0.252414109516093 
2471	 0.252416993022785 
2472	 0.25244177668915 
2473	 0.252542583898182 
2474	 0.252797843140811 
2475	 0.25303445914184 
2476	 0.253322391239366 
2477	 0.253498075217472 
2478	 0.253490376475303 
2479	 0.253314368637979 
2480	 0.253241591749895 
2481	 0.253236019724082 
2482	 0.253246617727396 
2483	 0.253324438666703 
2484	 0.253212814841527 
2485	 0.253121822252651 
2486	 0.253296761152413 
2487	 0.25371088188348 
2488	 0.254017570437412 
2489	 0.254124349091193 
2490	 0.254016221280959 
2491	 0.253864417180255 
2492	 0.253840528734306 
2493	 0.25377723002879 
2494	 0.253962314705832 
2495	 0.254240094735638 
2496	 0.254397024327403 
2497	 0.254665425487625 
2498	 0.254695297624267 
2499	 0.254606285973518 
2500	 0.25473731938069 
