Wavelength	spectrum00003.asd
350	 4.45447510673705E-02 
351	 4.39706031102052E-02 
352	 4.26181603532972E-02 
353	 4.22470804519078E-02 
354	 4.38117143144331E-02 
355	 0.042512324089985 
356	 4.10341067420984E-02 
357	 0.04176166555681 
358	 0.041054216862612 
359	 3.99877881086644E-02 
360	 3.96217342444004E-02 
361	 4.05447948970236E-02 
362	 4.00549360302369E-02 
363	 3.93410088526556E-02 
364	 3.89248065718467E-02 
365	 3.79093438204884E-02 
366	 3.88384914524202E-02 
367	 3.99212783439475E-02 
368	 3.94454582996883E-02 
369	 3.93934179091331E-02 
370	 3.95902836465505E-02 
371	 3.97369144508853E-02 
372	 3.95011575449544E-02 
373	 3.89611656490877E-02 
374	 3.88787996605677E-02 
375	 3.93519513355249E-02 
376	 3.94673006365249E-02 
377	 0.039838133053746 
378	 3.99170745424878E-02 
379	 0.039336237579207 
380	 3.92495740305187E-02 
381	 3.96931744410874E-02 
382	 3.99607862531601E-02 
383	 3.91933796324161E-02 
384	 3.95015116928643E-02 
385	 3.97864491424986E-02 
386	 3.95085551254284E-02 
387	 3.95343856705778E-02 
388	 3.95679564021831E-02 
389	 3.94958139166831E-02 
390	 3.93833665086556E-02 
391	 3.99148475203602E-02 
392	 0.039482637223289 
393	 3.87640839639723E-02 
394	 3.96471876137348E-02 
395	 3.96210018855658E-02 
396	 3.94244302586357E-02 
397	 0.039636470137305 
398	 3.98983469682737E-02 
399	 0.039845565456716 
400	 0.039501129933408 
401	 3.91604766529041E-02 
402	 0.039627510566013 
403	 4.00611369689722E-02 
404	 4.01675039298438E-02 
405	 4.01389061153087E-02 
406	 4.02345795757574E-02 
407	 4.01823378649377E-02 
408	 3.99889416888158E-02 
409	 4.04174202001624E-02 
410	 4.04119810087955E-02 
411	 4.02239776812603E-02 
412	 4.04157424588017E-02 
413	 4.08358312732584E-02 
414	 4.08433409851026E-02 
415	 4.05520168855881E-02 
416	 4.07286254663511E-02 
417	 4.10260185281951E-02 
418	 4.13259448295378E-02 
419	 4.15630631337349E-02 
420	 4.16834356881281E-02 
421	 4.19078965929075E-02 
422	 4.22563035101847E-02 
423	 4.26429718169553E-02 
424	 4.29558871706985E-02 
425	 4.31102959703964E-02 
426	 4.32539576118835E-02 
427	 4.37797664789381E-02 
428	 4.39967774590201E-02 
429	 4.41567418357446E-02 
430	 4.45411191394231E-02 
431	 4.48332322741826E-02 
432	 4.52791196397035E-02 
433	 4.58061100571609E-02 
434	 0.046202906092802 
435	 4.67807757863195E-02 
436	 4.72931984554069E-02 
437	 4.76361478478156E-02 
438	 4.80002225652936E-02 
439	 0.048653548949082 
440	 4.93918078755181E-02 
441	 4.99547683558416E-02 
442	 5.05016814862419E-02 
443	 5.11621365190152E-02 
444	 5.19185399106208E-02 
445	 5.26386297554835E-02 
446	 5.33076182943546E-02 
447	 5.39968321038639E-02 
448	 5.47582465690041E-02 
449	 5.55551045301196E-02 
450	 5.65108607766654E-02 
451	 5.74882715115484E-02 
452	 5.83182618769702E-02 
453	 5.93031488419226E-02 
454	 6.03402414923101E-02 
455	 6.13675912582029E-02 
456	 6.24054246937184E-02 
457	 0.063376331563908 
458	 6.43440478379208E-02 
459	 6.54190035941911E-02 
460	 6.67813610508612E-02 
461	 6.79375323089201E-02 
462	 6.89924590892594E-02 
463	 7.03345582276378E-02 
464	 7.15674451023729E-02 
465	 7.28361687847029E-02 
466	 7.41651108933451E-02 
467	 7.52907160845567E-02 
468	 7.66925045082416E-02 
469	 7.81557514455231E-02 
470	 7.94072020973836E-02 
471	 8.08290404592347E-02 
472	 0.082266070845547 
473	 8.36843133894739E-02 
474	 8.51481563675179E-02 
475	 8.65004263395192E-02 
476	 8.78944747695237E-02 
477	 8.94269326327429E-02 
478	 9.09709940383074E-02 
479	 9.24738364106839E-02 
480	 0.094034544269973 
481	 9.57431170811226E-02 
482	 9.72053635975861E-02 
483	 9.86842528466118E-02 
484	 0.100301008833082 
485	 0.101954170982646 
486	 0.103594870352468 
487	 0.105192357892354 
488	 0.106747909968417 
489	 0.108332624166911 
490	 0.109878810140398 
491	 0.111438618049051 
492	 0.11311584112824 
493	 0.11478580321003 
494	 0.116417862589965 
495	 0.118029895921869 
496	 0.119700435543225 
497	 0.12127945167061 
498	 0.122825144100834 
499	 0.124434061051719 
500	 0.12606748065703 
501	 0.127694663460741 
502	 0.12928649887342 
503	 0.130821911907557 
504	 0.132340111934856 
505	 0.133860820759772 
506	 0.135394395277232 
507	 0.13694075131623 
508	 0.138478207918903 
509	 0.140001201650424 
510	 0.141503580247198 
511	 0.142931301069644 
512	 0.144342876251563 
513	 0.145761214977117 
514	 0.14715587669565 
515	 0.14850183455952 
516	 0.149791323551112 
517	 0.151036555051903 
518	 0.152288386524155 
519	 0.153531964735237 
520	 0.15473249214543 
521	 0.155852387931133 
522	 0.157014359005917 
523	 0.158122553235563 
524	 0.159134778173988 
525	 0.16018724621934 
526	 0.1611428170608 
527	 0.162056375934536 
528	 0.163009326716949 
529	 0.163828138250633 
530	 0.164592710167451 
531	 0.165360597116552 
532	 0.166143839294601 
533	 0.166760677078324 
534	 0.167330980308823 
535	 0.167953404828778 
536	 0.168463665495561 
537	 0.168953319331505 
538	 0.169406058332647 
539	 0.169752285802335 
540	 0.170011919547184 
541	 0.170240185221006 
542	 0.170460266450411 
543	 0.170638924933536 
544	 0.170787189221393 
545	 0.170844522475873 
546	 0.170783456992639 
547	 0.170815412836706 
548	 0.170802446607315 
549	 0.170679717505714 
550	 0.170466452428469 
551	 0.170265310398686 
552	 0.170041527477072 
553	 0.169754264214291 
554	 0.169424167550297 
555	 0.169021728025747 
556	 0.168572679987534 
557	 0.168124382000854 
558	 0.167665327735474 
559	 0.16715089321943 
560	 0.16656966729911 
561	 0.165959957460567 
562	 0.16527077766217 
563	 0.164582861860447 
564	 0.163958521799123 
565	 0.163258397685101 
566	 0.162504069428314 
567	 0.16172875734113 
568	 0.160969924934527 
569	 0.160210551899767 
570	 0.159358841024772 
571	 0.158414626016221 
572	 0.157590681900412 
573	 0.156811586782326 
574	 0.156005190665174 
575	 0.155125144342313 
576	 0.15431706011735 
577	 0.153504782346863 
578	 0.152672367382536 
579	 0.151887183631472 
580	 0.151040338502593 
581	 0.150097384507348 
582	 0.149068636489796 
583	 0.148042030673301 
584	 0.14694499699089 
585	 0.145833510710219 
586	 0.144823344607271 
587	 0.143819950810476 
588	 0.142873236177082 
589	 0.141967289831502 
590	 0.140957010673551 
591	 0.139925049986951 
592	 0.13888826946494 
593	 0.137837655299804 
594	 0.136733713789789 
595	 0.135629050982397 
596	 0.134548288030077 
597	 0.133489041103907 
598	 0.132485451487493 
599	 0.13148774052023 
600	 0.130457019887666 
601	 0.129416252126557 
602	 0.128398165436358 
603	 0.127370182653293 
604	 0.126288871884995 
605	 0.125233941276776 
606	 0.124257541809969 
607	 0.123332086953825 
608	 0.122338651363737 
609	 0.121353109402195 
610	 0.120399646054454 
611	 0.119474418274077 
612	 0.118536201625228 
613	 0.11758816432509 
614	 0.116643310428498 
615	 0.115719241413191 
616	 0.114830787786964 
617	 0.113946220299306 
618	 0.113054738927448 
619	 0.112189102069455 
620	 0.111355582727742 
621	 0.110529207340336 
622	 0.109684808176725 
623	 0.10885755436291 
624	 0.108036080094793 
625	 0.107224028334837 
626	 0.106439425021793 
627	 0.105682190146232 
628	 0.104934033491115 
629	 0.104183822577484 
630	 0.10344877008957 
631	 0.102699552882883 
632	 0.10199032402011 
633	 0.101378451755651 
634	 0.100665698117482 
635	 9.99521757824534E-02 
636	 9.92939628538094E-02 
637	 9.86625813943542E-02 
638	 9.80511582662607E-02 
639	 9.74143066511063E-02 
640	 9.67419856115407E-02 
641	 9.61616562283137E-02 
642	 9.55842200165718E-02 
643	 9.49993052757906E-02 
644	 9.44423620234131E-02 
645	 9.38871530717309E-02 
646	 9.33439673666385E-02 
647	 0.092812267543309 
648	 9.22651740777719E-02 
649	 9.17555004758826E-02 
650	 9.12628257406753E-02 
651	 9.07560454635014E-02 
652	 9.02629147352678E-02 
653	 8.97799748320212E-02 
654	 8.93083199533469E-02 
655	 8.88520657137425E-02 
656	 8.84030530829219E-02 
657	 8.79669404514286E-02 
658	 8.75428519573178E-02 
659	 8.71090271033492E-02 
660	 8.66980019441373E-02 
661	 8.63120632794954E-02 
662	 8.59393575789471E-02 
663	 8.55630146221792E-02 
664	 8.51652399062618E-02 
665	 8.47696159326701E-02 
666	 8.44350688494831E-02 
667	 0.08407194354763 
668	 8.37245575344706E-02 
669	 8.34247532294146E-02 
670	 8.31004852397223E-02 
671	 8.27933698212951E-02 
672	 8.24833693444901E-02 
673	 8.21402557218169E-02 
674	 8.18604995364405E-02 
675	 8.15967688680085E-02 
676	 8.13138004301157E-02 
677	 8.10071725922155E-02 
678	 8.07332393485841E-02 
679	 8.04933439343477E-02 
680	 8.02657984129326E-02 
681	 8.00032434964938E-02 
682	 7.97679407519919E-02 
683	 7.95546185996143E-02 
684	 0.079323199569141 
685	 7.90852977953136E-02 
686	 7.88695522691476E-02 
687	 7.86815824230904E-02 
688	 7.84929174456704E-02 
689	 7.82855029392058E-02 
690	 7.80859780970816E-02 
691	 7.79199652019602E-02 
692	 7.77677981107121E-02 
693	 7.76050770373938E-02 
694	 7.74413504280986E-02 
695	 7.73013564114279E-02 
696	 7.71297796099539E-02 
697	 7.69605662509464E-02 
698	 7.68168673282133E-02 
699	 7.66877269020568E-02 
700	 7.65793004282867E-02 
701	 7.64601827107061E-02 
702	 7.63094828688927E-02 
703	 0.07618163813795 
704	 7.60801724754241E-02 
705	 7.59888992254671E-02 
706	 7.58829398376514E-02 
707	 7.57998345326861E-02 
708	 7.57015326843343E-02 
709	 7.55878292125015E-02 
710	 7.55382308308543E-02 
711	 7.54770777984351E-02 
712	 7.54026097228372E-02 
713	 7.53322583013022E-02 
714	 7.52666463078235E-02 
715	 7.51921670330057E-02 
716	 7.51206246556887E-02 
717	 0.075077604529734 
718	 7.50243428389961E-02 
719	 7.49794280786118E-02 
720	 7.49554679728185E-02 
721	 7.49428771110146E-02 
722	 7.49244199650069E-02 
723	 7.48904201515041E-02 
724	 0.074845202867524 
725	 7.48296353600183E-02 
726	 0.074833890478329 
727	 7.48433935872512E-02 
728	 7.48426264162848E-02 
729	 7.48327185230812E-02 
730	 7.48413973174252E-02 
731	 7.48685046361058E-02 
732	 7.48626342244303E-02 
733	 0.074873999345888 
734	 7.48969013028632E-02 
735	 7.49160947525979E-02 
736	 7.49451659508467E-02 
737	 7.49746772906311E-02 
738	 7.50128817592658E-02 
739	 7.50741589783418E-02 
740	 0.075115075490757 
741	 7.51564083640873E-02 
742	 7.52152347939416E-02 
743	 7.52913404790087E-02 
744	 7.53498889820221E-02 
745	 7.54011214843668E-02 
746	 7.54635592936587E-02 
747	 7.55369301867742E-02 
748	 7.56112948207263E-02 
749	 0.075693738641947 
750	 7.57945774012514E-02 
751	 7.58662840639831E-02 
752	 7.59413309225244E-02 
753	 7.60387797919013E-02 
754	 7.61490191147835E-02 
755	 7.62590594852341E-02 
756	 7.63707905491326E-02 
757	 0.076483709904572 
758	 7.65747005180676E-02 
759	 7.66885471920177E-02 
760	 7.68132909042899E-02 
761	 7.69232202694746E-02 
762	 7.70965746116912E-02 
763	 7.72525800054513E-02 
764	 7.73745298685387E-02 
765	 7.75242978513737E-02 
766	 7.76579205461039E-02 
767	 0.077806858432136 
768	 7.79868258311934E-02 
769	 7.81450426014552E-02 
770	 7.83161422525433E-02 
771	 7.84844479362369E-02 
772	 7.86323697252051E-02 
773	 7.88245804870163E-02 
774	 7.90008694723166E-02 
775	 7.91570090045088E-02 
776	 7.93368049897188E-02 
777	 7.95290638272599E-02 
778	 7.97158944592657E-02 
779	 7.99019426389437E-02 
780	 0.080131496654277 
781	 8.03504576731976E-02 
782	 8.05602818630239E-02 
783	 8.07753770541658E-02 
784	 8.09918239736663E-02 
785	 0.081231403482145 
786	 8.14787463109318E-02 
787	 8.17014170580955E-02 
788	 8.19119105361907E-02 
789	 8.21387708048557E-02 
790	 8.23890375734304E-02 
791	 8.26430897795924E-02 
792	 8.29034883524863E-02 
793	 8.31649269212953E-02 
794	 8.34223639095136E-02 
795	 8.36721292548914E-02 
796	 8.39293923394564E-02 
797	 8.42011562904814E-02 
798	 0.084489062965135 
799	 8.47905163233064E-02 
800	 8.50839629918773E-02 
801	 0.085370954345427 
802	 8.56694579686542E-02 
803	 8.59614595983903E-02 
804	 8.62507785554231E-02 
805	 8.65484867468398E-02 
806	 8.68714668328677E-02 
807	 8.71798683334787E-02 
808	 8.74857532485554E-02 
809	 8.78091923192926E-02 
810	 8.81541803865967E-02 
811	 8.84858241789762E-02 
812	 8.88024318982338E-02 
813	 8.91225234178179E-02 
814	 8.94699249680383E-02 
815	 8.98518020239833E-02 
816	 9.02396655456184E-02 
817	 9.05824690541217E-02 
818	 9.09357742654181E-02 
819	 9.12990575975885E-02 
820	 9.16617079334502E-02 
821	 0.092010099081021 
822	 0.092408535501152 
823	 0.092829755860044 
824	 9.32313475795225E-02 
825	 9.36051998181338E-02 
826	 9.40049800843261E-02 
827	 9.44149246767822E-02 
828	 0.094801680864199 
829	 9.52375622566977E-02 
830	 9.56825671637579E-02 
831	 9.61131922076487E-02 
832	 9.65294091230096E-02 
833	 9.69463560057238E-02 
834	 9.73639591523664E-02 
835	 9.77908417628727E-02 
836	 9.82520495980071E-02 
837	 9.87229544819742E-02 
838	 9.91834260461102E-02 
839	 9.96238400952782E-02 
840	 0.100057441168598 
841	 0.100492746673696 
842	 0.100964489760614 
843	 0.101490198301224 
844	 0.1019606400351 
845	 0.102433828564803 
846	 0.102918098655282 
847	 0.103386013210757 
848	 0.103883311769 
849	 0.104393710511858 
850	 0.104901176241907 
851	 0.105399860334028 
852	 0.105927160029255 
853	 0.106453765176431 
854	 0.106964604799538 
855	 0.107506786691037 
856	 0.108039405430306 
857	 0.108556053321106 
858	 0.109071590566545 
859	 0.109636869721782 
860	 0.110185477593539 
861	 0.110723730303202 
862	 0.111290202338726 
863	 0.111867633359609 
864	 0.112453468611515 
865	 0.113030880155885 
866	 0.113578052906337 
867	 0.114135165584895 
868	 0.11472490869046 
869	 0.115328314659447 
870	 0.115879562789022 
871	 0.116484427491248 
872	 0.117098581120968 
873	 0.117687229797311 
874	 0.118312616481741 
875	 0.11894673762 
876	 0.119581833761894 
877	 0.120213847252094 
878	 0.120823806392927 
879	 0.121461881711764 
880	 0.122094100909135 
881	 0.122675510254608 
882	 0.123336448328086 
883	 0.124022684305126 
884	 0.124705986397247 
885	 0.125386492699595 
886	 0.12604980277505 
887	 0.126666925454932 
888	 0.127283077168944 
889	 0.128011829585009 
890	 0.128687026492597 
891	 0.129352168268286 
892	 0.130041831759329 
893	 0.130708479001983 
894	 0.131416531945519 
895	 0.132114453263153 
896	 0.132774819946652 
897	 0.133506579087603 
898	 0.134248390090633 
899	 0.134961416680941 
900	 0.135638224561818 
901	 0.136351259836675 
902	 0.137077635633095 
903	 0.137817332860601 
904	 0.138569798389333 
905	 0.139270003561797 
906	 0.139996799264683 
907	 0.140749706843941 
908	 0.141472339554293 
909	 0.142185382620967 
910	 0.142931224678199 
911	 0.143702130143228 
912	 0.144444998613777 
913	 0.145211251854013 
914	 0.145972172113736 
915	 0.146712486976493 
916	 0.147454214967752 
917	 0.148255082861271 
918	 0.149059075765714 
919	 0.149841998223666 
920	 0.15068318480944 
921	 0.151451889084117 
922	 0.15219460943943 
923	 0.15297013890889 
924	 0.153740757602448 
925	 0.154552620822113 
926	 0.155363654848738 
927	 0.156146154048923 
928	 0.157025935077673 
929	 0.157838462075077 
930	 0.158596920393814 
931	 0.159384138888999 
932	 0.160218842239725 
933	 0.161036101387631 
934	 0.161855574181311 
935	 0.162720718531455 
936	 0.163520316987457 
937	 0.164382525135747 
938	 0.16528880983548 
939	 0.166128009520733 
940	 0.16696314617882 
941	 0.167802354297302 
942	 0.168627320232484 
943	 0.169416815363074 
944	 0.170283745092806 
945	 0.171158057342091 
946	 0.172005372296235 
947	 0.172850457482015 
948	 0.173678101570339 
949	 0.17452601910941 
950	 0.175394288594178 
951	 0.176231114787207 
952	 0.177061701300549 
953	 0.177875063580917 
954	 0.178686265993062 
955	 0.179550566123103 
956	 0.180415194961959 
957	 0.18129735669615 
958	 0.182175021923203 
959	 0.182942705655937 
960	 0.183803235966484 
961	 0.184671673371756 
962	 0.185490363823453 
963	 0.186392262484604 
964	 0.187225865618754 
965	 0.188048364416054 
966	 0.18890993239819 
967	 0.189717331932634 
968	 0.190612657863322 
969	 0.191522902215886 
970	 0.192356263241691 
971	 0.19313461358026 
972	 0.194002119013212 
973	 0.194893689284307 
974	 0.195729320520816 
975	 0.196586379116064 
976	 0.197428570881629 
977	 0.198316862333281 
978	 0.199250465760139 
979	 0.199946075176943 
980	 0.200778286369286 
981	 0.2016653450746 
982	 0.202468041345698 
983	 0.203400806977072 
984	 0.204349032166165 
985	 0.205207605377923 
986	 0.205953743176401 
987	 0.206803959965222 
988	 0.207689220451411 
989	 0.208614487376862 
990	 0.209556074714567 
991	 0.210322727571982 
992	 0.211109072877221 
993	 0.211992105675253 
994	 0.212936167448219 
995	 0.213702957143815 
996	 0.214613205565248 
997	 0.21555298480947 
998	 0.216355535019102 
999	 0.217239954575517 
1000	 0.218157210897432 
1001	 0.224651949635782 
1002	 0.225574194900246 
1003	 0.226544504381234 
1004	 0.227453719293555 
1005	 0.228307311196317 
1006	 0.22920941734254 
1007	 0.230096145023709 
1008	 0.231023863825455 
1009	 0.231999870531942 
1010	 0.232924865572654 
1011	 0.233870247116259 
1012	 0.234778436495158 
1013	 0.235607919021967 
1014	 0.236500799704179 
1015	 0.237417995718494 
1016	 0.23830911142973 
1017	 0.239251676309271 
1018	 0.240207050242984 
1019	 0.241181677963535 
1020	 0.242146537879593 
1021	 0.243089621634894 
1022	 0.24404476834775 
1023	 0.244970150178393 
1024	 0.24583865806434 
1025	 0.246754149774341 
1026	 0.247684072924613 
1027	 0.248590956451899 
1028	 0.249490075013894 
1029	 0.250453370194211 
1030	 0.25132000081173 
1031	 0.252204775972391 
1032	 0.253114931710626 
1033	 0.253957446937003 
1034	 0.254854104892817 
1035	 0.255755580284861 
1036	 0.256664427341902 
1037	 0.257631205830767 
1038	 0.258513543760175 
1039	 0.25934887327076 
1040	 0.260205933080614 
1041	 0.261003569209829 
1042	 0.261849568505147 
1043	 0.262737466426411 
1044	 0.263620914909107 
1045	 0.264498961973373 
1046	 0.265367336993765 
1047	 0.266183291017198 
1048	 0.267069129159243 
1049	 0.267942352522964 
1050	 0.268769516358581 
1051	 0.269690886107516 
1052	 0.270586168818023 
1053	 0.271452185366139 
1054	 0.272337737965007 
1055	 0.273187807358539 
1056	 0.273950869598948 
1057	 0.274781772065973 
1058	 0.275628925105455 
1059	 0.276479059483978 
1060	 0.277376263224209 
1061	 0.278224454649318 
1062	 0.279085656882805 
1063	 0.279962866720346 
1064	 0.280765216624629 
1065	 0.281641834560606 
1066	 0.282513458812527 
1067	 0.28335395156488 
1068	 0.284272909516048 
1069	 0.285142315910774 
1070	 0.286003216130378 
1071	 0.286853745745829 
1072	 0.287707860133333 
1073	 0.288511879747889 
1074	 0.289381006105763 
1075	 0.290234015781173 
1076	 0.291070349182565 
1077	 0.291967772570507 
1078	 0.292822645710415 
1079	 0.293714500429136 
1080	 0.294620639254048 
1081	 0.295441801350056 
1082	 0.296278804911641 
1083	 0.297086415626141 
1084	 0.297893933541279 
1085	 0.298776202408442 
1086	 0.29960446390156 
1087	 0.300407216054488 
1088	 0.301225327280314 
1089	 0.302062533868284 
1090	 0.302825432816176 
1091	 0.30362259433514 
1092	 0.30440949293374 
1093	 0.305159662717777 
1094	 0.30596779623559 
1095	 0.306753300928769 
1096	 0.307545538771088 
1097	 0.308363799796154 
1098	 0.309100532773043 
1099	 0.309865584963689 
1100	 0.310639698226569 
1101	 0.311375536864809 
1102	 0.312161119025146 
1103	 0.312920037875029 
1104	 0.313666815894531 
1105	 0.314422556026894 
1106	 0.315187502440788 
1107	 0.315881841656305 
1108	 0.316591085268916 
1109	 0.317297257711177 
1110	 0.317993307922179 
1111	 0.31874406657363 
1112	 0.319486237759585 
1113	 0.320220459156123 
1114	 0.320958411786744 
1115	 0.321640622536547 
1116	 0.322320163930655 
1117	 0.322989654283851 
1118	 0.323664737197006 
1119	 0.32434411920498 
1120	 0.325014595053946 
1121	 0.325675615591263 
1122	 0.326360249881728 
1123	 0.327037646393206 
1124	 0.327642890871438 
1125	 0.328290291737774 
1126	 0.328916866754257 
1127	 0.329517508697532 
1128	 0.33016393880401 
1129	 0.330757004850364 
1130	 0.331357100817976 
1131	 0.331972218847059 
1132	 0.332527607066985 
1133	 0.333101787846649 
1134	 0.333669512709306 
1135	 0.33423269553192 
1136	 0.334792582604517 
1137	 0.335344997598613 
1138	 0.335901719336416 
1139	 0.336437269971318 
1140	 0.336964300629998 
1141	 0.337442255481504 
1142	 0.337944462836343 
1143	 0.338432078595691 
1144	 0.338886029591258 
1145	 0.339363115507811 
1146	 0.33981092855006 
1147	 0.340254696909433 
1148	 0.340715011481353 
1149	 0.341127906359076 
1150	 0.341536022905488 
1151	 0.341931266113066 
1152	 0.342321636947852 
1153	 0.34271404900781 
1154	 0.343084988875254 
1155	 0.343444167078549 
1156	 0.343789350956062 
1157	 0.344108621822187 
1158	 0.344417048803593 
1159	 0.344724455661969 
1160	 0.345005159921695 
1161	 0.345266214747561 
1162	 0.345540093320474 
1163	 0.345785323151497 
1164	 0.346033598743831 
1165	 0.346279275366837 
1166	 0.346491140187738 
1167	 0.346732180686313 
1168	 0.34700392770736 
1169	 0.347273586100012 
1170	 0.347565649440795 
1171	 0.347850741255137 
1172	 0.348129526408616 
1173	 0.348420518586901 
1174	 0.348720441708511 
1175	 0.34902039372315 
1176	 0.349336918347243 
1177	 0.349635112699921 
1178	 0.349912792703382 
1179	 0.350213444694265 
1180	 0.350520569289383 
1181	 0.350839124023751 
1182	 0.351184709268711 
1183	 0.351549372161811 
1184	 0.351917581947871 
1185	 0.352277722525654 
1186	 0.352658911745576 
1187	 0.353060598629053 
1188	 0.353451297950922 
1189	 0.353847308535275 
1190	 0.354250788289299 
1191	 0.35464989620676 
1192	 0.355055144928146 
1193	 0.355476794349111 
1194	 0.355889585906332 
1195	 0.35629919603879 
1196	 0.356719065843538 
1197	 0.357143101532636 
1198	 0.357563241883171 
1199	 0.358015330065594 
1200	 0.358421141988312 
1201	 0.358820125999896 
1202	 0.359228727221709 
1203	 0.359632619199293 
1204	 0.360085507921073 
1205	 0.360570097448678 
1206	 0.361092899176256 
1207	 0.361647529385169 
1208	 0.36222677002492 
1209	 0.362841620787257 
1210	 0.363484650760558 
1211	 0.364180448290536 
1212	 0.364925869029598 
1213	 0.365705672317098 
1214	 0.366541310343074 
1215	 0.367392091768592 
1216	 0.368292291614683 
1217	 0.36917260151153 
1218	 0.370074609435695 
1219	 0.37096582650579 
1220	 0.37184767625509 
1221	 0.372771847521214 
1222	 0.373656613407649 
1223	 0.374566809100026 
1224	 0.375442802522414 
1225	 0.376296628266681 
1226	 0.377126122692576 
1227	 0.377937684024847 
1228	 0.378737940452291 
1229	 0.379515275412087 
1230	 0.380286960737566 
1231	 0.381047491993068 
1232	 0.381809285949495 
1233	 0.382559176414515 
1234	 0.383295139180864 
1235	 0.384029233161716 
1236	 0.384753169335559 
1237	 0.385456377214268 
1238	 0.386162262155852 
1239	 0.386867303332388 
1240	 0.38756761441065 
1241	 0.38827353424652 
1242	 0.388930081202273 
1243	 0.389607291119325 
1244	 0.39027741338098 
1245	 0.39095449242578 
1246	 0.39164977371705 
1247	 0.392307217715333 
1248	 0.392955896121884 
1249	 0.393587051547854 
1250	 0.394193424781271 
1251	 0.394784373228664 
1252	 0.395362208076865 
1253	 0.395932253354018 
1254	 0.396484499718848 
1255	 0.397029486690172 
1256	 0.397566169187228 
1257	 0.398098539048054 
1258	 0.398623651690114 
1259	 0.399131758593582 
1260	 0.39963839881853 
1261	 0.400128924697504 
1262	 0.400584962789552 
1263	 0.401059092973875 
1264	 0.401509056108018 
1265	 0.401940900981048 
1266	 0.402387375444989 
1267	 0.402829703709314 
1268	 0.403264990236669 
1269	 0.403711248541332 
1270	 0.404134851876908 
1271	 0.404537978312323 
1272	 0.404942193423371 
1273	 0.405331404942471 
1274	 0.405733364517834 
1275	 0.406136435166749 
1276	 0.406534981074961 
1277	 0.406931795003176 
1278	 0.407335069136478 
1279	 0.407731206997696 
1280	 0.408137161831442 
1281	 0.408545181206676 
1282	 0.408970096730672 
1283	 0.409410532021506 
1284	 0.40984539864261 
1285	 0.410284324273883 
1286	 0.410743672714889 
1287	 0.411168727947595 
1288	 0.411576552365833 
1289	 0.411986856449572 
1290	 0.41237580474924 
1291	 0.412791811551654 
1292	 0.413212363224119 
1293	 0.413641773533227 
1294	 0.414088277838162 
1295	 0.414527048957374 
1296	 0.414972720005306 
1297	 0.415406908654671 
1298	 0.415841576100522 
1299	 0.416262816542408 
1300	 0.416685876666898 
1301	 0.417079149342148 
1302	 0.41744963139438 
1303	 0.417814621137474 
1304	 0.418153793998746 
1305	 0.41849389308091 
1306	 0.418834136188534 
1307	 0.419163792711112 
1308	 0.419478358373342 
1309	 0.41979964213665 
1310	 0.420099358659421 
1311	 0.42038977734725 
1312	 0.420668595947315 
1313	 0.42093651676507 
1314	 0.421188593717754 
1315	 0.421435348855585 
1316	 0.421653564801593 
1317	 0.42184586497341 
1318	 0.422036012024117 
1319	 0.422209825631173 
1320	 0.422375246915782 
1321	 0.422541310051872 
1322	 0.422680756156116 
1323	 0.422797102750833 
1324	 0.422907700902187 
1325	 0.423008667123068 
1326	 0.423089715216472 
1327	 0.423154313732019 
1328	 0.423212634078389 
1329	 0.423261522795676 
1330	 0.423289037236458 
1331	 0.423311193919695 
1332	 0.423310651567731 
1333	 0.423285662851772 
1334	 0.423240763519441 
1335	 0.423190665554164 
1336	 0.423131149394274 
1337	 0.423050438647855 
1338	 0.422955049980219 
1339	 0.422847899543883 
1340	 0.422727464077605 
1341	 0.422586639854004 
1342	 0.42243528767325 
1343	 0.422260206135828 
1344	 0.422061169408571 
1345	 0.421849197926546 
1346	 0.421625513619575 
1347	 0.421378546377273 
1348	 0.421104018610496 
1349	 0.420829474990712 
1350	 0.420526881700801 
1351	 0.420240161417522 
1352	 0.419954871272103 
1353	 0.41967136463718 
1354	 0.419400160070346 
1355	 0.419115894952179 
1356	 0.418813781148029 
1357	 0.418529624380691 
1358	 0.418243050327984 
1359	 0.417965285563082 
1360	 0.417708083656937 
1361	 0.417448456295021 
1362	 0.417178480296493 
1363	 0.416919167838921 
1364	 0.416656726191053 
1365	 0.416399698219968 
1366	 0.416127901831827 
1367	 0.415854799560132 
1368	 0.415569872184481 
1369	 0.415275846552537 
1370	 0.414969457836591 
1371	 0.414650634281061 
1372	 0.414336259834958 
1373	 0.414012141875873 
1374	 0.41368730001131 
1375	 0.413370369378788 
1376	 0.413033336671531 
1377	 0.412684118372237 
1378	 0.412323478926099 
1379	 0.41194683290641 
1380	 0.411569168714188 
1381	 0.411200981933569 
1382	 0.410792308271695 
1383	 0.410352921431911 
1384	 0.409920085073491 
1385	 0.409445792673456 
1386	 0.409002577088176 
1387	 0.40856375891723 
1388	 0.408160055778935 
1389	 0.407765963995127 
1390	 0.407407725107955 
1391	 0.407107531358385 
1392	 0.40679355802551 
1393	 0.40652364847165 
1394	 0.406241202707748 
1395	 0.405900380116436 
1396	 0.405566823211679 
1397	 0.405116723924731 
1398	 0.404620593168445 
1399	 0.404000396866009 
1400	 0.40330213164049 
1401	 0.402481873128609 
1402	 0.401552197489648 
1403	 0.400523391777339 
1404	 0.39937178048619 
1405	 0.398177730046077 
1406	 0.396890337680618 
1407	 0.395551519102227 
1408	 0.394120627523542 
1409	 0.392690800862903 
1410	 0.391203226558817 
1411	 0.389702667814804 
1412	 0.388180123831494 
1413	 0.386661069181576 
1414	 0.385103990080607 
1415	 0.38356010089003 
1416	 0.382005400125862 
1417	 0.380476915629559 
1418	 0.378948083650611 
1419	 0.377438916607402 
1420	 0.375936941398622 
1421	 0.374488493627323 
1422	 0.373068449007685 
1423	 0.371670662467516 
1424	 0.370358443929688 
1425	 0.368986520092101 
1426	 0.36768883224818 
1427	 0.366338175139471 
1428	 0.364930175657238 
1429	 0.363575037417021 
1430	 0.362072346487818 
1431	 0.360526045163007 
1432	 0.358798993281648 
1433	 0.356972627409637 
1434	 0.354988773329239 
1435	 0.352830994602437 
1436	 0.350596432124355 
1437	 0.348179802397897 
1438	 0.345859793006409 
1439	 0.343380978649916 
1440	 0.341152091399671 
1441	 0.338874481671979 
1442	 0.33702132147621 
1443	 0.335239213418133 
1444	 0.334033256309935 
1445	 0.333175200424224 
1446	 0.332819928036731 
1447	 0.332943243005841 
1448	 0.333455672594215 
1449	 0.334563576408322 
1450	 0.335780215441201 
1451	 0.337475936765743 
1452	 0.339130783377156 
1453	 0.341059308763341 
1454	 0.342832697641657 
1455	 0.344696886439392 
1456	 0.34640368148388 
1457	 0.348048474164906 
1458	 0.349553538825328 
1459	 0.350938990289064 
1460	 0.352228513277648 
1461	 0.353370961679676 
1462	 0.354439414664962 
1463	 0.35540714640836 
1464	 0.356316689741978 
1465	 0.357108938610383 
1466	 0.357891997199599 
1467	 0.358616950998002 
1468	 0.359297693716959 
1469	 0.359969269175993 
1470	 0.360562302658006 
1471	 0.361144779837224 
1472	 0.361696277750613 
1473	 0.362207847219406 
1474	 0.362702891910597 
1475	 0.363106718937849 
1476	 0.363472750323629 
1477	 0.363728483567215 
1478	 0.363902637749741 
1479	 0.363983159408335 
1480	 0.363978633529308 
1481	 0.363880156841987 
1482	 0.363654237839842 
1483	 0.363426945544507 
1484	 0.363081197030479 
1485	 0.362815002079105 
1486	 0.362492272186203 
1487	 0.362319757279208 
1488	 0.362161173872248 
1489	 0.362183420439759 
1490	 0.362317381965614 
1491	 0.362603854716754 
1492	 0.363007550605661 
1493	 0.363598676055554 
1494	 0.364391145764649 
1495	 0.365251454339845 
1496	 0.36629539872232 
1497	 0.367371503968991 
1498	 0.368564941983379 
1499	 0.369749443073163 
1500	 0.371043225967641 
1501	 0.372264428386586 
1502	 0.373498209148116 
1503	 0.374650529370362 
1504	 0.37577361212585 
1505	 0.376820496158634 
1506	 0.377815144708193 
1507	 0.378720931421294 
1508	 0.379548405085815 
1509	 0.380309420520503 
1510	 0.380976478455202 
1511	 0.381589245244549 
1512	 0.382129041988374 
1513	 0.382627800149747 
1514	 0.383068266478695 
1515	 0.383458072899683 
1516	 0.383796310286279 
1517	 0.384092801692565 
1518	 0.384314961653964 
1519	 0.384524166810387 
1520	 0.38470463606453 
1521	 0.384851615346981 
1522	 0.384987479580961 
1523	 0.385104250710909 
1524	 0.385173567333643 
1525	 0.385208437916505 
1526	 0.385226585476269 
1527	 0.385196131288613 
1528	 0.385189195554106 
1529	 0.385174906599312 
1530	 0.385164335368112 
1531	 0.385141896643624 
1532	 0.385155350503754 
1533	 0.385163889518703 
1534	 0.385236708457085 
1535	 0.385336440663874 
1536	 0.385500104675069 
1537	 0.385698474317179 
1538	 0.385988582615368 
1539	 0.386339759345849 
1540	 0.38677164306455 
1541	 0.387285150080568 
1542	 0.387865541373867 
1543	 0.388520771095672 
1544	 0.389235774791843 
1545	 0.390033017697307 
1546	 0.390866254413168 
1547	 0.391782437546501 
1548	 0.392680924667478 
1549	 0.393614357170116 
1550	 0.394557743869864 
1551	 0.395528010690498 
1552	 0.396466734332692 
1553	 0.397425371507742 
1554	 0.398350365788783 
1555	 0.399247051573955 
1556	 0.400124518749907 
1557	 0.40099208084613 
1558	 0.401837060213117 
1559	 0.402655978765583 
1560	 0.40344913270282 
1561	 0.404226370387447 
1562	 0.404979311076227 
1563	 0.405702761382672 
1564	 0.406400358154344 
1565	 0.407064293903767 
1566	 0.407734624377056 
1567	 0.408383958035568 
1568	 0.409024589260695 
1569	 0.409673956710497 
1570	 0.410294969405013 
1571	 0.410892384319032 
1572	 0.411470400254069 
1573	 0.41202392750124 
1574	 0.412577824969096 
1575	 0.413111262391648 
1576	 0.413642309525076 
1577	 0.414171681111381 
1578	 0.414696701477759 
1579	 0.415214022236992 
1580	 0.415721040016601 
1581	 0.416227714797801 
1582	 0.416720762304485 
1583	 0.417196482606602 
1584	 0.417669360870888 
1585	 0.418132886837738 
1586	 0.41859629767794 
1587	 0.419055680931817 
1588	 0.419506997159842 
1589	 0.419942622545435 
1590	 0.420396794775879 
1591	 0.420853456243418 
1592	 0.421313365489832 
1593	 0.421776365101283 
1594	 0.422260583888965 
1595	 0.422766117036444 
1596	 0.423251803884023 
1597	 0.423746189255054 
1598	 0.424239378780557 
1599	 0.424719011356898 
1600	 0.425196464780301 
1601	 0.425693679786543 
1602	 0.426165091966618 
1603	 0.426605283012077 
1604	 0.427052417661761 
1605	 0.427498058387642 
1606	 0.427934109525015 
1607	 0.428378251606637 
1608	 0.42879534005814 
1609	 0.429198961711004 
1610	 0.429579409578658 
1611	 0.42992299590972 
1612	 0.430272045048863 
1613	 0.430608042418611 
1614	 0.430939222261235 
1615	 0.431266212820071 
1616	 0.431594227937969 
1617	 0.431923459136142 
1618	 0.432235215429358 
1619	 0.432554908444244 
1620	 0.432839037119861 
1621	 0.43307843154919 
1622	 0.433331395229122 
1623	 0.433572878379844 
1624	 0.433813008059983 
1625	 0.434055178137028 
1626	 0.43429630554876 
1627	 0.434526496025913 
1628	 0.434758765512703 
1629	 0.435002827808492 
1630	 0.43523388837685 
1631	 0.435451343075455 
1632	 0.435675264199615 
1633	 0.435898825169823 
1634	 0.436118640515288 
1635	 0.436346968244022 
1636	 0.436560691102752 
1637	 0.436771970541949 
1638	 0.436958899615004 
1639	 0.437115410729821 
1640	 0.43728558071121 
1641	 0.437462721549958 
1642	 0.43761113455654 
1643	 0.437768081703028 
1644	 0.437884141691105 
1645	 0.437944536061465 
1646	 0.438016165580343 
1647	 0.438074319260356 
1648	 0.438127356479176 
1649	 0.438204088322693 
1650	 0.438220752530804 
1651	 0.438198192118537 
1652	 0.438161678854201 
1653	 0.438084030322094 
1654	 0.437993116341118 
1655	 0.437899130737109 
1656	 0.437771218956248 
1657	 0.437628602376547 
1658	 0.437428297736834 
1659	 0.437185910523269 
1660	 0.43691260301648 
1661	 0.436583454705029 
1662	 0.436232748172553 
1663	 0.435852001144349 
1664	 0.435447272225632 
1665	 0.435029900324588 
1666	 0.434547436641667 
1667	 0.434029448065109 
1668	 0.433468496649032 
1669	 0.432864579313184 
1670	 0.432188997728138 
1671	 0.431461167233478 
1672	 0.430672115559375 
1673	 0.4298046944384 
1674	 0.428893225027369 
1675	 0.427935461864288 
1676	 0.426944762475996 
1677	 0.425914422391881 
1678	 0.424811523479026 
1679	 0.42363778480379 
1680	 0.42243534758843 
1681	 0.421177365650968 
1682	 0.41985804728233 
1683	 0.418513527145658 
1684	 0.417122869350451 
1685	 0.415647006962196 
1686	 0.414156684262741 
1687	 0.412623159599779 
1688	 0.41106612890651 
1689	 0.409458719029868 
1690	 0.407858372253873 
1691	 0.406259397758203 
1692	 0.404654067222607 
1693	 0.403061419721856 
1694	 0.401400133048242 
1695	 0.39970456610785 
1696	 0.397949592893713 
1697	 0.396135374523131 
1698	 0.394263563198276 
1699	 0.392351732208429 
1700	 0.390435189654156 
1701	 0.388445175847829 
1702	 0.386498606081696 
1703	 0.384519703786059 
1704	 0.38260697317218 
1705	 0.380705757445867 
1706	 0.378830619624799 
1707	 0.377120402694712 
1708	 0.375399427265194 
1709	 0.373727426434649 
1710	 0.372120728295715 
1711	 0.370440608535276 
1712	 0.368859487274339 
1713	 0.367265581603592 
1714	 0.365626104206311 
1715	 0.364098527094699 
1716	 0.362506914639365 
1717	 0.360944673634897 
1718	 0.359450287410672 
1719	 0.357894317466945 
1720	 0.356424552619755 
1721	 0.355005869449269 
1722	 0.353626434366392 
1723	 0.352454921855366 
1724	 0.351373153390486 
1725	 0.350397277529555 
1726	 0.349651337290827 
1727	 0.349057253809044 
1728	 0.348662010490554 
1729	 0.34847169535466 
1730	 0.348453353347764 
1731	 0.348560247276625 
1732	 0.3487787883153 
1733	 0.349079978151466 
1734	 0.349430174527594 
1735	 0.349789554442293 
1736	 0.350108089011258 
1737	 0.350365710164909 
1738	 0.350515418148422 
1739	 0.350577641461971 
1740	 0.350554716209796 
1741	 0.350454972565381 
1742	 0.35024316124832 
1743	 0.350008502548575 
1744	 0.34966679881506 
1745	 0.349362567434415 
1746	 0.349015426131086 
1747	 0.348748216726608 
1748	 0.348495100199368 
1749	 0.348322675094095 
1750	 0.348196052650152 
1751	 0.348161502321821 
1752	 0.348193816094381 
1753	 0.348320419407098 
1754	 0.348537760676187 
1755	 0.348835627069975 
1756	 0.349211628656523 
1757	 0.349670038942441 
1758	 0.350256930603613 
1759	 0.350904902947849 
1760	 0.351692417931928 
1761	 0.352606836013594 
1762	 0.35351946756692 
1763	 0.354543612671113 
1764	 0.355634108383847 
1765	 0.356744194726002 
1766	 0.357979840109767 
1767	 0.359188347773737 
1768	 0.360401601199254 
1769	 0.361636015552671 
1770	 0.362751042437006 
1771	 0.36384412053987 
1772	 0.364878267603764 
1773	 0.365838233235436 
1774	 0.366835301650331 
1775	 0.367788402243561 
1776	 0.368735430311668 
1777	 0.369666536076352 
1778	 0.370505911824763 
1779	 0.371367353077388 
1780	 0.372206577717658 
1781	 0.373004270053423 
1782	 0.373823935998893 
1783	 0.374577218830588 
1784	 0.375340149731398 
1785	 0.376089113900115 
1786	 0.376814324484346 
1787	 0.377559108947939 
1788	 0.378259814796214 
1789	 0.378920994383599 
1790	 0.379593003601968 
1791	 0.380246569931692 
1792	 0.380902201132899 
1793	 0.381550961875552 
1794	 0.38215370847915 
1795	 0.382771328342061 
1796	 0.383346593949524 
1797	 0.383940027545272 
1798	 0.38450486060228 
1799	 0.385023580728232 
1800	 0.385564594248194 
1801	 0.377687455217129 
1802	 0.378193182208588 
1803	 0.378688256989088 
1804	 0.37915629916526 
1805	 0.379632933976702 
1806	 0.380072092592056 
1807	 0.380504597222091 
1808	 0.380902437185714 
1809	 0.381265699184618 
1810	 0.381621192248013 
1811	 0.381950110377387 
1812	 0.382282113725001 
1813	 0.38258813248457 
1814	 0.382917374307222 
1815	 0.383252343976568 
1816	 0.383606087176322 
1817	 0.383968300813455 
1818	 0.384362236222586 
1819	 0.384725133560049 
1820	 0.385087057790778 
1821	 0.385442091922196 
1822	 0.385781470593599 
1823	 0.386132162225637 
1824	 0.386473417345732 
1825	 0.386805462961555 
1826	 0.387113774194781 
1827	 0.38740486255493 
1828	 0.387678849812253 
1829	 0.38793251447687 
1830	 0.388176069003752 
1831	 0.388400096620728 
1832	 0.388633180688422 
1833	 0.38883762314491 
1834	 0.389034459239332 
1835	 0.389212496818829 
1836	 0.389361439660167 
1837	 0.389512535260372 
1838	 0.389650207658011 
1839	 0.389780519438848 
1840	 0.389921177905799 
1841	 0.390023633575452 
1842	 0.390111867589026 
1843	 0.390171596441747 
1844	 0.390200496885059 
1845	 0.390195162964466 
1846	 0.390151287618675 
1847	 0.390072921405327 
1848	 0.38995303212226 
1849	 0.389811100297014 
1850	 0.38959515552972 
1851	 0.389339001551166 
1852	 0.389010048897557 
1853	 0.388614551378504 
1854	 0.38818786432801 
1855	 0.387677041562853 
1856	 0.387135633850611 
1857	 0.386511544967053 
1858	 0.385757788604477 
1859	 0.384978161750443 
1860	 0.384143763434622 
1861	 0.383213828347528 
1862	 0.382205383123084 
1863	 0.381191657860368 
1864	 0.380021492253615 
1865	 0.37881048780113 
1866	 0.377519156450908 
1867	 0.37601347437099 
1868	 0.374472443872064 
1869	 0.372782143216192 
1870	 0.371000855943435 
1871	 0.369138767340111 
1872	 0.367217948419487 
1873	 0.365192608065546 
1874	 0.363130105629977 
1875	 0.361018227785129 
1876	 0.358648155650968 
1877	 0.356312214606247 
1878	 0.353830334949671 
1879	 0.351165093403727 
1880	 0.348608949041913 
1881	 0.345892461818477 
1882	 0.343031833585888 
1883	 0.340118606487857 
1884	 0.337130364206162 
1885	 0.333846986455928 
1886	 0.330586912494387 
1887	 0.327161318635562 
1888	 0.323585831634689 
1889	 0.320212746420862 
1890	 0.316675233029788 
1891	 0.313135578073552 
1892	 0.309660338869078 
1893	 0.306022401597506 
1894	 0.302213844280097 
1895	 0.298517668851299 
1896	 0.294716227064534 
1897	 0.290817932018926 
1898	 0.287204770610938 
1899	 0.283464155878736 
1900	 0.279752800363588 
1901	 0.276149492105576 
1902	 0.272306545032306 
1903	 0.268605311746427 
1904	 0.264919549234966 
1905	 0.261215063012963 
1906	 0.257517003014668 
1907	 0.254135365962083 
1908	 0.250656207170844 
1909	 0.247262769418485 
1910	 0.243985887701014 
1911	 0.240478011758713 
1912	 0.237129221278173 
1913	 0.233745567477144 
1914	 0.230259845815034 
1915	 0.226905823892087 
1916	 0.223704539481172 
1917	 0.22032463006786 
1918	 0.216974116196824 
1919	 0.213649996938138 
1920	 0.210056031840701 
1921	 0.206559522705832 
1922	 0.202953818539876 
1923	 0.19922677288917 
1924	 0.195771064048626 
1925	 0.192195216719298 
1926	 0.188673989237371 
1927	 0.185254607017646 
1928	 0.181796416518226 
1929	 0.178222197873739 
1930	 0.174857437844012 
1931	 0.171597508461259 
1932	 0.168455730807904 
1933	 0.165749404907869 
1934	 0.16320450415512 
1935	 0.160874124542433 
1936	 0.158898258047997 
1937	 0.15713001967946 
1938	 0.155563338210953 
1939	 0.154333685359437 
1940	 0.153383722388194 
1941	 0.15270167573865 
1942	 0.152329288265722 
1943	 0.152161009825168 
1944	 0.152215047174072 
1945	 0.152532185936942 
1946	 0.153140064979507 
1947	 0.153953354360156 
1948	 0.155091901462489 
1949	 0.156569834514787 
1950	 0.158263655711841 
1951	 0.160255852840426 
1952	 0.162485401193593 
1953	 0.164958274987342 
1954	 0.167676222992559 
1955	 0.170725666613755 
1956	 0.173796267267706 
1957	 0.17695657784567 
1958	 0.180118047330543 
1959	 0.182933952977579 
1960	 0.185595490001059 
1961	 0.187974433773777 
1962	 0.190072920697646 
1963	 0.191940619581585 
1964	 0.193570680475382 
1965	 0.194951797232287 
1966	 0.196063428783718 
1967	 0.196999245370065 
1968	 0.19770311248685 
1969	 0.198389463003552 
1970	 0.199036966911302 
1971	 0.199693726615238 
1972	 0.200445045480509 
1973	 0.201238868359274 
1974	 0.202113284946019 
1975	 0.203073382783844 
1976	 0.204090800006858 
1977	 0.205168309065766 
1978	 0.206321300558163 
1979	 0.207534859409134 
1980	 0.208811426433572 
1981	 0.210240323944777 
1982	 0.211660421877532 
1983	 0.213213671208353 
1984	 0.214870079383599 
1985	 0.21650586324304 
1986	 0.218324914456157 
1987	 0.220317109265313 
1988	 0.222339521509809 
1989	 0.224736524905668 
1990	 0.22740980849068 
1991	 0.23024488944306 
1992	 0.233340619793678 
1993	 0.236711803479967 
1994	 0.239982939913445 
1995	 0.243539618578312 
1996	 0.247153318563512 
1997	 0.250738845280631 
1998	 0.254454245489363 
1999	 0.258380383744948 
2000	 0.262063056650601 
2001	 0.265896931579641 
2002	 0.269353430135018 
2003	 0.272590504951232 
2004	 0.275712792817113 
2005	 0.278558604391237 
2006	 0.281362693819001 
2007	 0.284135687059241 
2008	 0.286662559812886 
2009	 0.289054593695506 
2010	 0.291362046886287 
2011	 0.293345219232931 
2012	 0.29522965219471 
2013	 0.297003015203642 
2014	 0.298578938608434 
2015	 0.30013979923678 
2016	 0.301637601421346 
2017	 0.303013863782883 
2018	 0.304341898732538 
2019	 0.305511430648017 
2020	 0.306509491195359 
2021	 0.30745733935308 
2022	 0.308299952482422 
2023	 0.309031265702669 
2024	 0.309745576753071 
2025	 0.310369021519252 
2026	 0.310910230151414 
2027	 0.311362376648152 
2028	 0.311765318998 
2029	 0.312069501724221 
2030	 0.31235142880476 
2031	 0.312576052813057 
2032	 0.312772161132678 
2033	 0.312901437607997 
2034	 0.313030608805376 
2035	 0.313129406079929 
2036	 0.31321697667827 
2037	 0.313292587628318 
2038	 0.313370683442675 
2039	 0.313440230500518 
2040	 0.313498317707123 
2041	 0.313557488209483 
2042	 0.313600977144896 
2043	 0.313671580426591 
2044	 0.313742814335795 
2045	 0.313839835858905 
2046	 0.313967497492335 
2047	 0.314087443516565 
2048	 0.314218556987597 
2049	 0.314349746894436 
2050	 0.314484119454105 
2051	 0.314618419003261 
2052	 0.314750292756112 
2053	 0.314898268796481 
2054	 0.315052249382088 
2055	 0.315198354871564 
2056	 0.315379417731043 
2057	 0.31557446056051 
2058	 0.315800901130172 
2059	 0.316048919899187 
2060	 0.316328121127248 
2061	 0.31664418314049 
2062	 0.316971520072473 
2063	 0.317326543144497 
2064	 0.3176973530384 
2065	 0.318084497505691 
2066	 0.318479976074759 
2067	 0.31893842723495 
2068	 0.319392716086451 
2069	 0.319866584654836 
2070	 0.320402492929826 
2071	 0.320866382665681 
2072	 0.32131888115742 
2073	 0.321746864601923 
2074	 0.322131267350788 
2075	 0.322517539266895 
2076	 0.322915776379825 
2077	 0.323254339666481 
2078	 0.323582614068958 
2079	 0.32385304805937 
2080	 0.324057966911907 
2081	 0.324242070446724 
2082	 0.324389132770183 
2083	 0.324505120205497 
2084	 0.32457770925806 
2085	 0.324612911456843 
2086	 0.324618369743713 
2087	 0.32457492320268 
2088	 0.324516818753878 
2089	 0.324436901607348 
2090	 0.324328966840138 
2091	 0.32420441462252 
2092	 0.324023632879153 
2093	 0.323801917515134 
2094	 0.323552060177698 
2095	 0.32323183007847 
2096	 0.322923595905351 
2097	 0.322613479019496 
2098	 0.322262832314426 
2099	 0.321918496310109 
2100	 0.321576661482293 
2101	 0.321163262947059 
2102	 0.320706555210423 
2103	 0.320246302637257 
2104	 0.319723511451961 
2105	 0.31923300207479 
2106	 0.318764393779798 
2107	 0.318259169253782 
2108	 0.317753024551797 
2109	 0.317202269684746 
2110	 0.316616603408374 
2111	 0.316022261620229 
2112	 0.31536836529612 
2113	 0.314745968816566 
2114	 0.314136276123196 
2115	 0.313510523183832 
2116	 0.31288288380267 
2117	 0.312273510156991 
2118	 0.31162369137121 
2119	 0.310940391472144 
2120	 0.310285644308635 
2121	 0.309611903517497 
2122	 0.308974463245582 
2123	 0.308364803081534 
2124	 0.307749496199354 
2125	 0.307149588127458 
2126	 0.306545756893784 
2127	 0.305934003058236 
2128	 0.30534654078677 
2129	 0.304762534689807 
2130	 0.304195406112577 
2131	 0.303662320205403 
2132	 0.303119394526658 
2133	 0.302582929920982 
2134	 0.302061138141864 
2135	 0.301494220880054 
2136	 0.300910895397082 
2137	 0.300324676930471 
2138	 0.2997094791132 
2139	 0.29910446003324 
2140	 0.298512155598381 
2141	 0.297892390339855 
2142	 0.297266319778254 
2143	 0.296608286027713 
2144	 0.295907657151435 
2145	 0.295239806361402 
2146	 0.29453940715771 
2147	 0.293886949878872 
2148	 0.293294517849013 
2149	 0.292667838883296 
2150	 0.292073777552532 
2151	 0.291426514953622 
2152	 0.290740857411498 
2153	 0.290042683559604 
2154	 0.289320869999817 
2155	 0.28859566576066 
2156	 0.287891966835651 
2157	 0.287202863254623 
2158	 0.286501111125796 
2159	 0.285824545178137 
2160	 0.285090305694958 
2161	 0.284305609647199 
2162	 0.283572612848616 
2163	 0.282799222763302 
2164	 0.282097905741837 
2165	 0.281463105512601 
2166	 0.280820816597607 
2167	 0.280203867765539 
2168	 0.279593357258292 
2169	 0.278972774314422 
2170	 0.278406468924277 
2171	 0.277830593045057 
2172	 0.277345445722547 
2173	 0.27695243838511 
2174	 0.276563202889514 
2175	 0.276232479292631 
2176	 0.275963926833947 
2177	 0.275698259781729 
2178	 0.275451531395257 
2179	 0.275247248260545 
2180	 0.275078271955717 
2181	 0.274932228314839 
2182	 0.274841275765107 
2183	 0.274719717590433 
2184	 0.274624805846063 
2185	 0.274495589390927 
2186	 0.274343236512996 
2187	 0.27418987655934 
2188	 0.274030880561086 
2189	 0.273857356328579 
2190	 0.273688655263232 
2191	 0.273480538167377 
2192	 0.273268895939514 
2193	 0.272998158016761 
2194	 0.272655971652325 
2195	 0.272324368347055 
2196	 0.271980715029373 
2197	 0.271588928191457 
2198	 0.271169840204376 
2199	 0.270749862400397 
2200	 0.270298022043137 
2201	 0.269798276865384 
2202	 0.26928437635073 
2203	 0.268765524538487 
2204	 0.268216961143323 
2205	 0.267604601670022 
2206	 0.267036284148454 
2207	 0.266479370324997 
2208	 0.265905384262842 
2209	 0.265309566796154 
2210	 0.264760110607282 
2211	 0.264191575779898 
2212	 0.263701324039086 
2213	 0.263232222022376 
2214	 0.262864323475426 
2215	 0.262548014984925 
2216	 0.262328471098642 
2217	 0.26219345749634 
2218	 0.262167594498179 
2219	 0.262250683950359 
2220	 0.262404433256633 
2221	 0.262676313029882 
2222	 0.263013486884163 
2223	 0.26337530747316 
2224	 0.263793545376424 
2225	 0.264230594084481 
2226	 0.264641417549431 
2227	 0.264989581870654 
2228	 0.265344776822523 
2229	 0.265561963038866 
2230	 0.265714770910609 
2231	 0.265736173672399 
2232	 0.265651361461766 
2233	 0.265465794515377 
2234	 0.265179080208962 
2235	 0.264760962703488 
2236	 0.264216320330626 
2237	 0.263591750970462 
2238	 0.262814335788633 
2239	 0.262000823965534 
2240	 0.261134152253405 
2241	 0.260156184576546 
2242	 0.259109183706269 
2243	 0.257935567861153 
2244	 0.256626180839868 
2245	 0.255257973002075 
2246	 0.253714264404843 
2247	 0.252205070400448 
2248	 0.250692137432022 
2249	 0.249089098868805 
2250	 0.247440021666814 
2251	 0.245789099076505 
2252	 0.243908960526156 
2253	 0.242057573685848 
2254	 0.24017468841251 
2255	 0.238235607318836 
2256	 0.236451309817053 
2257	 0.234616152330888 
2258	 0.232817886800646 
2259	 0.231070422956319 
2260	 0.229282539216096 
2261	 0.227459220253776 
2262	 0.225720476859189 
2263	 0.223948226367613 
2264	 0.222317780771335 
2265	 0.220778377581482 
2266	 0.219294606189174 
2267	 0.217915143976648 
2268	 0.216562015067786 
2269	 0.215250301762262 
2270	 0.214035054634186 
2271	 0.21286833632594 
2272	 0.211801969781777 
2273	 0.21087582679378 
2274	 0.209935212324342 
2275	 0.209106429406262 
2276	 0.208214942062223 
2277	 0.207338617217552 
2278	 0.20641611931581 
2279	 0.205460436428167 
2280	 0.204466022437822 
2281	 0.20345439720057 
2282	 0.202378957357746 
2283	 0.201274670986427 
2284	 0.200100882304639 
2285	 0.19879012876652 
2286	 0.19746050124287 
2287	 0.195995618859124 
2288	 0.194460816675747 
2289	 0.193004134650566 
2290	 0.191417654365049 
2291	 0.189808392813288 
2292	 0.188172933033348 
2293	 0.186349819149323 
2294	 0.184529493627382 
2295	 0.18272150554835 
2296	 0.180952676506694 
2297	 0.179352140749972 
2298	 0.177844379227609 
2299	 0.176484792993765 
2300	 0.175255222425418 
2301	 0.174188674829884 
2302	 0.173199810974347 
2303	 0.172568729477046 
2304	 0.172123717338685 
2305	 0.172033546618723 
2306	 0.172292793742078 
2307	 0.172802531388788 
2308	 0.173590202307742 
2309	 0.174725988563907 
2310	 0.176258220555817 
2311	 0.177939397158403 
2312	 0.180103143718562 
2313	 0.182114044377288 
2314	 0.184309305061865 
2315	 0.186373373447581 
2316	 0.188450411141756 
2317	 0.190371669354731 
2318	 0.192325423086224 
2319	 0.19393283573038 
2320	 0.195369157621585 
2321	 0.196532983625328 
2322	 0.19734341339622 
2323	 0.198042463686647 
2324	 0.198513543697911 
2325	 0.198841434494676 
2326	 0.19898519903086 
2327	 0.198984592149684 
2328	 0.198791131355398 
2329	 0.198457638110765 
2330	 0.1979735699713 
2331	 0.197315876997981 
2332	 0.19649454559674 
2333	 0.195540359512813 
2334	 0.194378247722503 
2335	 0.19308152295624 
2336	 0.191601640465122 
2337	 0.190001563649028 
2338	 0.188425021194052 
2339	 0.186730080693743 
2340	 0.185091105633731 
2341	 0.183489226153129 
2342	 0.18180007136626 
2343	 0.180278808330138 
2344	 0.178973704217539 
2345	 0.177919851167366 
2346	 0.177255623199341 
2347	 0.176966604420912 
2348	 0.176934380202156 
2349	 0.177263552165049 
2350	 0.177927233538941 
2351	 0.178885120869768 
2352	 0.180028570975354 
2353	 0.181327759475161 
2354	 0.182607059797734 
2355	 0.18372608863855 
2356	 0.184728968907761 
2357	 0.185479955288032 
2358	 0.18605418925404 
2359	 0.186458473477557 
2360	 0.186693883337126 
2361	 0.18676478837881 
2362	 0.186669826340634 
2363	 0.186436501791089 
2364	 0.18610886369885 
2365	 0.185697191069715 
2366	 0.185225759947652 
2367	 0.184769496559094 
2368	 0.184294418224189 
2369	 0.183829539196712 
2370	 0.183396676123157 
2371	 0.182955232781967 
2372	 0.182447500062047 
2373	 0.181899053635491 
2374	 0.181342466181802 
2375	 0.180744437231107 
2376	 0.180175012842042 
2377	 0.179590370982767 
2378	 0.178987094401687 
2379	 0.178397725133408 
2380	 0.177748671299426 
2381	 0.177110622016729 
2382	 0.176469417588897 
2383	 0.175800236623731 
2384	 0.175141979782183 
2385	 0.174520532937576 
2386	 0.173817371209035 
2387	 0.17309068714793 
2388	 0.172335363000915 
2389	 0.171536115176046 
2390	 0.170695403266339 
2391	 0.16979969769066 
2392	 0.168912377943968 
2393	 0.167957261986627 
2394	 0.167046262295463 
2395	 0.166169888644352 
2396	 0.16529323621052 
2397	 0.16443630739882 
2398	 0.163560754205455 
2399	 0.162686221978796 
2400	 0.161826409139327 
2401	 0.160938388257594 
2402	 0.160075588919484 
2403	 0.159218116631905 
2404	 0.158329519524694 
2405	 0.15748376375607 
2406	 0.156664065768857 
2407	 0.155894605605727 
2408	 0.155122905940967 
2409	 0.154305739578215 
2410	 0.153557063967078 
2411	 0.152867180522279 
2412	 0.152250436362221 
2413	 0.151661388796471 
2414	 0.151012967209852 
2415	 0.150363096248777 
2416	 0.149750403927711 
2417	 0.149276645281285 
2418	 0.148920170938775 
2419	 0.14858823592558 
2420	 0.148228209945696 
2421	 0.147806697053044 
2422	 0.147394941318907 
2423	 0.147022252585041 
2424	 0.146731601792002 
2425	 0.146564906678946 
2426	 0.146351659052749 
2427	 0.146099185573068 
2428	 0.145934972190765 
2429	 0.145682071113717 
2430	 0.145363991655786 
2431	 0.145108234450682 
2432	 0.144789898142132 
2433	 0.144493402777505 
2434	 0.144349687869418 
2435	 0.144182712335397 
2436	 0.144016684954507 
2437	 0.143912121569055 
2438	 0.143697223311393 
2439	 0.143469478418264 
2440	 0.14326217402452 
2441	 0.14300053047603 
2442	 0.142819625682975 
2443	 0.142673008694912 
2444	 0.142485070020366 
2445	 0.142296335881782 
2446	 0.142052250333318 
2447	 0.141827614706848 
2448	 0.141691346052791 
2449	 0.141501201703399 
2450	 0.141224267738905 
2451	 0.140947759744109 
2452	 0.140642814526373 
2453	 0.140163575149609 
2454	 0.139718334257493 
2455	 0.139459132172106 
2456	 0.139122069035729 
2457	 0.138851458269354 
2458	 0.138656933050093 
2459	 0.138247241589667 
2460	 0.137861939568608 
2461	 0.137508560864012 
2462	 0.137070075617392 
2463	 0.136721412793291 
2464	 0.13628173905312 
2465	 0.135792908554919 
2466	 0.135387650412944 
2467	 0.134992517688163 
2468	 0.134666387504951 
2469	 0.134384575130026 
2470	 0.134121786170083 
2471	 0.133838471672043 
2472	 0.133513972917054 
2473	 0.133125204588607 
2474	 0.132902976928964 
2475	 0.132723649163734 
2476	 0.132457534372772 
2477	 0.132458848075661 
2478	 0.132392111399778 
2479	 0.132241509869438 
2480	 0.132216512977339 
2481	 0.132266887398301 
2482	 0.132392380283829 
2483	 0.132509921886688 
2484	 0.132397204734739 
2485	 0.132278206537603 
2486	 0.132335513985713 
2487	 0.132267785692584 
2488	 0.132592559084365 
2489	 0.132983463644815 
2490	 0.133025031113364 
2491	 0.133350314712637 
2492	 0.133662453007479 
2493	 0.133601297331909 
2494	 0.133693207386553 
2495	 0.133916964570178 
2496	 0.134058695202391 
2497	 0.134407157730028 
2498	 0.134753920940561 
2499	 0.135021771844304 
2500	 0.135479733040358 
