Wavelength	spectrum00020.asd
350	 1.97189719480718E-02 
351	 2.01746835755787E-02 
352	 0.018727299327319 
353	 1.71229879870213E-02 
354	 1.93345973994983E-02 
355	 1.94738416971488E-02 
356	 1.85901726742148E-02 
357	 0.018218259582638 
358	 0.01606985082643 
359	 1.59225149517036E-02 
360	 1.70053220417583E-02 
361	 1.65366299505212E-02 
362	 1.63159371556268E-02 
363	 1.66004158267006E-02 
364	 1.69721175580594E-02 
365	 1.63316458749693E-02 
366	 1.72330568504409E-02 
367	 1.73249741404192E-02 
368	 1.53256198957888E-02 
369	 1.74840394993133E-02 
370	 1.79825033307059E-02 
371	 1.68503186539878E-02 
372	 0.017169166987361 
373	 1.64955717960917E-02 
374	 1.60386005186111E-02 
375	 1.64758136936474E-02 
376	 1.72284599874667E-02 
377	 1.72136633180356E-02 
378	 1.70292107286378E-02 
379	 1.74172594280934E-02 
380	 1.79510363089962E-02 
381	 0.018230323554707 
382	 1.76432669963142E-02 
383	 0.015912380924028 
384	 0.016718003254063 
385	 1.80004745339458E-02 
386	 1.81450753742475E-02 
387	 1.72306849712015E-02 
388	 1.69333446976268E-02 
389	 0.017045451696016 
390	 0.01699889662185 
391	 1.71327688035958E-02 
392	 1.72038122603653E-02 
393	 1.73741924124999E-02 
394	 1.79603267191783E-02 
395	 1.78651584112284E-02 
396	 0.017788322301919 
397	 1.81152265498884E-02 
398	 0.018352991448343 
399	 1.83930255937077E-02 
400	 0.018280073367721 
401	 1.81064813624594E-02 
402	 1.77819506953613E-02 
403	 1.80736788759295E-02 
404	 1.86184873955511E-02 
405	 1.83241879031876E-02 
406	 1.84117284449368E-02 
407	 1.82001919401268E-02 
408	 1.76521409562692E-02 
409	 1.86248934585964E-02 
410	 1.88903419189283E-02 
411	 1.84681498944993E-02 
412	 1.81365793202359E-02 
413	 1.84147820983386E-02 
414	 1.82897628631785E-02 
415	 1.79516300283016E-02 
416	 1.86311284762693E-02 
417	 1.86662015738676E-02 
418	 1.85230481669555E-02 
419	 1.86965851399002E-02 
420	 1.88719034042079E-02 
421	 1.87998873984521E-02 
422	 1.87191467807842E-02 
423	 1.89467020570228E-02 
424	 0.018823561303735 
425	 1.88449013636348E-02 
426	 1.90553761155248E-02 
427	 1.88982325732828E-02 
428	 1.88332542520692E-02 
429	 1.88817066915585E-02 
430	 1.89637007001723E-02 
431	 1.90149935729908E-02 
432	 1.90619124811143E-02 
433	 1.90226491131254E-02 
434	 1.88237573731754E-02 
435	 1.90345293488048E-02 
436	 1.92774908276231E-02 
437	 1.92947202452203E-02 
438	 1.91697131684649E-02 
439	 1.91949580292772E-02 
440	 1.92614610665996E-02 
441	 1.92052782879534E-02 
442	 1.91803988308786E-02 
443	 1.92653563994254E-02 
444	 1.94377687534735E-02 
445	 1.95830707555775E-02 
446	 1.94383401704285E-02 
447	 1.92962837491917E-02 
448	 1.93608916333957E-02 
449	 1.94488139202281E-02 
450	 1.95367826039488E-02 
451	 1.95898923058381E-02 
452	 1.95962436513868E-02 
453	 1.96570536474488E-02 
454	 1.97099132002096E-02 
455	 1.97312938629327E-02 
456	 1.97533479767813E-02 
457	 1.97377486554287E-02 
458	 1.96917475294285E-02 
459	 1.96708466471011E-02 
460	 1.98619093391456E-02 
461	 1.99572950208615E-02 
462	 1.98921483891718E-02 
463	 1.97693594339085E-02 
464	 1.97836488161173E-02 
465	 1.99200412072463E-02 
466	 2.00677712017358E-02 
467	 0.020010913398462 
468	 2.00272294663887E-02 
469	 0.020055355509573 
470	 2.00228711540257E-02 
471	 2.02860473635546E-02 
472	 0.020278643030994 
473	 2.00632120503904E-02 
474	 2.01889262227369E-02 
475	 2.02728367830693E-02 
476	 2.03023041460873E-02 
477	 2.03003902938153E-02 
478	 2.02229121066557E-02 
479	 0.020200899527568 
480	 2.02552230946032E-02 
481	 2.03495036807647E-02 
482	 2.04276137183695E-02 
483	 2.04579197920858E-02 
484	 0.020432031448094 
485	 2.03659262614882E-02 
486	 2.04970426814515E-02 
487	 2.06297401296022E-02 
488	 2.05892863073836E-02 
489	 2.05905181916294E-02 
490	 2.05974761773948E-02 
491	 0.020646408552256 
492	 2.07881265745982E-02 
493	 2.08160633099653E-02 
494	 2.08140080504869E-02 
495	 2.08461234286956E-02 
496	 2.08913261643826E-02 
497	 2.07791051672929E-02 
498	 2.06951092873259E-02 
499	 2.08430922678187E-02 
500	 2.09885632998143E-02 
501	 2.09680573340377E-02 
502	 2.08415821635374E-02 
503	 2.08536859143403E-02 
504	 2.09669583513699E-02 
505	 2.10362297743965E-02 
506	 2.09927313352463E-02 
507	 2.10011851813442E-02 
508	 2.09774032193304E-02 
509	 2.09688029707952E-02 
510	 2.10534041571344E-02 
511	 0.021110570747216 
512	 2.11295731360977E-02 
513	 2.11395362802315E-02 
514	 2.12082485742873E-02 
515	 2.11480661753838E-02 
516	 2.11064622693275E-02 
517	 2.12131226886943E-02 
518	 2.12232409374906E-02 
519	 2.11970629932083E-02 
520	 2.12045995486348E-02 
521	 2.12998409691018E-02 
522	 2.12967904268544E-02 
523	 2.12407688009118E-02 
524	 2.12137342696165E-02 
525	 2.13136232982253E-02 
526	 0.021341089899176 
527	 2.13366469707108E-02 
528	 0.021395731583147 
529	 2.13910837737204E-02 
530	 2.13705360748961E-02 
531	 2.13886457479462E-02 
532	 2.14903356230255E-02 
533	 2.14978438665219E-02 
534	 2.14372825228971E-02 
535	 2.13835794666764E-02 
536	 0.021408052476361 
537	 2.14413472976966E-02 
538	 0.021457111247593 
539	 2.14572278125843E-02 
540	 2.14561872539051E-02 
541	 2.14669168351058E-02 
542	 2.14880466425013E-02 
543	 2.14978816669598E-02 
544	 2.14861584404288E-02 
545	 2.14639118550327E-02 
546	 0.021449735421748 
547	 2.14537639005925E-02 
548	 2.14949529149577E-02 
549	 2.15542634889423E-02 
550	 2.15814231041534E-02 
551	 2.15999363770618E-02 
552	 2.16428879361904E-02 
553	 2.17156715168188E-02 
554	 2.17486786892824E-02 
555	 2.17826091675732E-02 
556	 2.18265673685003E-02 
557	 2.18768746032255E-02 
558	 2.19478703949835E-02 
559	 2.20244586408367E-02 
560	 2.20872759742295E-02 
561	 2.21158552313238E-02 
562	 2.20994071037326E-02 
563	 2.20771329346052E-02 
564	 2.20740562022704E-02 
565	 2.19963741718364E-02 
566	 0.021976240893953 
567	 2.19952016536543E-02 
568	 2.19321414076332E-02 
569	 2.19381960216317E-02 
570	 2.19761204269651E-02 
571	 2.20081066764136E-02 
572	 2.20609265625684E-02 
573	 2.21148724687034E-02 
574	 2.21494510342138E-02 
575	 2.21490563362842E-02 
576	 2.21317087989034E-02 
577	 2.20735056744849E-02 
578	 2.20054762713033E-02 
579	 2.20194277599781E-02 
580	 2.20035315397173E-02 
581	 2.19976291596144E-02 
582	 2.20425654364871E-02 
583	 2.20738949253781E-02 
584	 2.20942666716182E-02 
585	 2.21071710106829E-02 
586	 2.21185570786964E-02 
587	 2.21364614619435E-02 
588	 2.21605464487219E-02 
589	 2.21947211850023E-02 
590	 2.22558903983428E-02 
591	 2.22532776257747E-02 
592	 2.22368833929775E-02 
593	 2.22718930284926E-02 
594	 2.22802124323622E-02 
595	 2.22791988362262E-02 
596	 2.22732809810255E-02 
597	 2.22556324860844E-02 
598	 2.22744350412505E-02 
599	 2.23032015004034E-02 
600	 2.23108694899972E-02 
601	 2.22810842093454E-02 
602	 2.23106553698774E-02 
603	 2.23558833192159E-02 
604	 2.23346720134396E-02 
605	 2.23701332460808E-02 
606	 0.022420485667477 
607	 2.24562164604908E-02 
608	 2.24805666131733E-02 
609	 2.24882327884167E-02 
610	 2.24884146906304E-02 
611	 2.24978349983561E-02 
612	 2.25519709139093E-02 
613	 2.25608083583804E-02 
614	 2.25395691087001E-02 
615	 2.25644955790358E-02 
616	 2.25645326322223E-02 
617	 2.25818066789883E-02 
618	 2.26275390309721E-02 
619	 2.26326463125929E-02 
620	 2.26358234673456E-02 
621	 2.26503949833695E-02 
622	 2.26729170035314E-02 
623	 2.26561870832621E-02 
624	 2.26565458582874E-02 
625	 2.26847414746136E-02 
626	 0.022705205393255 
627	 2.27225431592136E-02 
628	 2.27268265399628E-02 
629	 2.27216881482126E-02 
630	 2.27518304476592E-02 
631	 2.27601758079657E-02 
632	 2.27681051847395E-02 
633	 2.28168512811149E-02 
634	 2.28258156818167E-02 
635	 2.28176202992835E-02 
636	 2.28199082939144E-02 
637	 2.28542628062103E-02 
638	 2.28698308149998E-02 
639	 2.28713688336417E-02 
640	 2.28756584253954E-02 
641	 2.28897100078732E-02 
642	 2.28940714853301E-02 
643	 2.28960112651603E-02 
644	 2.29156345844226E-02 
645	 2.29237292057556E-02 
646	 0.022933172415397 
647	 0.022954474639839 
648	 2.29867973211549E-02 
649	 2.30071993049269E-02 
650	 2.30182903058255E-02 
651	 2.30299767372627E-02 
652	 2.30473394482784E-02 
653	 2.30301003496366E-02 
654	 2.30034844472444E-02 
655	 2.30388243424915E-02 
656	 2.30625127536386E-02 
657	 2.30860556828755E-02 
658	 2.31175257380441E-02 
659	 2.31279177677409E-02 
660	 2.31341753842914E-02 
661	 2.31487703702488E-02 
662	 2.31764673451678E-02 
663	 2.31903871809818E-02 
664	 2.31916939488919E-02 
665	 2.31909430098407E-02 
666	 2.32052417750236E-02 
667	 2.32245676683491E-02 
668	 2.32431548393743E-02 
669	 2.32586985597199E-02 
670	 2.32772309637187E-02 
671	 2.32819149873675E-02 
672	 2.32798790027519E-02 
673	 2.32902782441761E-02 
674	 2.33325239146665E-02 
675	 2.33507491637641E-02 
676	 2.33337688375526E-02 
677	 2.33309142675312E-02 
678	 2.33383502431231E-02 
679	 2.33677881558913E-02 
680	 2.34158383993562E-02 
681	 2.34297950921833E-02 
682	 0.023432190566003 
683	 2.34319746739811E-02 
684	 2.34328326563271E-02 
685	 0.023457066270018 
686	 2.34734003687842E-02 
687	 0.023476522190787 
688	 2.35052012792597E-02 
689	 0.023521972271653 
690	 2.35134701864219E-02 
691	 2.34908802889745E-02 
692	 2.35257815733485E-02 
693	 2.35453484326932E-02 
694	 2.35514340773915E-02 
695	 2.35870372059697E-02 
696	 2.35932570787741E-02 
697	 2.36007339279072E-02 
698	 2.36219351880441E-02 
699	 2.36241083782346E-02 
700	 2.36234865215421E-02 
701	 2.36332981084019E-02 
702	 2.36590663900723E-02 
703	 2.36820219276238E-02 
704	 2.36979268642376E-02 
705	 2.37098167327114E-02 
706	 2.37254701499948E-02 
707	 2.37460368150022E-02 
708	 2.37630188635717E-02 
709	 2.37717955355298E-02 
710	 2.37748217590202E-02 
711	 2.38063080986014E-02 
712	 2.38396927540349E-02 
713	 2.38459678536331E-02 
714	 0.023867181839156 
715	 2.38820299641739E-02 
716	 0.023885892672716 
717	 2.38902084237403E-02 
718	 2.39349489536891E-02 
719	 2.39613981476568E-02 
720	 2.39495269171875E-02 
721	 2.39670960948242E-02 
722	 2.39794441662039E-02 
723	 2.39961593436968E-02 
724	 2.40288507895489E-02 
725	 2.40494006840599E-02 
726	 2.40556972457611E-02 
727	 2.40584387758688E-02 
728	 2.40752208600903E-02 
729	 2.40982720486531E-02 
730	 2.41204539891939E-02 
731	 2.41380475931755E-02 
732	 2.41529513528399E-02 
733	 2.41655584669694E-02 
734	 2.41813794116707E-02 
735	 2.42038501400029E-02 
736	 2.42225575898552E-02 
737	 2.42534064911397E-02 
738	 2.42806640773651E-02 
739	 2.42769280817201E-02 
740	 2.43160666975332E-02 
741	 2.43428376709098E-02 
742	 2.43385960664187E-02 
743	 2.43622701941552E-02 
744	 2.43797212059755E-02 
745	 2.43973875428867E-02 
746	 2.44243759732184E-02 
747	 2.44436321830966E-02 
748	 2.44640043938876E-02 
749	 2.44807679596763E-02 
750	 2.44857819998358E-02 
751	 2.45087413063297E-02 
752	 2.45329439851808E-02 
753	 0.024548335924109 
754	 2.45599789052871E-02 
755	 2.45763852820151E-02 
756	 2.45919903690198E-02 
757	 2.46024409172701E-02 
758	 2.46165162844498E-02 
759	 2.46387859609852E-02 
760	 2.46538106443292E-02 
761	 2.46473122741483E-02 
762	 2.46772733422642E-02 
763	 2.46990172932202E-02 
764	 2.47031763642133E-02 
765	 2.47250347107445E-02 
766	 2.47516480519706E-02 
767	 2.47736410069932E-02 
768	 2.47880320856354E-02 
769	 2.48060534299074E-02 
770	 2.48145918125001E-02 
771	 2.48262066943754E-02 
772	 2.48545714554369E-02 
773	 0.024872513516503 
774	 2.48784085061921E-02 
775	 2.48803201743641E-02 
776	 2.48933907889557E-02 
777	 2.49297508459953E-02 
778	 2.49674028247906E-02 
779	 2.49833488479619E-02 
780	 2.49606640430937E-02 
781	 2.49718071454715E-02 
782	 2.50043050243443E-02 
783	 2.50306089323188E-02 
784	 2.50699086630828E-02 
785	 2.50955587606044E-02 
786	 2.51093028877192E-02 
787	 2.51276540884805E-02 
788	 2.51414156112036E-02 
789	 2.51450608049841E-02 
790	 2.51488843027744E-02 
791	 2.51791653591801E-02 
792	 2.52019819714834E-02 
793	 2.52260463189399E-02 
794	 2.52556971524898E-02 
795	 2.52612143032054E-02 
796	 2.52720914268061E-02 
797	 2.52961725885805E-02 
798	 2.53245574712735E-02 
799	 2.53109329684026E-02 
800	 2.53104571067022E-02 
801	 2.53391445660367E-02 
802	 2.53755306184511E-02 
803	 2.53890278728563E-02 
804	 2.53899886810265E-02 
805	 2.53980168365538E-02 
806	 0.02543564170768 
807	 2.54637710918115E-02 
808	 2.54717719602968E-02 
809	 0.025467332256651 
810	 2.54851371653245E-02 
811	 2.55148898456802E-02 
812	 2.55341477444604E-02 
813	 2.55278160972081E-02 
814	 2.55544969171574E-02 
815	 2.55830312581184E-02 
816	 2.56006910973912E-02 
817	 2.56168989937405E-02 
818	 2.56407869223484E-02 
819	 2.56578349859208E-02 
820	 0.025667486359749 
821	 2.56979171545004E-02 
822	 2.56997451778352E-02 
823	 2.57066825837145E-02 
824	 2.57488820088558E-02 
825	 2.57765310293555E-02 
826	 2.57911868356578E-02 
827	 2.57909439192644E-02 
828	 2.57842275093644E-02 
829	 2.58336392722984E-02 
830	 2.58920168578201E-02 
831	 0.025922953923556 
832	 2.59145582229286E-02 
833	 2.59349055001798E-02 
834	 2.59563658573142E-02 
835	 2.59686629891231E-02 
836	 2.60101127700203E-02 
837	 2.60407775312859E-02 
838	 2.60554092347387E-02 
839	 2.60660401882702E-02 
840	 2.61088122711338E-02 
841	 2.61290288323095E-02 
842	 2.61307629593902E-02 
843	 2.61395466047695E-02 
844	 2.61526812470168E-02 
845	 2.61667141724726E-02 
846	 2.61894177329341E-02 
847	 2.62321193829424E-02 
848	 2.62680669586411E-02 
849	 2.62701399196381E-02 
850	 2.62491974661274E-02 
851	 0.026260214484668 
852	 0.026301833024419 
853	 0.026352148996764 
854	 2.63845489874991E-02 
855	 2.63729224392907E-02 
856	 2.63778549011829E-02 
857	 2.64034088952037E-02 
858	 2.64323858605911E-02 
859	 2.64478656790092E-02 
860	 2.64504439832698E-02 
861	 0.026464285477545 
862	 2.65111577970077E-02 
863	 2.65256625296296E-02 
864	 2.65524576954551E-02 
865	 2.65808385925571E-02 
866	 2.65574849312205E-02 
867	 2.65615333981937E-02 
868	 2.65954155925619E-02 
869	 2.66404673124383E-02 
870	 2.66664146594897E-02 
871	 2.66679327512364E-02 
872	 2.66557891224794E-02 
873	 2.66542710943814E-02 
874	 2.67069862720072E-02 
875	 2.67635841596014E-02 
876	 2.67869736096992E-02 
877	 2.67725300198845E-02 
878	 2.68031080033496E-02 
879	 2.68554043527397E-02 
880	 2.68829540035011E-02 
881	 2.68531086456749E-02 
882	 0.026862642785372 
883	 2.68828146364195E-02 
884	 2.69020476635919E-02 
885	 2.69293669457275E-02 
886	 2.69914198704408E-02 
887	 2.70161657025942E-02 
888	 2.69977927005952E-02 
889	 2.70146265792713E-02 
890	 2.70376738927161E-02 
891	 2.70601805198817E-02 
892	 2.70847083471992E-02 
893	 2.71244373835419E-02 
894	 2.71301593625381E-02 
895	 2.71442004202482E-02 
896	 2.71947616686245E-02 
897	 2.72111376077707E-02 
898	 2.72394728588218E-02 
899	 2.72480950217075E-02 
900	 2.72183638440911E-02 
901	 2.72816248334282E-02 
902	 2.72996575701402E-02 
903	 2.72976042149502E-02 
904	 0.027353652363861 
905	 2.73423567124306E-02 
906	 2.73432152189759E-02 
907	 0.02738129009224 
908	 2.74272070908312E-02 
909	 2.74305690202572E-02 
910	 2.74291464869829E-02 
911	 2.74369819608192E-02 
912	 2.74379148262385E-02 
913	 0.027476000737591 
914	 2.75098673220382E-02 
915	 2.75144582074829E-02 
916	 2.75074318796118E-02 
917	 2.75410894997089E-02 
918	 2.75921125471177E-02 
919	 2.76286907296636E-02 
920	 2.76379773946887E-02 
921	 2.76103605327855E-02 
922	 2.76088180959314E-02 
923	 2.76668552826916E-02 
924	 2.76987325407611E-02 
925	 2.77348824512675E-02 
926	 2.77499474670895E-02 
927	 2.77251341248249E-02 
928	 2.77079386324856E-02 
929	 2.77744516669863E-02 
930	 2.78354136830183E-02 
931	 2.77925204744616E-02 
932	 2.78371229537862E-02 
933	 2.78303290581032E-02 
934	 0.027834261862166 
935	 2.79599791725889E-02 
936	 2.79394225422097E-02 
937	 0.027934073573066 
938	 2.79616265400936E-02 
939	 2.79479173298239E-02 
940	 2.80391526880965E-02 
941	 2.80955687168446E-02 
942	 2.80795382883369E-02 
943	 2.80713424801068E-02 
944	 2.81681538236769E-02 
945	 2.81914906730451E-02 
946	 0.028153779773943 
947	 0.028265827510888 
948	 2.82519542733166E-02 
949	 2.82187334706289E-02 
950	 2.82426911055606E-02 
951	 2.82859519400286E-02 
952	 2.82901393073953E-02 
953	 2.83290401087157E-02 
954	 2.84049025456713E-02 
955	 2.83891316237359E-02 
956	 2.83950929499277E-02 
957	 2.84448079599528E-02 
958	 2.85080174509858E-02 
959	 0.0285052167217 
960	 2.84676185143345E-02 
961	 2.84589026490923E-02 
962	 2.85136920298018E-02 
963	 2.85954896555367E-02 
964	 0.028558023949107 
965	 2.85018260953037E-02 
966	 2.85352921379408E-02 
967	 2.86239903271225E-02 
968	 0.028666348996136 
969	 2.86895317126163E-02 
970	 2.87261062297625E-02 
971	 2.87180302091178E-02 
972	 0.028665249680846 
973	 2.86379243884072E-02 
974	 2.86833609907974E-02 
975	 2.87251511610011E-02 
976	 2.87804734184555E-02 
977	 2.88220434890474E-02 
978	 2.88212856548822E-02 
979	 2.87679747863544E-02 
980	 2.88775868043221E-02 
981	 2.89541540274131E-02 
982	 2.88232876255335E-02 
983	 2.88428565510446E-02 
984	 2.89482896517054E-02 
985	 2.89979612100519E-02 
986	 2.89325331103384E-02 
987	 2.90781272504858E-02 
988	 0.029055530435715 
989	 2.90196069581808E-02 
990	 2.91402296180582E-02 
991	 2.89423735386409E-02 
992	 2.88525599976839E-02 
993	 2.89127804214092E-02 
994	 2.90231009538009E-02 
995	 2.91540288285164E-02 
996	 2.92191531940732E-02 
997	 2.91840126472713E-02 
998	 2.91131948827435E-02 
999	 2.92950375690428E-02 
1000	 2.94358174651379E-02 
1001	 0.03089950891797 
1002	 3.09113924403881E-02 
1003	 3.09312909464016E-02 
1004	 3.09606112694705E-02 
1005	 3.09871992052077E-02 
1006	 0.031018159394023 
1007	 3.10693565824959E-02 
1008	 3.11119899388494E-02 
1009	 3.11619310224677E-02 
1010	 3.11843378030098E-02 
1011	 3.11785639938041E-02 
1012	 0.031205807230001 
1013	 3.12301050254079E-02 
1014	 3.12566495801776E-02 
1015	 3.13091690450086E-02 
1016	 3.13556378792213E-02 
1017	 3.13942724657972E-02 
1018	 3.14151345052348E-02 
1019	 3.14406022930364E-02 
1020	 3.14776455791316E-02 
1021	 3.14978433126539E-02 
1022	 3.15039903997507E-02 
1023	 3.15116755977823E-02 
1024	 3.14938603095262E-02 
1025	 3.15161527067101E-02 
1026	 3.15674910344513E-02 
1027	 0.031592455422608 
1028	 3.16282280436343E-02 
1029	 3.16726048743957E-02 
1030	 3.16566605549063E-02 
1031	 3.16317913983234E-02 
1032	 3.16465582736104E-02 
1033	 3.16466482305247E-02 
1034	 3.16396590954379E-02 
1035	 0.031649254856443 
1036	 3.16745194088123E-02 
1037	 3.17052528905297E-02 
1038	 3.17369046619782E-02 
1039	 3.18025045501994E-02 
1040	 3.18410847915307E-02 
1041	 0.03185777736261 
1042	 3.18733427802097E-02 
1043	 3.18834726148185E-02 
1044	 3.18907206663298E-02 
1045	 3.19055876157906E-02 
1046	 3.19531358492028E-02 
1047	 3.19870002697383E-02 
1048	 3.20242786520521E-02 
1049	 3.20610760873629E-02 
1050	 3.20663382857591E-02 
1051	 3.21021786857213E-02 
1052	 3.21400065750507E-02 
1053	 0.032170470374885 
1054	 3.22077270801647E-02 
1055	 3.22347263250536E-02 
1056	 3.22344843248156E-02 
1057	 3.22604424974465E-02 
1058	 3.22988347093371E-02 
1059	 3.23265591988352E-02 
1060	 3.23543326403004E-02 
1061	 3.24022220555252E-02 
1062	 3.24285082985637E-02 
1063	 3.24537629610797E-02 
1064	 3.25125801591035E-02 
1065	 3.25500439134448E-02 
1066	 3.25618969305337E-02 
1067	 3.26031706005884E-02 
1068	 0.032629682691497 
1069	 3.26532782777548E-02 
1070	 3.26942048245913E-02 
1071	 3.27625394778845E-02 
1072	 3.28091041253228E-02 
1073	 3.28520017872298E-02 
1074	 3.28909222481946E-02 
1075	 3.29265771413308E-02 
1076	 3.29613046554651E-02 
1077	 3.29905301051031E-02 
1078	 3.30565644070822E-02 
1079	 3.31252513609504E-02 
1080	 3.31491886513513E-02 
1081	 3.31656732303432E-02 
1082	 3.31799896514015E-02 
1083	 3.32117252206417E-02 
1084	 3.32658116740065E-02 
1085	 3.33041903325755E-02 
1086	 3.33488960471052E-02 
1087	 3.33993010314996E-02 
1088	 3.34298048196149E-02 
1089	 3.34366373125855E-02 
1090	 3.34781127613037E-02 
1091	 3.35243982919076E-02 
1092	 3.35447546027589E-02 
1093	 3.35781686230354E-02 
1094	 3.36137104133937E-02 
1095	 3.36281390866877E-02 
1096	 3.36531813871415E-02 
1097	 3.37005622910384E-02 
1098	 3.37364205729265E-02 
1099	 3.37602334878518E-02 
1100	 3.37884885922874E-02 
1101	 3.38065936627903E-02 
1102	 0.033831501026954 
1103	 3.38546686133031E-02 
1104	 3.38848491480443E-02 
1105	 3.38959675158913E-02 
1106	 0.033905278336527 
1107	 3.39224088098215E-02 
1108	 3.39462832509024E-02 
1109	 0.03397737362896 
1110	 3.40187760280084E-02 
1111	 3.40425805495322E-02 
1112	 3.40463546943212E-02 
1113	 0.034072723660022 
1114	 3.41014152356793E-02 
1115	 3.41280591407722E-02 
1116	 3.41634890567738E-02 
1117	 3.41704653084931E-02 
1118	 3.41832505465609E-02 
1119	 3.41819772579739E-02 
1120	 3.41994762201475E-02 
1121	 3.42225399529472E-02 
1122	 3.42582642970988E-02 
1123	 3.42878309033571E-02 
1124	 0.034298675960593 
1125	 3.43031128516532E-02 
1126	 3.43118089254255E-02 
1127	 3.43303934017604E-02 
1128	 3.43480366569756E-02 
1129	 3.43687732231664E-02 
1130	 0.034389385271756 
1131	 0.034408771895916 
1132	 3.44182817363944E-02 
1133	 0.034408153351839 
1134	 3.44048915540336E-02 
1135	 3.44066368749087E-02 
1136	 0.034398882393586 
1137	 0.034405108585047 
1138	 3.44290151054172E-02 
1139	 3.44418426691112E-02 
1140	 0.034448885921501 
1141	 3.44666245880576E-02 
1142	 3.44828328209479E-02 
1143	 3.44943532039357E-02 
1144	 3.45039855127181E-02 
1145	 0.034504475770808 
1146	 3.45034550432065E-02 
1147	 3.45110684635512E-02 
1148	 0.03452567297177 
1149	 3.45458372094583E-02 
1150	 3.45574209296793E-02 
1151	 3.45601859577126E-02 
1152	 3.45538256890774E-02 
1153	 3.45203250810372E-02 
1154	 3.45087806050694E-02 
1155	 3.45012702654378E-02 
1156	 3.45032113909637E-02 
1157	 0.034525488369704 
1158	 3.45357528332065E-02 
1159	 3.45527424841763E-02 
1160	 3.45455623545686E-02 
1161	 3.45270449582988E-02 
1162	 3.45211664000893E-02 
1163	 3.45092506668476E-02 
1164	 3.44960198252764E-02 
1165	 3.44921359691672E-02 
1166	 3.44787382458587E-02 
1167	 0.034474857877418 
1168	 3.44788791662999E-02 
1169	 3.44879954543261E-02 
1170	 3.45159501339216E-02 
1171	 3.45267167203263E-02 
1172	 3.45335728630021E-02 
1173	 3.45370645490913E-02 
1174	 3.45256951512805E-02 
1175	 3.45263249213579E-02 
1176	 3.45361584707209E-02 
1177	 3.45419865357452E-02 
1178	 3.45492621501256E-02 
1179	 3.45540750156619E-02 
1180	 3.45648191128467E-02 
1181	 3.45683388234915E-02 
1182	 3.45799967268743E-02 
1183	 3.45938716029458E-02 
1184	 3.46047316064245E-02 
1185	 0.03463441489306 
1186	 3.46543341624902E-02 
1187	 3.46749131574732E-02 
1188	 3.46956457114837E-02 
1189	 3.47168914360877E-02 
1190	 3.47300470221491E-02 
1191	 3.47372232065246E-02 
1192	 3.47556224425336E-02 
1193	 3.47656184766253E-02 
1194	 0.034791223682144 
1195	 3.48460147411834E-02 
1196	 3.48754641775004E-02 
1197	 3.48961040008466E-02 
1198	 3.49195907090487E-02 
1199	 3.49348715189877E-02 
1200	 3.49559821199736E-02 
1201	 3.49855525402748E-02 
1202	 0.035015625190648 
1203	 0.035039823248656 
1204	 3.50609717656861E-02 
1205	 0.035091842202711 
1206	 3.51283905198231E-02 
1207	 0.035167659031226 
1208	 3.52144556166801E-02 
1209	 3.52554148533946E-02 
1210	 3.53001407378107E-02 
1211	 3.53388787294369E-02 
1212	 3.53581415782333E-02 
1213	 3.54089241712051E-02 
1214	 3.54754649701079E-02 
1215	 3.55384969882956E-02 
1216	 3.56321878858316E-02 
1217	 3.56993332416101E-02 
1218	 3.57467103160566E-02 
1219	 3.57973398585378E-02 
1220	 3.58460008833047E-02 
1221	 3.58917617364455E-02 
1222	 3.59321183341654E-02 
1223	 3.59786622153974E-02 
1224	 3.60310574035479E-02 
1225	 3.60822298363462E-02 
1226	 3.61354404787847E-02 
1227	 3.62030507848563E-02 
1228	 3.62583445791475E-02 
1229	 3.63050187678218E-02 
1230	 3.63539607741004E-02 
1231	 3.64024042639959E-02 
1232	 3.64501986594177E-02 
1233	 3.64979551724941E-02 
1234	 3.65409389148856E-02 
1235	 3.65815218576302E-02 
1236	 0.03662116808218 
1237	 3.66514848376839E-02 
1238	 0.036691095830767 
1239	 0.036739754733007 
1240	 3.67784332427225E-02 
1241	 3.68382727401313E-02 
1242	 3.68909835325706E-02 
1243	 3.69387426640559E-02 
1244	 3.69913449393808E-02 
1245	 3.70299848732325E-02 
1246	 3.70526461645994E-02 
1247	 3.70870238446273E-02 
1248	 3.71194431644772E-02 
1249	 3.71543257795779E-02 
1250	 3.72009573590054E-02 
1251	 3.72291532478714E-02 
1252	 3.72413525529707E-02 
1253	 3.72679732726352E-02 
1254	 3.72915119049593E-02 
1255	 3.73184294760052E-02 
1256	 3.73658940969358E-02 
1257	 3.73939993149014E-02 
1258	 3.74056519558887E-02 
1259	 0.037422880727969 
1260	 3.74266758357345E-02 
1261	 3.74446571588078E-02 
1262	 3.74720672185622E-02 
1263	 3.75064761649208E-02 
1264	 3.75321840197876E-02 
1265	 3.75632653331037E-02 
1266	 3.75849737470863E-02 
1267	 0.037588742294853 
1268	 3.76203103228217E-02 
1269	 3.76657556989338E-02 
1270	 3.77024297539408E-02 
1271	 3.77459305416811E-02 
1272	 0.037792705624453 
1273	 3.78320019651561E-02 
1274	 3.78823048749752E-02 
1275	 3.79545328387498E-02 
1276	 3.80085934655585E-02 
1277	 3.80540048030689E-02 
1278	 3.81019688828111E-02 
1279	 3.81428401851379E-02 
1280	 3.81885506453665E-02 
1281	 3.82378521417195E-02 
1282	 3.82866652352802E-02 
1283	 3.83387823787104E-02 
1284	 3.83859148843113E-02 
1285	 3.84309738508049E-02 
1286	 3.84753909662937E-02 
1287	 3.85168496548523E-02 
1288	 3.85531894438184E-02 
1289	 3.85929532277694E-02 
1290	 3.86284909415692E-02 
1291	 3.86755320497955E-02 
1292	 3.87344163482084E-02 
1293	 3.87766718190286E-02 
1294	 0.03881516733813 
1295	 3.88591642267032E-02 
1296	 3.88929650023026E-02 
1297	 3.89345371631132E-02 
1298	 3.89968859942054E-02 
1299	 3.90370963250405E-02 
1300	 3.90622318036573E-02 
1301	 3.90922536832803E-02 
1302	 3.91103897824272E-02 
1303	 3.91388747054525E-02 
1304	 3.91717961693418E-02 
1305	 3.92087610648264E-02 
1306	 3.92598733249651E-02 
1307	 3.92985132922166E-02 
1308	 3.93331170683778E-02 
1309	 3.93695549250099E-02 
1310	 3.93945481094074E-02 
1311	 3.94039464020412E-02 
1312	 3.94296743078331E-02 
1313	 3.94576009645507E-02 
1314	 3.94851269887177E-02 
1315	 3.95173897256673E-02 
1316	 0.039549749438088 
1317	 3.95831418043702E-02 
1318	 3.96117415882261E-02 
1319	 3.96476501275854E-02 
1320	 3.96681727092388E-02 
1321	 3.96746914527376E-02 
1322	 3.96857602748564E-02 
1323	 3.96876843699411E-02 
1324	 3.96984228340574E-02 
1325	 3.97190860771531E-02 
1326	 3.97295197365354E-02 
1327	 3.97387343265796E-02 
1328	 3.97457320658239E-02 
1329	 3.97411235654048E-02 
1330	 3.97441841119498E-02 
1331	 3.97594538458024E-02 
1332	 3.97618001616218E-02 
1333	 3.97546054513307E-02 
1334	 3.97532909292802E-02 
1335	 3.97527681963509E-02 
1336	 0.039746039701925 
1337	 3.97440832221068E-02 
1338	 0.03975145898408 
1339	 3.97495150140183E-02 
1340	 0.039739653480944 
1341	 3.97359328094974E-02 
1342	 3.97377116790901E-02 
1343	 3.97291153186434E-02 
1344	 3.97129056815162E-02 
1345	 0.03970613687385 
1346	 3.97017213264869E-02 
1347	 3.96904986435398E-02 
1348	 0.039678240863234 
1349	 3.96719256512935E-02 
1350	 3.96703127787055E-02 
1351	 3.96526085288513E-02 
1352	 3.96282221869064E-02 
1353	 3.96130590993337E-02 
1354	 3.95812485482078E-02 
1355	 3.95641811180224E-02 
1356	 0.03957356356863 
1357	 3.95690997571681E-02 
1358	 3.95519208237868E-02 
1359	 3.95461123952599E-02 
1360	 3.95435905363947E-02 
1361	 3.95442318534454E-02 
1362	 0.039547886538697 
1363	 3.95485847484846E-02 
1364	 3.95407730033956E-02 
1365	 3.95242170234075E-02 
1366	 0.039508997085134 
1367	 3.94900933899761E-02 
1368	 3.94711475732496E-02 
1369	 3.94476357559538E-02 
1370	 3.94309222241556E-02 
1371	 3.94199656717968E-02 
1372	 3.93999980200596E-02 
1373	 3.93791472549622E-02 
1374	 0.039356597630101 
1375	 0.03931976461253 
1376	 3.93013165715648E-02 
1377	 3.92977403715386E-02 
1378	 3.92839253157456E-02 
1379	 0.039277591013151 
1380	 3.92604016040908E-02 
1381	 3.92297057903131E-02 
1382	 0.03920464241921 
1383	 3.91784558768718E-02 
1384	 3.91528934175472E-02 
1385	 3.91281298457559E-02 
1386	 3.91040011448407E-02 
1387	 3.90809823543758E-02 
1388	 3.90563766834459E-02 
1389	 3.90300483521487E-02 
1390	 3.90054478804506E-02 
1391	 3.89742961027941E-02 
1392	 3.89560049194767E-02 
1393	 3.89355642504571E-02 
1394	 3.89225021911977E-02 
1395	 3.89099250711846E-02 
1396	 3.89035102659197E-02 
1397	 0.038889639330515 
1398	 3.88829753881822E-02 
1399	 3.88517000575199E-02 
1400	 3.88079820983409E-02 
1401	 0.038760871532783 
1402	 3.86980537802314E-02 
1403	 3.86383980284651E-02 
1404	 0.038576376997981 
1405	 3.85136080866895E-02 
1406	 3.84506498548154E-02 
1407	 3.83778201309453E-02 
1408	 3.82988359285851E-02 
1409	 3.82220623310273E-02 
1410	 3.81402846335951E-02 
1411	 3.80538905033765E-02 
1412	 3.79701785178696E-02 
1413	 0.037880797198595 
1414	 3.77815577446474E-02 
1415	 3.76826772190449E-02 
1416	 3.75740331658257E-02 
1417	 3.74792070300558E-02 
1418	 3.73902245616822E-02 
1419	 3.72998166169012E-02 
1420	 3.72158644453704E-02 
1421	 3.71365512268838E-02 
1422	 3.70552469411337E-02 
1423	 3.69778746951674E-02 
1424	 3.69096989687939E-02 
1425	 3.68402711000902E-02 
1426	 3.67792149756094E-02 
1427	 3.67197814375962E-02 
1428	 3.66606286169517E-02 
1429	 3.66067929590918E-02 
1430	 3.65420551890708E-02 
1431	 3.64718031589393E-02 
1432	 3.63937945308811E-02 
1433	 3.63124544719087E-02 
1434	 3.62212574133731E-02 
1435	 3.61200350238562E-02 
1436	 3.60143318792042E-02 
1437	 3.59008596721054E-02 
1438	 3.57855408685276E-02 
1439	 3.56529135182381E-02 
1440	 3.55460190945256E-02 
1441	 3.54367859472635E-02 
1442	 3.53552301493686E-02 
1443	 0.035293030918347 
1444	 3.52466554307428E-02 
1445	 3.52056822826267E-02 
1446	 3.52067950123379E-02 
1447	 3.52296713635052E-02 
1448	 3.52879630214097E-02 
1449	 3.53934828286025E-02 
1450	 3.55063037928428E-02 
1451	 3.56585966289845E-02 
1452	 3.57987350281326E-02 
1453	 0.035952197861057 
1454	 3.60987357534479E-02 
1455	 3.62497434323009E-02 
1456	 3.63852826731264E-02 
1457	 3.65213250700959E-02 
1458	 3.66412713534022E-02 
1459	 3.67347428850711E-02 
1460	 3.68356887791612E-02 
1461	 3.69324207423619E-02 
1462	 0.037025189113304 
1463	 3.71247313229013E-02 
1464	 3.72107556024723E-02 
1465	 3.72818670243002E-02 
1466	 3.73542300036282E-02 
1467	 3.74226545562712E-02 
1468	 3.74833171977319E-02 
1469	 3.75504745098797E-02 
1470	 3.76121251820766E-02 
1471	 3.76703994636277E-02 
1472	 3.77251456399962E-02 
1473	 3.77758147574061E-02 
1474	 3.78225501452936E-02 
1475	 3.78667534384727E-02 
1476	 3.79034139802227E-02 
1477	 3.79482725924944E-02 
1478	 3.79960798125761E-02 
1479	 3.80381767457741E-02 
1480	 3.80866811464725E-02 
1481	 3.81194206889301E-02 
1482	 3.81397180374105E-02 
1483	 3.81629027078738E-02 
1484	 3.81785391748526E-02 
1485	 3.81981519112847E-02 
1486	 0.038218815530678 
1487	 3.82381964461253E-02 
1488	 3.82449898784629E-02 
1489	 3.82786984554323E-02 
1490	 3.83247397997499E-02 
1491	 3.83743263926714E-02 
1492	 3.84373507091225E-02 
1493	 3.85101563939825E-02 
1494	 3.85856604089633E-02 
1495	 3.86714610608614E-02 
1496	 3.87775142675487E-02 
1497	 3.88811914188631E-02 
1498	 3.89854262103933E-02 
1499	 3.90969547097611E-02 
1500	 3.92260131081238E-02 
1501	 3.93393919328183E-02 
1502	 3.94560335110129E-02 
1503	 3.95574906307187E-02 
1504	 3.96367539282272E-02 
1505	 3.97256830097735E-02 
1506	 3.98125848013663E-02 
1507	 3.98973397473453E-02 
1508	 0.039996810371819 
1509	 4.00725935592925E-02 
1510	 4.01269814378041E-02 
1511	 0.040186043893963 
1512	 4.02277230301967E-02 
1513	 4.02791286307614E-02 
1514	 4.03446020267521E-02 
1515	 4.03994659223811E-02 
1516	 4.04562493519751E-02 
1517	 4.05028594917056E-02 
1518	 0.040531930925532 
1519	 4.05676290096471E-02 
1520	 0.040601936282213 
1521	 4.06359808219829E-02 
1522	 4.06631101042451E-02 
1523	 0.040697647615298 
1524	 0.040719507768723 
1525	 4.07285526982028E-02 
1526	 4.07483386067281E-02 
1527	 4.07681324151029E-02 
1528	 4.07915915012975E-02 
1529	 4.08190887417697E-02 
1530	 4.08456895544963E-02 
1531	 4.08757231993525E-02 
1532	 4.08990277207004E-02 
1533	 4.09205504692836E-02 
1534	 4.09408857517769E-02 
1535	 4.09515729096664E-02 
1536	 4.09795544440972E-02 
1537	 4.10133449572174E-02 
1538	 4.10516479985163E-02 
1539	 4.10996001537371E-02 
1540	 4.11491896779293E-02 
1541	 4.12009591584514E-02 
1542	 4.12573535230136E-02 
1543	 4.13193739568675E-02 
1544	 4.13852490364952E-02 
1545	 4.14540618779574E-02 
1546	 4.15275590998859E-02 
1547	 4.16057127843447E-02 
1548	 4.16902365641718E-02 
1549	 4.17817428749454E-02 
1550	 4.18714542641513E-02 
1551	 4.19723456449596E-02 
1552	 4.20585122281163E-02 
1553	 4.21364617665133E-02 
1554	 4.22159095825678E-02 
1555	 4.22882987568655E-02 
1556	 4.23649084498184E-02 
1557	 4.24416363106199E-02 
1558	 4.25219700716586E-02 
1559	 4.26085696868148E-02 
1560	 4.26854014416245E-02 
1561	 4.27567337142955E-02 
1562	 4.28355521764045E-02 
1563	 4.29156308221126E-02 
1564	 4.29883265764588E-02 
1565	 4.30654383395563E-02 
1566	 4.31367727224663E-02 
1567	 4.31973765335632E-02 
1568	 0.043258125627477 
1569	 4.33193040308011E-02 
1570	 4.33797587459913E-02 
1571	 4.34318250689555E-02 
1572	 4.34906072615234E-02 
1573	 4.35567069458733E-02 
1574	 4.36180572883008E-02 
1575	 4.36771881172117E-02 
1576	 4.37384638375325E-02 
1577	 4.38001355016571E-02 
1578	 4.38609501050852E-02 
1579	 4.39254766314376E-02 
1580	 0.04398377388998 
1581	 4.40350523775404E-02 
1582	 4.40913869012671E-02 
1583	 4.41470448020027E-02 
1584	 0.044203551140866 
1585	 4.42646210557083E-02 
1586	 4.43220582950676E-02 
1587	 4.43755659374981E-02 
1588	 4.44316624484405E-02 
1589	 4.44906600402826E-02 
1590	 4.45454802771445E-02 
1591	 4.45952703888748E-02 
1592	 4.46516260895122E-02 
1593	 4.47096053463312E-02 
1594	 4.47667288823806E-02 
1595	 4.48306955492641E-02 
1596	 4.48895614704233E-02 
1597	 4.49439451550148E-02 
1598	 4.49975482510124E-02 
1599	 4.50505383503949E-02 
1600	 0.045101125310643 
1601	 4.51413179730596E-02 
1602	 4.51948998769122E-02 
1603	 4.52596409878908E-02 
1604	 4.53165348243198E-02 
1605	 4.53798574088604E-02 
1606	 4.54368604147091E-02 
1607	 0.045475610351546 
1608	 0.045530265924711 
1609	 4.56051879041772E-02 
1610	 4.56592927056294E-02 
1611	 4.57061800811974E-02 
1612	 4.57569507637732E-02 
1613	 4.57967680900778E-02 
1614	 4.58361562018446E-02 
1615	 0.04588058433634 
1616	 4.59246502364754E-02 
1617	 4.59616605864495E-02 
1618	 4.59994716559748E-02 
1619	 4.60436059821725E-02 
1620	 4.60833152386636E-02 
1621	 4.61168277781218E-02 
1622	 4.61528102753135E-02 
1623	 4.61839832374571E-02 
1624	 4.62250360696333E-02 
1625	 4.62772348613357E-02 
1626	 4.63186017861536E-02 
1627	 4.63660933553899E-02 
1628	 4.64046029522578E-02 
1629	 4.64211762012366E-02 
1630	 4.64535570533173E-02 
1631	 4.64952596837211E-02 
1632	 4.65310812365001E-02 
1633	 4.65696919915714E-02 
1634	 4.66101321417744E-02 
1635	 4.66445575933578E-02 
1636	 4.66844803987106E-02 
1637	 4.67386994062896E-02 
1638	 4.67788032623616E-02 
1639	 4.68111568336153E-02 
1640	 4.68462140516075E-02 
1641	 4.68700349505162E-02 
1642	 4.69027797601935E-02 
1643	 4.69445394361708E-02 
1644	 4.69827421048521E-02 
1645	 4.70309420596457E-02 
1646	 4.70639045480567E-02 
1647	 4.70856621852741E-02 
1648	 4.71069984807493E-02 
1649	 4.71188539034655E-02 
1650	 4.71305474688625E-02 
1651	 4.71403988037887E-02 
1652	 4.71538231429446E-02 
1653	 4.71651747384231E-02 
1654	 4.71765125875249E-02 
1655	 4.71913498620585E-02 
1656	 4.72037368550872E-02 
1657	 4.72191046734534E-02 
1658	 4.72227038002195E-02 
1659	 4.72262384934324E-02 
1660	 4.72204094867655E-02 
1661	 4.71970149495863E-02 
1662	 4.71782011900076E-02 
1663	 4.71539327704393E-02 
1664	 4.71309871898176E-02 
1665	 4.71174444280586E-02 
1666	 0.047084610347952 
1667	 4.70472513764108E-02 
1668	 4.69990478332598E-02 
1669	 4.69290571809718E-02 
1670	 4.68635054627318E-02 
1671	 4.68041284322303E-02 
1672	 4.67221353869859E-02 
1673	 4.66224988599822E-02 
1674	 4.65261361326892E-02 
1675	 4.64153803783119E-02 
1676	 4.63123956312028E-02 
1677	 0.046220411492436 
1678	 4.61102530527278E-02 
1679	 4.59903374665458E-02 
1680	 4.58626306873761E-02 
1681	 4.57251571863609E-02 
1682	 4.55884942286082E-02 
1683	 4.54382753761871E-02 
1684	 4.53088008482072E-02 
1685	 4.51860117234606E-02 
1686	 4.50598277115698E-02 
1687	 4.49476937105707E-02 
1688	 4.48244207947646E-02 
1689	 4.46923785662578E-02 
1690	 4.45575211195625E-02 
1691	 4.44218370466849E-02 
1692	 4.42866298386373E-02 
1693	 4.41392044595677E-02 
1694	 4.40161638829682E-02 
1695	 4.39076852884442E-02 
1696	 4.37859614078175E-02 
1697	 4.36709452362078E-02 
1698	 0.043552217601409 
1699	 4.34273429855543E-02 
1700	 0.043303693575974 
1701	 4.31795633660427E-02 
1702	 4.30617520262789E-02 
1703	 4.29442775220587E-02 
1704	 4.28235523753701E-02 
1705	 4.27045827897081E-02 
1706	 4.25809027712472E-02 
1707	 4.24744542900769E-02 
1708	 4.23901879962768E-02 
1709	 4.23212611392702E-02 
1710	 4.22458740395565E-02 
1711	 4.21566411825428E-02 
1712	 4.20638816905099E-02 
1713	 4.19596642486607E-02 
1714	 4.18623683322463E-02 
1715	 4.17850456063978E-02 
1716	 4.17020142690734E-02 
1717	 0.041636607981268 
1718	 0.041592259609323 
1719	 4.15293035394235E-02 
1720	 4.14614380800867E-02 
1721	 4.13983804708633E-02 
1722	 0.041342623086585 
1723	 0.041297305082274 
1724	 4.12558922555965E-02 
1725	 4.12369812347551E-02 
1726	 4.12096764211596E-02 
1727	 4.11738394758815E-02 
1728	 4.11818379553053E-02 
1729	 4.11993651580495E-02 
1730	 4.12306020201275E-02 
1731	 4.12788454490359E-02 
1732	 4.13093417590679E-02 
1733	 4.13469192240178E-02 
1734	 4.13788594426874E-02 
1735	 4.14117780106213E-02 
1736	 4.14499347919737E-02 
1737	 4.14745883002343E-02 
1738	 4.14993526310081E-02 
1739	 4.15199402562943E-02 
1740	 4.15459715712026E-02 
1741	 4.15532764301569E-02 
1742	 4.15501785867091E-02 
1743	 4.15458275600599E-02 
1744	 4.15190987433932E-02 
1745	 4.15070946296056E-02 
1746	 4.14893319623618E-02 
1747	 4.14928440841458E-02 
1748	 4.15146456407567E-02 
1749	 0.041534022860089 
1750	 4.15707176385253E-02 
1751	 4.16077936586998E-02 
1752	 4.16369993004981E-02 
1753	 4.16831400543039E-02 
1754	 4.17290648683625E-02 
1755	 4.17959901554617E-02 
1756	 4.18845210589739E-02 
1757	 0.041972204419957 
1758	 4.20964018037663E-02 
1759	 4.22019729158919E-02 
1760	 4.22967710007784E-02 
1761	 4.24113553139143E-02 
1762	 4.25078709932065E-02 
1763	 4.26405098889656E-02 
1764	 4.27937315840556E-02 
1765	 4.29142258736037E-02 
1766	 0.043056368014358 
1767	 4.31840458456776E-02 
1768	 4.32766584463386E-02 
1769	 4.34053766690548E-02 
1770	 4.35423767035868E-02 
1771	 4.36747599031568E-02 
1772	 4.38151664872352E-02 
1773	 4.39405922104426E-02 
1774	 4.40464299734356E-02 
1775	 4.41302020877131E-02 
1776	 4.42426826335898E-02 
1777	 4.43738070089463E-02 
1778	 4.44887717229959E-02 
1779	 4.46191418935044E-02 
1780	 0.04471412031144 
1781	 4.47868175458621E-02 
1782	 0.04487556748244 
1783	 4.49404399011353E-02 
1784	 4.50276158935884E-02 
1785	 4.51171015192913E-02 
1786	 4.52013883452534E-02 
1787	 4.53049146466624E-02 
1788	 4.53979801379175E-02 
1789	 4.54826027772663E-02 
1790	 4.55784870111947E-02 
1791	 4.56809535819389E-02 
1792	 4.57703396855472E-02 
1793	 4.58438508575441E-02 
1794	 4.59323067120287E-02 
1795	 4.60197525949394E-02 
1796	 4.60895481143385E-02 
1797	 0.046184162713095 
1798	 4.62656629982683E-02 
1799	 4.63356497007423E-02 
1800	 4.63871540156526E-02 
1801	 4.80080422042904E-02 
1802	 4.80676931958214E-02 
1803	 4.81383489363741E-02 
1804	 4.81938987504311E-02 
1805	 0.048258177425342 
1806	 4.83246874454465E-02 
1807	 4.84043426129291E-02 
1808	 0.0484770041547 
1809	 4.85446333281097E-02 
1810	 4.86131631030203E-02 
1811	 4.86927532825154E-02 
1812	 4.87591868122365E-02 
1813	 0.04880872456354 
1814	 4.88721739655338E-02 
1815	 4.89407791316773E-02 
1816	 4.90049014726745E-02 
1817	 4.90752539391324E-02 
1818	 4.91627419325819E-02 
1819	 4.92313402224525E-02 
1820	 4.92902532839014E-02 
1821	 4.93542124531135E-02 
1822	 4.94154270717625E-02 
1823	 4.94708203915451E-02 
1824	 4.95422797600182E-02 
1825	 4.96098225948295E-02 
1826	 4.96687270438555E-02 
1827	 0.049726264677632 
1828	 4.97802225787711E-02 
1829	 4.98220497330505E-02 
1830	 4.98697277854089E-02 
1831	 4.99202896561098E-02 
1832	 4.99704479946085E-02 
1833	 5.00051252930298E-02 
1834	 5.00501833993522E-02 
1835	 0.050085148228195 
1836	 5.01077985097421E-02 
1837	 5.01397522572008E-02 
1838	 5.01701765672573E-02 
1839	 0.050202483841172 
1840	 5.02407979934018E-02 
1841	 5.02793260673095E-02 
1842	 5.03153606088933E-02 
1843	 5.03577888585488E-02 
1844	 5.04204013335273E-02 
1845	 5.04645209806956E-02 
1846	 0.050482423875629 
1847	 5.05074334747302E-02 
1848	 5.05249981077327E-02 
1849	 5.05123749565101E-02 
1850	 5.05206519192312E-02 
1851	 5.05479623255368E-02 
1852	 5.05603977770648E-02 
1853	 5.05508497047733E-02 
1854	 5.05445629313082E-02 
1855	 5.05179212658776E-02 
1856	 5.04898040067804E-02 
1857	 5.04644474520563E-02 
1858	 5.04178914085957E-02 
1859	 5.03797521765618E-02 
1860	 5.03535100579748E-02 
1861	 5.02963799251723E-02 
1862	 5.02231128920761E-02 
1863	 5.01581012701013E-02 
1864	 5.00682910340342E-02 
1865	 4.99748151777536E-02 
1866	 4.98937309908994E-02 
1867	 4.97918223097491E-02 
1868	 4.96797440912906E-02 
1869	 4.95494977703914E-02 
1870	 4.94080562815509E-02 
1871	 4.92530932982811E-02 
1872	 0.049095084546153 
1873	 4.89263755856336E-02 
1874	 4.87515861174638E-02 
1875	 4.85809304813317E-02 
1876	 4.83802436502114E-02 
1877	 4.81658837335852E-02 
1878	 4.79380417663292E-02 
1879	 4.76920933829855E-02 
1880	 4.74525828619545E-02 
1881	 4.71959645211268E-02 
1882	 0.04692998797431 
1883	 4.66556717170337E-02 
1884	 4.63701197554954E-02 
1885	 4.60560293600055E-02 
1886	 0.045748717375895 
1887	 4.54259301968295E-02 
1888	 4.50748852395613E-02 
1889	 4.47456285131293E-02 
1890	 4.44116049793356E-02 
1891	 4.40763627250571E-02 
1892	 4.37494206960243E-02 
1893	 4.34005157420358E-02 
1894	 4.30326114084811E-02 
1895	 4.26601393381183E-02 
1896	 4.22766696454104E-02 
1897	 0.04189402701861 
1898	 4.15375957727417E-02 
1899	 4.11704950679689E-02 
1900	 4.08181479240514E-02 
1901	 4.04616402130122E-02 
1902	 4.00773657615289E-02 
1903	 3.97237344061682E-02 
1904	 3.93658542045288E-02 
1905	 3.90012295671866E-02 
1906	 3.86464944516997E-02 
1907	 0.038326856655469 
1908	 3.79797953392432E-02 
1909	 3.76521897516077E-02 
1910	 3.73390413825198E-02 
1911	 3.69895714343331E-02 
1912	 3.66505736546122E-02 
1913	 3.63107204120078E-02 
1914	 0.035967278234247 
1915	 3.56407604386673E-02 
1916	 3.53358860659651E-02 
1917	 0.035024084169353 
1918	 0.034709941138525 
1919	 3.43927305924416E-02 
1920	 3.40498017595346E-02 
1921	 3.37197565405477E-02 
1922	 3.33864533032007E-02 
1923	 3.30298686074337E-02 
1924	 3.26893028981926E-02 
1925	 3.23469481193423E-02 
1926	 3.20079428318736E-02 
1927	 3.16721741217772E-02 
1928	 3.13346539445055E-02 
1929	 3.09936901434319E-02 
1930	 3.06656752463111E-02 
1931	 3.03316974323423E-02 
1932	 3.00158393958982E-02 
1933	 2.97420269581685E-02 
1934	 2.94755780391494E-02 
1935	 2.92476019157218E-02 
1936	 2.90630023246076E-02 
1937	 2.88882774153518E-02 
1938	 2.87268445192303E-02 
1939	 2.86075402445268E-02 
1940	 0.02851218071262 
1941	 2.84536905839066E-02 
1942	 2.84243955047614E-02 
1943	 2.84347841358565E-02 
1944	 2.84704765720465E-02 
1945	 2.85135783991226E-02 
1946	 0.028607121983862 
1947	 2.87344742518446E-02 
1948	 2.88817672689034E-02 
1949	 2.90686185385483E-02 
1950	 2.92860863332849E-02 
1951	 2.95293478162445E-02 
1952	 2.98149150003144E-02 
1953	 0.030143653235105 
1954	 3.04980672250682E-02 
1955	 3.08855052532428E-02 
1956	 3.12734998746513E-02 
1957	 3.16562869013602E-02 
1958	 3.20508015098238E-02 
1959	 3.24158748818785E-02 
1960	 0.032761780275141 
1961	 3.30646893924449E-02 
1962	 3.33275500963774E-02 
1963	 3.35692662635099E-02 
1964	 3.37742972592299E-02 
1965	 3.39572048996654E-02 
1966	 3.41133838414465E-02 
1967	 3.42665470098332E-02 
1968	 3.43752089825282E-02 
1969	 3.44721666204891E-02 
1970	 3.45710018957738E-02 
1971	 3.46707939954344E-02 
1972	 3.47825279729756E-02 
1973	 3.49055680893674E-02 
1974	 3.50326173572818E-02 
1975	 3.51657575173081E-02 
1976	 3.53074394602641E-02 
1977	 3.54550033399008E-02 
1978	 3.56128318069107E-02 
1979	 3.57803784225074E-02 
1980	 3.59527351752872E-02 
1981	 3.61436262859138E-02 
1982	 3.63420371690251E-02 
1983	 3.65550148948356E-02 
1984	 0.036775804007508 
1985	 0.036995710457453 
1986	 3.72288034395136E-02 
1987	 3.74805163191582E-02 
1988	 3.77241297630498E-02 
1989	 3.80308284960241E-02 
1990	 3.83813702965631E-02 
1991	 3.87397323650693E-02 
1992	 3.91322806340409E-02 
1993	 3.95612912351994E-02 
1994	 3.99611799908913E-02 
1995	 4.03902172198397E-02 
1996	 4.08356653342529E-02 
1997	 4.12802413521079E-02 
1998	 4.17433616315988E-02 
1999	 4.22390890739856E-02 
2000	 4.26952177837357E-02 
2001	 4.31726986533383E-02 
2002	 4.35937222292048E-02 
2003	 4.39685545576279E-02 
2004	 4.43448555068834E-02 
2005	 4.46924635491143E-02 
2006	 4.50329535543758E-02 
2007	 4.53766763505479E-02 
2008	 4.56899992514208E-02 
2009	 0.045969661287349 
2010	 0.046242916217478 
2011	 4.64809369522079E-02 
2012	 4.66910536902775E-02 
2013	 0.04689705270099 
2014	 4.70846346819812E-02 
2015	 4.72668974616676E-02 
2016	 4.74423564342098E-02 
2017	 4.76008242699774E-02 
2018	 4.77500431097616E-02 
2019	 4.78841116310803E-02 
2020	 4.79960280520084E-02 
2021	 4.81010163511286E-02 
2022	 4.82055157055863E-02 
2023	 4.82937077301871E-02 
2024	 4.83873484307123E-02 
2025	 0.048474072380678 
2026	 4.85451774093415E-02 
2027	 0.048609044302154 
2028	 4.86616544032233E-02 
2029	 4.86843291502977E-02 
2030	 4.87282551284125E-02 
2031	 4.87825266830299E-02 
2032	 4.88228221941878E-02 
2033	 4.88598314606932E-02 
2034	 4.88990997741961E-02 
2035	 4.89377018031259E-02 
2036	 4.89602730555634E-02 
2037	 4.89777620278655E-02 
2038	 4.90202959876413E-02 
2039	 4.90500541361408E-02 
2040	 0.049067510583621 
2041	 0.049094516653346 
2042	 4.91253499774371E-02 
2043	 4.91587661171221E-02 
2044	 4.91996337499105E-02 
2045	 4.92331707605579E-02 
2046	 4.92664283411243E-02 
2047	 4.93018668453322E-02 
2048	 4.93338463498084E-02 
2049	 4.93649152619209E-02 
2050	 4.94037357098531E-02 
2051	 4.94301237818547E-02 
2052	 4.94596280352501E-02 
2053	 4.94889443843836E-02 
2054	 4.95175886830962E-02 
2055	 4.95552324070276E-02 
2056	 4.95804135118006E-02 
2057	 4.95916187987352E-02 
2058	 4.96103650176397E-02 
2059	 4.96212374348645E-02 
2060	 4.96447630393519E-02 
2061	 4.96881331049879E-02 
2062	 4.97149372437698E-02 
2063	 0.049729199313217 
2064	 4.97592774921268E-02 
2065	 4.97948028375189E-02 
2066	 4.98193098716238E-02 
2067	 4.98535770555822E-02 
2068	 4.98953282303745E-02 
2069	 4.99254182834285E-02 
2070	 4.99398948997161E-02 
2071	 4.99652192660891E-02 
2072	 4.99964430723011E-02 
2073	 5.00198671332612E-02 
2074	 5.00365812997836E-02 
2075	 5.00622720884118E-02 
2076	 5.00933680630677E-02 
2077	 5.01177066812867E-02 
2078	 5.01408667392201E-02 
2079	 5.01645171650617E-02 
2080	 5.01875909221258E-02 
2081	 5.02069388818784E-02 
2082	 5.02235383225071E-02 
2083	 5.02442752738089E-02 
2084	 5.02709819456441E-02 
2085	 5.02885603854177E-02 
2086	 5.02988540542327E-02 
2087	 5.03159488168481E-02 
2088	 5.03127109663834E-02 
2089	 5.02791353288466E-02 
2090	 5.02691113635661E-02 
2091	 5.02639170235886E-02 
2092	 5.02563580868712E-02 
2093	 5.02620956068435E-02 
2094	 5.02519783877153E-02 
2095	 5.02225943842242E-02 
2096	 5.02071219997208E-02 
2097	 5.01955510127533E-02 
2098	 5.01829664965242E-02 
2099	 5.01676382728549E-02 
2100	 0.050143926475528 
2101	 5.01130913456522E-02 
2102	 5.00646879412079E-02 
2103	 5.00250292639213E-02 
2104	 4.99865838341534E-02 
2105	 4.99473208997321E-02 
2106	 4.99034803766471E-02 
2107	 4.98626390677162E-02 
2108	 4.98236005031716E-02 
2109	 4.97827531615015E-02 
2110	 0.049739779616546 
2111	 0.049703817755384 
2112	 4.96723049816767E-02 
2113	 4.96390911975345E-02 
2114	 4.96132694613936E-02 
2115	 4.95781449398572E-02 
2116	 4.95336832759728E-02 
2117	 4.94949169289142E-02 
2118	 4.94521232302711E-02 
2119	 4.94065075513806E-02 
2120	 4.93602500503166E-02 
2121	 4.93074304800842E-02 
2122	 4.92671895444417E-02 
2123	 4.92355363536102E-02 
2124	 4.91927746113383E-02 
2125	 4.91482437337685E-02 
2126	 4.91134117417482E-02 
2127	 4.90729111232734E-02 
2128	 4.90387106285924E-02 
2129	 4.90293678053668E-02 
2130	 4.89970594005504E-02 
2131	 4.89465335363204E-02 
2132	 4.89046473634546E-02 
2133	 0.0488520772287 
2134	 0.048812440125724 
2135	 4.87823258421618E-02 
2136	 4.87460297273909E-02 
2137	 4.87079253662682E-02 
2138	 4.86613162986866E-02 
2139	 4.86372315262194E-02 
2140	 4.86209217349812E-02 
2141	 4.86012694759767E-02 
2142	 4.86094613603946E-02 
2143	 4.85818269756101E-02 
2144	 4.85248420220722E-02 
2145	 0.048487539812917 
2146	 4.84424888058565E-02 
2147	 4.84047126564393E-02 
2148	 4.83852488945311E-02 
2149	 4.83505326919803E-02 
2150	 4.82942907287083E-02 
2151	 4.82604040182293E-02 
2152	 4.82269101977862E-02 
2153	 4.82145476674279E-02 
2154	 4.82019440504899E-02 
2155	 4.81843295848084E-02 
2156	 4.81339770036952E-02 
2157	 4.80464939307034E-02 
2158	 4.79907768692561E-02 
2159	 4.79240455475608E-02 
2160	 4.78751354004984E-02 
2161	 0.047856010541345 
2162	 4.78115187433145E-02 
2163	 4.77565045351233E-02 
2164	 4.77059640102569E-02 
2165	 4.76439111483749E-02 
2166	 4.75958473660838E-02 
2167	 4.75620590967577E-02 
2168	 4.75176615296463E-02 
2169	 4.74611594003398E-02 
2170	 4.74284820066294E-02 
2171	 4.74086319175827E-02 
2172	 0.047380423302387 
2173	 4.73596324156033E-02 
2174	 4.73496180632321E-02 
2175	 4.73219373011146E-02 
2176	 4.73074705214722E-02 
2177	 4.73038469512934E-02 
2178	 4.73232419364928E-02 
2179	 4.73206795206976E-02 
2180	 4.73125506876306E-02 
2181	 4.73136973040733E-02 
2182	 4.73096311537902E-02 
2183	 4.73158402890082E-02 
2184	 4.73396911987729E-02 
2185	 4.73452950690906E-02 
2186	 4.73480717327508E-02 
2187	 4.73456954384639E-02 
2188	 4.73359836091723E-02 
2189	 4.73226231940686E-02 
2190	 0.047300391783717 
2191	 4.72822715523671E-02 
2192	 4.72537858502652E-02 
2193	 4.72396713099862E-02 
2194	 0.047256403038337 
2195	 4.72387247664782E-02 
2196	 4.72081136912548E-02 
2197	 4.71714206466106E-02 
2198	 4.71248482371976E-02 
2199	 4.70704755041812E-02 
2200	 4.70397867865054E-02 
2201	 4.70386968997433E-02 
2202	 4.70047380522062E-02 
2203	 4.69667031304625E-02 
2204	 0.046917185443166 
2205	 4.68467983285121E-02 
2206	 4.67888022424108E-02 
2207	 4.67267567905292E-02 
2208	 4.66738074303328E-02 
2209	 4.66339131326824E-02 
2210	 4.65747933660797E-02 
2211	 4.64994211487641E-02 
2212	 4.64483917623104E-02 
2213	 4.63922335195811E-02 
2214	 4.63507077596616E-02 
2215	 4.63351648309036E-02 
2216	 4.63186745351799E-02 
2217	 4.62984089166789E-02 
2218	 4.62928350889277E-02 
2219	 4.63072893565645E-02 
2220	 4.63171983741872E-02 
2221	 4.63194468749111E-02 
2222	 4.63517575580831E-02 
2223	 4.63771428414487E-02 
2224	 4.63928504764837E-02 
2225	 4.64285913641847E-02 
2226	 4.64550419712602E-02 
2227	 4.64779698429665E-02 
2228	 4.65101261155836E-02 
2229	 0.04650755316815 
2230	 4.64942827993517E-02 
2231	 4.64560511127452E-02 
2232	 4.63916538081812E-02 
2233	 4.63151206333633E-02 
2234	 4.62234810073371E-02 
2235	 4.61046310384211E-02 
2236	 4.59618686163372E-02 
2237	 0.045805025540843 
2238	 4.56265073480525E-02 
2239	 4.54302490523795E-02 
2240	 4.52058547022812E-02 
2241	 4.49867946725209E-02 
2242	 4.47723294459448E-02 
2243	 4.45127820763497E-02 
2244	 4.42359005641038E-02 
2245	 4.39426554300016E-02 
2246	 4.35915574786455E-02 
2247	 4.32576491184282E-02 
2248	 4.29249362604467E-02 
2249	 4.25860599429307E-02 
2250	 4.22433300777351E-02 
2251	 4.18997677871881E-02 
2252	 4.15299332871543E-02 
2253	 4.11906484185213E-02 
2254	 4.08182914815724E-02 
2255	 4.04548570907989E-02 
2256	 4.01323587203622E-02 
2257	 0.039781523202231 
2258	 0.039452305324201 
2259	 3.91457855346874E-02 
2260	 3.88253215411465E-02 
2261	 3.84959118135734E-02 
2262	 3.81840465678409E-02 
2263	 3.78563720921545E-02 
2264	 3.75859415723483E-02 
2265	 3.73438933385574E-02 
2266	 3.71276571694885E-02 
2267	 3.69728735382356E-02 
2268	 3.67851780894275E-02 
2269	 3.65941577545453E-02 
2270	 3.64202709211814E-02 
2271	 3.62431627628006E-02 
2272	 3.60895868842758E-02 
2273	 3.59720180047362E-02 
2274	 0.035829863426846 
2275	 3.56857368314758E-02 
2276	 3.55434809488638E-02 
2277	 3.54109616467883E-02 
2278	 3.52574353260914E-02 
2279	 3.50951191337544E-02 
2280	 3.49186104795354E-02 
2281	 0.034709963498578 
2282	 3.45108376363353E-02 
2283	 0.034307064997952 
2284	 3.41206317538233E-02 
2285	 3.39281569236117E-02 
2286	 3.36946337350227E-02 
2287	 3.34593490613815E-02 
2288	 3.32442390102369E-02 
2289	 0.033002709241392 
2290	 3.27748174040155E-02 
2291	 3.25680388342487E-02 
2292	 3.23349200538642E-02 
2293	 3.20813285764441E-02 
2294	 3.18563047734541E-02 
2295	 3.16493361227637E-02 
2296	 3.14306908844056E-02 
2297	 3.12806265160719E-02 
2298	 3.12030936544984E-02 
2299	 3.11128618331205E-02 
2300	 3.10228839676528E-02 
2301	 3.10223224293231E-02 
2302	 3.10786242827668E-02 
2303	 3.11264779507504E-02 
2304	 3.12268959228472E-02 
2305	 3.13493458401697E-02 
2306	 3.14666139186565E-02 
2307	 3.16284274217511E-02 
2308	 0.031838691009156 
2309	 3.20888491123031E-02 
2310	 3.23640942662636E-02 
2311	 3.26774667187161E-02 
2312	 0.033115357333627 
2313	 3.34426507898868E-02 
2314	 3.37140439721463E-02 
2315	 3.40211487198545E-02 
2316	 3.43151757099834E-02 
2317	 3.45785208250599E-02 
2318	 3.48868278945026E-02 
2319	 3.51144852166869E-02 
2320	 3.52529395090676E-02 
2321	 3.54061153168502E-02 
2322	 3.55235429839272E-02 
2323	 3.56498180080609E-02 
2324	 3.57865935284652E-02 
2325	 0.035872366795194 
2326	 3.59452362494112E-02 
2327	 3.59891591101565E-02 
2328	 3.59884646979765E-02 
2329	 3.59711830461425E-02 
2330	 3.59449280331345E-02 
2331	 3.58613436046781E-02 
2332	 0.035746755417474 
2333	 3.56363480934675E-02 
2334	 3.55461345709435E-02 
2335	 3.54525847676486E-02 
2336	 3.53516345563255E-02 
2337	 3.52567731085565E-02 
2338	 3.51056812818553E-02 
2339	 3.49143380365096E-02 
2340	 3.47337206253345E-02 
2341	 0.034537809585641 
2342	 3.43903656480809E-02 
2343	 0.034266624722515 
2344	 3.41391434814886E-02 
2345	 3.40885199216987E-02 
2346	 3.40426278427581E-02 
2347	 3.40421514877194E-02 
2348	 3.41210081403377E-02 
2349	 3.42037753892801E-02 
2350	 3.43349771219765E-02 
2351	 3.45198919894663E-02 
2352	 3.47321686532168E-02 
2353	 3.49593197926191E-02 
2354	 3.51434969130397E-02 
2355	 3.52979989076616E-02 
2356	 3.54390767784136E-02 
2357	 3.55505097032849E-02 
2358	 3.56304222945962E-02 
2359	 3.56754745755849E-02 
2360	 0.035686190402155 
2361	 3.56505097810695E-02 
2362	 3.56219593620121E-02 
2363	 3.56228973465463E-02 
2364	 3.56414647522267E-02 
2365	 3.56422411883218E-02 
2366	 3.56157248486099E-02 
2367	 3.56053273779316E-02 
2368	 3.55910153523528E-02 
2369	 3.55177129183181E-02 
2370	 3.54090798672789E-02 
2371	 3.53489143739109E-02 
2372	 3.53181711172104E-02 
2373	 0.03529353886323 
2374	 3.52579767519316E-02 
2375	 3.51725529043545E-02 
2376	 3.50510836587333E-02 
2377	 3.49319902014956E-02 
2378	 3.48327983529654E-02 
2379	 0.034731234301399 
2380	 3.46103569534944E-02 
2381	 3.44948602931719E-02 
2382	 3.43870424432976E-02 
2383	 3.43085181772618E-02 
2384	 3.41980267145234E-02 
2385	 3.40561988579372E-02 
2386	 3.39601409718061E-02 
2387	 3.39072140378332E-02 
2388	 3.37928510292265E-02 
2389	 3.36803890173334E-02 
2390	 3.35455829767242E-02 
2391	 3.33133773409875E-02 
2392	 3.31890795211563E-02 
2393	 0.03312516028067 
2394	 0.033035756610194 
2395	 3.29910001409382E-02 
2396	 3.29064419487398E-02 
2397	 0.032825546187243 
2398	 3.26932959422912E-02 
2399	 3.25031757529262E-02 
2400	 3.23341959706411E-02 
2401	 3.21191825845805E-02 
2402	 3.19810227361877E-02 
2403	 3.18740837383519E-02 
2404	 3.18303894516046E-02 
2405	 3.17309651607413E-02 
2406	 3.15497914457502E-02 
2407	 3.14751402009115E-02 
2408	 3.13808235620144E-02 
2409	 3.12171672221267E-02 
2410	 3.11454595391722E-02 
2411	 3.10746072394118E-02 
2412	 3.10135488040554E-02 
2413	 3.09355980451682E-02 
2414	 3.08144783698041E-02 
2415	 0.030738639770821 
2416	 3.05096502897202E-02 
2417	 3.03581617431371E-02 
2418	 0.030366287307446 
2419	 3.02605950250185E-02 
2420	 3.02811343926971E-02 
2421	 3.02623928081654E-02 
2422	 3.01449039846102E-02 
2423	 3.00881351815752E-02 
2424	 2.99585598273265E-02 
2425	 2.99460891794619E-02 
2426	 2.98999970434952E-02 
2427	 2.97678340613132E-02 
2428	 2.97435542691535E-02 
2429	 0.02973007556763 
2430	 2.97633720645311E-02 
2431	 2.97712758910571E-02 
2432	 2.97960602066352E-02 
2433	 2.97307809411199E-02 
2434	 2.95576383317865E-02 
2435	 2.96053783639019E-02 
2436	 2.96349215290571E-02 
2437	 2.95851172380401E-02 
2438	 2.96160973212032E-02 
2439	 2.95988576886335E-02 
2440	 2.95125559810958E-02 
2441	 0.029470565682696 
2442	 2.96276012056791E-02 
2443	 2.97292162094941E-02 
2444	 2.95750861451285E-02 
2445	 2.94720846934351E-02 
2446	 2.93672095739704E-02 
2447	 2.92283681252445E-02 
2448	 0.02929644081922 
2449	 2.93602839070064E-02 
2450	 2.93578201272267E-02 
2451	 2.93515301275996E-02 
2452	 2.93174179684438E-02 
2453	 0.029374409146606 
2454	 0.029362771031241 
2455	 2.92118547684733E-02 
2456	 2.91080618489214E-02 
2457	 2.89697724337165E-02 
2458	 2.87072694602202E-02 
2459	 2.85548032839257E-02 
2460	 2.85211817804601E-02 
2461	 2.84583507025432E-02 
2462	 2.84962448431042E-02 
2463	 2.84789508561992E-02 
2464	 2.82734313450815E-02 
2465	 2.81221375413985E-02 
2466	 0.027994427957097 
2467	 2.79265205866625E-02 
2468	 2.79731370494151E-02 
2469	 2.80379170609601E-02 
2470	 0.02809112099671 
2471	 2.80771206763957E-02 
2472	 0.028142056883602 
2473	 0.028078520238474 
2474	 0.027851776172676 
2475	 2.77472628662846E-02 
2476	 2.75656051873267E-02 
2477	 2.75296575617678E-02 
2478	 2.77886744411526E-02 
2479	 2.80136885669549E-02 
2480	 2.81195114855976E-02 
2481	 2.81582957329914E-02 
2482	 2.80126454532324E-02 
2483	 2.79542827797757E-02 
2484	 0.028022274835996 
2485	 2.81510382608139E-02 
2486	 2.83438656653093E-02 
2487	 2.85604687999716E-02 
2488	 2.85813607931678E-02 
2489	 2.83371212417454E-02 
2490	 2.82624301158718E-02 
2491	 2.82092631101173E-02 
2492	 2.80247492055079E-02 
2493	 2.82990886045258E-02 
2494	 2.85072795902664E-02 
2495	 2.84098560605311E-02 
2496	 2.84374138332188E-02 
2497	 2.83529692084251E-02 
2498	 2.83249572440599E-02 
2499	 2.85270772248114E-02 
2500	 2.87603325544878E-02 
