Wavelength	spectrum00005.asd
350	 4.28689203020491E-02 
351	 4.09416458487245E-02 
352	 4.02128049201859E-02 
353	 0.040919969733047 
354	 4.05819470768325E-02 
355	 3.95294932057548E-02 
356	 3.84979583078767E-02 
357	 3.78838251597841E-02 
358	 3.66993293261113E-02 
359	 3.59022695805436E-02 
360	 3.61018582438912E-02 
361	 3.73254868384836E-02 
362	 3.70229403832055E-02 
363	 0.036607012068296 
364	 3.64125266531918E-02 
365	 3.48249208885989E-02 
366	 3.46838774618817E-02 
367	 3.52483767312046E-02 
368	 0.035322805789155 
369	 0.035359233905012 
370	 3.47529762206223E-02 
371	 3.44393628847134E-02 
372	 3.57229360261352E-02 
373	 3.50205608404809E-02 
374	 3.44064947938469E-02 
375	 0.03472984023398 
376	 3.42110610353929E-02 
377	 3.39734606969008E-02 
378	 3.42972254795198E-02 
379	 3.48599774976957E-02 
380	 3.40140155851071E-02 
381	 3.38459288763039E-02 
382	 3.37382679628015E-02 
383	 3.19688390221833E-02 
384	 3.33811497464523E-02 
385	 3.41917998262344E-02 
386	 3.29807635876331E-02 
387	 0.033358810660206 
388	 3.32455264516796E-02 
389	 3.28340534609695E-02 
390	 3.27252261000045E-02 
391	 3.28059723920605E-02 
392	 3.25523243595153E-02 
393	 3.22737307781534E-02 
394	 3.27001086455741E-02 
395	 3.27957352453038E-02 
396	 3.28797516108703E-02 
397	 3.30314468706501E-02 
398	 3.26236128246147E-02 
399	 3.22091559386945E-02 
400	 3.21285070016507E-02 
401	 3.23742328267716E-02 
402	 3.17795307149163E-02 
403	 3.17908092671327E-02 
404	 3.23849514811546E-02 
405	 3.24327758631336E-02 
406	 3.22608862146396E-02 
407	 3.19874992920925E-02 
408	 3.17922940415095E-02 
409	 3.20994048764044E-02 
410	 0.031853761680605 
411	 3.14509883867175E-02 
412	 0.031586268567107 
413	 3.18909179636211E-02 
414	 3.17792744826301E-02 
415	 3.14732267338525E-02 
416	 3.18472973047629E-02 
417	 0.031759530308885 
418	 3.15772183029187E-02 
419	 3.16526998546786E-02 
420	 3.16536873859869E-02 
421	 3.18040122714802E-02 
422	 3.19950774132009E-02 
423	 3.20087058974074E-02 
424	 0.031818321281829 
425	 3.18755657062516E-02 
426	 3.21379628512468E-02 
427	 0.031978662614383 
428	 3.20477413020015E-02 
429	 3.22195924174466E-02 
430	 0.032289989012591 
431	 3.23504876274815E-02 
432	 3.25447457289964E-02 
433	 3.27516374925311E-02 
434	 3.27538512214214E-02 
435	 3.29241016911519E-02 
436	 3.31819187355275E-02 
437	 3.34052335409381E-02 
438	 3.34834937425653E-02 
439	 3.36829875519657E-02 
440	 3.38432506896066E-02 
441	 0.033824013054747 
442	 3.41215811197989E-02 
443	 3.44150227252867E-02 
444	 3.45791789934033E-02 
445	 3.46770214780139E-02 
446	 3.47996848581539E-02 
447	 3.48738949503658E-02 
448	 3.48951953120842E-02 
449	 3.50715975959174E-02 
450	 3.53371340938035E-02 
451	 3.55393983305362E-02 
452	 0.035540786902578 
453	 3.55252477439745E-02 
454	 3.55911602035014E-02 
455	 3.57146327180505E-02 
456	 3.57494430812644E-02 
457	 3.58714845714383E-02 
458	 3.59293560552056E-02 
459	 3.58468790758805E-02 
460	 3.59948430430269E-02 
461	 3.60859864312479E-02 
462	 3.60716408745416E-02 
463	 3.60472307741494E-02 
464	 3.60835410163102E-02 
465	 3.61626275307063E-02 
466	 3.62067341246918E-02 
467	 3.60521605120135E-02 
468	 3.61849834825011E-02 
469	 3.63359255406129E-02 
470	 3.62076765760024E-02 
471	 3.63913267703121E-02 
472	 3.65185832261167E-02 
473	 3.65524397120905E-02 
474	 0.036720815952273 
475	 3.67332590770749E-02 
476	 3.67205064714995E-02 
477	 3.67917108288446E-02 
478	 3.68606063675464E-02 
479	 3.69007892700983E-02 
480	 3.69789662420967E-02 
481	 3.71618078445644E-02 
482	 3.72603980006467E-02 
483	 3.73406735422646E-02 
484	 0.03744593572295 
485	 3.75709212376576E-02 
486	 3.78057330360584E-02 
487	 0.037976800831924 
488	 3.79848736159429E-02 
489	 3.81305437909633E-02 
490	 3.83946671210709E-02 
491	 3.86947192336676E-02 
492	 3.89169431711797E-02 
493	 3.90564609634294E-02 
494	 0.039286179206961 
495	 3.96193006121521E-02 
496	 3.97628309418126E-02 
497	 4.00173268782022E-02 
498	 4.03515701891349E-02 
499	 4.06441568476393E-02 
500	 4.08612093413962E-02 
501	 4.11700994912281E-02 
502	 4.15693854269154E-02 
503	 4.19081582192033E-02 
504	 4.22628538919483E-02 
505	 4.26248748904197E-02 
506	 4.29968765318494E-02 
507	 4.34464805044479E-02 
508	 4.38933705092231E-02 
509	 0.044350506416057 
510	 4.48615869694339E-02 
511	 4.53725271495019E-02 
512	 4.59029750606146E-02 
513	 4.64602983851569E-02 
514	 4.70302701823446E-02 
515	 4.75868558480315E-02 
516	 4.81934994415541E-02 
517	 4.88820692899924E-02 
518	 4.94835631213586E-02 
519	 5.01588540019553E-02 
520	 5.09270514633203E-02 
521	 5.17065208662594E-02 
522	 5.25171431537424E-02 
523	 5.33749180808279E-02 
524	 5.42754256001076E-02 
525	 5.51720787134731E-02 
526	 5.61219451807031E-02 
527	 5.71293754797015E-02 
528	 5.81755094919687E-02 
529	 5.92124405417098E-02 
530	 6.03591107269693E-02 
531	 6.16249926647241E-02 
532	 6.28941486444103E-02 
533	 6.41782216767935E-02 
534	 6.55393729129864E-02 
535	 0.067002588860523 
536	 6.84467417271781E-02 
537	 7.00004243844073E-02 
538	 7.16585570548631E-02 
539	 7.33399513465366E-02 
540	 7.49922802522141E-02 
541	 7.67315148441196E-02 
542	 7.85953544434051E-02 
543	 8.04663613378788E-02 
544	 8.23508712437698E-02 
545	 8.42519032071574E-02 
546	 8.61844521267703E-02 
547	 8.82150970241524E-02 
548	 9.02462244069447E-02 
549	 9.22776894288584E-02 
550	 9.43961960309949E-02 
551	 9.64961336349257E-02 
552	 9.86289039946129E-02 
553	 0.100835256911273 
554	 0.103048874475623 
555	 0.105274253854997 
556	 0.107512302520034 
557	 0.109761874604634 
558	 0.112024307580917 
559	 0.114297563086749 
560	 0.116555669249749 
561	 0.118744949380827 
562	 0.12086964845545 
563	 0.122967994872959 
564	 0.125062746425348 
565	 0.127077048371323 
566	 0.129033045667696 
567	 0.130965897570323 
568	 0.132908581163045 
569	 0.134752721573427 
570	 0.136533948928963 
571	 0.138281924027194 
572	 0.13996237110772 
573	 0.1415413596739 
574	 0.143057728405174 
575	 0.14456008867017 
576	 0.145953278550427 
577	 0.147243949144654 
578	 0.14846528511243 
579	 0.149668394989703 
580	 0.150855522887263 
581	 0.151978087238997 
582	 0.15300743274388 
583	 0.154013206853335 
584	 0.154956814049815 
585	 0.155833465312529 
586	 0.156658471320351 
587	 0.157418078479295 
588	 0.158093623702539 
589	 0.158700118582097 
590	 0.159308991591531 
591	 0.159842868309119 
592	 0.160279432624438 
593	 0.160624671894288 
594	 0.16092380736772 
595	 0.161186893571429 
596	 0.161406806234727 
597	 0.161565470476668 
598	 0.16172595664707 
599	 0.161865855213016 
600	 0.161955802276963 
601	 0.161985940623218 
602	 0.161992498344926 
603	 0.161988486440223 
604	 0.161966396343578 
605	 0.161859572047209 
606	 0.16176070951666 
607	 0.161693155599166 
608	 0.161579479544342 
609	 0.161385872788176 
610	 0.161193860860979 
611	 0.161060260255224 
612	 0.160857477736861 
613	 0.160636471496178 
614	 0.160422166519725 
615	 0.160216771844134 
616	 0.159979530321791 
617	 0.159748053424008 
618	 0.159536692269576 
619	 0.159300835387569 
620	 0.159031784428583 
621	 0.158787777818318 
622	 0.158613142306846 
623	 0.158370995683175 
624	 0.158121328566464 
625	 0.157904325690441 
626	 0.157728057278938 
627	 0.157509868219089 
628	 0.15728681803803 
629	 0.157092673013766 
630	 0.156891291772102 
631	 0.156709333776561 
632	 0.156554894187609 
633	 0.156422718909723 
634	 0.156281392978753 
635	 0.156127601479701 
636	 0.155975631454011 
637	 0.155857638237588 
638	 0.155714288589087 
639	 0.155582393357031 
640	 0.155495912159726 
641	 0.155396023695436 
642	 0.155334743009262 
643	 0.155305166874324 
644	 0.155265139201136 
645	 0.155215219620857 
646	 0.155183032653774 
647	 0.155181837716692 
648	 0.155196463175241 
649	 0.155208800279841 
650	 0.155238463344148 
651	 0.15530047849413 
652	 0.155336321535599 
653	 0.1553773028738 
654	 0.155440091886439 
655	 0.155526774878918 
656	 0.155643085313897 
657	 0.155783693232933 
658	 0.155934674079042 
659	 0.156065447817775 
660	 0.156219777791569 
661	 0.156413620646523 
662	 0.156639761092344 
663	 0.156838534830766 
664	 0.157020915464283 
665	 0.157225335454347 
666	 0.157507424923982 
667	 0.157792268870578 
668	 0.15808311163169 
669	 0.158384586953699 
670	 0.158657767339509 
671	 0.158968785920477 
672	 0.159320019410637 
673	 0.159683592905318 
674	 0.160048836113426 
675	 0.160423950495187 
676	 0.160824099504753 
677	 0.161268938500307 
678	 0.161691917802619 
679	 0.162119549551952 
680	 0.162587698544546 
681	 0.163093379727977 
682	 0.163587121486857 
683	 0.16408458478889 
684	 0.164629268474815 
685	 0.16516513144614 
686	 0.165709522906165 
687	 0.166286029097896 
688	 0.166917353854603 
689	 0.167535095128511 
690	 0.168143732096348 
691	 0.168773629282809 
692	 0.169471260823143 
693	 0.170145125045974 
694	 0.170803940884513 
695	 0.171515924913343 
696	 0.172251925281455 
697	 0.172996739774879 
698	 0.173744364204445 
699	 0.174502447336874 
700	 0.175281801597096 
701	 0.176073278168531 
702	 0.176869935101465 
703	 0.177690090405849 
704	 0.178559079239977 
705	 0.179435966230078 
706	 0.180248246707606 
707	 0.181098556242064 
708	 0.182006061663509 
709	 0.182948746640768 
710	 0.183857230974263 
711	 0.184779832425242 
712	 0.185705686240078 
713	 0.186619963045408 
714	 0.187559349339901 
715	 0.188504240295199 
716	 0.189444493935897 
717	 0.190381789952763 
718	 0.191377404987935 
719	 0.19236303545098 
720	 0.193306510461839 
721	 0.194265128960462 
722	 0.195209669853604 
723	 0.196179674787797 
724	 0.197195932589343 
725	 0.198136143832652 
726	 0.199041876619906 
727	 0.199968706797595 
728	 0.200962682720804 
729	 0.201891902602282 
730	 0.202798284820478 
731	 0.203712461523967 
732	 0.204606563625558 
733	 0.205465330110593 
734	 0.206313383845315 
735	 0.207175145831568 
736	 0.208022814202501 
737	 0.208855627242837 
738	 0.209650027398084 
739	 0.210375873002947 
740	 0.211084647117375 
741	 0.211818747836532 
742	 0.212557300651582 
743	 0.213191275173303 
744	 0.213849289017912 
745	 0.214490994098008 
746	 0.215063088040561 
747	 0.215631456843771 
748	 0.216160909893968 
749	 0.216648922330067 
750	 0.2171124274148 
751	 0.217559035745655 
752	 0.217963743396087 
753	 0.218324958861449 
754	 0.218674451020568 
755	 0.218931298074914 
756	 0.219152801209593 
757	 0.219393554226694 
758	 0.21960452443343 
759	 0.219780187164758 
760	 0.219906682464106 
761	 0.219971624917339 
762	 0.219981244989012 
763	 0.219977565110463 
764	 0.219981505687113 
765	 0.21998353964307 
766	 0.219875699151215 
767	 0.219719513749639 
768	 0.219578828032799 
769	 0.219447753472508 
770	 0.219248257462733 
771	 0.218988299629764 
772	 0.218703231971812 
773	 0.218378820109173 
774	 0.21800502799568 
775	 0.217619684461165 
776	 0.217284141978273 
777	 0.216871368443992 
778	 0.216422038345476 
779	 0.215956121421461 
780	 0.215414368409455 
781	 0.214907665926731 
782	 0.214406957335364 
783	 0.213858422249603 
784	 0.213273178323112 
785	 0.21268927115078 
786	 0.212088468131696 
787	 0.211429793593597 
788	 0.210755275056855 
789	 0.210116628671854 
790	 0.209487204354548 
791	 0.208755328828752 
792	 0.20805227235026 
793	 0.207361173721219 
794	 0.206645702949435 
795	 0.20589706264471 
796	 0.205149571141183 
797	 0.204423071087939 
798	 0.203710221600839 
799	 0.202910967988985 
800	 0.202106548841021 
801	 0.201330789884243 
802	 0.200567963788827 
803	 0.199758720619902 
804	 0.198944938232698 
805	 0.198152076076837 
806	 0.197358567545421 
807	 0.196583398636625 
808	 0.195807968643567 
809	 0.195015669289632 
810	 0.194223284838297 
811	 0.193440093610013 
812	 0.192652846282303 
813	 0.191851417746209 
814	 0.191108817187404 
815	 0.190345542214864 
816	 0.189532013149793 
817	 0.188698629724063 
818	 0.187914013061095 
819	 0.187142961756778 
820	 0.186372123653845 
821	 0.185653105562783 
822	 0.184888831441978 
823	 0.184129723488727 
824	 0.18342187780112 
825	 0.18266616411717 
826	 0.181926548398885 
827	 0.181218547824394 
828	 0.180525975990895 
829	 0.179790304646383 
830	 0.17908864039137 
831	 0.178424948863744 
832	 0.17773644923073 
833	 0.177042465235987 
834	 0.176365428221154 
835	 0.175711617963273 
836	 0.175060046364912 
837	 0.174412171993486 
838	 0.173755998809189 
839	 0.173095771680582 
840	 0.172485517472102 
841	 0.171892387237716 
842	 0.171314977294459 
843	 0.170752656697367 
844	 0.17015242940258 
845	 0.169546168483032 
846	 0.16895496628554 
847	 0.168385673963433 
848	 0.167825883941479 
849	 0.167281512277272 
850	 0.166759586905871 
851	 0.166265520693416 
852	 0.165763610810107 
853	 0.165261633172584 
854	 0.164768140803657 
855	 0.164271178846262 
856	 0.163786148007401 
857	 0.163314496955744 
858	 0.162856100131264 
859	 0.162423925560027 
860	 0.161967156437314 
861	 0.161513748629039 
862	 0.161120900243017 
863	 0.160752081905831 
864	 0.160343179883608 
865	 0.159910604861462 
866	 0.159530939393021 
867	 0.159130330916543 
868	 0.158775481589342 
869	 0.158467833536279 
870	 0.158100718023669 
871	 0.15775836051212 
872	 0.157441362349902 
873	 0.157127124141883 
874	 0.156779380487192 
875	 0.156497598701457 
876	 0.156230376682377 
877	 0.155917361023839 
878	 0.155648797662574 
879	 0.155397613004714 
880	 0.15514541583684 
881	 0.154884721374253 
882	 0.15463781179694 
883	 0.154415180374363 
884	 0.154205558748501 
885	 0.153985137754601 
886	 0.153771611301515 
887	 0.153574210201064 
888	 0.153385559204918 
889	 0.153184541283039 
890	 0.153020256104111 
891	 0.152838240797338 
892	 0.152628531194667 
893	 0.1524848302417 
894	 0.15235429537074 
895	 0.152226432830077 
896	 0.152095485026237 
897	 0.151939122299419 
898	 0.151806971776044 
899	 0.151700819374747 
900	 0.151597548154313 
901	 0.151445431061244 
902	 0.151382219520173 
903	 0.151377326713823 
904	 0.151324298569062 
905	 0.151225461441973 
906	 0.151149716912945 
907	 0.151112744147847 
908	 0.151078710166589 
909	 0.150970079343464 
910	 0.150907993605446 
911	 0.150913261857805 
912	 0.150892198435161 
913	 0.150899891773923 
914	 0.150893758655933 
915	 0.15087641354494 
916	 0.150922811954408 
917	 0.150917523425722 
918	 0.150936146894836 
919	 0.151016117781513 
920	 0.151054695472552 
921	 0.151080611785265 
922	 0.151116641051293 
923	 0.151167677521274 
924	 0.151189723763159 
925	 0.151276780947909 
926	 0.151376209292709 
927	 0.151431269197961 
928	 0.151548873160822 
929	 0.151618717928734 
930	 0.151672982309893 
931	 0.151779175727276 
932	 0.151871811953908 
933	 0.151993982785656 
934	 0.152145143252477 
935	 0.152293106530838 
936	 0.15238547343926 
937	 0.152505358545901 
938	 0.15265105278417 
939	 0.152766079276004 
940	 0.152887892343198 
941	 0.153056657473775 
942	 0.153228961524615 
943	 0.153320413450832 
944	 0.153530287523851 
945	 0.153728130273087 
946	 0.153877121707132 
947	 0.154070393293451 
948	 0.154241870978448 
949	 0.154378457964498 
950	 0.154533098678962 
951	 0.154808217665396 
952	 0.154957917181814 
953	 0.155111335498604 
954	 0.15533779833274 
955	 0.155521003037124 
956	 0.155720279047637 
957	 0.155954951707974 
958	 0.15619680478471 
959	 0.156356966006199 
960	 0.15651102787168 
961	 0.156739671233876 
962	 0.157059441759616 
963	 0.157368193675634 
964	 0.157536874944058 
965	 0.157655117748838 
966	 0.157841097327374 
967	 0.158124290211344 
968	 0.158387340610867 
969	 0.158656187497765 
970	 0.158955252612886 
971	 0.159195097449467 
972	 0.15942782160874 
973	 0.159689481400037 
974	 0.159992775384302 
975	 0.160306112716005 
976	 0.160561881570631 
977	 0.160813354773138 
978	 0.161124601666439 
979	 0.161466071398898 
980	 0.161724065050576 
981	 0.162028087750994 
982	 0.162460571468237 
983	 0.162668129118958 
984	 0.163031003842537 
985	 0.163466224982232 
986	 0.163808413733166 
987	 0.164219534196805 
988	 0.164447190642405 
989	 0.164729698770414 
990	 0.165271358264015 
991	 0.165543708428388 
992	 0.165891913774688 
993	 0.166292825935611 
994	 0.166633137810544 
995	 0.166965121407334 
996	 0.167414416784905 
997	 0.167836873526749 
998	 0.168144306300418 
999	 0.168790826948553 
1000	 0.16921258349321 
1001	 0.171044582407637 
1002	 0.171436937145417 
1003	 0.171843622375108 
1004	 0.172257234129334 
1005	 0.172687597381141 
1006	 0.173141542061917 
1007	 0.17360316083383 
1008	 0.174063717560018 
1009	 0.17456228094171 
1010	 0.175045432316579 
1011	 0.175499567257036 
1012	 0.17597768208135 
1013	 0.176487628882834 
1014	 0.176964460794832 
1015	 0.177385693585691 
1016	 0.177887053103503 
1017	 0.178435804415378 
1018	 0.178973744700822 
1019	 0.179563809870951 
1020	 0.180130184203865 
1021	 0.180671848131819 
1022	 0.181175394541977 
1023	 0.181697344750652 
1024	 0.182191928678243 
1025	 0.182746828518254 
1026	 0.183315915800653 
1027	 0.183897081520185 
1028	 0.184524066871342 
1029	 0.185164231651632 
1030	 0.185727655392129 
1031	 0.186293901545488 
1032	 0.186852357203477 
1033	 0.187410284009708 
1034	 0.188044981334803 
1035	 0.188686486822518 
1036	 0.189315029954601 
1037	 0.189965830770038 
1038	 0.190588630395206 
1039	 0.191168233362322 
1040	 0.191809714433641 
1041	 0.192478121653909 
1042	 0.193152461619671 
1043	 0.19386586205531 
1044	 0.194545248571731 
1045	 0.195234223364699 
1046	 0.195931576462971 
1047	 0.196639589305882 
1048	 0.197390775040147 
1049	 0.198109499417322 
1050	 0.198814404376117 
1051	 0.199561028278024 
1052	 0.200324250083508 
1053	 0.201120446491672 
1054	 0.20199736368336 
1055	 0.202817935823872 
1056	 0.203626331426859 
1057	 0.204436321663025 
1058	 0.205214407739456 
1059	 0.206028826844424 
1060	 0.206893385491508 
1061	 0.207721623972541 
1062	 0.20860973902826 
1063	 0.209521120112752 
1064	 0.210365261527383 
1065	 0.211250670550116 
1066	 0.212123355311328 
1067	 0.212961838046984 
1068	 0.213865930883008 
1069	 0.214797411717958 
1070	 0.215740174192415 
1071	 0.216711038196089 
1072	 0.21768977919234 
1073	 0.21862443133225 
1074	 0.219549979122265 
1075	 0.220470914270184 
1076	 0.221411541727419 
1077	 0.222412833069587 
1078	 0.223413672226333 
1079	 0.224458184973749 
1080	 0.225516976450616 
1081	 0.226484966328202 
1082	 0.227468840837959 
1083	 0.228432989215239 
1084	 0.229402784337762 
1085	 0.230486662211911 
1086	 0.231546834238351 
1087	 0.232628799261968 
1088	 0.23373089008847 
1089	 0.234809692899413 
1090	 0.235811602791719 
1091	 0.236875389366166 
1092	 0.237920127090087 
1093	 0.238956577598093 
1094	 0.240069883264117 
1095	 0.24113493033229 
1096	 0.242246319225296 
1097	 0.243409189478894 
1098	 0.244493429128284 
1099	 0.245603551602497 
1100	 0.246707704177845 
1101	 0.247795964404836 
1102	 0.248954874685677 
1103	 0.250092762582024 
1104	 0.251240665345341 
1105	 0.252397941354898 
1106	 0.253553694551275 
1107	 0.25463281365892 
1108	 0.255742325507795 
1109	 0.256858247258136 
1110	 0.257977521924931 
1111	 0.259173395534205 
1112	 0.260334085843709 
1113	 0.261518528831999 
1114	 0.262731486630129 
1115	 0.263857157098692 
1116	 0.265023046563413 
1117	 0.266191771760494 
1118	 0.267348896211319 
1119	 0.268495791701035 
1120	 0.26966327106327 
1121	 0.27082904803466 
1122	 0.272014521003766 
1123	 0.273220562792117 
1124	 0.27434190578246 
1125	 0.275499959189242 
1126	 0.2766020626964 
1127	 0.277674736239181 
1128	 0.278846448465909 
1129	 0.279956799973769 
1130	 0.281096531863198 
1131	 0.282253193899408 
1132	 0.283291952181739 
1133	 0.284375054164438 
1134	 0.285441284004361 
1135	 0.286486996783158 
1136	 0.287522060589551 
1137	 0.288565378510346 
1138	 0.289585693075981 
1139	 0.290622336887195 
1140	 0.291696723809254 
1141	 0.29267571884034 
1142	 0.293678127926452 
1143	 0.294669611266833 
1144	 0.295618889792438 
1145	 0.29662617673087 
1146	 0.29759078597904 
1147	 0.298551293623917 
1148	 0.299532085713707 
1149	 0.300448805562799 
1150	 0.301393976851264 
1151	 0.302331378536877 
1152	 0.30325518484037 
1153	 0.304176153265708 
1154	 0.305082003903285 
1155	 0.305984429672274 
1156	 0.306857528277667 
1157	 0.307704492980099 
1158	 0.308526863062745 
1159	 0.309332822211126 
1160	 0.310107142272762 
1161	 0.310860157843905 
1162	 0.311658685491278 
1163	 0.312406523659192 
1164	 0.313137034629592 
1165	 0.313868938271249 
1166	 0.314538117691224 
1167	 0.315205696214672 
1168	 0.315836332621611 
1169	 0.3164614166158 
1170	 0.317072848460375 
1171	 0.317659098976182 
1172	 0.318225057472508 
1173	 0.318788279180313 
1174	 0.319324399320816 
1175	 0.319849553620953 
1176	 0.32037717719066 
1177	 0.320882410707959 
1178	 0.321354455287415 
1179	 0.321835054371755 
1180	 0.322315130277016 
1181	 0.322811213137026 
1182	 0.323342280922333 
1183	 0.323857731352981 
1184	 0.324394836104213 
1185	 0.324958427927364 
1186	 0.32554861541154 
1187	 0.326157487107157 
1188	 0.326808646174657 
1189	 0.327495028913096 
1190	 0.32820046831181 
1191	 0.328953332410281 
1192	 0.329688172894874 
1193	 0.330428432789023 
1194	 0.331187019839837 
1195	 0.331960422609762 
1196	 0.33273585605968 
1197	 0.333516427268046 
1198	 0.334323469664606 
1199	 0.335148327737226 
1200	 0.335924201211293 
1201	 0.336741589761813 
1202	 0.337551982026499 
1203	 0.338333844838636 
1204	 0.339178869132866 
1205	 0.340011217486544 
1206	 0.340842807483849 
1207	 0.341713412184356 
1208	 0.342596383981256 
1209	 0.343496454912925 
1210	 0.344411076312746 
1211	 0.345374084555002 
1212	 0.346382350959463 
1213	 0.347397940512694 
1214	 0.348441763712557 
1215	 0.349517162602485 
1216	 0.350613356546444 
1217	 0.351706544668909 
1218	 0.352836638113298 
1219	 0.3539779081842 
1220	 0.355076299480023 
1221	 0.356227883705228 
1222	 0.357352155608873 
1223	 0.358485153428145 
1224	 0.359572967449483 
1225	 0.360643085582877 
1226	 0.361659946743183 
1227	 0.362633788827044 
1228	 0.363592868058852 
1229	 0.36453082134636 
1230	 0.365422123066737 
1231	 0.36627789452804 
1232	 0.367118303053944 
1233	 0.36792307995767 
1234	 0.368684202899028 
1235	 0.36941101387144 
1236	 0.370128390504094 
1237	 0.370804281375371 
1238	 0.371466682622423 
1239	 0.372120865423722 
1240	 0.372765542470728 
1241	 0.373386406384713 
1242	 0.373939559309636 
1243	 0.37449562948537 
1244	 0.375034765511613 
1245	 0.375559012995764 
1246	 0.37606064810435 
1247	 0.376551540653662 
1248	 0.377039502333132 
1249	 0.377491513796106 
1250	 0.377902480598849 
1251	 0.378324842237539 
1252	 0.378745073554274 
1253	 0.379136153345764 
1254	 0.379518132658614 
1255	 0.379887496260365 
1256	 0.380223469272507 
1257	 0.38055913286113 
1258	 0.380896823246064 
1259	 0.381217927641707 
1260	 0.381520983479486 
1261	 0.381816741321488 
1262	 0.382094772145636 
1263	 0.382382964716962 
1264	 0.382653601988913 
1265	 0.382915053104571 
1266	 0.383168891651852 
1267	 0.383416270080004 
1268	 0.383647954581106 
1269	 0.383855691328091 
1270	 0.384083655712362 
1271	 0.384301962719903 
1272	 0.384538026944677 
1273	 0.384798868170228 
1274	 0.385042019239742 
1275	 0.385283354272452 
1276	 0.385520299807992 
1277	 0.385742499315958 
1278	 0.385978057094996 
1279	 0.386225963638519 
1280	 0.386460490031448 
1281	 0.386700314925688 
1282	 0.386926794173487 
1283	 0.387141853162727 
1284	 0.387345183686937 
1285	 0.387538394800172 
1286	 0.387718463997557 
1287	 0.387906296284371 
1288	 0.388085789702591 
1289	 0.388265291759786 
1290	 0.388450311909084 
1291	 0.388626497947457 
1292	 0.388795189023631 
1293	 0.38895859458272 
1294	 0.389113891134105 
1295	 0.389277539613561 
1296	 0.389435158750502 
1297	 0.389598550460376 
1298	 0.389793855573971 
1299	 0.389940820552612 
1300	 0.390067163333427 
1301	 0.39018295831095 
1302	 0.390250015952528 
1303	 0.390347522573954 
1304	 0.390468913148146 
1305	 0.390564663380235 
1306	 0.39065426266877 
1307	 0.390744240121017 
1308	 0.390819509909966 
1309	 0.390888988159172 
1310	 0.390962633091668 
1311	 0.391046091372026 
1312	 0.391116270826556 
1313	 0.391180045779435 
1314	 0.39123513876021 
1315	 0.391290254059705 
1316	 0.391328175346447 
1317	 0.391353854281222 
1318	 0.391368907758186 
1319	 0.391369116704599 
1320	 0.391369878122675 
1321	 0.391364840188809 
1322	 0.391349855631117 
1323	 0.39132832222964 
1324	 0.391303994161128 
1325	 0.391278001294972 
1326	 0.391233190365829 
1327	 0.391188952599068 
1328	 0.391121399868884 
1329	 0.391037519310649 
1330	 0.390931446183591 
1331	 0.390809016937545 
1332	 0.390666947232021 
1333	 0.390503761309973 
1334	 0.390317017670116 
1335	 0.39012436691728 
1336	 0.389926187739367 
1337	 0.389686389579404 
1338	 0.389426125204316 
1339	 0.389144980260093 
1340	 0.388838879028708 
1341	 0.388500302264892 
1342	 0.388148996177597 
1343	 0.387751793422816 
1344	 0.387318665904391 
1345	 0.386845729985866 
1346	 0.386325619049904 
1347	 0.385803710538505 
1348	 0.385250392452379 
1349	 0.38468051051855 
1350	 0.384086036965251 
1351	 0.383497408351512 
1352	 0.382870295175469 
1353	 0.382274758532714 
1354	 0.381694706055843 
1355	 0.38112651298146 
1356	 0.380576485042968 
1357	 0.380021613242992 
1358	 0.379469488013241 
1359	 0.378925919299705 
1360	 0.378390468760334 
1361	 0.377854836673405 
1362	 0.377293061968839 
1363	 0.376768353224443 
1364	 0.376202518818891 
1365	 0.375616846754742 
1366	 0.375021399001179 
1367	 0.37441439178827 
1368	 0.373799434186177 
1369	 0.373171113149847 
1370	 0.372532627196565 
1371	 0.371884864090575 
1372	 0.371238136495767 
1373	 0.370579055949983 
1374	 0.36991982476229 
1375	 0.369254611069929 
1376	 0.368589918227445 
1377	 0.367915110527741 
1378	 0.367243013049948 
1379	 0.366565084469774 
1380	 0.365904477602513 
1381	 0.365240213835287 
1382	 0.364594727912574 
1383	 0.363964245775087 
1384	 0.363348807746245 
1385	 0.362752905626431 
1386	 0.362162585922397 
1387	 0.361587101628648 
1388	 0.36102525726507 
1389	 0.360495004505942 
1390	 0.359937933691422 
1391	 0.359393069043259 
1392	 0.358813695612496 
1393	 0.358230828461019 
1394	 0.357611446031698 
1395	 0.356999801854533 
1396	 0.356386441809264 
1397	 0.355763052129321 
1398	 0.355136272437472 
1399	 0.354481807069724 
1400	 0.353831996322047 
1401	 0.353113164423515 
1402	 0.352390109346657 
1403	 0.351543833071746 
1404	 0.350638455795534 
1405	 0.34964285971146 
1406	 0.348564568429108 
1407	 0.347387857951267 
1408	 0.346089024726452 
1409	 0.344785047203801 
1410	 0.343353815991151 
1411	 0.341986429559088 
1412	 0.340564821108455 
1413	 0.339275434001661 
1414	 0.337976002468306 
1415	 0.336842764393549 
1416	 0.335812084154481 
1417	 0.334912609855401 
1418	 0.334166455751376 
1419	 0.333484266418459 
1420	 0.332958207649812 
1421	 0.332445503515378 
1422	 0.33203729633406 
1423	 0.331590804680891 
1424	 0.331180507536742 
1425	 0.330739937425922 
1426	 0.330265458375945 
1427	 0.329762437578827 
1428	 0.329217165069124 
1429	 0.328695495703509 
1430	 0.328174180040008 
1431	 0.327621566077204 
1432	 0.327150867322214 
1433	 0.326685996117677 
1434	 0.326332196020527 
1435	 0.326039189244156 
1436	 0.325824342184231 
1437	 0.325705801162289 
1438	 0.325613413027142 
1439	 0.325603989777783 
1440	 0.325578781127672 
1441	 0.325609956811984 
1442	 0.325596482975057 
1443	 0.325562622793466 
1444	 0.325552232542653 
1445	 0.325503980968171 
1446	 0.325539668836108 
1447	 0.325588361832538 
1448	 0.325730443649777 
1449	 0.325944305757918 
1450	 0.326209989431561 
1451	 0.326577404806929 
1452	 0.326938197053212 
1453	 0.327379255141112 
1454	 0.327758396082519 
1455	 0.328142388936902 
1456	 0.328487019506521 
1457	 0.328755593042112 
1458	 0.32907134780438 
1459	 0.329339791130586 
1460	 0.329699978178821 
1461	 0.330094433214526 
1462	 0.330562616035596 
1463	 0.331122573301282 
1464	 0.331710198795308 
1465	 0.33236261149894 
1466	 0.333059619841219 
1467	 0.333728266995633 
1468	 0.334406165883211 
1469	 0.335047776592127 
1470	 0.335626497871117 
1471	 0.33618422641445 
1472	 0.336712335415635 
1473	 0.33720330096473 
1474	 0.337650976923972 
1475	 0.338089273183693 
1476	 0.338492513535147 
1477	 0.338898621221108 
1478	 0.339291717731553 
1479	 0.339666298796902 
1480	 0.340026485692385 
1481	 0.340379022053536 
1482	 0.340716076088072 
1483	 0.341042853076883 
1484	 0.341360369571755 
1485	 0.341672839676101 
1486	 0.341970150246074 
1487	 0.342261763447941 
1488	 0.342551382584558 
1489	 0.34282902349348 
1490	 0.343092001235676 
1491	 0.343354283585136 
1492	 0.343619905041276 
1493	 0.3438631066446 
1494	 0.344092766838018 
1495	 0.344311323369091 
1496	 0.344511229975022 
1497	 0.344706099164929 
1498	 0.344887156001579 
1499	 0.345071914847619 
1500	 0.345249016005778 
1501	 0.345427999138537 
1502	 0.345620082846661 
1503	 0.34578733149125 
1504	 0.345945316048169 
1505	 0.346089473675944 
1506	 0.346218416459915 
1507	 0.346333782577459 
1508	 0.346428466624441 
1509	 0.346525489588891 
1510	 0.346608777579969 
1511	 0.346691628134709 
1512	 0.346771677015796 
1513	 0.346854798446731 
1514	 0.346926594070307 
1515	 0.347012905423431 
1516	 0.347112479690743 
1517	 0.347212671388567 
1518	 0.347323910159882 
1519	 0.347431174057043 
1520	 0.347541830197693 
1521	 0.347645726505224 
1522	 0.347743837503421 
1523	 0.347838570584074 
1524	 0.347931963684426 
1525	 0.34802365821149 
1526	 0.348099855621029 
1527	 0.348175383806938 
1528	 0.348227803091119 
1529	 0.348259946817154 
1530	 0.34828900084212 
1531	 0.348309524537545 
1532	 0.348313696388815 
1533	 0.348300126426107 
1534	 0.348294624421997 
1535	 0.34827957747408 
1536	 0.348263614910373 
1537	 0.348259468982527 
1538	 0.348224930753871 
1539	 0.348166932443668 
1540	 0.348118459628997 
1541	 0.348054608058342 
1542	 0.348005413236008 
1543	 0.3479651779706 
1544	 0.347921506222963 
1545	 0.347876624560932 
1546	 0.347839377413975 
1547	 0.347808503231358 
1548	 0.347771748429248 
1549	 0.347725931014316 
1550	 0.347708395514012 
1551	 0.347693313007183 
1552	 0.347698567862311 
1553	 0.347736753334658 
1554	 0.347766086883173 
1555	 0.347806183814169 
1556	 0.347834177852661 
1557	 0.347857181994688 
1558	 0.34788932296872 
1559	 0.347912455859514 
1560	 0.347952483605652 
1561	 0.348008321035238 
1562	 0.348065128342841 
1563	 0.348133892375915 
1564	 0.348192238775927 
1565	 0.348257958583007 
1566	 0.348307831494484 
1567	 0.348340548901689 
1568	 0.348380769647907 
1569	 0.348418456007167 
1570	 0.348453621317555 
1571	 0.348496117447168 
1572	 0.348522913683005 
1573	 0.348531468788005 
1574	 0.348552197205864 
1575	 0.348573476735045 
1576	 0.348589663032891 
1577	 0.348613837277147 
1578	 0.348626737091004 
1579	 0.348624781757498 
1580	 0.348628228779287 
1581	 0.348632647798595 
1582	 0.348632606728354 
1583	 0.348631255327594 
1584	 0.348626953370619 
1585	 0.348617980225951 
1586	 0.348609122932924 
1587	 0.348600574186157 
1588	 0.348586420252225 
1589	 0.348568650845085 
1590	 0.348549003134515 
1591	 0.34852159377868 
1592	 0.348500481223207 
1593	 0.348489937717597 
1594	 0.348462810431468 
1595	 0.348435690015062 
1596	 0.348393415596155 
1597	 0.348323500440486 
1598	 0.348268571730519 
1599	 0.348221834986447 
1600	 0.348159005833722 
1601	 0.348108861774331 
1602	 0.348026280267247 
1603	 0.347902717975867 
1604	 0.347795680833823 
1605	 0.347680002691867 
1606	 0.34756214545395 
1607	 0.3474612951776 
1608	 0.347336099806519 
1609	 0.347192398003199 
1610	 0.347043173145821 
1611	 0.346881505638691 
1612	 0.346712337555324 
1613	 0.346530226129813 
1614	 0.346349560935059 
1615	 0.346167093919918 
1616	 0.345973391076065 
1617	 0.345786036505044 
1618	 0.345572337771153 
1619	 0.345332778829033 
1620	 0.345091744754721 
1621	 0.344829058890494 
1622	 0.344572020783472 
1623	 0.344318276833933 
1624	 0.344056058050395 
1625	 0.343795246469319 
1626	 0.343519110845343 
1627	 0.34321154886566 
1628	 0.342933223533822 
1629	 0.34265967922398 
1630	 0.34239301647204 
1631	 0.342152797659621 
1632	 0.341902982565444 
1633	 0.341640095122983 
1634	 0.34139099599917 
1635	 0.341147826598069 
1636	 0.340915217618897 
1637	 0.340697122733714 
1638	 0.340477406958287 
1639	 0.340270451086149 
1640	 0.34005223503399 
1641	 0.339843155171748 
1642	 0.339606921520296 
1643	 0.339359780423916 
1644	 0.339092912151973 
1645	 0.338819230360853 
1646	 0.338499368032228 
1647	 0.33814228061956 
1648	 0.337767997505013 
1649	 0.337368298644771 
1650	 0.336926434198371 
1651	 0.3364612119542 
1652	 0.33596858088976 
1653	 0.335443648651688 
1654	 0.334864256133043 
1655	 0.334263406128032 
1656	 0.333591898171107 
1657	 0.332870795041236 
1658	 0.332063970812489 
1659	 0.331200654308059 
1660	 0.33025530074614 
1661	 0.329231022538514 
1662	 0.328109258528068 
1663	 0.326900687214289 
1664	 0.32559815948958 
1665	 0.324231389246673 
1666	 0.322691848347978 
1667	 0.321022761948404 
1668	 0.319272525550604 
1669	 0.317372403476111 
1670	 0.315391819759731 
1671	 0.313319315334353 
1672	 0.311150908296444 
1673	 0.308842429647878 
1674	 0.306500062997429 
1675	 0.304077173993533 
1676	 0.301674431445978 
1677	 0.29922257616818 
1678	 0.296764350008533 
1679	 0.294256425996912 
1680	 0.291792812070106 
1681	 0.289320326909776 
1682	 0.286874473552745 
1683	 0.284467398775805 
1684	 0.282124803513717 
1685	 0.279791355076537 
1686	 0.277516203430566 
1687	 0.275286127217891 
1688	 0.273115328741678 
1689	 0.270965633620963 
1690	 0.268920768038112 
1691	 0.266975776494514 
1692	 0.265135088332843 
1693	 0.263378148175628 
1694	 0.261708552204072 
1695	 0.260139904778695 
1696	 0.258626429709636 
1697	 0.257207952433674 
1698	 0.255804037565958 
1699	 0.254481441651136 
1700	 0.253191294175065 
1701	 0.251919450981187 
1702	 0.250714720885118 
1703	 0.249554137212189 
1704	 0.248458983242797 
1705	 0.247412850953093 
1706	 0.246417477713269 
1707	 0.245561381365167 
1708	 0.244761743387908 
1709	 0.244020390522134 
1710	 0.243370070560837 
1711	 0.242728713673825 
1712	 0.242128539806138 
1713	 0.241559132534115 
1714	 0.241010924172998 
1715	 0.240521344672251 
1716	 0.240028146529392 
1717	 0.239575687865324 
1718	 0.239159833071585 
1719	 0.238765204201081 
1720	 0.238459257531204 
1721	 0.238208660871647 
1722	 0.238005603835749 
1723	 0.23788380861133 
1724	 0.237828570531857 
1725	 0.237865030539334 
1726	 0.238050852860332 
1727	 0.238372530927001 
1728	 0.238789182714358 
1729	 0.239331143767646 
1730	 0.239993392711976 
1731	 0.240696787203015 
1732	 0.241503333061092 
1733	 0.242342279716296 
1734	 0.243156540887236 
1735	 0.243994658011713 
1736	 0.244766234979217 
1737	 0.245463376021687 
1738	 0.246075934339527 
1739	 0.246607614734444 
1740	 0.247056414259132 
1741	 0.24745272041768 
1742	 0.247770351087019 
1743	 0.248047568960488 
1744	 0.248239331669 
1745	 0.248442801405414 
1746	 0.248594897853679 
1747	 0.248767142091589 
1748	 0.248918421466671 
1749	 0.249124180303857 
1750	 0.249344094911389 
1751	 0.249617052275741 
1752	 0.249925924204281 
1753	 0.250303636786363 
1754	 0.250720420235545 
1755	 0.251202502043603 
1756	 0.251735496835915 
1757	 0.2523584377173 
1758	 0.253087524038539 
1759	 0.253894878373976 
1760	 0.254835517787541 
1761	 0.255865853421414 
1762	 0.256919797619272 
1763	 0.258084673848172 
1764	 0.259303479305209 
1765	 0.260565193526149 
1766	 0.261932971657523 
1767	 0.263280626745463 
1768	 0.264645661043219 
1769	 0.266018179182489 
1770	 0.267282858051557 
1771	 0.268562651771011 
1772	 0.269780145955818 
1773	 0.270883129620422 
1774	 0.272000955863537 
1775	 0.272998687243399 
1776	 0.273925801909378 
1777	 0.274836644781601 
1778	 0.275595811249955 
1779	 0.276311275297248 
1780	 0.276992400001273 
1781	 0.277549950538373 
1782	 0.278047359847537 
1783	 0.278496116333026 
1784	 0.278880085250956 
1785	 0.279245242359861 
1786	 0.279564221238547 
1787	 0.279810373588986 
1788	 0.280049250966166 
1789	 0.280240658087021 
1790	 0.280444002504671 
1791	 0.280653210483416 
1792	 0.280835928782532 
1793	 0.280989095022883 
1794	 0.281149956620112 
1795	 0.281302091932028 
1796	 0.281439236509053 
1797	 0.281584359183347 
1798	 0.281704233484286 
1799	 0.281813259060308 
1800	 0.281932752574684 
1801	 0.283343244340907 
1802	 0.28352775654193 
1803	 0.283678698331497 
1804	 0.283824093525649 
1805	 0.283948261124273 
1806	 0.284061574449947 
1807	 0.28414134861597 
1808	 0.284252507985908 
1809	 0.284370250374994 
1810	 0.284482150412508 
1811	 0.284595967631399 
1812	 0.284720830095946 
1813	 0.284849100892764 
1814	 0.284966111980833 
1815	 0.285098723540298 
1816	 0.285256606734174 
1817	 0.285416964932688 
1818	 0.285583553356177 
1819	 0.285753438898126 
1820	 0.285935574103178 
1821	 0.286119676124469 
1822	 0.286304306988428 
1823	 0.286495328138491 
1824	 0.286693363285136 
1825	 0.286887987431543 
1826	 0.287080414972158 
1827	 0.287256518388557 
1828	 0.287459394604421 
1829	 0.287682866333296 
1830	 0.287892186574004 
1831	 0.288096476287618 
1832	 0.288327619532567 
1833	 0.288541528754402 
1834	 0.288753985847834 
1835	 0.289006275503794 
1836	 0.289244476725267 
1837	 0.289485431587717 
1838	 0.289726726699118 
1839	 0.289981311029389 
1840	 0.290245638794786 
1841	 0.290502446259831 
1842	 0.290769589198849 
1843	 0.291029033746369 
1844	 0.291272122165051 
1845	 0.291504550854217 
1846	 0.291755954879769 
1847	 0.291995407727072 
1848	 0.29221874986036 
1849	 0.29244437336329 
1850	 0.29264793330839 
1851	 0.292836397411748 
1852	 0.293001925425102 
1853	 0.293149214652685 
1854	 0.293274616736667 
1855	 0.293371293659701 
1856	 0.293439984441989 
1857	 0.293499011804793 
1858	 0.29354073374095 
1859	 0.293554424083615 
1860	 0.293545909736652 
1861	 0.293516970984114 
1862	 0.29347528922268 
1863	 0.293387166942717 
1864	 0.293262404105931 
1865	 0.293125903987358 
1866	 0.29295999124021 
1867	 0.292740839856616 
1868	 0.292504271029614 
1869	 0.292229489237938 
1870	 0.29190920876033 
1871	 0.291548348139298 
1872	 0.291154554883381 
1873	 0.290731277043541 
1874	 0.290258319832095 
1875	 0.289748478678962 
1876	 0.28914816770672 
1877	 0.288513721694608 
1878	 0.287773609397097 
1879	 0.286913155452978 
1880	 0.286032483805704 
1881	 0.285012296276701 
1882	 0.283874028031366 
1883	 0.282647722837079 
1884	 0.28130216948623 
1885	 0.279719373939629 
1886	 0.278041326271538 
1887	 0.276199294602401 
1888	 0.274163180375347 
1889	 0.272179385343695 
1890	 0.27005473594236 
1891	 0.267897637986783 
1892	 0.265753614072221 
1893	 0.263545758758413 
1894	 0.26122382272014 
1895	 0.259006345423824 
1896	 0.256787280132288 
1897	 0.254620617405626 
1898	 0.252668755395759 
1899	 0.250743716773416 
1900	 0.248906763308211 
1901	 0.247190817003836 
1902	 0.245465628753025 
1903	 0.243877358315886 
1904	 0.242374059059477 
1905	 0.240947520623404 
1906	 0.239608472473332 
1907	 0.238454364476862 
1908	 0.237347134482422 
1909	 0.2363223475854 
1910	 0.235415416899196 
1911	 0.234527625016989 
1912	 0.23371374942777 
1913	 0.23295891600175 
1914	 0.232253280530795 
1915	 0.231621678572513 
1916	 0.231069366740618 
1917	 0.230541202755387 
1918	 0.230077991064522 
1919	 0.229673920566634 
1920	 0.229284787442258 
1921	 0.228940140980506 
1922	 0.228632050051869 
1923	 0.228356899948991 
1924	 0.228117131531273 
1925	 0.227901203298742 
1926	 0.227736292378229 
1927	 0.227621160994541 
1928	 0.227524483642674 
1929	 0.22745803422724 
1930	 0.227439613310477 
1931	 0.22745253895213 
1932	 0.227494382331546 
1933	 0.227585976026857 
1934	 0.227722981956732 
1935	 0.227870935661927 
1936	 0.228042059735006 
1937	 0.22825344836707 
1938	 0.228493640391607 
1939	 0.22876546263006 
1940	 0.229074112537962 
1941	 0.229422066085661 
1942	 0.229773258948672 
1943	 0.230157134287032 
1944	 0.230551057361432 
1945	 0.230950340505197 
1946	 0.231386844482534 
1947	 0.231826773742039 
1948	 0.232296613071501 
1949	 0.232793210040996 
1950	 0.233268751659563 
1951	 0.233740481311812 
1952	 0.234222315787071 
1953	 0.234699817585835 
1954	 0.235176663546578 
1955	 0.235689933154139 
1956	 0.236185549187393 
1957	 0.236685514366626 
1958	 0.237191581673977 
1959	 0.237648089819443 
1960	 0.238111689821545 
1961	 0.238577499422132 
1962	 0.239029622920515 
1963	 0.239482930140994 
1964	 0.239945465572033 
1965	 0.240398315773295 
1966	 0.240838683186429 
1967	 0.241292671013091 
1968	 0.241733636830277 
1969	 0.242195332840573 
1970	 0.242659615765411 
1971	 0.243101879044116 
1972	 0.243564882595636 
1973	 0.244013480072429 
1974	 0.244460960295491 
1975	 0.244918442977956 
1976	 0.245354742221471 
1977	 0.24577944350748 
1978	 0.246197033738978 
1979	 0.246598598589927 
1980	 0.246991566631836 
1981	 0.247413941338453 
1982	 0.247813347919026 
1983	 0.248200043595229 
1984	 0.24857375679862 
1985	 0.248902637513405 
1986	 0.249225150697485 
1987	 0.249540529428221 
1988	 0.249854803637025 
1989	 0.250146444832883 
1990	 0.250424632532452 
1991	 0.250680832216075 
1992	 0.250920697453818 
1993	 0.251142187524133 
1994	 0.251327997694293 
1995	 0.251524577987793 
1996	 0.251714508284777 
1997	 0.251848433432735 
1998	 0.251963852773749 
1999	 0.252056917925808 
2000	 0.252130591284852 
2001	 0.252168969555721 
2002	 0.252204653280498 
2003	 0.252238649621867 
2004	 0.252233298663731 
2005	 0.252210907728316 
2006	 0.252147242897964 
2007	 0.252040715975875 
2008	 0.251920443463748 
2009	 0.251775256027127 
2010	 0.251605899382287 
2011	 0.251431282987133 
2012	 0.251223624870648 
2013	 0.250985337044871 
2014	 0.250721625849561 
2015	 0.250422275049788 
2016	 0.250088554360317 
2017	 0.24972795748934 
2018	 0.249320438123088 
2019	 0.248903337183135 
2020	 0.24845918330842 
2021	 0.248000480837711 
2022	 0.247551780179647 
2023	 0.247080173532091 
2024	 0.24655159473071 
2025	 0.246013778082197 
2026	 0.245420021332236 
2027	 0.244730526213104 
2028	 0.244099306264081 
2029	 0.243450179392405 
2030	 0.242816887457134 
2031	 0.242224725255088 
2032	 0.241594986521995 
2033	 0.24093144343814 
2034	 0.240302338512449 
2035	 0.239676483911424 
2036	 0.239024442680139 
2037	 0.238455725484875 
2038	 0.237895355377789 
2039	 0.237355566699181 
2040	 0.236853659382143 
2041	 0.236342605726482 
2042	 0.235829425834196 
2043	 0.235353131203913 
2044	 0.234867562072264 
2045	 0.234447573484895 
2046	 0.234089763468218 
2047	 0.233730595655599 
2048	 0.233415146668635 
2049	 0.233102398040913 
2050	 0.232783152117159 
2051	 0.232501685920874 
2052	 0.232255546580469 
2053	 0.232011337963059 
2054	 0.23180153590595 
2055	 0.2316260875242 
2056	 0.231462389589713 
2057	 0.231333221400114 
2058	 0.231189185204201 
2059	 0.231059305853241 
2060	 0.230926679729435 
2061	 0.23077588908338 
2062	 0.230654320115324 
2063	 0.230553907851229 
2064	 0.230455402726328 
2065	 0.230362043756919 
2066	 0.230293030488438 
2067	 0.230230275056029 
2068	 0.230162370472194 
2069	 0.23008717803412 
2070	 0.230015231221483 
2071	 0.229937885265745 
2072	 0.229842941810762 
2073	 0.229762895343318 
2074	 0.229693172857363 
2075	 0.229619710791736 
2076	 0.229549360554175 
2077	 0.229477591452833 
2078	 0.229409189934632 
2079	 0.22933279748726 
2080	 0.229243243141043 
2081	 0.22916583566284 
2082	 0.229092185029464 
2083	 0.229020195426031 
2084	 0.228959411663952 
2085	 0.228878984534887 
2086	 0.228787253901122 
2087	 0.228681722357245 
2088	 0.228572156953298 
2089	 0.22843975923866 
2090	 0.228328970891893 
2091	 0.228224904828559 
2092	 0.228112730104266 
2093	 0.228021576964981 
2094	 0.227901563348535 
2095	 0.227758279367876 
2096	 0.22761313783901 
2097	 0.227467925533024 
2098	 0.227291490246093 
2099	 0.227099282495095 
2100	 0.226933522298978 
2101	 0.226735981988554 
2102	 0.226524400822152 
2103	 0.22629321491269 
2104	 0.22604816990017 
2105	 0.225782079900865 
2106	 0.225485081379511 
2107	 0.225195586542003 
2108	 0.224908185951042 
2109	 0.224590486692109 
2110	 0.224253635913957 
2111	 0.223913482801263 
2112	 0.223542992560351 
2113	 0.223178843731764 
2114	 0.222832849531569 
2115	 0.222454432943443 
2116	 0.222050103547039 
2117	 0.221650515151275 
2118	 0.221229849123103 
2119	 0.22077473302066 
2120	 0.220357414742743 
2121	 0.219935130725185 
2122	 0.219536177693278 
2123	 0.219163195368257 
2124	 0.218785301197814 
2125	 0.218422801747731 
2126	 0.218050960270525 
2127	 0.217662703299054 
2128	 0.217308935825195 
2129	 0.216958404631704 
2130	 0.21662979374496 
2131	 0.21633876351311 
2132	 0.21604497720989 
2133	 0.215760172349484 
2134	 0.215486108617197 
2135	 0.215205116467421 
2136	 0.21493746033968 
2137	 0.214669615228852 
2138	 0.214391670799667 
2139	 0.214146632929302 
2140	 0.213923271335877 
2141	 0.213697422868347 
2142	 0.213480172220732 
2143	 0.213282991575555 
2144	 0.213079748509235 
2145	 0.212919660173781 
2146	 0.212799873953376 
2147	 0.212682449234482 
2148	 0.212601542174531 
2149	 0.212504071232896 
2150	 0.212420588753182 
2151	 0.21232174681935 
2152	 0.212205058948768 
2153	 0.212094201276678 
2154	 0.21200377712973 
2155	 0.211894236479864 
2156	 0.211798828140486 
2157	 0.211725790604682 
2158	 0.211625974934481 
2159	 0.211521888624823 
2160	 0.211395029554188 
2161	 0.21124549561862 
2162	 0.211109349814032 
2163	 0.21095356586963 
2164	 0.210815834465544 
2165	 0.210688588578265 
2166	 0.210566256579007 
2167	 0.210447872324877 
2168	 0.210338808257406 
2169	 0.210234146462786 
2170	 0.210147574952995 
2171	 0.21007628447932 
2172	 0.210001003343671 
2173	 0.209927913048226 
2174	 0.209881767568678 
2175	 0.209813689066509 
2176	 0.209771600842829 
2177	 0.20972658949669 
2178	 0.209687595644402 
2179	 0.209661428718108 
2180	 0.209638904902377 
2181	 0.209630913306006 
2182	 0.209639794115915 
2183	 0.209655721533711 
2184	 0.209688224508216 
2185	 0.20971063815411 
2186	 0.209743795300139 
2187	 0.209767232500282 
2188	 0.209799203460217 
2189	 0.209797147410272 
2190	 0.209793190925192 
2191	 0.209751804061333 
2192	 0.209661899083198 
2193	 0.209574015445324 
2194	 0.209486499879022 
2195	 0.209358293467249 
2196	 0.209219531326379 
2197	 0.209026926510822 
2198	 0.208817454648208 
2199	 0.208595510702076 
2200	 0.208351380034621 
2201	 0.208095349335228 
2202	 0.207819102368943 
2203	 0.207505683013918 
2204	 0.207206363156762 
2205	 0.206887738513153 
2206	 0.206599719395064 
2207	 0.206315466053692 
2208	 0.206047660579628 
2209	 0.205813855146103 
2210	 0.205560659975668 
2211	 0.205325348294052 
2212	 0.205054578407747 
2213	 0.204792875527135 
2214	 0.204465611588105 
2215	 0.204123710997858 
2216	 0.203696449195727 
2217	 0.203215421486323 
2218	 0.202658792781593 
2219	 0.202021487048124 
2220	 0.201333163484331 
2221	 0.200574039891169 
2222	 0.199750533626915 
2223	 0.198926634994705 
2224	 0.197998261844537 
2225	 0.197034603887104 
2226	 0.195998269806405 
2227	 0.194836843024961 
2228	 0.19358376737819 
2229	 0.192222085577928 
2230	 0.190717614842815 
2231	 0.189184704529233 
2232	 0.187578631265243 
2233	 0.185856319071519 
2234	 0.184107612000452 
2235	 0.182147298810185 
2236	 0.180005401812673 
2237	 0.177808241095927 
2238	 0.175393983194946 
2239	 0.173035983533426 
2240	 0.170688567201283 
2241	 0.1681960020208 
2242	 0.165691740718586 
2243	 0.163022514440248 
2244	 0.160097098939544 
2245	 0.157267732167568 
2246	 0.154284684482542 
2247	 0.151448592529268 
2248	 0.148717843761371 
2249	 0.145992769470221 
2250	 0.143296697714347 
2251	 0.140725347617045 
2252	 0.138041044995114 
2253	 0.135463966151638 
2254	 0.132945450712895 
2255	 0.130460000358882 
2256	 0.128258561083712 
2257	 0.126124102110916 
2258	 0.12407859337335 
2259	 0.122213481467906 
2260	 0.120310554508039 
2261	 0.118412205289889 
2262	 0.116656328307546 
2263	 0.114927762778761 
2264	 0.113386302903778 
2265	 0.112001389471694 
2266	 0.110691423470365 
2267	 0.109551539823159 
2268	 0.108426072275249 
2269	 0.107377170660189 
2270	 0.10639795901135 
2271	 0.105470073865186 
2272	 0.104629001313994 
2273	 0.10393318625705 
2274	 0.103179577728393 
2275	 0.10253173619586 
2276	 0.101769825959477 
2277	 0.100939192000764 
2278	 0.100101949683893 
2279	 9.91965361346768E-02 
2280	 9.82973758349133E-02 
2281	 9.74109985823882E-02 
2282	 9.64750050614246E-02 
2283	 9.55298507066508E-02 
2284	 9.45296972749004E-02 
2285	 9.34229658786941E-02 
2286	 0.092349662886688 
2287	 9.12065973066177E-02 
2288	 9.00508473176749E-02 
2289	 8.90361399518252E-02 
2290	 8.79897807182358E-02 
2291	 8.70050322973729E-02 
2292	 8.61049806295406E-02 
2293	 8.51195321639718E-02 
2294	 0.084228175105033 
2295	 8.34519749072531E-02 
2296	 8.27366407004002E-02 
2297	 8.21507394760633E-02 
2298	 8.16930740796156E-02 
2299	 8.13489442723092E-02 
2300	 0.081102738122347 
2301	 8.09932646881377E-02 
2302	 8.10264727208488E-02 
2303	 8.11996917598702E-02 
2304	 8.15160636889794E-02 
2305	 8.19340087155436E-02 
2306	 8.25128925860613E-02 
2307	 8.31813059929678E-02 
2308	 8.39403172644048E-02 
2309	 8.48288514243305E-02 
2310	 8.59021778857913E-02 
2311	 0.086977556803511 
2312	 8.81988954757406E-02 
2313	 8.93660935834939E-02 
2314	 0.090610612569286 
2315	 9.17485390350541E-02 
2316	 9.28372298716586E-02 
2317	 9.38780542556828E-02 
2318	 9.49007167099814E-02 
2319	 9.57759462585273E-02 
2320	 9.66188575084476E-02 
2321	 9.72933871365742E-02 
2322	 9.77672453097887E-02 
2323	 9.81920632117982E-02 
2324	 9.84724620893378E-02 
2325	 9.87230624308345E-02 
2326	 9.89307933358949E-02 
2327	 9.90272053433345E-02 
2328	 9.90486802659123E-02 
2329	 9.89771727552562E-02 
2330	 9.87949312237921E-02 
2331	 9.84970787581263E-02 
2332	 9.81847609308426E-02 
2333	 9.77954581776154E-02 
2334	 9.73161363637846E-02 
2335	 9.68277934682248E-02 
2336	 9.62649790741274E-02 
2337	 9.56633072008697E-02 
2338	 9.51140231155136E-02 
2339	 9.45509230755654E-02 
2340	 0.094033763903557 
2341	 0.093532036671684 
2342	 9.30308092204696E-02 
2343	 9.26404106569545E-02 
2344	 9.23278352843729E-02 
2345	 9.21651701798116E-02 
2346	 9.21779200661219E-02 
2347	 9.23531840868822E-02 
2348	 0.09268727712112 
2349	 9.31455484702522E-02 
2350	 0.093723113095126 
2351	 9.43921477475638E-02 
2352	 9.51052458690348E-02 
2353	 9.58996746291868E-02 
2354	 9.66758189859685E-02 
2355	 9.73799159914602E-02 
2356	 9.80355093677533E-02 
2357	 9.86206312516135E-02 
2358	 9.91303562741697E-02 
2359	 0.099561615111249 
2360	 9.99206975406284E-02 
2361	 0.100118285720915 
2362	 0.100278017833469 
2363	 0.100404507319085 
2364	 0.10049454808621 
2365	 0.100652868919104 
2366	 0.100763443815178 
2367	 0.100806290765793 
2368	 0.100781174399151 
2369	 0.100725005992308 
2370	 0.10074353334879 
2371	 0.10080898040257 
2372	 0.100892444033651 
2373	 0.100946539350707 
2374	 0.100895582928291 
2375	 0.100791456369642 
2376	 0.10070385301008 
2377	 0.100657034677442 
2378	 0.100668349021064 
2379	 0.100682212725976 
2380	 0.100699165709351 
2381	 0.100716002203252 
2382	 0.100630140670639 
2383	 0.100405663224217 
2384	 0.100309299779925 
2385	 0.100197637852677 
2386	 0.100116334011008 
2387	 0.100150351121816 
2388	 0.100081671609705 
2389	 9.99243018332472E-02 
2390	 9.98434098671097E-02 
2391	 0.099795990594856 
2392	 9.97035959776044E-02 
2393	 9.95834614567705E-02 
2394	 9.95563881495807E-02 
2395	 9.95593336162004E-02 
2396	 9.95411284704421E-02 
2397	 9.96101016904025E-02 
2398	 9.95867087833218E-02 
2399	 9.94580928516039E-02 
2400	 0.099413288461849 
2401	 9.94039437230472E-02 
2402	 9.93638653678575E-02 
2403	 9.93181564427552E-02 
2404	 9.93013974603123E-02 
2405	 9.93171113691455E-02 
2406	 9.94068773955592E-02 
2407	 0.099483801283181 
2408	 9.95014372993565E-02 
2409	 9.96013271588184E-02 
2410	 9.96678092731554E-02 
2411	 9.96964572449772E-02 
2412	 9.97790009244232E-02 
2413	 9.98286094501352E-02 
2414	 9.98721538730936E-02 
2415	 9.99650217653991E-02 
2416	 0.100030534674949 
2417	 9.99901889076026E-02 
2418	 9.99449887922921E-02 
2419	 9.99436357335212E-02 
2420	 9.99566890965766E-02 
2421	 0.100022314227285 
2422	 0.100083205672065 
2423	 0.100030913373309 
2424	 9.99827456242764E-02 
2425	 0.100010810396213 
2426	 0.100009396144355 
2427	 0.100033246746268 
2428	 0.100053562988401 
2429	 0.100043947848941 
2430	 0.100011916675996 
2431	 0.100001181206982 
2432	 0.100093464212339 
2433	 0.100121628874428 
2434	 0.100068051287489 
2435	 0.100020938402522 
2436	 9.99283264815604E-02 
2437	 9.98114309007435E-02 
2438	 9.97201566142679E-02 
2439	 0.099679734516565 
2440	 9.96424429988095E-02 
2441	 9.95081060538898E-02 
2442	 9.94481225145747E-02 
2443	 9.93815597285755E-02 
2444	 9.90388868478515E-02 
2445	 9.87431295954537E-02 
2446	 9.86120431381831E-02 
2447	 9.84163686195819E-02 
2448	 9.83359910112769E-02 
2449	 9.82861829305216E-02 
2450	 9.79431739782945E-02 
2451	 9.76524940999411E-02 
2452	 9.74639213135936E-02 
2453	 9.71769008101509E-02 
2454	 0.097040712125438 
2455	 9.68514497758263E-02 
2456	 9.65754171694787E-02 
2457	 9.64000833195878E-02 
2458	 9.61556915697839E-02 
2459	 9.59419046997201E-02 
2460	 9.57479732819905E-02 
2461	 9.55492580021831E-02 
2462	 9.54305290333166E-02 
2463	 9.53413137646483E-02 
2464	 9.52927495402546E-02 
2465	 9.52560423164498E-02 
2466	 0.095169476631503 
2467	 9.50909822279257E-02 
2468	 9.51165788442698E-02 
2469	 9.51290381043859E-02 
2470	 9.51650798172137E-02 
2471	 9.52931945967769E-02 
2472	 9.53042889409599E-02 
2473	 9.53032798125227E-02 
2474	 9.53749794745182E-02 
2475	 9.53709613567511E-02 
2476	 9.52803939795632E-02 
2477	 9.52225076556563E-02 
2478	 9.52594762533599E-02 
2479	 9.53063090081511E-02 
2480	 9.53700848259791E-02 
2481	 9.55189422485862E-02 
2482	 0.095673181913387 
2483	 9.58183513338108E-02 
2484	 0.096202099982616 
2485	 9.63049771925529E-02 
2486	 9.63442322839468E-02 
2487	 9.64052005738346E-02 
2488	 9.62828192385821E-02 
2489	 9.63873847477114E-02 
2490	 9.66430477491332E-02 
2491	 9.68660088575899E-02 
2492	 9.71513617922246E-02 
2493	 9.72814961235408E-02 
2494	 9.73223254243801E-02 
2495	 9.74701843196415E-02 
2496	 9.75536469102519E-02 
2497	 9.77624150745646E-02 
2498	 9.81553826269852E-02 
2499	 9.84606539524614E-02 
2500	 9.86365708012819E-02 
