Wavelength	spectrum00008.asd
350	 0.122315573596176 
351	 0.118595177326637 
352	 0.114814908945376 
353	 0.112537695617788 
354	 0.110016439996491 
355	 0.108578136139306 
356	 0.106666122497402 
357	 0.103096463870601 
358	 9.91518449163274E-02 
359	 9.81169118101357E-02 
360	 9.87149124656227E-02 
361	 9.77167178626456E-02 
362	 9.74334965364239E-02 
363	 0.096340915014441 
364	 9.42813143756976E-02 
365	 9.32507805669533E-02 
366	 9.37261123310435E-02 
367	 9.36497026347182E-02 
368	 9.17626915327389E-02 
369	 9.13006695561666E-02 
370	 9.19163520877424E-02 
371	 9.20326347976419E-02 
372	 8.99650989070269E-02 
373	 0.089501089250254 
374	 8.91319793670725E-02 
375	 8.83870145625025E-02 
376	 8.91228839446442E-02 
377	 8.91072306258814E-02 
378	 8.85512331053531E-02 
379	 8.81584353958277E-02 
380	 8.78876325917227E-02 
381	 8.79705800963508E-02 
382	 8.77020996920762E-02 
383	 8.61623641193405E-02 
384	 0.085892076095339 
385	 8.61584522688069E-02 
386	 8.60859927720815E-02 
387	 8.52184472159833E-02 
388	 8.41188546398081E-02 
389	 8.34396590164088E-02 
390	 8.33803629562788E-02 
391	 8.24922098260704E-02 
392	 8.18784409071586E-02 
393	 8.17702288528296E-02 
394	 8.17452787457651E-02 
395	 8.13918870084102E-02 
396	 8.12515746268407E-02 
397	 8.13642313875679E-02 
398	 8.07236861235543E-02 
399	 8.01280976260104E-02 
400	 7.98868678202956E-02 
401	 7.99185047037265E-02 
402	 7.91429486876204E-02 
403	 7.89364520049237E-02 
404	 7.92312565559141E-02 
405	 0.078877974588901 
406	 7.80713345256899E-02 
407	 7.76642189713456E-02 
408	 7.79031289348286E-02 
409	 7.77222797915505E-02 
410	 0.077636612417595 
411	 7.75647973078505E-02 
412	 7.73424286915304E-02 
413	 0.077374177433174 
414	 7.69491370887355E-02 
415	 7.62962048664377E-02 
416	 7.64577150963817E-02 
417	 0.076515716770208 
418	 7.66795729005122E-02 
419	 7.70103175556806E-02 
420	 7.67287701867314E-02 
421	 7.64782742101723E-02 
422	 7.65107544135526E-02 
423	 7.68411356660941E-02 
424	 0.077210176660253 
425	 7.71897873824236E-02 
426	 7.69804758550258E-02 
427	 7.74756255809847E-02 
428	 7.74803838634654E-02 
429	 7.75388997528726E-02 
430	 7.81067880988819E-02 
431	 7.81408728282311E-02 
432	 7.83920794592061E-02 
433	 7.88391662193485E-02 
434	 0.079076708340981 
435	 7.95149705230597E-02 
436	 8.00290811613971E-02 
437	 0.080483517930495 
438	 8.08056286114085E-02 
439	 0.081318758032472 
440	 8.19312122672096E-02 
441	 8.24986429274674E-02 
442	 8.32250304994082E-02 
443	 8.40152796913924E-02 
444	 8.48041146441932E-02 
445	 8.55693458318546E-02 
446	 8.64057761056334E-02 
447	 0.087266359496153 
448	 8.81547101894527E-02 
449	 8.92393657161016E-02 
450	 9.04058954841328E-02 
451	 9.16328954556727E-02 
452	 9.29160290225155E-02 
453	 9.41373850795832E-02 
454	 9.54507110894425E-02 
455	 9.69056024238682E-02 
456	 0.098422189955919 
457	 9.99902625122909E-02 
458	 0.101621281527805 
459	 0.103340519233896 
460	 0.105183572079496 
461	 0.107083925663815 
462	 0.109083195389133 
463	 0.111268551499918 
464	 0.113541443916322 
465	 0.115908201625398 
466	 0.118353488027374 
467	 0.120812739869412 
468	 0.123403151055702 
469	 0.12613684233896 
470	 0.129012227477157 
471	 0.132107180641045 
472	 0.135197276853198 
473	 0.138305581845622 
474	 0.141646881504138 
475	 0.145176697742596 
476	 0.148725783653025 
477	 0.152277225960022 
478	 0.156213161702684 
479	 0.160193172007064 
480	 0.164233212386258 
481	 0.168443153072263 
482	 0.172590718815792 
483	 0.176815309361282 
484	 0.181213922061368 
485	 0.185788055896893 
486	 0.190346251107186 
487	 0.194922845973221 
488	 0.199598547274993 
489	 0.204432328180956 
490	 0.209225984717312 
491	 0.213963855418939 
492	 0.21875157022873 
493	 0.223651885070112 
494	 0.22856214745659 
495	 0.233431227349238 
496	 0.238312151954218 
497	 0.24318852252018 
498	 0.248047409136821 
499	 0.252868940538071 
500	 0.257660770432727 
501	 0.262426018796941 
502	 0.267162482154362 
503	 0.271864627949216 
504	 0.276533520209532 
505	 0.281214768422349 
506	 0.285910976682038 
507	 0.290491881002576 
508	 0.295080730225794 
509	 0.299641856456107 
510	 0.304092713948414 
511	 0.308600576168101 
512	 0.313033495522984 
513	 0.317359006322252 
514	 0.321721015959387 
515	 0.32604518943702 
516	 0.330348785116508 
517	 0.334652766408985 
518	 0.338906245368659 
519	 0.343191490610394 
520	 0.34747648209528 
521	 0.35165902958785 
522	 0.355828578931179 
523	 0.360005877658256 
524	 0.364181723759886 
525	 0.368323609525689 
526	 0.372397142983362 
527	 0.376463879670895 
528	 0.380587369020362 
529	 0.384603600171384 
530	 0.388589577900014 
531	 0.392601670087746 
532	 0.396649621470235 
533	 0.400613257946874 
534	 0.404597607449819 
535	 0.408664568011787 
536	 0.412616333119707 
537	 0.416576360128183 
538	 0.420537170785996 
539	 0.424426518553453 
540	 0.428240409981422 
541	 0.432033436487878 
542	 0.435835546974194 
543	 0.43962377615764 
544	 0.44339366762868 
545	 0.44707743252797 
546	 0.450640826891387 
547	 0.454302288820201 
548	 0.45787222407934 
549	 0.461339200402367 
550	 0.464858143833179 
551	 0.468315243765565 
552	 0.471795535296291 
553	 0.475342596397275 
554	 0.478801662711851 
555	 0.482170109412612 
556	 0.485512363333984 
557	 0.488910996825958 
558	 0.492310138310052 
559	 0.495678733510934 
560	 0.498996863567995 
561	 0.50226253027525 
562	 0.505469313099829 
563	 0.508585492535308 
564	 0.511611283669213 
565	 0.514678767046306 
566	 0.517736173264351 
567	 0.5207704518337 
568	 0.523795300537528 
569	 0.526752648339647 
570	 0.5296685037046 
571	 0.532571713904448 
572	 0.535467377953228 
573	 0.538280305421055 
574	 0.5410210916589 
575	 0.543732312524528 
576	 0.546398135420422 
577	 0.548973043547669 
578	 0.551481349061444 
579	 0.55402035078221 
580	 0.55649993433576 
581	 0.558929136792201 
582	 0.561340494733506 
583	 0.563753724031404 
584	 0.566153964565054 
585	 0.568582556714729 
586	 0.571093517087467 
587	 0.57349440492955 
588	 0.575870022079122 
589	 0.578268216660168 
590	 0.580620389349362 
591	 0.582950959551241 
592	 0.585271908178658 
593	 0.587555666198737 
594	 0.589625684527089 
595	 0.59169124102079 
596	 0.593781273631597 
597	 0.595763479234718 
598	 0.597939521263285 
599	 0.60005374905765 
600	 0.601958010782125 
601	 0.603996239333004 
602	 0.606002227518784 
603	 0.608016499988739 
604	 0.610115264311626 
605	 0.612041791907791 
606	 0.613969804201519 
607	 0.615944978212114 
608	 0.617806525653211 
609	 0.619562575160457 
610	 0.621308435418338 
611	 0.623125602072844 
612	 0.624955873188186 
613	 0.62672454870495 
614	 0.628433049020005 
615	 0.630128806158521 
616	 0.631717291843145 
617	 0.633281234291155 
618	 0.634882676798323 
619	 0.636512535049887 
620	 0.6381330761671 
621	 0.639775410723679 
622	 0.641437023818489 
623	 0.642822220784472 
624	 0.644278289114752 
625	 0.645841359196795 
626	 0.647245413209102 
627	 0.648658331318388 
628	 0.650090715890238 
629	 0.651538296375167 
630	 0.653047420095193 
631	 0.654430434109871 
632	 0.655668232152596 
633	 0.656863663258543 
634	 0.658344125257545 
635	 0.659771991542713 
636	 0.661017199100813 
637	 0.662274798392311 
638	 0.66351485927453 
639	 0.664788019905687 
640	 0.666080556146139 
641	 0.667108361547596 
642	 0.668181764895464 
643	 0.669430307858487 
644	 0.670821914076163 
645	 0.672010845819507 
646	 0.673118290906835 
647	 0.674226243205996 
648	 0.67524588065871 
649	 0.676290586541512 
650	 0.677364422336673 
651	 0.678440062410323 
652	 0.679525373306652 
653	 0.680578620758207 
654	 0.681597737059439 
655	 0.682609897009817 
656	 0.683582473086506 
657	 0.684545765002022 
658	 0.685510263234966 
659	 0.686415612549072 
660	 0.687398970055309 
661	 0.688414588056719 
662	 0.689358455154779 
663	 0.690241536211792 
664	 0.691126955211317 
665	 0.692011545187889 
666	 0.692825461948009 
667	 0.693668356305827 
668	 0.694554834132753 
669	 0.695432841247257 
670	 0.696112012619267 
671	 0.696884518200598 
672	 0.697746237173028 
673	 0.698552550083625 
674	 0.699231671268927 
675	 0.699904867844302 
676	 0.700652742613306 
677	 0.701481266873653 
678	 0.702207020159934 
679	 0.702844227594402 
680	 0.703463161735152 
681	 0.704124364179074 
682	 0.704898665080149 
683	 0.705672635555124 
684	 0.706278784978036 
685	 0.707010015311443 
686	 0.707761668451163 
687	 0.708460806306968 
688	 0.709138847430655 
689	 0.709923373562939 
690	 0.710591083131318 
691	 0.711025303756188 
692	 0.71180368016883 
693	 0.71256613382935 
694	 0.713186755317985 
695	 0.713722263015006 
696	 0.714390533976815 
697	 0.714951030929732 
698	 0.715382044217369 
699	 0.716091877349066 
700	 0.716783978163637 
701	 0.717392460215841 
702	 0.717931380257214 
703	 0.718438086513608 
704	 0.71904456839953 
705	 0.719650233886741 
706	 0.720028651726384 
707	 0.720424919502884 
708	 0.720910895741359 
709	 0.721487528993976 
710	 0.722089334877149 
711	 0.722580214465867 
712	 0.723031969243692 
713	 0.723540018092713 
714	 0.724005380307837 
715	 0.724436015327799 
716	 0.724866510722399 
717	 0.725340465474036 
718	 0.725813066147209 
719	 0.726234914141077 
720	 0.726617447636118 
721	 0.727074832549668 
722	 0.727476544480619 
723	 0.727895930331037 
724	 0.728389957473165 
725	 0.728707649326617 
726	 0.728944094829977 
727	 0.729322459200682 
728	 0.730060098116733 
729	 0.730437517231268 
730	 0.730731149197895 
731	 0.731142355872652 
732	 0.731520305369274 
733	 0.731885005501325 
734	 0.732247421558247 
735	 0.73260693951783 
736	 0.732901016362019 
737	 0.733313283698745 
738	 0.733753563942193 
739	 0.733996464925284 
740	 0.734394808966099 
741	 0.734796000011917 
742	 0.735091246433581 
743	 0.735327629154708 
744	 0.73572648474079 
745	 0.736108418126993 
746	 0.736308781894944 
747	 0.736609130908729 
748	 0.736856563519655 
749	 0.737112676782237 
750	 0.737526940079761 
751	 0.737914143396416 
752	 0.738221501659811 
753	 0.738454948043787 
754	 0.738675886628172 
755	 0.738959866708476 
756	 0.739251112637279 
757	 0.739509984467573 
758	 0.739859696352356 
759	 0.740063349258471 
760	 0.740251631084765 
761	 0.740648279016377 
762	 0.740850065417618 
763	 0.741123157511566 
764	 0.741482438983123 
765	 0.741646479735306 
766	 0.741985087069984 
767	 0.742316722446744 
768	 0.742473676908184 
769	 0.742539940689587 
770	 0.742798511576499 
771	 0.743154513024874 
772	 0.743405137330551 
773	 0.743628400375658 
774	 0.74385757952543 
775	 0.7441009450489 
776	 0.744340354893769 
777	 0.744496087603855 
778	 0.744690677435489 
779	 0.744958977397571 
780	 0.745137121022633 
781	 0.745400325262213 
782	 0.745664865446808 
783	 0.745836913305639 
784	 0.746056303159174 
785	 0.746272772922478 
786	 0.746445277793259 
787	 0.746561594067932 
788	 0.746760149865837 
789	 0.747020108762905 
790	 0.747244474709644 
791	 0.74728677985865 
792	 0.747531528745917 
793	 0.747837409459102 
794	 0.74801874673523 
795	 0.748043104924788 
796	 0.748183962594684 
797	 0.74845474796102 
798	 0.748734936424997 
799	 0.748826880121993 
800	 0.748941104758925 
801	 0.749105908886795 
802	 0.749211284681314 
803	 0.749421698553319 
804	 0.749616428041764 
805	 0.749740749422403 
806	 0.749894257819359 
807	 0.75003173356491 
808	 0.750213912412522 
809	 0.7504615110178 
810	 0.750602666095513 
811	 0.750803791388874 
812	 0.750959373374846 
813	 0.750940251481747 
814	 0.751204777129903 
815	 0.751455464542434 
816	 0.751572101386979 
817	 0.751640426984568 
818	 0.751693195072772 
819	 0.751818175762069 
820	 0.752007995521696 
821	 0.752097375203186 
822	 0.752161703554822 
823	 0.752265193474963 
824	 0.752445303503702 
825	 0.752673488227015 
826	 0.75285461628792 
827	 0.752996130824122 
828	 0.753135639121916 
829	 0.753147763929971 
830	 0.753274721727697 
831	 0.75350150464552 
832	 0.75359635650182 
833	 0.753774860111899 
834	 0.753926944370998 
835	 0.753983607165152 
836	 0.754010025525698 
837	 0.754101828001209 
838	 0.754209905090739 
839	 0.754284031052009 
840	 0.754383590005222 
841	 0.754512866503926 
842	 0.754745418240505 
843	 0.755085338812891 
844	 0.755101391555924 
845	 0.755072068859138 
846	 0.75512736527871 
847	 0.755250033940069 
848	 0.755403199135494 
849	 0.755513748674818 
850	 0.755558710099398 
851	 0.755585071384831 
852	 0.755717455834568 
853	 0.755840190977079 
854	 0.755888741469631 
855	 0.75601968205138 
856	 0.756144492539973 
857	 0.756206244972674 
858	 0.756206989833898 
859	 0.756302908318932 
860	 0.756538575715192 
861	 0.756738812749337 
862	 0.756691570687165 
863	 0.756672887351742 
864	 0.756722610169955 
865	 0.756833706281794 
866	 0.756965783971934 
867	 0.757067976109072 
868	 0.757137810618413 
869	 0.757214110390754 
870	 0.757371811316051 
871	 0.757455883675783 
872	 0.757475454598598 
873	 0.757491093144827 
874	 0.757587655404622 
875	 0.757679109664514 
876	 0.757736713846357 
877	 0.757760147103942 
878	 0.757767288850113 
879	 0.757847651024723 
880	 0.757931034595958 
881	 0.757930853681974 
882	 0.758132841555587 
883	 0.758299931584499 
884	 0.758374361753648 
885	 0.758452475215953 
886	 0.758476509961054 
887	 0.758504388686877 
888	 0.75853957341846 
889	 0.758519337669288 
890	 0.758589710440874 
891	 0.758648171873705 
892	 0.758639494831442 
893	 0.758663630555746 
894	 0.758828617214658 
895	 0.758929795252913 
896	 0.758830295037438 
897	 0.758767016624996 
898	 0.758795387216733 
899	 0.75892743901772 
900	 0.759107689726804 
901	 0.759151574400357 
902	 0.759163553001719 
903	 0.759171598562229 
904	 0.759167315152724 
905	 0.759174202197301 
906	 0.759201129527176 
907	 0.759253263672852 
908	 0.759320387672129 
909	 0.759307162700944 
910	 0.759259714437278 
911	 0.759267310969423 
912	 0.759410667194926 
913	 0.759374228372119 
914	 0.759360589147988 
915	 0.759474826700858 
916	 0.759577489944621 
917	 0.759606850372067 
918	 0.759615625753835 
919	 0.759665884148302 
920	 0.759781638266168 
921	 0.75986500746282 
922	 0.75990743982284 
923	 0.759941408082048 
924	 0.760034353104039 
925	 0.7600888398123 
926	 0.760124156745022 
927	 0.760194184486645 
928	 0.760337476267646 
929	 0.760402729977047 
930	 0.760398499501092 
931	 0.760390237358001 
932	 0.760326836989401 
933	 0.760425045024527 
934	 0.760673987515689 
935	 0.760914652023606 
936	 0.760994189158884 
937	 0.761056258164414 
938	 0.761152189424018 
939	 0.761250543648946 
940	 0.761331437652277 
941	 0.761440217093057 
942	 0.761565144187856 
943	 0.761655621658012 
944	 0.76180761855955 
945	 0.761986304809674 
946	 0.762161898769838 
947	 0.762314205186246 
948	 0.762257840735672 
949	 0.762158738650508 
950	 0.762169335732905 
951	 0.76232892094929 
952	 0.762411207908479 
953	 0.762424172273402 
954	 0.762438551738847 
955	 0.762537056762258 
956	 0.76261121260743 
957	 0.762642045506526 
958	 0.762662275602134 
959	 0.762751812243827 
960	 0.762836916870942 
961	 0.76284197544803 
962	 0.762785674912011 
963	 0.762858634804741 
964	 0.762963352753243 
965	 0.763025414842489 
966	 0.763011903249901 
967	 0.762967342940018 
968	 0.762990463060552 
969	 0.763030931154289 
970	 0.763037314666472 
971	 0.763078431078426 
972	 0.763108035179833 
973	 0.763086630668005 
974	 0.763030416407445 
975	 0.763095081767377 
976	 0.763152760871234 
977	 0.763202826171304 
978	 0.763281107231591 
979	 0.763401104835935 
980	 0.763562914373064 
981	 0.763619243914758 
982	 0.763509569804306 
983	 0.763587663639787 
984	 0.763669075153861 
985	 0.7637490446154 
986	 0.76384587340443 
987	 0.763863474882818 
988	 0.763708410152561 
989	 0.763645262512499 
990	 0.763865256899203 
991	 0.763882888289251 
992	 0.763838398409095 
993	 0.763826065336238 
994	 0.76389245930154 
995	 0.763967356391415 
996	 0.764075718803023 
997	 0.764069196715124 
998	 0.763905671701872 
999	 0.764065472760321 
1000	 0.764257304986531 
1001	 0.767456562997351 
1002	 0.767505266536136 
1003	 0.767552211328052 
1004	 0.767600826652843 
1005	 0.767634804411668 
1006	 0.767676165392927 
1007	 0.767757158016107 
1008	 0.767785976409586 
1009	 0.767774799770512 
1010	 0.767800126267812 
1011	 0.767814816920756 
1012	 0.767819602194512 
1013	 0.767830159878516 
1014	 0.767854976758397 
1015	 0.767861634232223 
1016	 0.76789420097726 
1017	 0.767974581864221 
1018	 0.768067586527468 
1019	 0.768106240868978 
1020	 0.768161334611952 
1021	 0.768200944058896 
1022	 0.768193398103075 
1023	 0.768235142652789 
1024	 0.768331451991497 
1025	 0.768355592865213 
1026	 0.768359671033657 
1027	 0.768370669722659 
1028	 0.76835043896469 
1029	 0.768311300594807 
1030	 0.76834497214479 
1031	 0.768385729298586 
1032	 0.768384221686448 
1033	 0.768423886205798 
1034	 0.768438629044608 
1035	 0.768447575882018 
1036	 0.768465141404743 
1037	 0.76847887079479 
1038	 0.768503553942954 
1039	 0.768538503654382 
1040	 0.768558146219432 
1041	 0.768588921025219 
1042	 0.768628972888279 
1043	 0.768666864881743 
1044	 0.768690662860499 
1045	 0.768735880776925 
1046	 0.768747889101541 
1047	 0.768768268862089 
1048	 0.768825799600133 
1049	 0.768868681918227 
1050	 0.768889810612147 
1051	 0.768935113015457 
1052	 0.768973272773918 
1053	 0.76900212392442 
1054	 0.769038044800044 
1055	 0.769096652184866 
1056	 0.769148731034252 
1057	 0.769183027057425 
1058	 0.769233539984411 
1059	 0.769282927500479 
1060	 0.769286980201577 
1061	 0.769331132468249 
1062	 0.769401162640867 
1063	 0.769456335462962 
1064	 0.769524216619894 
1065	 0.769578108280321 
1066	 0.769621759459997 
1067	 0.769724235008098 
1068	 0.769849180347224 
1069	 0.769945828293815 
1070	 0.770030956827076 
1071	 0.77012440265317 
1072	 0.770190441514479 
1073	 0.770234688171431 
1074	 0.770310488728472 
1075	 0.770423836284409 
1076	 0.77051268030442 
1077	 0.770574564189815 
1078	 0.770650350744868 
1079	 0.770717659347042 
1080	 0.770798428694974 
1081	 0.770898190157941 
1082	 0.770973901172513 
1083	 0.771046763536454 
1084	 0.771101691111071 
1085	 0.771158700767509 
1086	 0.771228913360948 
1087	 0.771315570523226 
1088	 0.771376125206997 
1089	 0.771440124165337 
1090	 0.771516592935933 
1091	 0.771589928815946 
1092	 0.771669782793364 
1093	 0.771724723731604 
1094	 0.771751587537468 
1095	 0.771769862286791 
1096	 0.77179294542508 
1097	 0.771842711860116 
1098	 0.771883625759369 
1099	 0.771889491109325 
1100	 0.771904237648556 
1101	 0.771906723477504 
1102	 0.771887341545422 
1103	 0.771873124334084 
1104	 0.771861623213386 
1105	 0.771825807826275 
1106	 0.771815719924561 
1107	 0.77185451998565 
1108	 0.771893526014479 
1109	 0.771935567211774 
1110	 0.771946349589511 
1111	 0.771913130651141 
1112	 0.771885739494613 
1113	 0.77185073492313 
1114	 0.771808608374248 
1115	 0.771785190509637 
1116	 0.7717495533051 
1117	 0.771710808870568 
1118	 0.771682526396855 
1119	 0.771676628021162 
1120	 0.771643400583086 
1121	 0.77161347438877 
1122	 0.771549910638028 
1123	 0.771456747723271 
1124	 0.771349947374914 
1125	 0.771232026350771 
1126	 0.771136508423865 
1127	 0.771068203898787 
1128	 0.770956433548906 
1129	 0.770845240892224 
1130	 0.770748160314841 
1131	 0.770591439888375 
1132	 0.770452154609259 
1133	 0.77031678656644 
1134	 0.770142272629324 
1135	 0.769974454084693 
1136	 0.769817352620349 
1137	 0.769637479123473 
1138	 0.769425842956022 
1139	 0.769237046304682 
1140	 0.769048432208969 
1141	 0.768875572995354 
1142	 0.768680422246006 
1143	 0.768484904106836 
1144	 0.768280368175591 
1145	 0.768039771121266 
1146	 0.767815241110468 
1147	 0.767585835036147 
1148	 0.767336735288582 
1149	 0.767076638094637 
1150	 0.766811048508203 
1151	 0.766569694578577 
1152	 0.766296083251814 
1153	 0.76599947580716 
1154	 0.765715235069016 
1155	 0.765418853330852 
1156	 0.765119478082022 
1157	 0.76483847667319 
1158	 0.764543557919945 
1159	 0.764233811390857 
1160	 0.763908935413746 
1161	 0.763618470543285 
1162	 0.763321758562612 
1163	 0.763020672224405 
1164	 0.762728817666088 
1165	 0.762426986988764 
1166	 0.762120839942275 
1167	 0.76181568979489 
1168	 0.761541663501827 
1169	 0.761254895410932 
1170	 0.760964115743096 
1171	 0.760666915053997 
1172	 0.760371815536297 
1173	 0.760066362018195 
1174	 0.759759194213394 
1175	 0.759446831278687 
1176	 0.759146039147657 
1177	 0.758811926510462 
1178	 0.758461483531336 
1179	 0.75807095700904 
1180	 0.757714756334028 
1181	 0.757333838797592 
1182	 0.756945134363268 
1183	 0.756621982733332 
1184	 0.756294111302356 
1185	 0.755960935531518 
1186	 0.755655358175161 
1187	 0.755378659666553 
1188	 0.755107673123455 
1189	 0.754838221417838 
1190	 0.754599334225526 
1191	 0.7543892996639 
1192	 0.754187183896724 
1193	 0.754004639124827 
1194	 0.7538268246588 
1195	 0.753647489323097 
1196	 0.753500331268052 
1197	 0.753372386577166 
1198	 0.753258093523392 
1199	 0.75317252907135 
1200	 0.75309732743142 
1201	 0.753008486197082 
1202	 0.752932064322393 
1203	 0.752851212649763 
1204	 0.752774110870476 
1205	 0.752734944473393 
1206	 0.752708749676011 
1207	 0.752718811188292 
1208	 0.752742781742548 
1209	 0.752835329654726 
1210	 0.752960543634697 
1211	 0.753141344705583 
1212	 0.753387610271751 
1213	 0.75367230190262 
1214	 0.753979013485485 
1215	 0.754367938346429 
1216	 0.754844887458718 
1217	 0.755331824421998 
1218	 0.755873424821401 
1219	 0.756456746041336 
1220	 0.757034603255882 
1221	 0.75762589189195 
1222	 0.758223489043003 
1223	 0.758814746220648 
1224	 0.759384042409114 
1225	 0.759943040137626 
1226	 0.760476551291273 
1227	 0.760992665898968 
1228	 0.761490540214982 
1229	 0.761985167121683 
1230	 0.762423765455297 
1231	 0.762836605189559 
1232	 0.763210415592274 
1233	 0.763522670803545 
1234	 0.763827786054272 
1235	 0.764095248143189 
1236	 0.76436680631188 
1237	 0.764632882672207 
1238	 0.764874833992657 
1239	 0.765115886540046 
1240	 0.765325429388383 
1241	 0.765496714456917 
1242	 0.765656822358915 
1243	 0.765807893472841 
1244	 0.765934669986241 
1245	 0.766076353044752 
1246	 0.766209464226794 
1247	 0.766354420372193 
1248	 0.76651319172011 
1249	 0.76665594172802 
1250	 0.766802893884275 
1251	 0.766934194541442 
1252	 0.767060895714402 
1253	 0.767164715138005 
1254	 0.767243748187116 
1255	 0.767331803350639 
1256	 0.767399363723939 
1257	 0.767478718044879 
1258	 0.767581799932444 
1259	 0.767660513581723 
1260	 0.767732393718602 
1261	 0.767794061554812 
1262	 0.767849635938222 
1263	 0.76788203787986 
1264	 0.767902289489772 
1265	 0.767907534101709 
1266	 0.767909465220435 
1267	 0.767887778642854 
1268	 0.767882580018188 
1269	 0.767878924311223 
1270	 0.767877929810572 
1271	 0.767874179317612 
1272	 0.767883533659105 
1273	 0.767903118404428 
1274	 0.767920467712691 
1275	 0.767960629520072 
1276	 0.767970688597689 
1277	 0.767953034315103 
1278	 0.767954877386417 
1279	 0.767942966599378 
1280	 0.767947321239894 
1281	 0.767974623909891 
1282	 0.767999594094116 
1283	 0.76803175220943 
1284	 0.768058241373956 
1285	 0.768083937910031 
1286	 0.768105220803782 
1287	 0.768147863995186 
1288	 0.768193052526012 
1289	 0.768246228561565 
1290	 0.768315318929106 
1291	 0.768388968152857 
1292	 0.768467602515472 
1293	 0.768543629924574 
1294	 0.76863214594166 
1295	 0.768713977941488 
1296	 0.768790156471545 
1297	 0.768863807917776 
1298	 0.768941060378967 
1299	 0.769012470200095 
1300	 0.769075226093263 
1301	 0.7691378856601 
1302	 0.769204957015322 
1303	 0.769261778678088 
1304	 0.769318531758635 
1305	 0.769359028982219 
1306	 0.769383946790255 
1307	 0.769408029699186 
1308	 0.769427266839469 
1309	 0.769429703215627 
1310	 0.76943854513286 
1311	 0.769454825180346 
1312	 0.769443085523986 
1313	 0.769418787458055 
1314	 0.769389281352582 
1315	 0.769333402113034 
1316	 0.769302672261368 
1317	 0.769288589988747 
1318	 0.769249464589455 
1319	 0.769204733256284 
1320	 0.76916169845822 
1321	 0.769097220284852 
1322	 0.76905170531665 
1323	 0.7690374397112 
1324	 0.768987641613415 
1325	 0.768930345532343 
1326	 0.768857855088651 
1327	 0.768759544199215 
1328	 0.768662203633586 
1329	 0.768572870064088 
1330	 0.768454120172237 
1331	 0.768316418854211 
1332	 0.768169506123713 
1333	 0.76801021978117 
1334	 0.767821636345761 
1335	 0.767639421513697 
1336	 0.76745890783249 
1337	 0.767249987192688 
1338	 0.767018738321706 
1339	 0.76680132351966 
1340	 0.766578970617962 
1341	 0.766339767432196 
1342	 0.766106399690619 
1343	 0.765848058343649 
1344	 0.765566130692096 
1345	 0.76527370558703 
1346	 0.764966897996654 
1347	 0.764660070016193 
1348	 0.764343647034595 
1349	 0.764012518406615 
1350	 0.7636576940117 
1351	 0.763329672249604 
1352	 0.763006959824335 
1353	 0.76267050373762 
1354	 0.762352109280202 
1355	 0.76202099706395 
1356	 0.761659939227919 
1357	 0.761308695737553 
1358	 0.760970507715268 
1359	 0.76062056495747 
1360	 0.76025652503473 
1361	 0.759900898906266 
1362	 0.759536979665822 
1363	 0.759184847728612 
1364	 0.758826870329573 
1365	 0.758479508853557 
1366	 0.75810192884169 
1367	 0.757711577716833 
1368	 0.757320416444149 
1369	 0.756914897172629 
1370	 0.756505726866209 
1371	 0.756100394600905 
1372	 0.755680136295024 
1373	 0.755240136964653 
1374	 0.754805572706386 
1375	 0.754372044922679 
1376	 0.753920215035892 
1377	 0.753475255220409 
1378	 0.752985991291755 
1379	 0.752459004963868 
1380	 0.751935497256981 
1381	 0.751369930047362 
1382	 0.750832303514633 
1383	 0.750305778987629 
1384	 0.749780094207588 
1385	 0.749271261267562 
1386	 0.748752264468711 
1387	 0.748216114813715 
1388	 0.747709617526174 
1389	 0.747183965185147 
1390	 0.746711569672736 
1391	 0.746280848632531 
1392	 0.745863129773199 
1393	 0.745521179973676 
1394	 0.745178644574909 
1395	 0.74484806992579 
1396	 0.744567044417462 
1397	 0.744216918125882 
1398	 0.743868756018947 
1399	 0.743448185990199 
1400	 0.742991581210779 
1401	 0.742467935512063 
1402	 0.741897930640104 
1403	 0.741258097659495 
1404	 0.740534252829897 
1405	 0.739813826025425 
1406	 0.739032383511458 
1407	 0.738261185241937 
1408	 0.737455016819618 
1409	 0.736689775847654 
1410	 0.735903924159042 
1411	 0.735176235205186 
1412	 0.734472208470961 
1413	 0.733833341142304 
1414	 0.733234585833071 
1415	 0.732684589772765 
1416	 0.732201269669572 
1417	 0.731743148982286 
1418	 0.731347943746442 
1419	 0.730940115009575 
1420	 0.730560911444257 
1421	 0.730181135453589 
1422	 0.729793649383504 
1423	 0.729418900370954 
1424	 0.729050925134405 
1425	 0.728697109185569 
1426	 0.728368283642539 
1427	 0.728048334558285 
1428	 0.727755912295898 
1429	 0.727503509922115 
1430	 0.727257611834869 
1431	 0.72702396962876 
1432	 0.72682307838925 
1433	 0.726644578508621 
1434	 0.726488834403333 
1435	 0.726363567324075 
1436	 0.726250153982513 
1437	 0.726161169821545 
1438	 0.726074260643298 
1439	 0.726005436502096 
1440	 0.725934786465106 
1441	 0.725864176844266 
1442	 0.725812086766974 
1443	 0.725774196999334 
1444	 0.72573453023348 
1445	 0.725709892608725 
1446	 0.725678160750194 
1447	 0.725629127850253 
1448	 0.725612030550192 
1449	 0.725608167061813 
1450	 0.725613885785477 
1451	 0.72565870370921 
1452	 0.725673231202311 
1453	 0.725693571230341 
1454	 0.725684948439285 
1455	 0.725635563200712 
1456	 0.725607105874474 
1457	 0.725581980666063 
1458	 0.725539210286756 
1459	 0.7254927630855 
1460	 0.72544999678684 
1461	 0.725374396649573 
1462	 0.7253286064555 
1463	 0.725311857612235 
1464	 0.725291689173188 
1465	 0.725277842101037 
1466	 0.725271270086538 
1467	 0.725277867217798 
1468	 0.725288434849322 
1469	 0.725283437932856 
1470	 0.725273815191278 
1471	 0.725255635637458 
1472	 0.725221761720762 
1473	 0.725174930731785 
1474	 0.725126464429485 
1475	 0.725061667929097 
1476	 0.724968257729439 
1477	 0.72488708701717 
1478	 0.724814136412489 
1479	 0.724716356106337 
1480	 0.724611829756341 
1481	 0.724485567439641 
1482	 0.724339654544712 
1483	 0.724182502177585 
1484	 0.724015641700818 
1485	 0.723820210039916 
1486	 0.723599527585514 
1487	 0.723376980526553 
1488	 0.723119932539968 
1489	 0.722888419258329 
1490	 0.722665356850245 
1491	 0.722436191860452 
1492	 0.722202213343033 
1493	 0.721986238087821 
1494	 0.721761754634062 
1495	 0.721572154276082 
1496	 0.721418551482653 
1497	 0.721257428461438 
1498	 0.721099134109637 
1499	 0.72096622305665 
1500	 0.720845151262822 
1501	 0.720734468761253 
1502	 0.72065797474554 
1503	 0.720571091083736 
1504	 0.720484314747457 
1505	 0.72039750469234 
1506	 0.72030449875395 
1507	 0.720228621320457 
1508	 0.720159823856598 
1509	 0.720094646472294 
1510	 0.720043661403394 
1511	 0.719994654464125 
1512	 0.719939871234813 
1513	 0.719901047910574 
1514	 0.719879958338986 
1515	 0.719856471701418 
1516	 0.719841338444584 
1517	 0.719826625898778 
1518	 0.719812310276308 
1519	 0.719800255063029 
1520	 0.719779746444787 
1521	 0.719779253520991 
1522	 0.719799853450708 
1523	 0.719816286883243 
1524	 0.719834072967427 
1525	 0.719869124601238 
1526	 0.719886126725566 
1527	 0.719887710204722 
1528	 0.719903210381909 
1529	 0.719918799904591 
1530	 0.719948564720343 
1531	 0.719978446981623 
1532	 0.720034322508955 
1533	 0.720120549602402 
1534	 0.720176746165544 
1535	 0.72023642743391 
1536	 0.720292084026652 
1537	 0.720321352933337 
1538	 0.720386990979574 
1539	 0.720470064249056 
1540	 0.720561580882683 
1541	 0.720676528826248 
1542	 0.72077018995917 
1543	 0.720866273286652 
1544	 0.720957731812613 
1545	 0.721043586416853 
1546	 0.721116432222789 
1547	 0.721185461360292 
1548	 0.721250973740485 
1549	 0.721301462604626 
1550	 0.721351756844752 
1551	 0.721411030687364 
1552	 0.721448809460316 
1553	 0.721469770806631 
1554	 0.721486777044116 
1555	 0.721497407668361 
1556	 0.721495237248964 
1557	 0.721479029212197 
1558	 0.721462375117143 
1559	 0.721450559659758 
1560	 0.721402978069345 
1561	 0.721331794009213 
1562	 0.721264312338226 
1563	 0.721157473758523 
1564	 0.72108561570586 
1565	 0.721035287511927 
1566	 0.720981691067411 
1567	 0.72093244498192 
1568	 0.720891602113812 
1569	 0.720857086580605 
1570	 0.720826296923793 
1571	 0.720798524220889 
1572	 0.720785034495572 
1573	 0.720774400405081 
1574	 0.720781364359066 
1575	 0.720808563255737 
1576	 0.720839373844121 
1577	 0.720884035727654 
1578	 0.720928444013942 
1579	 0.72098036129292 
1580	 0.721032210608855 
1581	 0.721073326731724 
1582	 0.721141927820308 
1583	 0.721225076299393 
1584	 0.721315942531937 
1585	 0.721426593321059 
1586	 0.721543279683761 
1587	 0.721675016688101 
1588	 0.721795922394744 
1589	 0.721921240510997 
1590	 0.72204702734182 
1591	 0.722163625936804 
1592	 0.722285082269583 
1593	 0.722427173147334 
1594	 0.722545230761461 
1595	 0.722648547749375 
1596	 0.722750406580289 
1597	 0.722819930490213 
1598	 0.722923615748369 
1599	 0.723043664278722 
1600	 0.723167623161097 
1601	 0.72332121993612 
1602	 0.723460038810913 
1603	 0.723601466851909 
1604	 0.72372474165937 
1605	 0.723843904047972 
1606	 0.723943608807506 
1607	 0.724008907707111 
1608	 0.724094696688109 
1609	 0.724185411262741 
1610	 0.724263298604972 
1611	 0.724345436637408 
1612	 0.724418227935671 
1613	 0.724477258000384 
1614	 0.724530803210964 
1615	 0.724572334993295 
1616	 0.724626282344821 
1617	 0.724681285743954 
1618	 0.724730047104346 
1619	 0.724795980447511 
1620	 0.724840369357492 
1621	 0.724860060773712 
1622	 0.724885281115098 
1623	 0.72491360676744 
1624	 0.724925529060159 
1625	 0.724930211340135 
1626	 0.72492616948632 
1627	 0.724898588585229 
1628	 0.724880004077538 
1629	 0.724862861954624 
1630	 0.724844315031581 
1631	 0.724818346077499 
1632	 0.72480437862898 
1633	 0.72481371088774 
1634	 0.724794004449881 
1635	 0.724778804358311 
1636	 0.724735756914566 
1637	 0.724667824819808 
1638	 0.724573340460644 
1639	 0.724443134745605 
1640	 0.724322140365142 
1641	 0.724183344661539 
1642	 0.724038693264781 
1643	 0.723887665932479 
1644	 0.723746143183601 
1645	 0.723597011372435 
1646	 0.723452441506817 
1647	 0.723339756098588 
1648	 0.723187302829822 
1649	 0.723021256553429 
1650	 0.722828718650936 
1651	 0.722613339054738 
1652	 0.722372855766802 
1653	 0.72211897172195 
1654	 0.721820090761143 
1655	 0.721473666851857 
1656	 0.721117011014247 
1657	 0.720726838127549 
1658	 0.72031879153367 
1659	 0.719892953352453 
1660	 0.719456999449792 
1661	 0.719014147363818 
1662	 0.718528607270207 
1663	 0.718023601756924 
1664	 0.717473477466472 
1665	 0.71686271166128 
1666	 0.716247166541845 
1667	 0.715625125512954 
1668	 0.714966482110558 
1669	 0.714297270311279 
1670	 0.71356340625397 
1671	 0.712772656383756 
1672	 0.711942619588699 
1673	 0.711081548855474 
1674	 0.71014814743356 
1675	 0.709169827105824 
1676	 0.708138329941507 
1677	 0.707043549947222 
1678	 0.705884150306263 
1679	 0.704648547386881 
1680	 0.703383049927597 
1681	 0.702056417401997 
1682	 0.700682478499998 
1683	 0.699271804961493 
1684	 0.697843699335021 
1685	 0.696362006710337 
1686	 0.694861719368239 
1687	 0.693329851754805 
1688	 0.691770797801244 
1689	 0.690161956986498 
1690	 0.688555914552906 
1691	 0.686933914045932 
1692	 0.685365021918394 
1693	 0.683803745732661 
1694	 0.682244849202978 
1695	 0.680717621667235 
1696	 0.679157795497909 
1697	 0.677590263191751 
1698	 0.675986799081822 
1699	 0.674379249869509 
1700	 0.672768184787738 
1701	 0.671104486107334 
1702	 0.669491972080529 
1703	 0.667849852900791 
1704	 0.666335749584251 
1705	 0.664871798976884 
1706	 0.663464669421448 
1707	 0.66221969180868 
1708	 0.660993959794351 
1709	 0.659805581816657 
1710	 0.658717488029368 
1711	 0.657606204407389 
1712	 0.656519778030643 
1713	 0.655419307188118 
1714	 0.654291653529042 
1715	 0.653228834842074 
1716	 0.652091958624706 
1717	 0.65099566247112 
1718	 0.649977072820829 
1719	 0.648905704717586 
1720	 0.647905838248872 
1721	 0.646969804268784 
1722	 0.646106080911329 
1723	 0.645418233124479 
1724	 0.644872375396847 
1725	 0.644485236194172 
1726	 0.644266506147508 
1727	 0.644221635806286 
1728	 0.64441103966296 
1729	 0.64485806307091 
1730	 0.645540739472985 
1731	 0.646352599330706 
1732	 0.647344719357118 
1733	 0.648463292249853 
1734	 0.649658262165484 
1735	 0.650951393503515 
1736	 0.652237291987122 
1737	 0.653457099302872 
1738	 0.654590779235991 
1739	 0.655519565553815 
1740	 0.656288741459234 
1741	 0.656944633844256 
1742	 0.657439855227778 
1743	 0.65783404637344 
1744	 0.658091336364724 
1745	 0.658275571461795 
1746	 0.658306742327112 
1747	 0.658329874981969 
1748	 0.658289361576488 
1749	 0.658230023358333 
1750	 0.658096092939883 
1751	 0.657998623256363 
1752	 0.657874041464111 
1753	 0.657807852429832 
1754	 0.657755023127065 
1755	 0.65777223921603 
1756	 0.657805214252957 
1757	 0.657943747701935 
1758	 0.658190928175795 
1759	 0.658503739496373 
1760	 0.658945407288636 
1761	 0.659505028969982 
1762	 0.660135312259836 
1763	 0.660920559207674 
1764	 0.661824664490346 
1765	 0.662847620598396 
1766	 0.664010582480103 
1767	 0.665188348516577 
1768	 0.666419888780624 
1769	 0.667680477048482 
1770	 0.668843991840778 
1771	 0.670024903883199 
1772	 0.671171302689626 
1773	 0.672211551510472 
1774	 0.673222805028608 
1775	 0.674114686082876 
1776	 0.67495818063001 
1777	 0.67571736041482 
1778	 0.676344396853466 
1779	 0.676956290480826 
1780	 0.67746323805396 
1781	 0.677919522887185 
1782	 0.678379971343974 
1783	 0.678746873037897 
1784	 0.679085946335652 
1785	 0.679344489759492 
1786	 0.679580304354387 
1787	 0.679807728019188 
1788	 0.67998611780591 
1789	 0.680115004687709 
1790	 0.680220559930478 
1791	 0.680262377080248 
1792	 0.680323878841581 
1793	 0.680356871689169 
1794	 0.680448352289438 
1795	 0.680546712673469 
1796	 0.680625312798544 
1797	 0.680709291401348 
1798	 0.680740581635917 
1799	 0.680787073049294 
1800	 0.680857741789349 
1801	 0.681205192665259 
1802	 0.681277013344548 
1803	 0.681372877102065 
1804	 0.681488105942291 
1805	 0.681599791771914 
1806	 0.681697261604045 
1807	 0.681791474456497 
1808	 0.681905549679633 
1809	 0.682008972841938 
1810	 0.682123982134095 
1811	 0.682266684491152 
1812	 0.682401466334321 
1813	 0.682519688631291 
1814	 0.682669069475541 
1815	 0.682812495681785 
1816	 0.682931849593639 
1817	 0.683075793111243 
1818	 0.683204415865339 
1819	 0.683368449330129 
1820	 0.683564003581498 
1821	 0.683764161153989 
1822	 0.683996844162253 
1823	 0.684204975470649 
1824	 0.684388449796445 
1825	 0.684590326484937 
1826	 0.684799793336993 
1827	 0.684996448687267 
1828	 0.685211551487404 
1829	 0.685461120934917 
1830	 0.685680658296352 
1831	 0.685883931276149 
1832	 0.686109203218988 
1833	 0.68629602454089 
1834	 0.68647953133834 
1835	 0.686672567810302 
1836	 0.68687140222743 
1837	 0.687103446115372 
1838	 0.687379796619039 
1839	 0.687628555636182 
1840	 0.687888104842268 
1841	 0.688139218129573 
1842	 0.688379509981218 
1843	 0.688630289217908 
1844	 0.688861468560176 
1845	 0.68905844224288 
1846	 0.689273113821682 
1847	 0.689491988438991 
1848	 0.689696362119408 
1849	 0.689923467873763 
1850	 0.690122469686985 
1851	 0.690307195853742 
1852	 0.690455799734371 
1853	 0.690613959666637 
1854	 0.69073943899053 
1855	 0.69080231815932 
1856	 0.690821134767411 
1857	 0.690804629471358 
1858	 0.690765218646989 
1859	 0.690715463769631 
1860	 0.690650850592849 
1861	 0.690572243106969 
1862	 0.690481615934549 
1863	 0.690367262890581 
1864	 0.690230121154511 
1865	 0.690082774386136 
1866	 0.689880768053324 
1867	 0.689646700979526 
1868	 0.689409134803106 
1869	 0.689104082809521 
1870	 0.688774584691831 
1871	 0.688432077498829 
1872	 0.688045137819985 
1873	 0.687616660182778 
1874	 0.687154476798131 
1875	 0.686672562467878 
1876	 0.686127098008016 
1877	 0.685520281553867 
1878	 0.684830534078823 
1879	 0.684064900052697 
1880	 0.683252863039843 
1881	 0.68235233853197 
1882	 0.681359746783908 
1883	 0.68034538784008 
1884	 0.679244058951766 
1885	 0.677957638202897 
1886	 0.676649503469513 
1887	 0.67519371966727 
1888	 0.673524129746656 
1889	 0.671888849482775 
1890	 0.670128624611977 
1891	 0.668294807365362 
1892	 0.666435137690177 
1893	 0.664481426585995 
1894	 0.662408743943385 
1895	 0.660355965781675 
1896	 0.658212333234461 
1897	 0.656055279932049 
1898	 0.654054877063289 
1899	 0.651927997819449 
1900	 0.64983401420932 
1901	 0.647814962172686 
1902	 0.645625058629345 
1903	 0.643509453577849 
1904	 0.641436562436721 
1905	 0.639368306529363 
1906	 0.637307657689613 
1907	 0.63547017388599 
1908	 0.633658082069594 
1909	 0.631898489933859 
1910	 0.630236825569987 
1911	 0.628511613035298 
1912	 0.626885592358393 
1913	 0.625324603951625 
1914	 0.623797160421067 
1915	 0.622403058490469 
1916	 0.621148416377862 
1917	 0.619900426554423 
1918	 0.618710971080649 
1919	 0.617615752689466 
1920	 0.616511582682224 
1921	 0.615503320539646 
1922	 0.614560453050976 
1923	 0.613695760347612 
1924	 0.612959420933639 
1925	 0.612235788665697 
1926	 0.611587743486455 
1927	 0.611032877600668 
1928	 0.610514034301476 
1929	 0.610027618384421 
1930	 0.609635815389196 
1931	 0.609303490797959 
1932	 0.609003391441165 
1933	 0.608783608401068 
1934	 0.60861914979982 
1935	 0.608475669614958 
1936	 0.608385862437881 
1937	 0.608332558306622 
1938	 0.608309747543149 
1939	 0.608319446410194 
1940	 0.608373474322603 
1941	 0.608468395670444 
1942	 0.60856553525406 
1943	 0.60872720368515 
1944	 0.608917167600488 
1945	 0.609126473615876 
1946	 0.609377273842555 
1947	 0.609618557277025 
1948	 0.609870510805061 
1949	 0.610108961219185 
1950	 0.610339982111429 
1951	 0.610556357406334 
1952	 0.610787373053552 
1953	 0.611011283155136 
1954	 0.61124676430588 
1955	 0.611514723874316 
1956	 0.611773820083454 
1957	 0.612017650393634 
1958	 0.612251394767315 
1959	 0.612427182550838 
1960	 0.612552154536468 
1961	 0.61268734173456 
1962	 0.612793699563173 
1963	 0.612904287122984 
1964	 0.613014500295983 
1965	 0.613118541210571 
1966	 0.613206597988542 
1967	 0.613305267208212 
1968	 0.613407582273237 
1969	 0.613524648295127 
1970	 0.613621044472251 
1971	 0.613702478575976 
1972	 0.613804112525056 
1973	 0.613880502798495 
1974	 0.613971793337778 
1975	 0.614081004954098 
1976	 0.614193699934484 
1977	 0.614302619538225 
1978	 0.614417471039787 
1979	 0.614544889410569 
1980	 0.614672295459687 
1981	 0.614795145539649 
1982	 0.614921591674702 
1983	 0.615052268189177 
1984	 0.615169099833145 
1985	 0.615281077690669 
1986	 0.615388829456314 
1987	 0.61549830784637 
1988	 0.615611377929788 
1989	 0.615722483115777 
1990	 0.615835417692426 
1991	 0.615933706195268 
1992	 0.616025364727091 
1993	 0.616119965910019 
1994	 0.616188634886861 
1995	 0.616262894038889 
1996	 0.616351979705816 
1997	 0.61640302380857 
1998	 0.616435396468531 
1999	 0.616448983228995 
2000	 0.616452898244468 
2001	 0.616429931603916 
2002	 0.616408518179414 
2003	 0.616389014687779 
2004	 0.616350468308548 
2005	 0.616301587575566 
2006	 0.616227070524437 
2007	 0.616134265374199 
2008	 0.616016447236898 
2009	 0.615886178966352 
2010	 0.615771884637547 
2011	 0.615663600319588 
2012	 0.615557203951198 
2013	 0.615440588515382 
2014	 0.615346847239229 
2015	 0.615193724715802 
2016	 0.615021746744177 
2017	 0.614809020555572 
2018	 0.614537888482141 
2019	 0.614269918571929 
2020	 0.613984131197722 
2021	 0.613682783210678 
2022	 0.613368561794998 
2023	 0.612990691961382 
2024	 0.612541937923737 
2025	 0.612084299504021 
2026	 0.611603160029279 
2027	 0.611078397818438 
2028	 0.610551215731575 
2029	 0.610006759532511 
2030	 0.609445278188836 
2031	 0.608907542633289 
2032	 0.608278671912028 
2033	 0.607593967668885 
2034	 0.60690034563027 
2035	 0.606159973597254 
2036	 0.605346623137113 
2037	 0.604581575910178 
2038	 0.603795766295826 
2039	 0.603001849047475 
2040	 0.602197441437131 
2041	 0.601368532759995 
2042	 0.600515044437833 
2043	 0.599681863839406 
2044	 0.598792898629883 
2045	 0.597986470023047 
2046	 0.597220202990929 
2047	 0.596471954255121 
2048	 0.595748982118619 
2049	 0.595082719921231 
2050	 0.59441942845152 
2051	 0.593837795569358 
2052	 0.593364781361111 
2053	 0.592945219236267 
2054	 0.592654423042951 
2055	 0.592477882962431 
2056	 0.592385517891614 
2057	 0.592388551012688 
2058	 0.592493893312557 
2059	 0.59270869216424 
2060	 0.593001886617335 
2061	 0.593418721313789 
2062	 0.593877721926189 
2063	 0.594435293959586 
2064	 0.595015951474428 
2065	 0.595659779226869 
2066	 0.596324057043198 
2067	 0.597069531815669 
2068	 0.597804698553537 
2069	 0.598537752327402 
2070	 0.599324387705408 
2071	 0.600044159733094 
2072	 0.600736391695534 
2073	 0.60140264794958 
2074	 0.602045797023288 
2075	 0.602657298601873 
2076	 0.603267411718902 
2077	 0.603794200662106 
2078	 0.604276211146879 
2079	 0.604707215588811 
2080	 0.605078956202887 
2081	 0.605390544711964 
2082	 0.605653149424732 
2083	 0.605846045013249 
2084	 0.60602190467029 
2085	 0.606131793886702 
2086	 0.606189736997474 
2087	 0.606209723751317 
2088	 0.606187344572446 
2089	 0.606084073953876 
2090	 0.605968476853119 
2091	 0.605828395156816 
2092	 0.605661069550419 
2093	 0.605463119309395 
2094	 0.605223130965828 
2095	 0.604933801923518 
2096	 0.604641879410546 
2097	 0.604316401756204 
2098	 0.603960379136491 
2099	 0.603632005642444 
2100	 0.603284009413968 
2101	 0.602900557602766 
2102	 0.602501383014371 
2103	 0.602056973741212 
2104	 0.601558750052554 
2105	 0.601078646830787 
2106	 0.600572248452629 
2107	 0.600057832152377 
2108	 0.599575002377841 
2109	 0.599017691937966 
2110	 0.598413612896223 
2111	 0.597789509986588 
2112	 0.597092620795979 
2113	 0.596420272523602 
2114	 0.595747812888772 
2115	 0.595057376864605 
2116	 0.594370678539015 
2117	 0.593669056798673 
2118	 0.592935995400586 
2119	 0.59216555573383 
2120	 0.591428173177263 
2121	 0.590658175328392 
2122	 0.589948506849473 
2123	 0.589276335745421 
2124	 0.588602111962022 
2125	 0.587974462392296 
2126	 0.587308642053448 
2127	 0.586627322760837 
2128	 0.585957721368154 
2129	 0.585268394442472 
2130	 0.584598725555075 
2131	 0.583980556143654 
2132	 0.58330754630593 
2133	 0.582627915690174 
2134	 0.58191585824709 
2135	 0.581144583700019 
2136	 0.580379595551274 
2137	 0.579602481922602 
2138	 0.578785959552136 
2139	 0.578027065240326 
2140	 0.577276774483897 
2141	 0.576543777309779 
2142	 0.575859682381504 
2143	 0.575149182078549 
2144	 0.574425363039974 
2145	 0.573728057669456 
2146	 0.573012285005823 
2147	 0.57235105404004 
2148	 0.571756507930609 
2149	 0.571123932080073 
2150	 0.570521480965701 
2151	 0.569894266227826 
2152	 0.569213898270481 
2153	 0.568567055320606 
2154	 0.567944977600048 
2155	 0.567316889294527 
2156	 0.566733163663698 
2157	 0.56618605076525 
2158	 0.565626052086237 
2159	 0.565085589726733 
2160	 0.5645506582984 
2161	 0.564010720943333 
2162	 0.56350486734082 
2163	 0.562995514129854 
2164	 0.562552416009004 
2165	 0.562148110672227 
2166	 0.561771828057177 
2167	 0.561434940786277 
2168	 0.561149825196517 
2169	 0.56088416279084 
2170	 0.560684264208749 
2171	 0.560564097155172 
2172	 0.560467708321622 
2173	 0.560408630686425 
2174	 0.560398082041751 
2175	 0.560424498714616 
2176	 0.560497079291049 
2177	 0.560586758351008 
2178	 0.560730423555657 
2179	 0.560843553075622 
2180	 0.560957285325324 
2181	 0.561097690919084 
2182	 0.561229105779844 
2183	 0.561417473568158 
2184	 0.561663777533526 
2185	 0.561888527506042 
2186	 0.562149829408579 
2187	 0.562377147843308 
2188	 0.562598077195103 
2189	 0.562801174676352 
2190	 0.562981391718064 
2191	 0.563165094816701 
2192	 0.563352926415832 
2193	 0.56350820218868 
2194	 0.563663970735476 
2195	 0.563777410666254 
2196	 0.563849160475777 
2197	 0.563892795853817 
2198	 0.563914996865691 
2199	 0.563986385791865 
2200	 0.564022990700727 
2201	 0.564061835699504 
2202	 0.56407810287423 
2203	 0.564071879633407 
2204	 0.564061945879178 
2205	 0.564040121238873 
2206	 0.564017596060756 
2207	 0.563986253508128 
2208	 0.563950748465082 
2209	 0.563892091769133 
2210	 0.563874832829492 
2211	 0.563868262997895 
2212	 0.563871209449113 
2213	 0.563920006928497 
2214	 0.563936607362517 
2215	 0.56395803226756 
2216	 0.56394505490429 
2217	 0.563871636457968 
2218	 0.563853653257621 
2219	 0.563917972942738 
2220	 0.563858178401032 
2221	 0.56378185308031 
2222	 0.563670890368627 
2223	 0.563428003926698 
2224	 0.563063337237267 
2225	 0.562701593644707 
2226	 0.562273119889776 
2227	 0.56177433058476 
2228	 0.561220014782683 
2229	 0.560562616531958 
2230	 0.559812965729663 
2231	 0.559013502910886 
2232	 0.558128998188237 
2233	 0.557165618612931 
2234	 0.556170889169444 
2235	 0.555026378147034 
2236	 0.553719718409128 
2237	 0.552422516979527 
2238	 0.550996610256822 
2239	 0.549615663358108 
2240	 0.548238027451858 
2241	 0.546825629592559 
2242	 0.545437884720351 
2243	 0.543948664747152 
2244	 0.542371952399301 
2245	 0.540812876908228 
2246	 0.539135959464261 
2247	 0.537547637495076 
2248	 0.536052483705438 
2249	 0.53448749282903 
2250	 0.532903297307579 
2251	 0.531358807100857 
2252	 0.529707572577921 
2253	 0.528103599081951 
2254	 0.526517421124481 
2255	 0.524905703149549 
2256	 0.523376919222061 
2257	 0.52180287333137 
2258	 0.520250435700087 
2259	 0.518739361425939 
2260	 0.517166785540375 
2261	 0.51557293546501 
2262	 0.51397097303513 
2263	 0.512292170791162 
2264	 0.510707516194554 
2265	 0.509150587322581 
2266	 0.507590321914729 
2267	 0.506112544596836 
2268	 0.504562203745202 
2269	 0.502922029643986 
2270	 0.501420718849933 
2271	 0.499903880637285 
2272	 0.498500020282477 
2273	 0.49726114624074 
2274	 0.4959677044549 
2275	 0.494761132565707 
2276	 0.49347512302093 
2277	 0.492167753895605 
2278	 0.490822323115948 
2279	 0.489406840608449 
2280	 0.487988776619537 
2281	 0.486576467455769 
2282	 0.485095010341701 
2283	 0.483590464485114 
2284	 0.482051929863021 
2285	 0.480304784010505 
2286	 0.478572817863524 
2287	 0.476718263120709 
2288	 0.474757004506933 
2289	 0.472905968965321 
2290	 0.470916116035372 
2291	 0.468938776926621 
2292	 0.466921897032273 
2293	 0.464637966350131 
2294	 0.462370832703796 
2295	 0.460048153924868 
2296	 0.457673593834361 
2297	 0.455539020673504 
2298	 0.453534517422855 
2299	 0.451634644268375 
2300	 0.449822977703425 
2301	 0.448281997076927 
2302	 0.446828393341234 
2303	 0.445799654521768 
2304	 0.44503374610564 
2305	 0.444677088496154 
2306	 0.444681991287565 
2307	 0.445050382112066 
2308	 0.445789790530201 
2309	 0.446949729644563 
2310	 0.448546389372849 
2311	 0.45048356276624 
2312	 0.453039696523086 
2313	 0.455586641562536 
2314	 0.458562800347755 
2315	 0.461352867011478 
2316	 0.464285779189118 
2317	 0.466971371589996 
2318	 0.469689094905564 
2319	 0.4720182357334 
2320	 0.47416779790971 
2321	 0.475963291978761 
2322	 0.477334009943704 
2323	 0.478580191009303 
2324	 0.479561614170041 
2325	 0.480326958121212 
2326	 0.480811652996475 
2327	 0.481188401536051 
2328	 0.481380709033675 
2329	 0.481358562959681 
2330	 0.481156328907268 
2331	 0.480804432223302 
2332	 0.480181707559319 
2333	 0.47928978423023 
2334	 0.478252423358486 
2335	 0.477007404062525 
2336	 0.4755564295152 
2337	 0.473950998273236 
2338	 0.472274866913308 
2339	 0.470547803718071 
2340	 0.46881035887776 
2341	 0.467022974968238 
2342	 0.465236294996283 
2343	 0.463554091821307 
2344	 0.46203987708555 
2345	 0.460921415146645 
2346	 0.46027378127173 
2347	 0.460053182598197 
2348	 0.46017434338849 
2349	 0.460843327836156 
2350	 0.461945636844794 
2351	 0.463428960597099 
2352	 0.465421629372977 
2353	 0.467622245927791 
2354	 0.469719758028019 
2355	 0.471926464293833 
2356	 0.474027638602373 
2357	 0.47583874183961 
2358	 0.47759460866625 
2359	 0.478970948625273 
2360	 0.480032579602029 
2361	 0.480885532154512 
2362	 0.481461540530344 
2363	 0.481925244249078 
2364	 0.482339900634591 
2365	 0.482672096680582 
2366	 0.482981824714785 
2367	 0.483244965031805 
2368	 0.483383416554067 
2369	 0.483441031287616 
2370	 0.483492077016703 
2371	 0.483584362149771 
2372	 0.483752308753579 
2373	 0.484000750411491 
2374	 0.484199068704175 
2375	 0.484338377009611 
2376	 0.484478064996132 
2377	 0.484592639112532 
2378	 0.484694223769117 
2379	 0.484725158217255 
2380	 0.484673625129284 
2381	 0.484701032428282 
2382	 0.484794693621502 
2383	 0.484971615722608 
2384	 0.485087750343227 
2385	 0.485273002700906 
2386	 0.485342323615094 
2387	 0.485284504286406 
2388	 0.485340896799713 
2389	 0.485419748406252 
2390	 0.485508580701607 
2391	 0.485632084076763 
2392	 0.485779667008274 
2393	 0.48594866118129 
2394	 0.486154848382777 
2395	 0.486392988980268 
2396	 0.486557698144857 
2397	 0.486719429385582 
2398	 0.48685665753466 
2399	 0.486976569662232 
2400	 0.48713381541938 
2401	 0.487262395781501 
2402	 0.487568143392345 
2403	 0.487767591102072 
2404	 0.488040641349479 
2405	 0.488406861856803 
2406	 0.488696865196566 
2407	 0.488962574587308 
2408	 0.489229233053828 
2409	 0.489462765427528 
2410	 0.489628843072631 
2411	 0.489746166456623 
2412	 0.489956567966693 
2413	 0.490186613107909 
2414	 0.490375161773678 
2415	 0.490562955077474 
2416	 0.490606863142485 
2417	 0.490546661307904 
2418	 0.490524634937165 
2419	 0.490637631988013 
2420	 0.490751251363065 
2421	 0.490662812872665 
2422	 0.490554128957131 
2423	 0.490422278241047 
2424	 0.49024447883129 
2425	 0.490292523994038 
2426	 0.49037239819538 
2427	 0.490205281586477 
2428	 0.490036876451493 
2429	 0.489934943080845 
2430	 0.489828434886477 
2431	 0.489896836101913 
2432	 0.489983474736942 
2433	 0.489830809139172 
2434	 0.489524577882658 
2435	 0.489197323657795 
2436	 0.488888435153547 
2437	 0.488723579791031 
2438	 0.488542546778866 
2439	 0.488205584004304 
2440	 0.487974717964767 
2441	 0.487721670227051 
2442	 0.487467434354069 
2443	 0.487324788761279 
2444	 0.487132441857182 
2445	 0.48681094748059 
2446	 0.486401267281146 
2447	 0.4860943336044 
2448	 0.485838506887385 
2449	 0.485565046155845 
2450	 0.485323001615833 
2451	 0.48488926559067 
2452	 0.484270168900124 
2453	 0.483591078296746 
2454	 0.482935862358625 
2455	 0.4824541520518 
2456	 0.481902318402577 
2457	 0.481432172350977 
2458	 0.481055532166523 
2459	 0.480569212528193 
2460	 0.480297570980558 
2461	 0.479973850131651 
2462	 0.479503896463272 
2463	 0.479212092978254 
2464	 0.478922512037637 
2465	 0.47873613236439 
2466	 0.478812700124656 
2467	 0.478916904284921 
2468	 0.478975847215617 
2469	 0.478932138553887 
2470	 0.478793750372218 
2471	 0.478600140400996 
2472	 0.478496695547944 
2473	 0.478758562191578 
2474	 0.479112069077481 
2475	 0.479361696421047 
2476	 0.479660810882646 
2477	 0.479765148672249 
2478	 0.47971537720166 
2479	 0.479987752984708 
2480	 0.479955102799032 
2481	 0.480115947603167 
2482	 0.480432275745872 
2483	 0.48070789070256 
2484	 0.481096388598602 
2485	 0.481183866684514 
2486	 0.481213394091182 
2487	 0.481653751079137 
2488	 0.481995518937597 
2489	 0.482464817847763 
2490	 0.483124177416507 
2491	 0.483407991025201 
2492	 0.483545786012929 
2493	 0.483906208919555 
2494	 0.484294874449278 
2495	 0.484650173331393 
2496	 0.485191990448922 
2497	 0.485348611023258 
2498	 0.485020149521516 
2499	 0.485134068731144 
2500	 0.485839571530743 
