Wavelength	spectrum00006.asd
350	 9.56922949601266E-02 
351	 9.22443774658197E-02 
352	 8.71993763709701E-02 
353	 8.32638166934926E-02 
354	 8.43187862421004E-02 
355	 8.20025025310296E-02 
356	 7.90644230892569E-02 
357	 7.84368301948788E-02 
358	 7.57674022446237E-02 
359	 7.38853385305695E-02 
360	 7.32003877799962E-02 
361	 7.27478293085961E-02 
362	 7.19572110651989E-02 
363	 7.06888241042315E-02 
364	 6.93765619468068E-02 
365	 6.90734335932292E-02 
366	 6.94414919787738E-02 
367	 6.88484261121639E-02 
368	 6.69296027642734E-02 
369	 6.85096342637478E-02 
370	 0.068591214608383 
371	 6.72549292310463E-02 
372	 6.73452913541332E-02 
373	 6.79461820133956E-02 
374	 6.72434970094708E-02 
375	 6.57204898807256E-02 
376	 6.72255923147987E-02 
377	 6.70904815745826E-02 
378	 6.61804843906192E-02 
379	 0.066045018663828 
380	 6.51264846774244E-02 
381	 6.54024636103191E-02 
382	 0.065835156157722 
383	 6.40976307775505E-02 
384	 6.43048245806311E-02 
385	 6.48476087509437E-02 
386	 6.45589580428353E-02 
387	 0.063944601937691 
388	 6.39634654386182E-02 
389	 6.37295280021243E-02 
390	 6.26362267049496E-02 
391	 6.31409570507569E-02 
392	 6.30695855974094E-02 
393	 6.27797085993634E-02 
394	 0.063981434241473 
395	 0.063259352881991 
396	 0.062555600101554 
397	 0.062879886624653 
398	 6.26043514427228E-02 
399	 6.19222317589939E-02 
400	 6.14041040837155E-02 
401	 6.14577301795741E-02 
402	 0.061226332827866 
403	 6.12619948734059E-02 
404	 6.13866659143465E-02 
405	 6.09396311451189E-02 
406	 6.08268944115664E-02 
407	 6.08744935106666E-02 
408	 6.08350862689422E-02 
409	 6.06311685152701E-02 
410	 6.03945205140845E-02 
411	 0.060403728472279 
412	 6.07826882162633E-02 
413	 6.07574704791254E-02 
414	 6.03910926706547E-02 
415	 6.00538176518219E-02 
416	 6.02898705439183E-02 
417	 6.04126703479638E-02 
418	 6.06786193151833E-02 
419	 6.11592373170201E-02 
420	 6.10857980281922E-02 
421	 6.10249927544859E-02 
422	 6.11899715407301E-02 
423	 6.15612551527927E-02 
424	 6.16620809172099E-02 
425	 6.18553344725861E-02 
426	 6.22208565880433E-02 
427	 0.062445554447886 
428	 6.26707638595048E-02 
429	 6.29899070384437E-02 
430	 6.34014551080266E-02 
431	 6.36482128298281E-02 
432	 6.39226472665846E-02 
433	 6.43624414400566E-02 
434	 6.50171031025521E-02 
435	 6.54880650320406E-02 
436	 6.59218378562631E-02 
437	 0.06644133528809 
438	 6.70309109788904E-02 
439	 6.75976251729243E-02 
440	 6.81510161565746E-02 
441	 6.87635978413029E-02 
442	 6.96300566521487E-02 
443	 7.04857703878712E-02 
444	 7.12623610384377E-02 
445	 7.20703582453673E-02 
446	 7.29983524251623E-02 
447	 7.39410526138341E-02 
448	 7.48585902114738E-02 
449	 7.59228431716421E-02 
450	 0.077085426023327 
451	 7.82862796732097E-02 
452	 7.94761984273785E-02 
453	 0.080712301782679 
454	 8.21227333723811E-02 
455	 8.36687835569189E-02 
456	 8.51390900152126E-02 
457	 8.68111800609526E-02 
458	 8.85559474240632E-02 
459	 9.02742429082539E-02 
460	 9.22345257770583E-02 
461	 9.41861309541859E-02 
462	 9.61241531643419E-02 
463	 9.81911980975756E-02 
464	 0.100473946608639 
465	 0.102885068860467 
466	 0.105360074720103 
467	 0.107905545704243 
468	 0.110665037133758 
469	 0.1135395546714 
470	 0.11644923211098 
471	 0.119710135471166 
472	 0.12291982430785 
473	 0.126109920907415 
474	 0.129651462334154 
475	 0.133369200384904 
476	 0.13726300404969 
477	 0.141297805449882 
478	 0.14528926609259 
479	 0.149503115199076 
480	 0.153974072421913 
481	 0.158627030642977 
482	 0.163335848094965 
483	 0.168197848144035 
484	 0.173232324759131 
485	 0.178338141267444 
486	 0.183642224559441 
487	 0.18899498650008 
488	 0.194300300117477 
489	 0.199813838758614 
490	 0.205501806115625 
491	 0.211273260424567 
492	 0.217018320691369 
493	 0.222766245867411 
494	 0.228573733615179 
495	 0.234465529992644 
496	 0.240398085157923 
497	 0.246243545154268 
498	 0.252046864737306 
499	 0.257871992214111 
500	 0.26364245561954 
501	 0.269461457860183 
502	 0.275289072305268 
503	 0.280961826001169 
504	 0.286509777023388 
505	 0.292028101768883 
506	 0.297558253278095 
507	 0.302970632137741 
508	 0.308352920908826 
509	 0.313701288593157 
510	 0.31895117850978 
511	 0.323960006325966 
512	 0.328949369582964 
513	 0.333986312958307 
514	 0.338919759501101 
515	 0.343723055896326 
516	 0.348428123186816 
517	 0.353073710432748 
518	 0.357641397548729 
519	 0.362177422005611 
520	 0.366634870880811 
521	 0.370919580654411 
522	 0.37520398355673 
523	 0.379455008586171 
524	 0.383615380457171 
525	 0.38764429592823 
526	 0.391642626258789 
527	 0.395597843249717 
528	 0.399472948560266 
529	 0.403325953506807 
530	 0.407098470093813 
531	 0.410796134487302 
532	 0.41449140099473 
533	 0.418064357326031 
534	 0.421577931857534 
535	 0.425086497384058 
536	 0.428508872986636 
537	 0.431913100520532 
538	 0.435278264510348 
539	 0.438542617669074 
540	 0.441710675361976 
541	 0.444851685732527 
542	 0.447978378036866 
543	 0.450997966448655 
544	 0.453970926297954 
545	 0.456877817589901 
546	 0.459698476504166 
547	 0.462529715288982 
548	 0.465322336576012 
549	 0.468056200790085 
550	 0.470744520342782 
551	 0.473419576415456 
552	 0.47609259648819 
553	 0.478743649617821 
554	 0.481273475970152 
555	 0.483775391485547 
556	 0.486264827525187 
557	 0.488728105647679 
558	 0.491254270326769 
559	 0.493717697829294 
560	 0.496066158321048 
561	 0.498382687610099 
562	 0.500485644297428 
563	 0.502415905414094 
564	 0.504269468978462 
565	 0.506064443518826 
566	 0.507908260460057 
567	 0.509821179567438 
568	 0.5117528695135 
569	 0.513702425831265 
570	 0.515594959280681 
571	 0.517419830885424 
572	 0.519328891936424 
573	 0.521138344894338 
574	 0.522822581415941 
575	 0.524428385485248 
576	 0.526010108612217 
577	 0.527549055887713 
578	 0.529046820028031 
579	 0.530531058621911 
580	 0.532003528147497 
581	 0.533484072992777 
582	 0.534992519820293 
583	 0.536533149365274 
584	 0.538105834384262 
585	 0.5396722318346 
586	 0.541185760874385 
587	 0.542708648888943 
588	 0.544259730952507 
589	 0.545842215220913 
590	 0.547451928756294 
591	 0.548955599725062 
592	 0.550340805798373 
593	 0.551613757239899 
594	 0.552664590985706 
595	 0.553642174412876 
596	 0.554644773364584 
597	 0.555710985202996 
598	 0.556872611956564 
599	 0.558082006587342 
600	 0.559277922250751 
601	 0.560382975455138 
602	 0.561584850850161 
603	 0.562888020756721 
604	 0.564188523407917 
605	 0.565296130579303 
606	 0.566411215455343 
607	 0.56762024149703 
608	 0.568823905037832 
609	 0.569821024122922 
610	 0.570790637813669 
611	 0.571889641852041 
612	 0.572836212512932 
613	 0.573801939378269 
614	 0.574787509793438 
615	 0.575693825647549 
616	 0.576609680449144 
617	 0.577502050315223 
618	 0.578363661663768 
619	 0.579265225691043 
620	 0.580131013624263 
621	 0.581013937677756 
622	 0.581963390724701 
623	 0.582798561831525 
624	 0.583624940820839 
625	 0.584466615736838 
626	 0.585262389435975 
627	 0.586014951088721 
628	 0.586790745090935 
629	 0.587619169140661 
630	 0.588413040823127 
631	 0.589151122841406 
632	 0.589863701994945 
633	 0.590603565539802 
634	 0.591388597350875 
635	 0.592111457630976 
636	 0.592774253832014 
637	 0.593522467848026 
638	 0.594250433129119 
639	 0.594954021822735 
640	 0.595647036555934 
641	 0.596329395735328 
642	 0.596898096391075 
643	 0.597468777181973 
644	 0.598248016480252 
645	 0.598921271062912 
646	 0.599554519770936 
647	 0.600196160144009 
648	 0.600784917330695 
649	 0.601397405212241 
650	 0.60200276911769 
651	 0.602563046865244 
652	 0.603161577103363 
653	 0.603743871159688 
654	 0.604302626289867 
655	 0.604867783483178 
656	 0.605394613833095 
657	 0.605923586779138 
658	 0.606473191811992 
659	 0.606973501469995 
660	 0.607638680793138 
661	 0.608249179814359 
662	 0.608557022383313 
663	 0.609113212341582 
664	 0.609701736216035 
665	 0.610217960603571 
666	 0.610714804167414 
667	 0.611148845796911 
668	 0.61164468621867 
669	 0.612230909652781 
670	 0.612601637708271 
671	 0.613005852131858 
672	 0.613486521609105 
673	 0.61398438382448 
674	 0.614434917671502 
675	 0.614880021956699 
676	 0.615353023501937 
677	 0.615863145733335 
678	 0.616378134490528 
679	 0.616805723268087 
680	 0.617108599891475 
681	 0.617426703734312 
682	 0.617875253899142 
683	 0.618355676828943 
684	 0.618683344135154 
685	 0.619055764012554 
686	 0.619395020824464 
687	 0.619731254214905 
688	 0.620285560379472 
689	 0.620704143253087 
690	 0.621011486234132 
691	 0.62132192090076 
692	 0.621672396415477 
693	 0.62200298778707 
694	 0.622346888971128 
695	 0.622772829329363 
696	 0.623101993141996 
697	 0.623349307384139 
698	 0.623605273023505 
699	 0.624041655342764 
700	 0.624349352330414 
701	 0.624654993849322 
702	 0.62510260502517 
703	 0.625391513855724 
704	 0.625725095466146 
705	 0.626083753815771 
706	 0.626309747187209 
707	 0.626563797105658 
708	 0.6268737237716 
709	 0.627222684816951 
710	 0.627556464288342 
711	 0.627801272461804 
712	 0.628062541661141 
713	 0.628432763732562 
714	 0.628721737565046 
715	 0.628983507977134 
716	 0.629263929867267 
717	 0.629590701668559 
718	 0.629919541656539 
719	 0.630197536857729 
720	 0.630409399940529 
721	 0.630600018610353 
722	 0.630775014505833 
723	 0.631005445240396 
724	 0.631324635545717 
725	 0.631566036587002 
726	 0.631710246089963 
727	 0.631917329444984 
728	 0.632396273128402 
729	 0.632500819414198 
730	 0.632636242281127 
731	 0.632985522415498 
732	 0.633136013833075 
733	 0.633281870173367 
734	 0.633471023347416 
735	 0.633703373753752 
736	 0.633947631519139 
737	 0.634209421846826 
738	 0.634438813778274 
739	 0.634574029526802 
740	 0.634785323292349 
741	 0.635062254681191 
742	 0.635308933581821 
743	 0.635337812754096 
744	 0.635593840277826 
745	 0.635926096485289 
746	 0.636115074078792 
747	 0.636296674443697 
748	 0.636473683981871 
749	 0.636665375455636 
750	 0.636887341729002 
751	 0.637070019273764 
752	 0.637240380079221 
753	 0.637382611139195 
754	 0.637416340325122 
755	 0.637538892868701 
756	 0.637686799934037 
757	 0.637796770676959 
758	 0.638000553553778 
759	 0.638184526067822 
760	 0.638339069149521 
761	 0.638482691730415 
762	 0.638463153313662 
763	 0.638490046787468 
764	 0.63865929153897 
765	 0.638909704458117 
766	 0.639166296540093 
767	 0.639340557444291 
768	 0.639409556593479 
769	 0.639478290911033 
770	 0.63963330492372 
771	 0.639839388659926 
772	 0.640012594919262 
773	 0.640114604984701 
774	 0.640212705034087 
775	 0.640344419780979 
776	 0.640507883658985 
777	 0.640599500695003 
778	 0.640739371830583 
779	 0.640935675081121 
780	 0.640948457601013 
781	 0.641167117842751 
782	 0.641381710411445 
783	 0.641362330649994 
784	 0.641430724161675 
785	 0.641589668767017 
786	 0.641743627033908 
787	 0.641777746130434 
788	 0.64188536863816 
789	 0.642108539203876 
790	 0.642371476321695 
791	 0.642492209086818 
792	 0.642658547100215 
793	 0.642807597428733 
794	 0.642869150189376 
795	 0.64286778385005 
796	 0.642934752466286 
797	 0.643080911175667 
798	 0.643231026360682 
799	 0.643169500595265 
800	 0.643158613020239 
801	 0.643287054073712 
802	 0.643474084678374 
803	 0.643587381149811 
804	 0.64363971349111 
805	 0.643669068698454 
806	 0.643712811994487 
807	 0.643841505692513 
808	 0.644010624923356 
809	 0.644153149493305 
810	 0.644234292683723 
811	 0.644329381421182 
812	 0.644395101924621 
813	 0.64437252037397 
814	 0.644429858471139 
815	 0.644513298822599 
816	 0.644606469066454 
817	 0.644732374014615 
818	 0.644827169849725 
819	 0.644939309193951 
820	 0.645063534111307 
821	 0.645081452351393 
822	 0.645069520034506 
823	 0.64512233688702 
824	 0.645298884524036 
825	 0.645561919428606 
826	 0.645688369244505 
827	 0.645683203768864 
828	 0.645671088935542 
829	 0.645703182533214 
830	 0.645890248745983 
831	 0.646143151018015 
832	 0.646230773768596 
833	 0.646399547581422 
834	 0.646479749686101 
835	 0.646443309923377 
836	 0.646562307816985 
837	 0.64659355190213 
838	 0.646600484342396 
839	 0.646674590461705 
840	 0.646777773130024 
841	 0.646782003518346 
842	 0.646848374424589 
843	 0.647145565556583 
844	 0.647285250155285 
845	 0.64723866411402 
846	 0.647136083564048 
847	 0.647184102532162 
848	 0.647254331728954 
849	 0.647371614209664 
850	 0.647473621081461 
851	 0.647389819945117 
852	 0.647401937021423 
853	 0.647483397114399 
854	 0.647544824842621 
855	 0.647507768443454 
856	 0.647500677643147 
857	 0.647554994933067 
858	 0.647653751423927 
859	 0.647737080508838 
860	 0.647848539648324 
861	 0.647947659446722 
862	 0.647967149978563 
863	 0.647953332587373 
864	 0.64793723308285 
865	 0.647951487850384 
866	 0.648014865379461 
867	 0.648000273885353 
868	 0.648013081071089 
869	 0.648113405412279 
870	 0.64825057133765 
871	 0.648286691369903 
872	 0.648279219954531 
873	 0.6483078311972 
874	 0.648392753511416 
875	 0.648488017628611 
876	 0.648566094993904 
877	 0.648625498796544 
878	 0.648724093851462 
879	 0.648857171076819 
880	 0.64895366307706 
881	 0.648953842306557 
882	 0.649033008078944 
883	 0.649105918044413 
884	 0.649119144101115 
885	 0.649078073712962 
886	 0.649144831886632 
887	 0.649235597277335 
888	 0.649305013663436 
889	 0.649385290283894 
890	 0.649455602535655 
891	 0.649461162683698 
892	 0.649417475948788 
893	 0.649461176690738 
894	 0.649532041231361 
895	 0.649605693429325 
896	 0.649657494959728 
897	 0.649644256315883 
898	 0.649598912230695 
899	 0.649565306547197 
900	 0.649556254095969 
901	 0.649448868131216 
902	 0.649426734395685 
903	 0.649447650328516 
904	 0.649395334578526 
905	 0.649438011283478 
906	 0.649444253752764 
907	 0.649405105212033 
908	 0.649408211404026 
909	 0.649465089231364 
910	 0.649503809674072 
911	 0.649488463796932 
912	 0.649439359171251 
913	 0.649449717056899 
914	 0.649512779999019 
915	 0.649583695394785 
916	 0.649595399506512 
917	 0.649531345267294 
918	 0.649471719552104 
919	 0.649503813624862 
920	 0.649685586891453 
921	 0.64972124431066 
922	 0.649700667669067 
923	 0.64974392622745 
924	 0.649761052471491 
925	 0.649824028775437 
926	 0.649916260645802 
927	 0.650001579753661 
928	 0.65009650221053 
929	 0.650056269932075 
930	 0.650018708882375 
931	 0.650134259033301 
932	 0.650038860767293 
933	 0.650148241568914 
934	 0.650399244107021 
935	 0.650500046050275 
936	 0.650541317655029 
937	 0.650611896287092 
938	 0.650678493196729 
939	 0.650668242154655 
940	 0.650863671671663 
941	 0.651007755559997 
942	 0.651078206702602 
943	 0.651260490189985 
944	 0.651329103200599 
945	 0.651412877145991 
946	 0.651514491622516 
947	 0.651484277995362 
948	 0.651464001954062 
949	 0.651479909807112 
950	 0.651543724045894 
951	 0.651657635325491 
952	 0.651637685009988 
953	 0.651558570270952 
954	 0.651511023295066 
955	 0.651526236526132 
956	 0.651571695022637 
957	 0.651560043699863 
958	 0.651501460303607 
959	 0.651578046063242 
960	 0.651538503982818 
961	 0.651490675592953 
962	 0.651515940700054 
963	 0.651473673540527 
964	 0.651451512623336 
965	 0.651424366669488 
966	 0.651368946406957 
967	 0.651329186743403 
968	 0.651281946461918 
969	 0.651320228423417 
970	 0.651439476552468 
971	 0.651325359113236 
972	 0.65119295402315 
973	 0.651089891685393 
974	 0.651012875091267 
975	 0.650957984909354 
976	 0.650986262613058 
977	 0.651054032519407 
978	 0.651093531244934 
979	 0.651077132036082 
980	 0.651096547024152 
981	 0.651127659678818 
982	 0.651113510190262 
983	 0.651023599776046 
984	 0.651025164400836 
985	 0.651092948076057 
986	 0.651130344052544 
987	 0.651071060667977 
988	 0.651000479221133 
989	 0.650990586925682 
990	 0.65105531228423 
991	 0.651061086542409 
992	 0.650979233371896 
993	 0.650915769732163 
994	 0.650977616445762 
995	 0.651107532066529 
996	 0.65110765280041 
997	 0.651007780088507 
998	 0.650982110307909 
999	 0.651367116611849 
1000	 0.65145356726639 
1001	 0.66214645588257 
1002	 0.662186073207168 
1003	 0.662234467452772 
1004	 0.662298248898367 
1005	 0.662387434436935 
1006	 0.662443673238985 
1007	 0.662484764328904 
1008	 0.66255751393794 
1009	 0.662625603082322 
1010	 0.662710222912409 
1011	 0.662838903669339 
1012	 0.662928073170852 
1013	 0.663007689473017 
1014	 0.663083751362454 
1015	 0.663150870992116 
1016	 0.663194328204807 
1017	 0.663278284883893 
1018	 0.663336929989666 
1019	 0.663375709157893 
1020	 0.663457363310251 
1021	 0.663499236843878 
1022	 0.663504500001274 
1023	 0.663531214685332 
1024	 0.663572667510363 
1025	 0.663578789276772 
1026	 0.663590348788922 
1027	 0.663570592008692 
1028	 0.66352060581516 
1029	 0.663443568584003 
1030	 0.66339520565781 
1031	 0.663328986855735 
1032	 0.663254539941634 
1033	 0.663193291370234 
1034	 0.663072516030952 
1035	 0.662978199195182 
1036	 0.662894127179978 
1037	 0.662789681812096 
1038	 0.662728808880457 
1039	 0.662700606605492 
1040	 0.662666903334394 
1041	 0.66268696101538 
1042	 0.662655145574739 
1043	 0.662582531896432 
1044	 0.66255183552946 
1045	 0.662517438327598 
1046	 0.662477150337027 
1047	 0.662536592467128 
1048	 0.662578882572172 
1049	 0.662547598696909 
1050	 0.662529215325109 
1051	 0.662547620771955 
1052	 0.662604121898788 
1053	 0.662671950486583 
1054	 0.662799526712646 
1055	 0.662922225903123 
1056	 0.663050939453296 
1057	 0.663154727952246 
1058	 0.663246185325322 
1059	 0.663408486224656 
1060	 0.66356202301868 
1061	 0.663676503594853 
1062	 0.663818087847839 
1063	 0.663955070145523 
1064	 0.664063198097389 
1065	 0.664224812455043 
1066	 0.664454988608506 
1067	 0.66467531208118 
1068	 0.664865928425901 
1069	 0.665070565208789 
1070	 0.665273428576011 
1071	 0.66545089131548 
1072	 0.665663600412596 
1073	 0.665941151688234 
1074	 0.666184962362274 
1075	 0.666407727072591 
1076	 0.66663303480313 
1077	 0.666825165655612 
1078	 0.667007580246089 
1079	 0.667213038698558 
1080	 0.667413365667108 
1081	 0.667591022861678 
1082	 0.667755912300492 
1083	 0.667917207544507 
1084	 0.66809719372699 
1085	 0.668295458468011 
1086	 0.668469646199141 
1087	 0.668642100475914 
1088	 0.668812651868837 
1089	 0.668967807930816 
1090	 0.669073166204966 
1091	 0.669168352184264 
1092	 0.669287450682944 
1093	 0.669406602593522 
1094	 0.669510246774233 
1095	 0.669622048641396 
1096	 0.6697130650696 
1097	 0.66975717916148 
1098	 0.669791447068149 
1099	 0.669840219161962 
1100	 0.669907641314402 
1101	 0.669978745382601 
1102	 0.670034647291408 
1103	 0.670070135471385 
1104	 0.670096764272305 
1105	 0.670093188197458 
1106	 0.670063361730225 
1107	 0.670050159484151 
1108	 0.670052795475493 
1109	 0.67003372213645 
1110	 0.670001725407952 
1111	 0.669946335374692 
1112	 0.669870776969664 
1113	 0.669807235624408 
1114	 0.669752959546706 
1115	 0.669710019591235 
1116	 0.669642246569935 
1117	 0.669541216085256 
1118	 0.669444619321122 
1119	 0.669334750013158 
1120	 0.669217009679077 
1121	 0.669101540249876 
1122	 0.668966312671718 
1123	 0.668807928154411 
1124	 0.668641860221827 
1125	 0.668469291978419 
1126	 0.668315531891777 
1127	 0.66814806553101 
1128	 0.667930185278249 
1129	 0.667711157773475 
1130	 0.667475820468876 
1131	 0.667209861963508 
1132	 0.666969101701074 
1133	 0.666739793590076 
1134	 0.666500051887649 
1135	 0.66625155027335 
1136	 0.666013591878328 
1137	 0.665758315729974 
1138	 0.665479217290031 
1139	 0.665200268675618 
1140	 0.664915327545789 
1141	 0.664643195614593 
1142	 0.66435761355424 
1143	 0.664050321718144 
1144	 0.663733411239647 
1145	 0.663385155766604 
1146	 0.663034897795528 
1147	 0.662709475364946 
1148	 0.662394448077384 
1149	 0.662092515838335 
1150	 0.661771570743896 
1151	 0.661443716349376 
1152	 0.661124915358333 
1153	 0.66080377604689 
1154	 0.66048338077253 
1155	 0.660185871794684 
1156	 0.659856655606735 
1157	 0.659509283688248 
1158	 0.659160137660021 
1159	 0.658795157504734 
1160	 0.658426090361267 
1161	 0.658068250425584 
1162	 0.657711302451107 
1163	 0.65735821924487 
1164	 0.656990366060818 
1165	 0.656633039184709 
1166	 0.656304242247248 
1167	 0.655965718564508 
1168	 0.655651179289769 
1169	 0.655339242215577 
1170	 0.655022190231876 
1171	 0.654722132218762 
1172	 0.654450761577049 
1173	 0.654157780845348 
1174	 0.653861211273938 
1175	 0.653575399180823 
1176	 0.653282452041279 
1177	 0.653001070358599 
1178	 0.652741138981205 
1179	 0.652451856868589 
1180	 0.652186975768594 
1181	 0.651944064744382 
1182	 0.651727695477306 
1183	 0.651548900568849 
1184	 0.651376629041548 
1185	 0.651224092655641 
1186	 0.651074826150183 
1187	 0.650920656529339 
1188	 0.65080648713965 
1189	 0.650716093171136 
1190	 0.650634013616508 
1191	 0.65058260085211 
1192	 0.65053269835557 
1193	 0.650486284075983 
1194	 0.650454712095542 
1195	 0.65044342988375 
1196	 0.650429303916729 
1197	 0.650413423335718 
1198	 0.650410091692827 
1199	 0.650447468594296 
1200	 0.65049336641363 
1201	 0.650564284503057 
1202	 0.650644634279651 
1203	 0.650725689118503 
1204	 0.650838621388862 
1205	 0.650957342716848 
1206	 0.651101327152836 
1207	 0.65125319265304 
1208	 0.651393272545865 
1209	 0.651584384481029 
1210	 0.6518017532596 
1211	 0.652049391822479 
1212	 0.652340131385034 
1213	 0.652644652237763 
1214	 0.652969648383144 
1215	 0.653324199202486 
1216	 0.653720451057215 
1217	 0.654106667720226 
1218	 0.654516334014107 
1219	 0.65492336038968 
1220	 0.655314961990851 
1221	 0.655725031545901 
1222	 0.656134519753049 
1223	 0.656551090239976 
1224	 0.656952619556995 
1225	 0.657356167187608 
1226	 0.657733109509528 
1227	 0.65809161444249 
1228	 0.658449548120371 
1229	 0.658809976079124 
1230	 0.659132332733266 
1231	 0.659424906694141 
1232	 0.659726796121969 
1233	 0.66001623899619 
1234	 0.660281141234126 
1235	 0.660547963003408 
1236	 0.660794262370357 
1237	 0.660996962887627 
1238	 0.661204648732801 
1239	 0.661413212014725 
1240	 0.661613873845478 
1241	 0.66179920406941 
1242	 0.661967231700517 
1243	 0.662138708838759 
1244	 0.662308912972247 
1245	 0.662461946686935 
1246	 0.662611281582882 
1247	 0.662741587237894 
1248	 0.662861269019485 
1249	 0.662955501153412 
1250	 0.663033416473908 
1251	 0.663091037857339 
1252	 0.663125904928467 
1253	 0.663142384766494 
1254	 0.663132430008353 
1255	 0.663121276346026 
1256	 0.66309866418628 
1257	 0.663057622483302 
1258	 0.662994966493207 
1259	 0.662940595266131 
1260	 0.662870216613235 
1261	 0.662801543206271 
1262	 0.662744277148642 
1263	 0.66267630726265 
1264	 0.66261275642895 
1265	 0.662539791173593 
1266	 0.662480022930027 
1267	 0.662420572576365 
1268	 0.662385150593145 
1269	 0.662356570889397 
1270	 0.662345813727965 
1271	 0.662365522133058 
1272	 0.662374622434373 
1273	 0.662386900141272 
1274	 0.662406923449194 
1275	 0.662415987068771 
1276	 0.662460878930808 
1277	 0.662515065631536 
1278	 0.662600570577137 
1279	 0.662734572419114 
1280	 0.662856502010444 
1281	 0.662990209903508 
1282	 0.663132729714307 
1283	 0.663263730071435 
1284	 0.663421455974911 
1285	 0.663597305569308 
1286	 0.663791885837764 
1287	 0.664000208956755 
1288	 0.664231633335426 
1289	 0.664459299753763 
1290	 0.664697762874372 
1291	 0.664938915179823 
1292	 0.665194837453297 
1293	 0.665426879731407 
1294	 0.665653737125486 
1295	 0.665880126782395 
1296	 0.666095605269822 
1297	 0.666305485786383 
1298	 0.666512797461298 
1299	 0.666722416061825 
1300	 0.666934181812424 
1301	 0.667123945622612 
1302	 0.667306835647907 
1303	 0.667487689976563 
1304	 0.667664103976246 
1305	 0.667812350873881 
1306	 0.667949341812773 
1307	 0.668079851716653 
1308	 0.668180427288927 
1309	 0.668275949017998 
1310	 0.668371843420154 
1311	 0.668492134952702 
1312	 0.668537693596042 
1313	 0.66854589079243 
1314	 0.668553884578714 
1315	 0.668533155229094 
1316	 0.668489304119232 
1317	 0.668437060979422 
1318	 0.668365706990466 
1319	 0.668238355186476 
1320	 0.668150021847553 
1321	 0.668085540810953 
1322	 0.667993861383557 
1323	 0.667910968256298 
1324	 0.667795645567389 
1325	 0.667665594488368 
1326	 0.667505467486076 
1327	 0.667312670772404 
1328	 0.667114948168322 
1329	 0.666891343446888 
1330	 0.666664278006483 
1331	 0.666438904669221 
1332	 0.666193884258655 
1333	 0.665949069904796 
1334	 0.665660172267647 
1335	 0.665372980042053 
1336	 0.665078474793116 
1337	 0.664746559196764 
1338	 0.664384247209164 
1339	 0.664038560287619 
1340	 0.663682713230443 
1341	 0.66330293037007 
1342	 0.662933107906281 
1343	 0.66251978440184 
1344	 0.662059309934418 
1345	 0.661604638444378 
1346	 0.661138913384813 
1347	 0.660664922904638 
1348	 0.66017242408382 
1349	 0.65968349151773 
1350	 0.659164861460248 
1351	 0.658689450861556 
1352	 0.658232993133657 
1353	 0.657778477686988 
1354	 0.657346712876102 
1355	 0.656921712306858 
1356	 0.656518997113262 
1357	 0.656086087430415 
1358	 0.655658972277942 
1359	 0.655211630760521 
1360	 0.65472867762895 
1361	 0.654245814891872 
1362	 0.653748247193555 
1363	 0.653270238601157 
1364	 0.652790031331267 
1365	 0.652305591785583 
1366	 0.651830651085792 
1367	 0.651365556612457 
1368	 0.650901669543449 
1369	 0.650443634621453 
1370	 0.649976393997271 
1371	 0.649519124718802 
1372	 0.649043451218538 
1373	 0.648561537065317 
1374	 0.6480585769984 
1375	 0.647546039869457 
1376	 0.647004897147095 
1377	 0.646442880236479 
1378	 0.645854260259818 
1379	 0.645231133005885 
1380	 0.644607836386781 
1381	 0.643961639395085 
1382	 0.643311467744762 
1383	 0.642657711861526 
1384	 0.641991922978371 
1385	 0.641325028130297 
1386	 0.640634887077234 
1387	 0.639923588939042 
1388	 0.639219244757999 
1389	 0.638491312792216 
1390	 0.637776869902173 
1391	 0.637094886994584 
1392	 0.636362074091722 
1393	 0.6356703302816 
1394	 0.634961138170943 
1395	 0.634225542087116 
1396	 0.633493957631093 
1397	 0.632707012321102 
1398	 0.631904035615951 
1399	 0.631013533907719 
1400	 0.630067646799051 
1401	 0.629079375647266 
1402	 0.628020664274508 
1403	 0.626931802474628 
1404	 0.625793030727577 
1405	 0.624663295426991 
1406	 0.623479560032457 
1407	 0.622324915660165 
1408	 0.621159974948084 
1409	 0.620033070548916 
1410	 0.618876913163573 
1411	 0.617821817351367 
1412	 0.616800700438946 
1413	 0.615883763500459 
1414	 0.615063563871484 
1415	 0.614279045985958 
1416	 0.613581074651376 
1417	 0.612904716337547 
1418	 0.612291437715444 
1419	 0.611670589011979 
1420	 0.611072517172064 
1421	 0.610497276695115 
1422	 0.609911106783214 
1423	 0.609370169411706 
1424	 0.608882410473617 
1425	 0.608396136990643 
1426	 0.607935611558194 
1427	 0.607509863518196 
1428	 0.607092724618188 
1429	 0.606722869570542 
1430	 0.606375137420468 
1431	 0.606057252151302 
1432	 0.605766820727442 
1433	 0.605510686535796 
1434	 0.605263025523992 
1435	 0.605038291701075 
1436	 0.604831005044211 
1437	 0.604643534032778 
1438	 0.604467194843244 
1439	 0.604313273101918 
1440	 0.604165048097571 
1441	 0.604024072730386 
1442	 0.603896750329852 
1443	 0.603787566938279 
1444	 0.60367902545371 
1445	 0.60357994362466 
1446	 0.603483051184151 
1447	 0.603390451068275 
1448	 0.603304508001347 
1449	 0.603218454917444 
1450	 0.603148618977276 
1451	 0.603097805012305 
1452	 0.603037204264527 
1453	 0.602990451419928 
1454	 0.602930752890822 
1455	 0.602851806319515 
1456	 0.60278591143723 
1457	 0.602721570817177 
1458	 0.602660346088212 
1459	 0.602606878440272 
1460	 0.602552857778214 
1461	 0.602507362993035 
1462	 0.602449855846443 
1463	 0.602380488924377 
1464	 0.602321157385884 
1465	 0.602258317085124 
1466	 0.602194220325607 
1467	 0.602152900662189 
1468	 0.602116420924023 
1469	 0.602080165141792 
1470	 0.602057205234924 
1471	 0.602040201142078 
1472	 0.602037836420579 
1473	 0.602013466240299 
1474	 0.60200165660444 
1475	 0.601946275729062 
1476	 0.601857932664612 
1477	 0.601780396832832 
1478	 0.601692388530234 
1479	 0.601585565098779 
1480	 0.601478900020041 
1481	 0.601345314657127 
1482	 0.601172402331701 
1483	 0.601018377037958 
1484	 0.600866123094189 
1485	 0.600697786144856 
1486	 0.600523041503191 
1487	 0.600346541387406 
1488	 0.60015010168511 
1489	 0.599970556896355 
1490	 0.599794468233966 
1491	 0.599626095908951 
1492	 0.599459988443562 
1493	 0.599307802998293 
1494	 0.599156188606444 
1495	 0.599035609864476 
1496	 0.598927928072486 
1497	 0.598849244743381 
1498	 0.598809633944095 
1499	 0.598768331156459 
1500	 0.598732950613707 
1501	 0.598727854396962 
1502	 0.598742125240805 
1503	 0.598768689381203 
1504	 0.59883769042349 
1505	 0.598889595478679 
1506	 0.598929797743015 
1507	 0.598990478631519 
1508	 0.599055151344392 
1509	 0.599133990272435 
1510	 0.599235755928516 
1511	 0.599336374506287 
1512	 0.599456220784562 
1513	 0.599557821663143 
1514	 0.599647653339308 
1515	 0.599745556388662 
1516	 0.599825128326914 
1517	 0.599924363840609 
1518	 0.600053057885827 
1519	 0.600167159138371 
1520	 0.600279918058504 
1521	 0.60039507519843 
1522	 0.600503935512097 
1523	 0.600613387962567 
1524	 0.600721417798216 
1525	 0.600829790870893 
1526	 0.600951148538408 
1527	 0.601069506285471 
1528	 0.601204072494976 
1529	 0.601355104288735 
1530	 0.601510026834206 
1531	 0.601668014580747 
1532	 0.601841011808313 
1533	 0.602032973043955 
1534	 0.60221562539113 
1535	 0.60240393609583 
1536	 0.602588045146777 
1537	 0.602773397236439 
1538	 0.602948276862241 
1539	 0.603126459247116 
1540	 0.603282364504083 
1541	 0.603431522327842 
1542	 0.603551113356074 
1543	 0.603654587894837 
1544	 0.603730820866977 
1545	 0.603783471441409 
1546	 0.603807438493976 
1547	 0.603803029850448 
1548	 0.603782021788069 
1549	 0.603728753606571 
1550	 0.603670887753812 
1551	 0.603598845394094 
1552	 0.603513804708131 
1553	 0.603411756516905 
1554	 0.603303259890712 
1555	 0.603171170275305 
1556	 0.603057669168842 
1557	 0.602926760982818 
1558	 0.602838354852646 
1559	 0.602775957822648 
1560	 0.602720032572298 
1561	 0.602689285233729 
1562	 0.602662222377587 
1563	 0.602645472127868 
1564	 0.602630126941432 
1565	 0.602629256423989 
1566	 0.602623595062537 
1567	 0.602601242767098 
1568	 0.602613095700378 
1569	 0.602630138960064 
1570	 0.602680567277205 
1571	 0.602772930444838 
1572	 0.602858009989484 
1573	 0.602971564374393 
1574	 0.603064895932464 
1575	 0.603151336058383 
1576	 0.603238047822007 
1577	 0.603312477010688 
1578	 0.603400251387755 
1579	 0.603495775798434 
1580	 0.603589191309256 
1581	 0.603684885581106 
1582	 0.603785997543651 
1583	 0.603890355482675 
1584	 0.603993515424505 
1585	 0.604097944518909 
1586	 0.604210417144002 
1587	 0.604325626047422 
1588	 0.604441165260677 
1589	 0.604557396263516 
1590	 0.6046871444978 
1591	 0.604813875186812 
1592	 0.604960703648585 
1593	 0.605140301219392 
1594	 0.605304022317079 
1595	 0.605473831389328 
1596	 0.605635357185974 
1597	 0.605781583385607 
1598	 0.605939627084308 
1599	 0.606106237216571 
1600	 0.606264712111177 
1601	 0.606432170253966 
1602	 0.606582144032248 
1603	 0.606719977934304 
1604	 0.606850093274812 
1605	 0.606957661799058 
1606	 0.607079056874344 
1607	 0.607196704867964 
1608	 0.607323086217582 
1609	 0.607482170418801 
1610	 0.607603653028113 
1611	 0.607712291565965 
1612	 0.607807792140839 
1613	 0.60786610764038 
1614	 0.607936203847408 
1615	 0.608011549719074 
1616	 0.608074913901885 
1617	 0.60813760426742 
1618	 0.608186747712353 
1619	 0.608225123679823 
1620	 0.608251362031017 
1621	 0.608256208194989 
1622	 0.608268528570644 
1623	 0.608267344018709 
1624	 0.608279983601536 
1625	 0.608324292151794 
1626	 0.608330643620978 
1627	 0.608319142841469 
1628	 0.608307756072111 
1629	 0.608269887974217 
1630	 0.608237297864635 
1631	 0.608196038878657 
1632	 0.608177702826567 
1633	 0.608174476255378 
1634	 0.608161609387093 
1635	 0.608175327685091 
1636	 0.60816400603551 
1637	 0.608131464536593 
1638	 0.60809161327109 
1639	 0.608045089072022 
1640	 0.60798266184723 
1641	 0.607890991452557 
1642	 0.607814953097186 
1643	 0.607740633522967 
1644	 0.60766073021201 
1645	 0.607600919364743 
1646	 0.607510733387439 
1647	 0.607403472262138 
1648	 0.6072781366983 
1649	 0.607128115014058 
1650	 0.606965721774295 
1651	 0.606794245184323 
1652	 0.606599602164183 
1653	 0.6063963130056 
1654	 0.606161919194319 
1655	 0.605895108338576 
1656	 0.605603175505594 
1657	 0.605297031653287 
1658	 0.604944129536556 
1659	 0.604554033394197 
1660	 0.604142571846574 
1661	 0.60369100951958 
1662	 0.603213420290763 
1663	 0.602720803765795 
1664	 0.602172112798142 
1665	 0.601597770003075 
1666	 0.60094992706714 
1667	 0.600249918534371 
1668	 0.599496894882053 
1669	 0.598689284067666 
1670	 0.597805393926821 
1671	 0.596843063469735 
1672	 0.595837477657693 
1673	 0.594760569573506 
1674	 0.593643895955678 
1675	 0.592478533480075 
1676	 0.591302172084362 
1677	 0.590082896308142 
1678	 0.588835054110736 
1679	 0.587549237925233 
1680	 0.586246082903787 
1681	 0.584894631089303 
1682	 0.583551366569512 
1683	 0.5821877327373 
1684	 0.580882377111863 
1685	 0.579588604761871 
1686	 0.578312028011506 
1687	 0.577073576500888 
1688	 0.57582445863552 
1689	 0.574576389511823 
1690	 0.573328573035104 
1691	 0.572082866575124 
1692	 0.570891669802867 
1693	 0.569739582253424 
1694	 0.568543585566149 
1695	 0.567363979755139 
1696	 0.566166143836226 
1697	 0.564925631066237 
1698	 0.563690677272212 
1699	 0.5624894083869 
1700	 0.561253442355471 
1701	 0.559971053418067 
1702	 0.558722278742481 
1703	 0.557455261813117 
1704	 0.556242038679494 
1705	 0.555035757807737 
1706	 0.553862065724969 
1707	 0.552812599122843 
1708	 0.551804376460172 
1709	 0.55084784326324 
1710	 0.549943771486268 
1711	 0.548989525510151 
1712	 0.548062601725434 
1713	 0.547113456140513 
1714	 0.546101346148926 
1715	 0.545145401807086 
1716	 0.544147416813681 
1717	 0.543147038424389 
1718	 0.54219857183503 
1719	 0.541240316395842 
1720	 0.540354258160321 
1721	 0.539518994073215 
1722	 0.538741598465901 
1723	 0.538151972735647 
1724	 0.537679107755102 
1725	 0.537290655238335 
1726	 0.537087654459021 
1727	 0.53703336669318 
1728	 0.537111121915135 
1729	 0.53735888764964 
1730	 0.537766263733386 
1731	 0.538244445421059 
1732	 0.538819098749613 
1733	 0.539482811265626 
1734	 0.540187861600709 
1735	 0.540894732477183 
1736	 0.541551283545173 
1737	 0.542146475615107 
1738	 0.542630592825344 
1739	 0.543033551650507 
1740	 0.543338719442625 
1741	 0.543592183838023 
1742	 0.543763162024122 
1743	 0.543900538187477 
1744	 0.543955595723181 
1745	 0.544021839549953 
1746	 0.544033992530148 
1747	 0.544084272509199 
1748	 0.544159637424361 
1749	 0.544216658852409 
1750	 0.544254096012235 
1751	 0.54433993654681 
1752	 0.544420358096573 
1753	 0.544553924470245 
1754	 0.54473439916151 
1755	 0.544954056765716 
1756	 0.545190869678895 
1757	 0.545518850927388 
1758	 0.54589027647253 
1759	 0.546304332743397 
1760	 0.546813802519554 
1761	 0.547431725009197 
1762	 0.548098788848761 
1763	 0.548835066880344 
1764	 0.549622527434554 
1765	 0.550417221936257 
1766	 0.551272691438175 
1767	 0.552123262388921 
1768	 0.552981165921863 
1769	 0.553830111191635 
1770	 0.554595462941403 
1771	 0.555345198638912 
1772	 0.556038409264194 
1773	 0.556657319575596 
1774	 0.557246132776151 
1775	 0.55778623951722 
1776	 0.558289747021639 
1777	 0.558724680796428 
1778	 0.559103873581889 
1779	 0.559451553990069 
1780	 0.559728311085654 
1781	 0.559988000397501 
1782	 0.560217714165934 
1783	 0.560371171601501 
1784	 0.560510169785476 
1785	 0.560605925412813 
1786	 0.56068512166842 
1787	 0.56074844091541 
1788	 0.560785824515182 
1789	 0.560784234176486 
1790	 0.560778813447653 
1791	 0.560744012584579 
1792	 0.560744259534164 
1793	 0.560741023616454 
1794	 0.560727059639413 
1795	 0.560760096575351 
1796	 0.560783897627793 
1797	 0.560835887850247 
1798	 0.560904611832962 
1799	 0.56095099948223 
1800	 0.560996933097078 
1801	 0.563323490145558 
1802	 0.56344056416783 
1803	 0.563537166843714 
1804	 0.563628336317923 
1805	 0.563711650989985 
1806	 0.563802672345156 
1807	 0.563867429417288 
1808	 0.563980221192329 
1809	 0.564125367540284 
1810	 0.564255393541978 
1811	 0.564403447759714 
1812	 0.564547028769246 
1813	 0.564666847413449 
1814	 0.564827773902674 
1815	 0.564995728483259 
1816	 0.565148512020415 
1817	 0.565303193345198 
1818	 0.565458711503127 
1819	 0.56560620326996 
1820	 0.565746446564536 
1821	 0.565894361928899 
1822	 0.566043029188028 
1823	 0.566184207106027 
1824	 0.56633511055521 
1825	 0.566491645472531 
1826	 0.5666367787445 
1827	 0.566772883130097 
1828	 0.566918889743744 
1829	 0.567067107856822 
1830	 0.56720375273197 
1831	 0.567328240769418 
1832	 0.567476396445437 
1833	 0.5676331167897 
1834	 0.567780383397548 
1835	 0.567948706437751 
1836	 0.568131041439313 
1837	 0.568294905529995 
1838	 0.568452605027858 
1839	 0.568599723266027 
1840	 0.568744674248357 
1841	 0.56887450544661 
1842	 0.568984664745437 
1843	 0.569096124022283 
1844	 0.56921197546538 
1845	 0.569301881715302 
1846	 0.569393991943563 
1847	 0.569477419303297 
1848	 0.56952456711981 
1849	 0.569545799869406 
1850	 0.569559201521704 
1851	 0.569547838057926 
1852	 0.569524179801458 
1853	 0.569500786971904 
1854	 0.569459000313009 
1855	 0.569376753346844 
1856	 0.569227823132326 
1857	 0.569038787676316 
1858	 0.56883265804658 
1859	 0.568592506979582 
1860	 0.568313195327607 
1861	 0.568022995622887 
1862	 0.567719472280571 
1863	 0.567363975710354 
1864	 0.566992475441651 
1865	 0.566612138822253 
1866	 0.566176233538502 
1867	 0.565666877845154 
1868	 0.565110896055901 
1869	 0.564474670230643 
1870	 0.563781115640245 
1871	 0.56303970056769 
1872	 0.562235014855498 
1873	 0.561359775942796 
1874	 0.560455766739681 
1875	 0.559501174289103 
1876	 0.558415821100713 
1877	 0.557350447222422 
1878	 0.556184856261266 
1879	 0.554879843520928 
1880	 0.553585147010004 
1881	 0.552166090479878 
1882	 0.550635873081952 
1883	 0.549018621935645 
1884	 0.547313513168988 
1885	 0.545367792410986 
1886	 0.543337628695062 
1887	 0.541116581992999 
1888	 0.538653812890531 
1889	 0.536235610861916 
1890	 0.533644145467085 
1891	 0.530968954521747 
1892	 0.528272787768515 
1893	 0.525439569218763 
1894	 0.522446131838662 
1895	 0.519481821756774 
1896	 0.516394757801601 
1897	 0.513253265966334 
1898	 0.510325225213842 
1899	 0.507288746414232 
1900	 0.504335674407835 
1901	 0.501493756241727 
1902	 0.498468744865356 
1903	 0.495599630004265 
1904	 0.492790492981668 
1905	 0.489999496385286 
1906	 0.487267350648085 
1907	 0.484831104851454 
1908	 0.482393336334985 
1909	 0.480054380407439 
1910	 0.477856198997565 
1911	 0.475599704849007 
1912	 0.473496316177105 
1913	 0.47146434369832 
1914	 0.469460344842251 
1915	 0.467625167991887 
1916	 0.465958641733539 
1917	 0.464298675471413 
1918	 0.462728202865174 
1919	 0.461279820333215 
1920	 0.459799018408522 
1921	 0.458447250063959 
1922	 0.457179427854332 
1923	 0.455979327794825 
1924	 0.454945820859662 
1925	 0.453941082660953 
1926	 0.453007794224673 
1927	 0.452168412227654 
1928	 0.451375197590596 
1929	 0.450622864542298 
1930	 0.449964769872177 
1931	 0.449368441667145 
1932	 0.448821735863307 
1933	 0.448391349776974 
1934	 0.448018868935702 
1935	 0.447689487310757 
1936	 0.447399099986586 
1937	 0.447175367405793 
1938	 0.446992981822914 
1939	 0.446878611021702 
1940	 0.446814359577968 
1941	 0.446861310517864 
1942	 0.446960778080124 
1943	 0.447090208010332 
1944	 0.447287278019718 
1945	 0.447568761173222 
1946	 0.447904666561478 
1947	 0.448270772044207 
1948	 0.44869084152151 
1949	 0.449127674934596 
1950	 0.449560556984096 
1951	 0.449992028256678 
1952	 0.450456036355072 
1953	 0.450939227100774 
1954	 0.451422967430861 
1955	 0.451947074224219 
1956	 0.452464063055947 
1957	 0.453011533177411 
1958	 0.453579980367888 
1959	 0.454114140224402 
1960	 0.454672864675193 
1961	 0.455226830743065 
1962	 0.45577016913639 
1963	 0.456317967957399 
1964	 0.456879943481007 
1965	 0.45742046831405 
1966	 0.4579552913925 
1967	 0.458481615293089 
1968	 0.458974915206882 
1969	 0.459502769185025 
1970	 0.460014713455921 
1971	 0.460504219140638 
1972	 0.461038219701648 
1973	 0.461558190076527 
1974	 0.462056039289645 
1975	 0.462554817910707 
1976	 0.463035332123285 
1977	 0.46348608738852 
1978	 0.463930523616876 
1979	 0.464358073901719 
1980	 0.464799633758046 
1981	 0.465233839515336 
1982	 0.465637105637874 
1983	 0.466053708431151 
1984	 0.46641947466667 
1985	 0.466726205308528 
1986	 0.467061146728697 
1987	 0.467385777535181 
1988	 0.46769889915433 
1989	 0.468009663050571 
1990	 0.468331101236375 
1991	 0.468615435120735 
1992	 0.468873148329811 
1993	 0.469147138366113 
1994	 0.469369224568903 
1995	 0.469579558386782 
1996	 0.46978690616969 
1997	 0.469925619500049 
1998	 0.470076904482242 
1999	 0.470216151775396 
2000	 0.470349635181282 
2001	 0.470490998915656 
2002	 0.470586217057507 
2003	 0.470648770486103 
2004	 0.470702956773477 
2005	 0.470718060508169 
2006	 0.47073685953651 
2007	 0.470762640217966 
2008	 0.470769125368348 
2009	 0.470734496597516 
2010	 0.470677553492788 
2011	 0.470601762953437 
2012	 0.47049157638813 
2013	 0.470355334408367 
2014	 0.470212698230415 
2015	 0.470011463796567 
2016	 0.469771294630897 
2017	 0.46948645121253 
2018	 0.46914169107302 
2019	 0.46878838741976 
2020	 0.468418015820219 
2021	 0.467984329032879 
2022	 0.467546142781232 
2023	 0.467038248486206 
2024	 0.466414308152276 
2025	 0.46578678977017 
2026	 0.465106238272688 
2027	 0.464324048664713 
2028	 0.463601343358436 
2029	 0.462869786424523 
2030	 0.462124937885128 
2031	 0.461380908295805 
2032	 0.460646550754847 
2033	 0.459869355235412 
2034	 0.459155611424469 
2035	 0.458458044026397 
2036	 0.457796032938489 
2037	 0.457213649740449 
2038	 0.456717068390589 
2039	 0.456295181275541 
2040	 0.455980280356154 
2041	 0.455681916148818 
2042	 0.455417182648464 
2043	 0.455258113442965 
2044	 0.455176411736966 
2045	 0.455147151410307 
2046	 0.455237552686619 
2047	 0.455322765445462 
2048	 0.455414050779875 
2049	 0.455579339966779 
2050	 0.455809698731024 
2051	 0.456060050726341 
2052	 0.456360930976691 
2053	 0.456743739893214 
2054	 0.457133028560277 
2055	 0.457561720519408 
2056	 0.458002217289183 
2057	 0.458476151317917 
2058	 0.458960419583683 
2059	 0.459475427383042 
2060	 0.459975084752516 
2061	 0.46050619073653 
2062	 0.46100355293407 
2063	 0.461476960671182 
2064	 0.461953133914262 
2065	 0.462407661085169 
2066	 0.46287740725933 
2067	 0.46338236931603 
2068	 0.463840808735636 
2069	 0.4642755069728 
2070	 0.464709504920777 
2071	 0.465101409254646 
2072	 0.46544494892829 
2073	 0.465780500593395 
2074	 0.466119587430288 
2075	 0.466395271877584 
2076	 0.466623937702026 
2077	 0.466828961090886 
2078	 0.466996312273264 
2079	 0.467132599590179 
2080	 0.467233014069755 
2081	 0.467311677513815 
2082	 0.467378364700889 
2083	 0.467373705992861 
2084	 0.467342593081144 
2085	 0.467312587996824 
2086	 0.467230068202356 
2087	 0.467102163406636 
2088	 0.466953056154391 
2089	 0.466751119466873 
2090	 0.466569952472586 
2091	 0.466384421706121 
2092	 0.466164701539163 
2093	 0.465961179861856 
2094	 0.465698914117342 
2095	 0.465348571775932 
2096	 0.465034273203094 
2097	 0.464739139220918 
2098	 0.464385264474134 
2099	 0.464023901629081 
2100	 0.463665938629034 
2101	 0.463223785613493 
2102	 0.462700740875243 
2103	 0.462203482413303 
2104	 0.461660060006387 
2105	 0.461140109971271 
2106	 0.460631139606648 
2107	 0.460100194825909 
2108	 0.459577736862496 
2109	 0.459013707268003 
2110	 0.458418294462107 
2111	 0.457819857888298 
2112	 0.457174519064991 
2113	 0.456551417744522 
2114	 0.455934951362416 
2115	 0.455317406263531 
2116	 0.454714403464897 
2117	 0.45410734829296 
2118	 0.453459965014267 
2119	 0.45279285709093 
2120	 0.452127975965731 
2121	 0.451413322562078 
2122	 0.45075845379412 
2123	 0.450134224352246 
2124	 0.449499461525901 
2125	 0.448899021277314 
2126	 0.448260672028768 
2127	 0.447597788737341 
2128	 0.446953131129984 
2129	 0.446301695922244 
2130	 0.445644353951554 
2131	 0.444996677753242 
2132	 0.444338887977812 
2133	 0.4436711946265 
2134	 0.442998301313855 
2135	 0.442305087383967 
2136	 0.441637866470014 
2137	 0.44093934166295 
2138	 0.440210339153682 
2139	 0.439506190581228 
2140	 0.438801380957743 
2141	 0.438100853993247 
2142	 0.437411818154599 
2143	 0.43671742403059 
2144	 0.436018680576313 
2145	 0.435332445146721 
2146	 0.434647879026493 
2147	 0.433972505370991 
2148	 0.433286797173827 
2149	 0.43263490613833 
2150	 0.432026049586696 
2151	 0.431393610974534 
2152	 0.430738015073854 
2153	 0.430154725721975 
2154	 0.429553360766174 
2155	 0.428935983257816 
2156	 0.428363513842657 
2157	 0.427829558536826 
2158	 0.427297981138053 
2159	 0.426785560491034 
2160	 0.426272971179505 
2161	 0.425762474814347 
2162	 0.425292687626131 
2163	 0.424802526970191 
2164	 0.424401735561825 
2165	 0.424077767954192 
2166	 0.423762882111061 
2167	 0.423482944798598 
2168	 0.423251075552209 
2169	 0.423035143447359 
2170	 0.422884794108688 
2171	 0.422789879398538 
2172	 0.422756061628364 
2173	 0.422787566776668 
2174	 0.422858655309117 
2175	 0.42298311793617 
2176	 0.423155024642861 
2177	 0.423338036714229 
2178	 0.423537710493032 
2179	 0.423794033047402 
2180	 0.424095426811935 
2181	 0.424413702299024 
2182	 0.424784780111044 
2183	 0.425155102867461 
2184	 0.425529410269522 
2185	 0.425942889611037 
2186	 0.426398669481007 
2187	 0.426846053402907 
2188	 0.427328229894135 
2189	 0.427795351744712 
2190	 0.428236855519484 
2191	 0.428718068807674 
2192	 0.42924282548503 
2193	 0.429730116622611 
2194	 0.430234286619617 
2195	 0.430710778353156 
2196	 0.431168062394602 
2197	 0.431581827122637 
2198	 0.431980379800656 
2199	 0.432431145983066 
2200	 0.432832779430639 
2201	 0.433207827298742 
2202	 0.433596935452549 
2203	 0.433987991086759 
2204	 0.434340284259008 
2205	 0.434690219580742 
2206	 0.435006072540049 
2207	 0.435265171950118 
2208	 0.435553141440372 
2209	 0.435839122151177 
2210	 0.436121066570437 
2211	 0.436420434250691 
2212	 0.436682909406335 
2213	 0.436922855352604 
2214	 0.437150290280631 
2215	 0.437371765533837 
2216	 0.437552786252913 
2217	 0.43769818910851 
2218	 0.437846409449378 
2219	 0.437987976795279 
2220	 0.438073359494177 
2221	 0.438129065361351 
2222	 0.438182425194553 
2223	 0.438167448591793 
2224	 0.438104302838333 
2225	 0.438035625942829 
2226	 0.437889403551721 
2227	 0.437697641367194 
2228	 0.437453565639342 
2229	 0.437148844235262 
2230	 0.436799578922558 
2231	 0.43636189876302 
2232	 0.435854852950239 
2233	 0.435262385343996 
2234	 0.434618497679645 
2235	 0.433828823240778 
2236	 0.43291752232482 
2237	 0.431940951163761 
2238	 0.430821370306491 
2239	 0.429676377685273 
2240	 0.428514257701644 
2241	 0.427201128995065 
2242	 0.425819682605752 
2243	 0.424283740272172 
2244	 0.422580250851236 
2245	 0.420812865362367 
2246	 0.418835423789017 
2247	 0.41691668268151 
2248	 0.414998256271363 
2249	 0.412986796393781 
2250	 0.410934986579654 
2251	 0.408890699510983 
2252	 0.4066277967026 
2253	 0.40437718576515 
2254	 0.402116865317814 
2255	 0.399850073893953 
2256	 0.397787499788504 
2257	 0.395730972157217 
2258	 0.393749108583279 
2259	 0.391895743240816 
2260	 0.390002839840176 
2261	 0.388104045478359 
2262	 0.386299787414051 
2263	 0.384500636791546 
2264	 0.382844276759811 
2265	 0.381317573410974 
2266	 0.379771477926917 
2267	 0.378354505775028 
2268	 0.376863306152707 
2269	 0.375326305601547 
2270	 0.373860565841746 
2271	 0.372390209932676 
2272	 0.370968435969967 
2273	 0.369638145631753 
2274	 0.368252887397068 
2275	 0.366915316177585 
2276	 0.36549146895099 
2277	 0.364010593102727 
2278	 0.362520356066192 
2279	 0.360923733396868 
2280	 0.359404209794077 
2281	 0.357923637819251 
2282	 0.35641700229397 
2283	 0.354912377991358 
2284	 0.353487266270497 
2285	 0.351905144870122 
2286	 0.350307003079048 
2287	 0.348701054703851 
2288	 0.346985434758851 
2289	 0.345346062713072 
2290	 0.3436932768829 
2291	 0.342067173284439 
2292	 0.340452222906184 
2293	 0.338801532223999 
2294	 0.337266532674393 
2295	 0.335764295296446 
2296	 0.334396580375055 
2297	 0.333262420444295 
2298	 0.332291714702506 
2299	 0.33154146714935 
2300	 0.330994414565684 
2301	 0.330704740605106 
2302	 0.330638590003765 
2303	 0.330843490626208 
2304	 0.331359261096473 
2305	 0.332031066569408 
2306	 0.33296404203433 
2307	 0.334061861923764 
2308	 0.335374805214372 
2309	 0.336838102882232 
2310	 0.338558001755372 
2311	 0.340297032172201 
2312	 0.342284682351576 
2313	 0.344151868247681 
2314	 0.346108000632196 
2315	 0.347930547624063 
2316	 0.349705759304618 
2317	 0.351325410465527 
2318	 0.352911278886694 
2319	 0.354239750508654 
2320	 0.355417335158262 
2321	 0.35636266563273 
2322	 0.35702650315474 
2323	 0.357576928092825 
2324	 0.357944225316749 
2325	 0.358129932750972 
2326	 0.358137477596127 
2327	 0.357980170582921 
2328	 0.35755195593635 
2329	 0.357067081323509 
2330	 0.356465800130994 
2331	 0.355710097393285 
2332	 0.354883589917893 
2333	 0.353903166372282 
2334	 0.352733454591228 
2335	 0.351586873111489 
2336	 0.350303964859689 
2337	 0.3489223530488 
2338	 0.347613717760436 
2339	 0.346183253703533 
2340	 0.344825415274353 
2341	 0.34357665970918 
2342	 0.342357820342106 
2343	 0.341407339815499 
2344	 0.340685488410118 
2345	 0.340252076759515 
2346	 0.340152068054157 
2347	 0.340330034237384 
2348	 0.340714444026472 
2349	 0.341402014151569 
2350	 0.342398523662852 
2351	 0.343579114258833 
2352	 0.344894102841663 
2353	 0.346318639184789 
2354	 0.347681218018523 
2355	 0.348976416370996 
2356	 0.350193884639985 
2357	 0.351244754970027 
2358	 0.352198621302455 
2359	 0.352957064117412 
2360	 0.353590517532439 
2361	 0.354070994566855 
2362	 0.354384592900301 
2363	 0.354601633893729 
2364	 0.354781248727442 
2365	 0.354958976516258 
2366	 0.355077464392303 
2367	 0.355195560616147 
2368	 0.355300206189849 
2369	 0.355384549431363 
2370	 0.355462322810219 
2371	 0.355555663237083 
2372	 0.355633254778383 
2373	 0.355638704621955 
2374	 0.355651206625503 
2375	 0.355615173612843 
2376	 0.355584229086006 
2377	 0.355653291102624 
2378	 0.355699124853477 
2379	 0.355779575709965 
2380	 0.355902075310564 
2381	 0.355962223610519 
2382	 0.356079454335464 
2383	 0.356266695419201 
2384	 0.356406528372939 
2385	 0.356565512321869 
2386	 0.35666948264091 
2387	 0.356698758183134 
2388	 0.35682584703702 
2389	 0.356951968308449 
2390	 0.357093597200759 
2391	 0.357353497191054 
2392	 0.357497797293703 
2393	 0.357592886323734 
2394	 0.357657699997643 
2395	 0.35764240861281 
2396	 0.357639520577228 
2397	 0.357591876214415 
2398	 0.357602102024879 
2399	 0.357637539681956 
2400	 0.35767661551714 
2401	 0.357772296703232 
2402	 0.357725195855518 
2403	 0.357689750544322 
2404	 0.357667391239902 
2405	 0.35768870652419 
2406	 0.357659622548922 
2407	 0.357616201079064 
2408	 0.357539894471146 
2409	 0.35738025847311 
2410	 0.35728934731826 
2411	 0.357116366296023 
2412	 0.356968562315147 
2413	 0.356942920525985 
2414	 0.356782751601656 
2415	 0.356692436010307 
2416	 0.356611333897748 
2417	 0.356408919602467 
2418	 0.356330137916416 
2419	 0.356258845059926 
2420	 0.356201460994918 
2421	 0.356101333367664 
2422	 0.355823915909632 
2423	 0.355644385696194 
2424	 0.355381850925746 
2425	 0.354948041176921 
2426	 0.354765529354582 
2427	 0.354746440541838 
2428	 0.354704059274485 
2429	 0.354665310392261 
2430	 0.35450329265899 
2431	 0.3541616353874 
2432	 0.353788429376036 
2433	 0.353448721577348 
2434	 0.353049990963668 
2435	 0.35255838472033 
2436	 0.352018334383891 
2437	 0.35135871330551 
2438	 0.35080679247579 
2439	 0.350519413283437 
2440	 0.350178740145294 
2441	 0.349747736351799 
2442	 0.34926663739928 
2443	 0.3486135868085 
2444	 0.347950699955491 
2445	 0.347510866965134 
2446	 0.346916482492547 
2447	 0.346114018371476 
2448	 0.345494756995822 
2449	 0.344893554993845 
2450	 0.344258218544444 
2451	 0.343612574436939 
2452	 0.342814999829293 
2453	 0.3418600517508 
2454	 0.34099443505829 
2455	 0.340370504573378 
2456	 0.339791705838713 
2457	 0.339239463558405 
2458	 0.338842834238306 
2459	 0.338460795609367 
2460	 0.337761685345467 
2461	 0.33700742428484 
2462	 0.336481221763323 
2463	 0.335998306277375 
2464	 0.33572418081264 
2465	 0.335422961587185 
2466	 0.334856572292972 
2467	 0.33434597025569 
2468	 0.33386499448704 
2469	 0.333629181525937 
2470	 0.333523377002002 
2471	 0.333251581418814 
2472	 0.332920018514576 
2473	 0.33253735800487 
2474	 0.33223321875051 
2475	 0.33181011414385 
2476	 0.331541146452883 
2477	 0.33155461896833 
2478	 0.331265539004097 
2479	 0.331068183418583 
2480	 0.330763038257891 
2481	 0.330592702288173 
2482	 0.330778133899574 
2483	 0.330577320755602 
2484	 0.330537427264594 
2485	 0.330377409728534 
2486	 0.329946709353722 
2487	 0.329958627878818 
2488	 0.33011792928871 
2489	 0.32997771261974 
2490	 0.32993544687059 
2491	 0.32980993925541 
2492	 0.329543832556136 
2493	 0.329974191502108 
2494	 0.330426289823465 
2495	 0.330510945226567 
2496	 0.330681452745916 
2497	 0.330196737502346 
2498	 0.329689767916702 
2499	 0.329809207282777 
2500	 0.330067191101027 
