Wavelength	spectrum00023.asd
350	 0.030670816664746 
351	 3.00838075961574E-02 
352	 2.86745909759343E-02 
353	 2.78160308749779E-02 
354	 2.95419768690444E-02 
355	 2.99867465126767E-02 
356	 3.04720428079715E-02 
357	 3.16928707591668E-02 
358	 2.85735159195731E-02 
359	 2.66126281569573E-02 
360	 2.68186343660558E-02 
361	 2.76519049145312E-02 
362	 2.87801909227373E-02 
363	 2.80007160612524E-02 
364	 2.58990126824227E-02 
365	 2.67330995517875E-02 
366	 2.80269189977603E-02 
367	 2.81737494528621E-02 
368	 0.026905256765816 
369	 0.02755008894546 
370	 2.73056263674629E-02 
371	 2.68286424319033E-02 
372	 2.82143874521722E-02 
373	 2.73747962293728E-02 
374	 2.68274507593566E-02 
375	 2.78355142507332E-02 
376	 2.89117567056736E-02 
377	 2.88691095237076E-02 
378	 2.78951558182872E-02 
379	 0.026889293480748 
380	 0.027521477278633 
381	 2.83990276442635E-02 
382	 2.85188262550694E-02 
383	 2.75296191429105E-02 
384	 2.81135012659151E-02 
385	 0.028856804025946 
386	 2.88085720079896E-02 
387	 2.84580435441253E-02 
388	 2.79668498411687E-02 
389	 2.75829916843383E-02 
390	 2.74318599835551E-02 
391	 2.71185404825687E-02 
392	 2.75561989171873E-02 
393	 2.82680129280397E-02 
394	 2.80154127348271E-02 
395	 2.78807730372501E-02 
396	 2.81447320585188E-02 
397	 2.85089767593767E-02 
398	 2.78672422283457E-02 
399	 2.77501503572096E-02 
400	 2.79156161109132E-02 
401	 2.77676201584298E-02 
402	 2.74790702158618E-02 
403	 2.79780122973377E-02 
404	 2.87232387139746E-02 
405	 2.82361028883512E-02 
406	 2.79102194410879E-02 
407	 2.78395641929502E-02 
408	 0.027925040142519 
409	 2.81466341176277E-02 
410	 0.028051356949765 
411	 2.80089253816313E-02 
412	 2.84147447232108E-02 
413	 0.028366413043767 
414	 2.80407666235526E-02 
415	 2.77255091883163E-02 
416	 2.77192801854721E-02 
417	 0.027623731509138 
418	 2.76343580304659E-02 
419	 2.78241232716395E-02 
420	 2.77347136085651E-02 
421	 2.76341745220602E-02 
422	 2.76535078465991E-02 
423	 2.78051805931301E-02 
424	 2.77461823185833E-02 
425	 2.76464111011781E-02 
426	 2.76034354830922E-02 
427	 2.75823893208163E-02 
428	 2.75353364940225E-02 
429	 2.76214912861728E-02 
430	 0.027847370310796 
431	 2.75947626945517E-02 
432	 2.75360504376887E-02 
433	 2.76759869171133E-02 
434	 2.76597846636904E-02 
435	 2.76450278652982E-02 
436	 2.76659659124784E-02 
437	 2.77002221275005E-02 
438	 2.76545181188222E-02 
439	 2.76480892403864E-02 
440	 2.76446340332091E-02 
441	 2.75924755684127E-02 
442	 0.027543770121398 
443	 2.77610575634089E-02 
444	 2.80259282946927E-02 
445	 2.77921424215249E-02 
446	 2.76579082624519E-02 
447	 2.76667318321089E-02 
448	 2.77328595979867E-02 
449	 2.77001888464879E-02 
450	 2.76552227021109E-02 
451	 2.76338820935841E-02 
452	 0.027647888888037 
453	 2.76720117129278E-02 
454	 2.76742330019044E-02 
455	 2.76542432705966E-02 
456	 2.76473499094868E-02 
457	 2.77223697273899E-02 
458	 2.77631809884385E-02 
459	 2.76995123558508E-02 
460	 2.77304940452428E-02 
461	 2.76978395119393E-02 
462	 2.76130589699424E-02 
463	 0.027583633916627 
464	 2.76566087445833E-02 
465	 2.76973166361709E-02 
466	 2.76531456830495E-02 
467	 2.76250519071134E-02 
468	 2.76889713660703E-02 
469	 2.77297731604126E-02 
470	 2.76568743542189E-02 
471	 2.77618242356137E-02 
472	 2.76885269110835E-02 
473	 2.75404843353445E-02 
474	 2.77468802260094E-02 
475	 2.76159680294515E-02 
476	 2.74926740132525E-02 
477	 2.76216529816989E-02 
478	 2.76616087718366E-02 
479	 2.76315910568463E-02 
480	 2.75941211159388E-02 
481	 2.76239001620347E-02 
482	 2.76789070082286E-02 
483	 2.77120379514796E-02 
484	 2.77057101874896E-02 
485	 2.76774623027812E-02 
486	 2.77500267262063E-02 
487	 2.77734951668522E-02 
488	 2.76549414526771E-02 
489	 2.76767683458435E-02 
490	 2.77053512389944E-02 
491	 2.77157835839858E-02 
492	 2.77449400492279E-02 
493	 2.77678126805407E-02 
494	 2.77812489814902E-02 
495	 0.027791859434756 
496	 2.78213695694277E-02 
497	 2.77948260282226E-02 
498	 2.77452571260303E-02 
499	 2.77337844019098E-02 
500	 2.77795163825834E-02 
501	 2.78148196589931E-02 
502	 2.78082620851634E-02 
503	 2.77671399651491E-02 
504	 2.77257945504828E-02 
505	 2.77112195208583E-02 
506	 2.77318266720048E-02 
507	 2.77725882252246E-02 
508	 0.027719663514497 
509	 2.76669335332899E-02 
510	 2.77560809153032E-02 
511	 2.77293641762542E-02 
512	 0.02776530262203 
513	 2.78879603857004E-02 
514	 0.027878091680554 
515	 2.77677783590068E-02 
516	 2.76822637670714E-02 
517	 2.77158715242026E-02 
518	 2.77675855718101E-02 
519	 0.027775564336118 
520	 0.027758408448145 
521	 2.77858060482185E-02 
522	 2.78232272982948E-02 
523	 2.78099672906002E-02 
524	 2.77409325224353E-02 
525	 2.77213740863611E-02 
526	 2.77443314670813E-02 
527	 2.77622553202403E-02 
528	 2.77354620716348E-02 
529	 2.77795126726015E-02 
530	 2.77941214688026E-02 
531	 0.027763258637069 
532	 2.77721310615055E-02 
533	 2.77863247370108E-02 
534	 2.77974984490975E-02 
535	 2.77990274798426E-02 
536	 2.77689138545876E-02 
537	 2.77747301067689E-02 
538	 2.78134344952909E-02 
539	 2.78406853340939E-02 
540	 2.78373243572001E-02 
541	 2.78514382254137E-02 
542	 2.78974545090253E-02 
543	 2.79252355583295E-02 
544	 2.79269205784075E-02 
545	 2.79018120203742E-02 
546	 2.78646608784246E-02 
547	 2.78755417086919E-02 
548	 2.78851581128565E-02 
549	 2.78793428249796E-02 
550	 2.78776648355045E-02 
551	 2.78395878950062E-02 
552	 2.77953997399963E-02 
553	 2.77699495431634E-02 
554	 2.77415342236086E-02 
555	 0.027705110750305 
556	 2.76729751979023E-02 
557	 2.76596731966527E-02 
558	 2.76216659208728E-02 
559	 2.76051372384997E-02 
560	 2.76190086324862E-02 
561	 2.76101371089678E-02 
562	 2.75862745133063E-02 
563	 2.75901664341621E-02 
564	 0.027650074902615 
565	 2.77067719650007E-02 
566	 2.77293036141613E-02 
567	 2.77212182892616E-02 
568	 2.77133879693228E-02 
569	 0.02772378368884 
570	 2.77239210983033E-02 
571	 2.76894256632927E-02 
572	 2.76093231399397E-02 
573	 2.76120409924517E-02 
574	 2.76564603674173E-02 
575	 2.76562307452663E-02 
576	 0.027708514933838 
577	 2.77595782891788E-02 
578	 2.77779951372245E-02 
579	 2.77704270625587E-02 
580	 2.78137220466223E-02 
581	 2.78391572003318E-02 
582	 2.78009453096456E-02 
583	 2.78380073488785E-02 
584	 2.78579455011336E-02 
585	 2.78461586618096E-02 
586	 2.78383183246782E-02 
587	 2.78719258372953E-02 
588	 2.78933981470881E-02 
589	 2.78831756560515E-02 
590	 2.78966091248732E-02 
591	 2.78776047580261E-02 
592	 2.78515423338521E-02 
593	 2.78493643810438E-02 
594	 2.78083000723037E-02 
595	 2.77873352674688E-02 
596	 2.77809773964309E-02 
597	 2.77302543969134E-02 
598	 2.77255732791989E-02 
599	 2.77589603742122E-02 
600	 2.77942102832867E-02 
601	 2.77689588923919E-02 
602	 2.77588556370037E-02 
603	 2.77643609135362E-02 
604	 2.77553805944849E-02 
605	 2.77347414359884E-02 
606	 2.77302601197951E-02 
607	 2.77540582497182E-02 
608	 2.77964548773722E-02 
609	 2.77823279088247E-02 
610	 2.77544189647259E-02 
611	 2.77641996871204E-02 
612	 0.027785576063067 
613	 2.77953474540711E-02 
614	 2.77914132284744E-02 
615	 2.77857412938004E-02 
616	 2.77703295807575E-02 
617	 2.77733540768702E-02 
618	 2.77954912635832E-02 
619	 2.77808286588373E-02 
620	 2.77642185476279E-02 
621	 2.77637790608677E-02 
622	 2.77825795082739E-02 
623	 2.77780800771111E-02 
624	 2.77806081916673E-02 
625	 2.77898546690731E-02 
626	 2.77760220136323E-02 
627	 2.77611258349599E-02 
628	 2.77664589109692E-02 
629	 2.77943314629127E-02 
630	 2.78053127840432E-02 
631	 2.77817649346548E-02 
632	 2.77605422738538E-02 
633	 2.77891450002267E-02 
634	 2.77961803375574E-02 
635	 2.77754490232452E-02 
636	 2.77567256105549E-02 
637	 2.78053044325277E-02 
638	 2.78325778083486E-02 
639	 2.78135840704559E-02 
640	 2.77649581805065E-02 
641	 2.77789302737538E-02 
642	 2.77865839705897E-02 
643	 2.77768653238912E-02 
644	 2.77771263190145E-02 
645	 2.78151899981052E-02 
646	 2.78130097934829E-02 
647	 2.77604140981806E-02 
648	 2.77778447297268E-02 
649	 2.78122007413673E-02 
650	 2.78315623269476E-02 
651	 2.78184301696879E-02 
652	 2.77925808693024E-02 
653	 2.77769847854804E-02 
654	 2.77875393099945E-02 
655	 2.78268115695668E-02 
656	 2.78021749054232E-02 
657	 2.77916072698015E-02 
658	 2.78308056740524E-02 
659	 2.78021694164935E-02 
660	 2.78045646435841E-02 
661	 0.027831793246072 
662	 2.78411660135859E-02 
663	 2.78166211167062E-02 
664	 2.77985268168416E-02 
665	 2.77964062089924E-02 
666	 2.77861516569961E-02 
667	 2.77945764570613E-02 
668	 2.78159278832852E-02 
669	 2.78373492549319E-02 
670	 2.78460185731963E-02 
671	 2.78466085032042E-02 
672	 2.78411516265816E-02 
673	 2.78331965611794E-02 
674	 2.78399305257308E-02 
675	 2.78534192973253E-02 
676	 2.78646463553327E-02 
677	 2.78666460285077E-02 
678	 2.78768308503254E-02 
679	 2.78824225134759E-02 
680	 2.78753371924673E-02 
681	 2.78822395383462E-02 
682	 2.79039671017406E-02 
683	 2.79189789077252E-02 
684	 2.79013035514617E-02 
685	 2.78964867682274E-02 
686	 2.78994190672959E-02 
687	 0.027907625770678 
688	 2.79305780847997E-02 
689	 2.79367767102905E-02 
690	 2.79321880251957E-02 
691	 2.79328645105735E-02 
692	 0.0279513106551 
693	 2.79650075965873E-02 
694	 2.79732484479269E-02 
695	 0.027987096971298 
696	 2.79819773288175E-02 
697	 0.027992673742653 
698	 2.80207205389674E-02 
699	 2.80047153342426E-02 
700	 2.80017131337707E-02 
701	 2.80210644940019E-02 
702	 2.80486762626269E-02 
703	 2.80337155117241E-02 
704	 2.80628384071469E-02 
705	 2.81078267390463E-02 
706	 2.80748218928434E-02 
707	 2.80853463105196E-02 
708	 0.028103561732232 
709	 2.81065067148156E-02 
710	 2.81279473873379E-02 
711	 2.81511736478415E-02 
712	 2.81686015737067E-02 
713	 2.81789637081435E-02 
714	 2.81962654113245E-02 
715	 2.82051595630628E-02 
716	 2.82114965768325E-02 
717	 0.028234520711898 
718	 2.82616447145591E-02 
719	 0.028276681816284 
720	 2.82789126645272E-02 
721	 0.028293782536887 
722	 2.83078902229072E-02 
723	 2.83266602006635E-02 
724	 2.83543832387953E-02 
725	 2.83713529465903E-02 
726	 2.83765899413254E-02 
727	 2.83903148286573E-02 
728	 2.84391316803439E-02 
729	 2.84573128805959E-02 
730	 2.84717534657926E-02 
731	 2.84987114518725E-02 
732	 2.85159280620075E-02 
733	 2.85367982672237E-02 
734	 2.85621620501289E-02 
735	 2.85885601349253E-02 
736	 2.86100236499872E-02 
737	 2.86360557828524E-02 
738	 2.86568098904479E-02 
739	 2.86559445536447E-02 
740	 2.86816410548858E-02 
741	 2.87185682114767E-02 
742	 2.87504809284932E-02 
743	 2.87724199891588E-02 
744	 2.87966674003021E-02 
745	 2.88218453706731E-02 
746	 2.88451334263087E-02 
747	 2.88716244124084E-02 
748	 2.89053026954302E-02 
749	 2.89356313932878E-02 
750	 2.89488902144778E-02 
751	 2.89736547620507E-02 
752	 2.90174227577536E-02 
753	 2.90660223671702E-02 
754	 2.90823297622013E-02 
755	 0.029113560807462 
756	 2.91476428869293E-02 
757	 2.91706539811691E-02 
758	 2.92044832627233E-02 
759	 2.92426309613863E-02 
760	 2.92754272105586E-02 
761	 2.92976252925994E-02 
762	 2.93421223236699E-02 
763	 2.93889481139808E-02 
764	 2.94282305161325E-02 
765	 2.94658310825883E-02 
766	 0.029508341702951 
767	 2.95491125609096E-02 
768	 0.029585677658113 
769	 2.96321109774638E-02 
770	 2.96753804162075E-02 
771	 2.97114548631699E-02 
772	 2.97437084907659E-02 
773	 2.97937897431454E-02 
774	 2.98360803162705E-02 
775	 2.98709204072798E-02 
776	 2.99192408562219E-02 
777	 0.029958311075544 
778	 3.00142195077111E-02 
779	 3.00885576652252E-02 
780	 3.01314450181609E-02 
781	 3.01582595528762E-02 
782	 3.01901124620877E-02 
783	 3.02462623586348E-02 
784	 3.03336291798954E-02 
785	 3.04091139950658E-02 
786	 0.030454202207414 
787	 3.04756576581508E-02 
788	 3.05345397273335E-02 
789	 3.06004982711614E-02 
790	 3.06544640877968E-02 
791	 3.07029551841847E-02 
792	 3.07725525933396E-02 
793	 3.08377704074139E-02 
794	 3.08838860442085E-02 
795	 3.09492979645816E-02 
796	 3.10186173842593E-02 
797	 3.10868085012001E-02 
798	 0.031148355855257 
799	 3.11780315757372E-02 
800	 3.12308655429773E-02 
801	 3.13052206353882E-02 
802	 3.13585210007178E-02 
803	 3.14388817615409E-02 
804	 3.15138192043322E-02 
805	 3.15712456696599E-02 
806	 3.16446387359071E-02 
807	 3.17365614668103E-02 
808	 3.18186975629571E-02 
809	 3.18766369586413E-02 
810	 3.19609931191514E-02 
811	 3.20466141637166E-02 
812	 3.21274046705491E-02 
813	 3.22050727138631E-02 
814	 0.032275115396996 
815	 0.032348180336044 
816	 3.24281884304584E-02 
817	 3.25119286666826E-02 
818	 3.26021406311412E-02 
819	 3.26721376458639E-02 
820	 3.27253839967164E-02 
821	 3.28197289484036E-02 
822	 3.29069637515941E-02 
823	 3.30029695242191E-02 
824	 3.31216605878001E-02 
825	 3.32219555141284E-02 
826	 3.32912197184136E-02 
827	 3.33594579204271E-02 
828	 3.34674775612342E-02 
829	 3.35916936382043E-02 
830	 3.36961849113996E-02 
831	 3.37792125243483E-02 
832	 3.38697426803221E-02 
833	 3.39739938981595E-02 
834	 3.40857584013432E-02 
835	 3.41950811100498E-02 
836	 3.42911891788193E-02 
837	 3.43897045828494E-02 
838	 3.44893471625938E-02 
839	 3.45922657761678E-02 
840	 3.47256821698813E-02 
841	 3.48474070230825E-02 
842	 0.034941795769494 
843	 0.035016931442305 
844	 3.51276694276282E-02 
845	 3.52389709735464E-02 
846	 3.53510335647122E-02 
847	 3.54856180552126E-02 
848	 0.035589697442551 
849	 3.56889490506566E-02 
850	 3.57962054912791E-02 
851	 3.58974758543824E-02 
852	 3.60388991644925E-02 
853	 3.61828589655783E-02 
854	 3.63048623208238E-02 
855	 0.036448230205409 
856	 3.65504222778949E-02 
857	 3.66473815240719E-02 
858	 3.67861460094502E-02 
859	 3.69388101245908E-02 
860	 3.70583362085926E-02 
861	 3.71663671973425E-02 
862	 3.73099010036814E-02 
863	 3.74475005051762E-02 
864	 3.75914623538424E-02 
865	 3.77460284692286E-02 
866	 3.79018411440759E-02 
867	 3.80074238215108E-02 
868	 3.81309431440169E-02 
869	 3.82930295308579E-02 
870	 3.84287441256747E-02 
871	 3.85891956277336E-02 
872	 0.038741689148409 
873	 3.88672821115905E-02 
874	 3.90134559572748E-02 
875	 3.92032545189576E-02 
876	 3.93834374482477E-02 
877	 3.95082438410471E-02 
878	 0.039647517701203 
879	 3.98035233211742E-02 
880	 3.99581115382216E-02 
881	 4.00941751726889E-02 
882	 4.02597317074451E-02 
883	 4.04452466595519E-02 
884	 4.06206865946205E-02 
885	 4.07558287457383E-02 
886	 4.09221526850854E-02 
887	 4.10998845336519E-02 
888	 4.12661210597625E-02 
889	 4.14118213384495E-02 
890	 4.16152344041932E-02 
891	 4.17940158258031E-02 
892	 0.041916872603053 
893	 4.20864445813339E-02 
894	 4.22718692260935E-02 
895	 4.24440589580116E-02 
896	 4.26009650047881E-02 
897	 4.28160492503044E-02 
898	 4.29866057679194E-02 
899	 0.043136661540319 
900	 4.33204329053947E-02 
901	 4.35280608378386E-02 
902	 0.043701962580353 
903	 4.38711089850613E-02 
904	 4.40863175940291E-02 
905	 4.42591552184501E-02 
906	 4.44337359375993E-02 
907	 4.46341058984383E-02 
908	 4.48535757045792E-02 
909	 4.50194947511655E-02 
910	 4.51877644035007E-02 
911	 4.53835506085894E-02 
912	 4.55869107131277E-02 
913	 4.58014027783467E-02 
914	 4.60030865626244E-02 
915	 4.61912009310912E-02 
916	 4.64000565630091E-02 
917	 4.66284929462765E-02 
918	 4.68620671217189E-02 
919	 4.70914438933208E-02 
920	 4.73242460077366E-02 
921	 4.75031724802745E-02 
922	 4.76828150249512E-02 
923	 4.79141269733171E-02 
924	 4.81628225334488E-02 
925	 4.84067130502244E-02 
926	 4.86419938637717E-02 
927	 4.88718530216209E-02 
928	 4.90941278600467E-02 
929	 4.93036999735545E-02 
930	 4.95229653808853E-02 
931	 4.97731618366451E-02 
932	 5.00225297977398E-02 
933	 5.02685780473595E-02 
934	 5.04959144594436E-02 
935	 5.06994713207821E-02 
936	 5.09571268504129E-02 
937	 5.12327071036215E-02 
938	 5.14766997344461E-02 
939	 5.16641660036806E-02 
940	 5.19499393721274E-02 
941	 5.22262584057744E-02 
942	 5.24721603536292E-02 
943	 5.27519943779708E-02 
944	 5.30047782849321E-02 
945	 5.32372039099879E-02 
946	 5.34744996397423E-02 
947	 5.37428256829095E-02 
948	 5.39525409029866E-02 
949	 5.42106150259152E-02 
950	 5.45234943630462E-02 
951	 5.47494114552809E-02 
952	 5.49825243836375E-02 
953	 5.52774247412388E-02 
954	 5.55886293151444E-02 
955	 5.57521710842912E-02 
956	 5.59612345380328E-02 
957	 5.62445718410553E-02 
958	 5.65628314199565E-02 
959	 5.68293835833108E-02 
960	 5.70691347912229E-02 
961	 5.73290252222852E-02 
962	 5.76319205265424E-02 
963	 5.79428744157802E-02 
964	 5.81551997696303E-02 
965	 5.83235664612463E-02 
966	 5.85540685927557E-02 
967	 5.89580245389469E-02 
968	 5.92229492017133E-02 
969	 5.94661718338658E-02 
970	 0.059811212489757 
971	 0.060063657563256 
972	 6.03474235678992E-02 
973	 6.06430108550634E-02 
974	 6.09137249708611E-02 
975	 6.11966837087847E-02 
976	 6.15006064526943E-02 
977	 6.18241582162688E-02 
978	 6.21436434404785E-02 
979	 6.23836355002141E-02 
980	 0.062645262823425 
981	 6.29449462692181E-02 
982	 6.32592397156778E-02 
983	 6.35419909868623E-02 
984	 6.38719741863269E-02 
985	 6.42112354124899E-02 
986	 6.45116956349057E-02 
987	 6.48384529153463E-02 
988	 6.51550554188809E-02 
989	 6.54834244654905E-02 
990	 6.58338224103759E-02 
991	 6.61153327527032E-02 
992	 6.63272113144853E-02 
993	 6.66063641719418E-02 
994	 6.70276085392878E-02 
995	 6.72796621759848E-02 
996	 6.77593738187811E-02 
997	 6.81429572853858E-02 
998	 0.068166486334079 
999	 6.86407111411793E-02 
1000	 6.91078222643476E-02 
1001	 7.16638093522108E-02 
1002	 7.19856880945043E-02 
1003	 7.22970082343868E-02 
1004	 7.26341422334908E-02 
1005	 7.30281486994678E-02 
1006	 7.33880534452824E-02 
1007	 7.37182891197433E-02 
1008	 7.40748461771242E-02 
1009	 0.074448208216552 
1010	 7.48136880793571E-02 
1011	 7.52065484198978E-02 
1012	 7.55561678410331E-02 
1013	 7.58796816025026E-02 
1014	 0.076211168281036 
1015	 7.65201745584973E-02 
1016	 7.68131642260005E-02 
1017	 7.71744249260607E-02 
1018	 7.75101344175416E-02 
1019	 7.78616360325655E-02 
1020	 7.82784353643708E-02 
1021	 7.86410866317443E-02 
1022	 7.89800437235232E-02 
1023	 7.93402063783474E-02 
1024	 7.96890446448791E-02 
1025	 8.00486682416751E-02 
1026	 0.080415483979327 
1027	 8.08051777237818E-02 
1028	 8.12250901796584E-02 
1029	 8.16178757179089E-02 
1030	 0.081969538991407 
1031	 8.23531483210382E-02 
1032	 8.27126901929695E-02 
1033	 8.30623438932042E-02 
1034	 0.083490051375128 
1035	 8.38952156665157E-02 
1036	 8.43008709229386E-02 
1037	 8.47450770870364E-02 
1038	 8.51148497564132E-02 
1039	 8.54228143984693E-02 
1040	 8.57885692456929E-02 
1041	 8.61171682549672E-02 
1042	 8.64852506275937E-02 
1043	 8.69000995935022E-02 
1044	 8.73369021479785E-02 
1045	 8.77238561304594E-02 
1046	 8.81083456127491E-02 
1047	 8.84960729888194E-02 
1048	 8.88870696738166E-02 
1049	 8.92856853406624E-02 
1050	 0.089665659572651 
1051	 9.00459033857999E-02 
1052	 0.090434046038353 
1053	 9.08385549375764E-02 
1054	 9.12849586272516E-02 
1055	 9.16909890801193E-02 
1056	 9.20756516334905E-02 
1057	 9.24700433842316E-02 
1058	 9.28334029694119E-02 
1059	 9.32415259827222E-02 
1060	 9.36885262693482E-02 
1061	 0.094103459758621 
1062	 9.45571316614959E-02 
1063	 9.50098632530778E-02 
1064	 9.54013080646406E-02 
1065	 9.58395616974119E-02 
1066	 9.62814571679165E-02 
1067	 9.66709251009037E-02 
1068	 9.70999613297373E-02 
1069	 9.75292056991124E-02 
1070	 9.79638750614388E-02 
1071	 9.83932661368144E-02 
1072	 9.88632114225978E-02 
1073	 9.92956098161567E-02 
1074	 9.97271255821983E-02 
1075	 0.10014697998271 
1076	 0.100528450793648 
1077	 0.100960220658164 
1078	 0.101387237289221 
1079	 0.101837812300116 
1080	 0.102296192517421 
1081	 0.102699082352297 
1082	 0.103144867009156 
1083	 0.103573628770845 
1084	 0.103984962004859 
1085	 0.104446644266721 
1086	 0.104881907682479 
1087	 0.105294029644948 
1088	 0.10573094192374 
1089	 0.106195353753585 
1090	 0.106606792444038 
1091	 0.107054283653728 
1092	 0.10750561769083 
1093	 0.107938277084862 
1094	 0.108424993228636 
1095	 0.108888141942225 
1096	 0.109330419639286 
1097	 0.109779104211326 
1098	 0.110185894203132 
1099	 0.110605878072166 
1100	 0.111042038262908 
1101	 0.111460858991052 
1102	 0.111898054841811 
1103	 0.112333537107519 
1104	 0.112769411766728 
1105	 0.113204284600325 
1106	 0.113660514081001 
1107	 0.114108485100014 
1108	 0.114551712286569 
1109	 0.114995072450096 
1110	 0.115435056641096 
1111	 0.115886082092243 
1112	 0.116331794933662 
1113	 0.116784650993475 
1114	 0.117235353030627 
1115	 0.117657850228761 
1116	 0.11809554304965 
1117	 0.118519755451391 
1118	 0.118951144240832 
1119	 0.119390136973989 
1120	 0.119829161821205 
1121	 0.120259867348908 
1122	 0.120720625104562 
1123	 0.121178914359508 
1124	 0.121577462498525 
1125	 0.122003609306309 
1126	 0.122426629049992 
1127	 0.122816234422425 
1128	 0.123246880348393 
1129	 0.123665007703647 
1130	 0.124075185687398 
1131	 0.124508442912569 
1132	 0.124936535353214 
1133	 0.125371058775948 
1134	 0.125759889635983 
1135	 0.126157639337132 
1136	 0.12654239878405 
1137	 0.126946257924358 
1138	 0.127359803599397 
1139	 0.127775059959961 
1140	 0.128212975972503 
1141	 0.12859509286575 
1142	 0.129000288509476 
1143	 0.129406304299666 
1144	 0.129792876408347 
1145	 0.130216826000475 
1146	 0.130618963793988 
1147	 0.131013357419355 
1148	 0.131430221539192 
1149	 0.131818981449126 
1150	 0.132220039790718 
1151	 0.132635593756145 
1152	 0.133042452544872 
1153	 0.133448698250191 
1154	 0.133860715566839 
1155	 0.13427514281564 
1156	 0.134684332122953 
1157	 0.135093479338499 
1158	 0.135494279838935 
1159	 0.135890481405489 
1160	 0.13628461148781 
1161	 0.136673701930867 
1162	 0.13708773667237 
1163	 0.137479212965696 
1164	 0.137869719508302 
1165	 0.138268658745325 
1166	 0.138632480895516 
1167	 0.139016336759903 
1168	 0.139407650493141 
1169	 0.139793974016502 
1170	 0.140178044572253 
1171	 0.140570716876262 
1172	 0.140971615201691 
1173	 0.141361231686666 
1174	 0.141750038866422 
1175	 0.142128767868837 
1176	 0.142490490768935 
1177	 0.142860847647155 
1178	 0.143219272307296 
1179	 0.143617309180831 
1180	 0.143987325549105 
1181	 0.144353000639213 
1182	 0.144727139221489 
1183	 0.145048874282114 
1184	 0.145371189903267 
1185	 0.145715104073614 
1186	 0.146070134305301 
1187	 0.146439375280894 
1188	 0.146795349272034 
1189	 0.147154257239923 
1190	 0.147525459461265 
1191	 0.14787931628332 
1192	 0.148257372920491 
1193	 0.148662448688169 
1194	 0.149070499042127 
1195	 0.149488596149515 
1196	 0.149913422270527 
1197	 0.150347134695716 
1198	 0.150794490923615 
1199	 0.151252770059096 
1200	 0.15167321225188 
1201	 0.152111676462332 
1202	 0.152558764572301 
1203	 0.152995570171939 
1204	 0.153456280622527 
1205	 0.153904592974804 
1206	 0.154346054849836 
1207	 0.154808103845449 
1208	 0.155265473027583 
1209	 0.155747308911037 
1210	 0.156250804194347 
1211	 0.156763248412222 
1212	 0.157285704832637 
1213	 0.157832434268928 
1214	 0.158396317266264 
1215	 0.158979223948609 
1216	 0.159591190374895 
1217	 0.160199815127166 
1218	 0.160826045382862 
1219	 0.161447300400216 
1220	 0.162074412050948 
1221	 0.162729423574702 
1222	 0.163357225069119 
1223	 0.164019913964301 
1224	 0.164670511651754 
1225	 0.165315285138187 
1226	 0.165960143956663 
1227	 0.166621503789147 
1228	 0.167252813043147 
1229	 0.167869667283763 
1230	 0.168484946124057 
1231	 0.169085531724904 
1232	 0.169688828117085 
1233	 0.170298294109192 
1234	 0.170882582588084 
1235	 0.171439019659232 
1236	 0.172011994609267 
1237	 0.172584753502771 
1238	 0.173151881976399 
1239	 0.173717140948872 
1240	 0.17430051626864 
1241	 0.174879235457042 
1242	 0.175393885645207 
1243	 0.175932094197637 
1244	 0.17646441161117 
1245	 0.1770033683641 
1246	 0.177534929304559 
1247	 0.178083184939163 
1248	 0.178649588107959 
1249	 0.179202195764181 
1250	 0.179759703329266 
1251	 0.180302678422049 
1252	 0.18083580211212 
1253	 0.181367269931909 
1254	 0.181887061291199 
1255	 0.182418098483448 
1256	 0.182961197957963 
1257	 0.183490325993422 
1258	 0.184018638898942 
1259	 0.184539422958443 
1260	 0.185047857046697 
1261	 0.185554482345815 
1262	 0.186041877425713 
1263	 0.186563190812818 
1264	 0.187065598684716 
1265	 0.187561990445241 
1266	 0.188061162004885 
1267	 0.188560901255054 
1268	 0.189057183802225 
1269	 0.18954640323434 
1270	 0.19004660173407 
1271	 0.190562997650962 
1272	 0.191051406574256 
1273	 0.191526970570491 
1274	 0.192009220020603 
1275	 0.192474473061105 
1276	 0.192942803826925 
1277	 0.193418495884198 
1278	 0.193892860061521 
1279	 0.194344044357616 
1280	 0.194821228015534 
1281	 0.195323866597469 
1282	 0.195815233705035 
1283	 0.196306406626012 
1284	 0.196803442912517 
1285	 0.197301234005211 
1286	 0.197791399811379 
1287	 0.198294658081171 
1288	 0.198809557165996 
1289	 0.199319165936202 
1290	 0.199832467313654 
1291	 0.200334928970035 
1292	 0.200834689498198 
1293	 0.201329199884424 
1294	 0.201806593941829 
1295	 0.20230131291514 
1296	 0.202797355432613 
1297	 0.203302192388384 
1298	 0.203823626307388 
1299	 0.204332023315081 
1300	 0.20483714957585 
1301	 0.205344532839164 
1302	 0.205845964025639 
1303	 0.206350410967892 
1304	 0.20686500923764 
1305	 0.207368781189529 
1306	 0.207863949560774 
1307	 0.208360302157469 
1308	 0.208836400360186 
1309	 0.20934222325701 
1310	 0.209834275383687 
1311	 0.210325350875 
1312	 0.210822292545956 
1313	 0.211322983835203 
1314	 0.211817472322161 
1315	 0.212318767879806 
1316	 0.212803842121534 
1317	 0.213275784087594 
1318	 0.213753286934016 
1319	 0.214228810226815 
1320	 0.214697780394913 
1321	 0.215166666940628 
1322	 0.215627538271463 
1323	 0.216072197651472 
1324	 0.2165282207746 
1325	 0.216990188583377 
1326	 0.217445399045681 
1327	 0.217895423383835 
1328	 0.218353900808336 
1329	 0.218822226307543 
1330	 0.219273193451247 
1331	 0.219726928429297 
1332	 0.220169854491316 
1333	 0.220588847366808 
1334	 0.221017991454676 
1335	 0.221425538487908 
1336	 0.22182110205113 
1337	 0.222229403422321 
1338	 0.222632620438579 
1339	 0.22302566064633 
1340	 0.223423660819083 
1341	 0.223817086546102 
1342	 0.224196040838831 
1343	 0.224576220381163 
1344	 0.224969914008167 
1345	 0.22534361085843 
1346	 0.225706552304801 
1347	 0.226052369607776 
1348	 0.226389986385713 
1349	 0.226714169429347 
1350	 0.227017605934085 
1351	 0.227319806985619 
1352	 0.22761278767281 
1353	 0.22790517365126 
1354	 0.228183696782352 
1355	 0.228470912780658 
1356	 0.228767122165346 
1357	 0.229055600133522 
1358	 0.229347086894226 
1359	 0.229632796780668 
1360	 0.22990700742965 
1361	 0.230181244021115 
1362	 0.23047877712355 
1363	 0.23075986306345 
1364	 0.231046870763073 
1365	 0.231345382253905 
1366	 0.231624534128175 
1367	 0.231897400919893 
1368	 0.232155018421179 
1369	 0.232400280457291 
1370	 0.232643678278135 
1371	 0.232881825896629 
1372	 0.233099479032069 
1373	 0.233306107901983 
1374	 0.233509837477408 
1375	 0.233697787316892 
1376	 0.233883087965668 
1377	 0.234074719925367 
1378	 0.234248355452021 
1379	 0.234398394593642 
1380	 0.234557479685177 
1381	 0.234720945873783 
1382	 0.2348694208674 
1383	 0.235006736819625 
1384	 0.235149734300657 
1385	 0.23527233377367 
1386	 0.235414971976732 
1387	 0.235566279025366 
1388	 0.235729481160448 
1389	 0.235895341868511 
1390	 0.236083640569204 
1391	 0.236286608314252 
1392	 0.236511349475499 
1393	 0.23674638406407 
1394	 0.237004102133822 
1395	 0.237265804926381 
1396	 0.237547967343342 
1397	 0.237807544192645 
1398	 0.238084763277457 
1399	 0.238309106085083 
1400	 0.238521191946485 
1401	 0.238680517992225 
1402	 0.238803451433499 
1403	 0.238889859904552 
1404	 0.238935639239323 
1405	 0.238949209050097 
1406	 0.23891709686302 
1407	 0.238878966894887 
1408	 0.23879007227042 
1409	 0.238732866193656 
1410	 0.238653277690375 
1411	 0.238623427749148 
1412	 0.238598518096827 
1413	 0.238631283032434 
1414	 0.23868938281433 
1415	 0.238815277321038 
1416	 0.239010347242534 
1417	 0.239227405847864 
1418	 0.239501265977722 
1419	 0.23979416072864 
1420	 0.2401292897826 
1421	 0.240460184603614 
1422	 0.240825889426083 
1423	 0.241179451095011 
1424	 0.241521334500437 
1425	 0.241877413941119 
1426	 0.242219857850319 
1427	 0.242566602156511 
1428	 0.242914690366816 
1429	 0.24324318608395 
1430	 0.243589318286212 
1431	 0.243934894384018 
1432	 0.244299435842758 
1433	 0.244675543499311 
1434	 0.245059697150928 
1435	 0.24545286111357 
1436	 0.245863311248445 
1437	 0.246287873201815 
1438	 0.246711878565742 
1439	 0.247148457656434 
1440	 0.247592308172693 
1441	 0.248044652369712 
1442	 0.248493089283007 
1443	 0.248949218819671 
1444	 0.249410117877225 
1445	 0.249873789500997 
1446	 0.250326965333068 
1447	 0.250784024461845 
1448	 0.251239583371542 
1449	 0.251681886484984 
1450	 0.252132869050823 
1451	 0.252598212999922 
1452	 0.253053831247814 
1453	 0.253504975463873 
1454	 0.253949320785552 
1455	 0.254396642101703 
1456	 0.254828124560421 
1457	 0.255243586215676 
1458	 0.255662947051609 
1459	 0.256076313856557 
1460	 0.256485558762282 
1461	 0.256889359292741 
1462	 0.257295095060068 
1463	 0.257689363343378 
1464	 0.258094821572667 
1465	 0.258496085470312 
1466	 0.258931191108392 
1467	 0.259344450430072 
1468	 0.259768022721535 
1469	 0.260220739203497 
1470	 0.260642833578206 
1471	 0.261073830780622 
1472	 0.261513460288855 
1473	 0.261950185843106 
1474	 0.262382875786188 
1475	 0.262805158548052 
1476	 0.263233857277895 
1477	 0.263646449298543 
1478	 0.264038549766618 
1479	 0.264428547868152 
1480	 0.264821962014334 
1481	 0.265193549230704 
1482	 0.265546619783394 
1483	 0.26589858020943 
1484	 0.26623431452076 
1485	 0.266579975444627 
1486	 0.266933679701674 
1487	 0.267261152866926 
1488	 0.267567374152344 
1489	 0.267899243262099 
1490	 0.268225020018976 
1491	 0.268556071390482 
1492	 0.268906568142835 
1493	 0.269256760636571 
1494	 0.269588833460543 
1495	 0.269946973261531 
1496	 0.27032788730463 
1497	 0.270713283299158 
1498	 0.271115685158895 
1499	 0.271512122729197 
1500	 0.271909040011993 
1501	 0.272318047187221 
1502	 0.272731231340578 
1503	 0.273143346638297 
1504	 0.273561002356243 
1505	 0.273989252773358 
1506	 0.27441577785825 
1507	 0.274854915830648 
1508	 0.275311342396716 
1509	 0.275771753596794 
1510	 0.27624775697095 
1511	 0.276709630604836 
1512	 0.277165672365146 
1513	 0.277630235466251 
1514	 0.278081380495504 
1515	 0.278550364058592 
1516	 0.279041605140049 
1517	 0.279529956850144 
1518	 0.280024904101954 
1519	 0.28051777714868 
1520	 0.281007677568436 
1521	 0.281502935944105 
1522	 0.281997970225009 
1523	 0.282510714592197 
1524	 0.283006898490321 
1525	 0.283503849818648 
1526	 0.284000074022046 
1527	 0.28448587113268 
1528	 0.284982878081631 
1529	 0.285487172580325 
1530	 0.285990840598311 
1531	 0.286494207395413 
1532	 0.28700570403309 
1533	 0.28752306732496 
1534	 0.288042764946015 
1535	 0.288568213149783 
1536	 0.289091097752696 
1537	 0.289612071853749 
1538	 0.290144065134374 
1539	 0.290687752466008 
1540	 0.291214042707011 
1541	 0.291741122431503 
1542	 0.29226461123228 
1543	 0.292771443866721 
1544	 0.293290133733953 
1545	 0.293812175871612 
1546	 0.294344650671992 
1547	 0.29489334950235 
1548	 0.295414537659021 
1549	 0.295940768686064 
1550	 0.296445468408463 
1551	 0.296920585720629 
1552	 0.297399336688787 
1553	 0.297876251802573 
1554	 0.298342974391518 
1555	 0.298796704376009 
1556	 0.299249217857082 
1557	 0.299693939269834 
1558	 0.300141980611449 
1559	 0.300598568284297 
1560	 0.301027670202476 
1561	 0.301447941705292 
1562	 0.301857921442014 
1563	 0.302234275373003 
1564	 0.302631826114594 
1565	 0.303037008824647 
1566	 0.303437835789092 
1567	 0.303835657047392 
1568	 0.3042434417274 
1569	 0.304651045304918 
1570	 0.305067699952567 
1571	 0.305509309239984 
1572	 0.305924416606273 
1573	 0.306326684399021 
1574	 0.306734572007166 
1575	 0.307123707573162 
1576	 0.307532097152497 
1577	 0.307957616946001 
1578	 0.308378500517468 
1579	 0.308805553036688 
1580	 0.309227361984478 
1581	 0.309637731193729 
1582	 0.310066792548148 
1583	 0.310511700737794 
1584	 0.31094402672807 
1585	 0.311386213675917 
1586	 0.311818291277749 
1587	 0.31222583610933 
1588	 0.312651519830644 
1589	 0.313085421403324 
1590	 0.313520576283568 
1591	 0.313965788234583 
1592	 0.314407030164796 
1593	 0.314844404555902 
1594	 0.315289250235018 
1595	 0.315748406328261 
1596	 0.316186356634083 
1597	 0.316612156805315 
1598	 0.317046198587916 
1599	 0.317466247946997 
1600	 0.31789651160437 
1601	 0.31835255967768 
1602	 0.318785668097627 
1603	 0.319205349040235 
1604	 0.319623803357641 
1605	 0.320028196877658 
1606	 0.320438515779831 
1607	 0.320857095380109 
1608	 0.321263141356827 
1609	 0.321665026555773 
1610	 0.322061601657161 
1611	 0.322453594033521 
1612	 0.322830956266694 
1613	 0.323197163415918 
1614	 0.323559212203474 
1615	 0.323907544241028 
1616	 0.324255913363552 
1617	 0.324600283513263 
1618	 0.324946183589272 
1619	 0.325289122204788 
1620	 0.325626320940555 
1621	 0.325968328886442 
1622	 0.326298828785991 
1623	 0.32662121285691 
1624	 0.326936229995012 
1625	 0.327242898906766 
1626	 0.327543059117358 
1627	 0.327833259054615 
1628	 0.328117411827808 
1629	 0.328392910736332 
1630	 0.328667822485957 
1631	 0.328939385323686 
1632	 0.329207323673128 
1633	 0.32947615514496 
1634	 0.329735506088881 
1635	 0.329987326232864 
1636	 0.330228416988563 
1637	 0.330456773099409 
1638	 0.330685471968316 
1639	 0.330907569008847 
1640	 0.33112973892676 
1641	 0.331356081163584 
1642	 0.331569509408051 
1643	 0.331786256243232 
1644	 0.331973299395991 
1645	 0.332143382922847 
1646	 0.332296935988783 
1647	 0.332423700383901 
1648	 0.332542332645456 
1649	 0.332655260110689 
1650	 0.332743862232159 
1651	 0.332815755615402 
1652	 0.332863914127806 
1653	 0.332889167789895 
1654	 0.332891163831185 
1655	 0.332881668934828 
1656	 0.332829407493699 
1657	 0.332760083510199 
1658	 0.332631894377404 
1659	 0.332447782221514 
1660	 0.332236391346174 
1661	 0.33196929562472 
1662	 0.331686484545378 
1663	 0.3313870850463 
1664	 0.331042762807061 
1665	 0.330662698354425 
1666	 0.330248285110252 
1667	 0.329803482580428 
1668	 0.32930669618797 
1669	 0.328788616501905 
1670	 0.328193864909859 
1671	 0.327527014804364 
1672	 0.326810812898256 
1673	 0.326051076627709 
1674	 0.325198438440687 
1675	 0.324283886839292 
1676	 0.323306199098063 
1677	 0.322250594765241 
1678	 0.321117206588184 
1679	 0.319920350983095 
1680	 0.318626096190127 
1681	 0.317227851821552 
1682	 0.31576440989981 
1683	 0.314234306684338 
1684	 0.312628797491764 
1685	 0.310927112032083 
1686	 0.309185570894241 
1687	 0.307317083723097 
1688	 0.305501915783057 
1689	 0.303644537157868 
1690	 0.301834421171002 
1691	 0.300049500645927 
1692	 0.298330967504094 
1693	 0.296667951288555 
1694	 0.294998180800241 
1695	 0.293352846568268 
1696	 0.291719161007149 
1697	 0.290099932692793 
1698	 0.288448364156701 
1699	 0.286819140381679 
1700	 0.285211327249801 
1701	 0.283540213630062 
1702	 0.282005736137018 
1703	 0.280515306739617 
1704	 0.279132179053807 
1705	 0.277823710495408 
1706	 0.276583465343326 
1707	 0.275541487084507 
1708	 0.27455158292679 
1709	 0.273621970586692 
1710	 0.272769488187579 
1711	 0.271870340488351 
1712	 0.270986484169678 
1713	 0.270115841433459 
1714	 0.269187037604757 
1715	 0.268292531151255 
1716	 0.267363673017019 
1717	 0.266427677355789 
1718	 0.265544456762316 
1719	 0.264668600803712 
1720	 0.26386929542666 
1721	 0.263159674918578 
1722	 0.262547965687761 
1723	 0.262115625143731 
1724	 0.26186729871237 
1725	 0.261806178631151 
1726	 0.262005451458285 
1727	 0.262464480218532 
1728	 0.263131509318105 
1729	 0.264081764110683 
1730	 0.265303434371692 
1731	 0.26666226699511 
1732	 0.268286588797031 
1733	 0.270013808960023 
1734	 0.271805472391616 
1735	 0.27371199921738 
1736	 0.275518544970859 
1737	 0.277307352117341 
1738	 0.278996093795577 
1739	 0.280471534967654 
1740	 0.281839263681832 
1741	 0.283009447374816 
1742	 0.283989323977724 
1743	 0.284824451626673 
1744	 0.285463006468273 
1745	 0.28599847464038 
1746	 0.286346081641673 
1747	 0.286622001472627 
1748	 0.286774546201219 
1749	 0.286888292708914 
1750	 0.286874627303026 
1751	 0.286899099041798 
1752	 0.286865415380431 
1753	 0.286890616443374 
1754	 0.286918298483128 
1755	 0.287005084151315 
1756	 0.287099035452465 
1757	 0.287280147715628 
1758	 0.287589174590111 
1759	 0.287995409366816 
1760	 0.288554452244977 
1761	 0.289269954935402 
1762	 0.290069900408191 
1763	 0.291064539214528 
1764	 0.292184699933758 
1765	 0.293420845786833 
1766	 0.294851301839391 
1767	 0.296332847887723 
1768	 0.297914125373101 
1769	 0.299588772738746 
1770	 0.30117893626528 
1771	 0.302802104643385 
1772	 0.304407312813286 
1773	 0.305931209150056 
1774	 0.307503178003249 
1775	 0.308988889936302 
1776	 0.310434236743833 
1777	 0.311856449029702 
1778	 0.313127020784366 
1779	 0.314372463322449 
1780	 0.315544444382799 
1781	 0.316618652644229 
1782	 0.317674940204164 
1783	 0.318617549631612 
1784	 0.319519628887194 
1785	 0.320355443299369 
1786	 0.321129282491455 
1787	 0.321865616057219 
1788	 0.322517853151953 
1789	 0.323071853126607 
1790	 0.323621073653056 
1791	 0.324122495835473 
1792	 0.324605242808748 
1793	 0.325043217226603 
1794	 0.325444031323588 
1795	 0.325851257387326 
1796	 0.326237848676723 
1797	 0.326643195426461 
1798	 0.327059281394703 
1799	 0.327473261345321 
1800	 0.327877957740781 
1801	 0.317729217509785 
1802	 0.318108363609522 
1803	 0.318497969460592 
1804	 0.318863913933969 
1805	 0.319254278332444 
1806	 0.319635611803929 
1807	 0.320038883493531 
1808	 0.32041646034562 
1809	 0.320783090984427 
1810	 0.321139535469704 
1811	 0.321475507448513 
1812	 0.321830753964193 
1813	 0.322186420797729 
1814	 0.322552573362477 
1815	 0.322892597796373 
1816	 0.323263835040057 
1817	 0.323645627784061 
1818	 0.324018491225551 
1819	 0.324412475740946 
1820	 0.324851276976017 
1821	 0.325265339709572 
1822	 0.325653294425501 
1823	 0.326090437723032 
1824	 0.326519004266627 
1825	 0.326950788738566 
1826	 0.327401952949918 
1827	 0.327873778121285 
1828	 0.328330805240641 
1829	 0.328801250153007 
1830	 0.329261474780564 
1831	 0.329707057242586 
1832	 0.330174501307924 
1833	 0.330631670966175 
1834	 0.331098985389374 
1835	 0.331577481708433 
1836	 0.332042602093942 
1837	 0.332535579510513 
1838	 0.333035712240562 
1839	 0.333550574100634 
1840	 0.334099373635084 
1841	 0.334640161739724 
1842	 0.335190586975754 
1843	 0.3357356183147 
1844	 0.336282158424203 
1845	 0.33677440293953 
1846	 0.337262460981474 
1847	 0.337752208700997 
1848	 0.338240699497506 
1849	 0.338739603361381 
1850	 0.339216323672222 
1851	 0.339682818502094 
1852	 0.340147111842387 
1853	 0.34060288145179 
1854	 0.340997442617086 
1855	 0.341396854991603 
1856	 0.341769927774764 
1857	 0.342084492676391 
1858	 0.342393514001484 
1859	 0.342660815276027 
1860	 0.342889318425429 
1861	 0.343084836904638 
1862	 0.343253751999063 
1863	 0.343389682909673 
1864	 0.343471265717345 
1865	 0.343515239120497 
1866	 0.343539092953806 
1867	 0.343524558260116 
1868	 0.34347975561505 
1869	 0.343395685159464 
1870	 0.343253488465806 
1871	 0.343071420796301 
1872	 0.342823602064868 
1873	 0.342520933644175 
1874	 0.342168532801801 
1875	 0.341749400035937 
1876	 0.341213689281946 
1877	 0.340651052469755 
1878	 0.340013041740111 
1879	 0.339288842494251 
1880	 0.338530087377844 
1881	 0.337626071053293 
1882	 0.336610848618381 
1883	 0.33548865325793 
1884	 0.334226913330994 
1885	 0.332764951630361 
1886	 0.331222326925676 
1887	 0.329545315591287 
1888	 0.327718491031747 
1889	 0.32593741191728 
1890	 0.324030012933317 
1891	 0.322081018445815 
1892	 0.320141654188025 
1893	 0.318126810242968 
1894	 0.316003793270396 
1895	 0.313962807047362 
1896	 0.311880187670044 
1897	 0.309784143516861 
1898	 0.307858761889593 
1899	 0.305909519584504 
1900	 0.304018966461067 
1901	 0.302200242929826 
1902	 0.300313073213847 
1903	 0.298527376271807 
1904	 0.296782504135538 
1905	 0.295056398811953 
1906	 0.293390062458701 
1907	 0.291911271878111 
1908	 0.290448364051001 
1909	 0.289078035111096 
1910	 0.287830258694114 
1911	 0.286557804465045 
1912	 0.285383154763533 
1913	 0.284265922797068 
1914	 0.283168503347465 
1915	 0.282170383503238 
1916	 0.281270779565927 
1917	 0.280393778896933 
1918	 0.279581847486046 
1919	 0.278851119455952 
1920	 0.278123634677617 
1921	 0.277445703973051 
1922	 0.276813387829673 
1923	 0.276233410239688 
1924	 0.27574975331787 
1925	 0.275311959439111 
1926	 0.274922028160958 
1927	 0.274605251714718 
1928	 0.27430669733619 
1929	 0.274034743874175 
1930	 0.27381984102918 
1931	 0.273660286564999 
1932	 0.273540167180273 
1933	 0.273485431809636 
1934	 0.273494557065118 
1935	 0.27353506094731 
1936	 0.273611712094408 
1937	 0.273737200642452 
1938	 0.273917542305319 
1939	 0.274116727696121 
1940	 0.274350140523935 
1941	 0.27463151833697 
1942	 0.274926209733645 
1943	 0.275249101099823 
1944	 0.275596214380538 
1945	 0.275978082002575 
1946	 0.276418620978035 
1947	 0.27686349021885 
1948	 0.277337328560189 
1949	 0.27784129813808 
1950	 0.278320335126923 
1951	 0.278776837733621 
1952	 0.279267518144272 
1953	 0.27977163893713 
1954	 0.280265373450058 
1955	 0.280796994798029 
1956	 0.281313643852261 
1957	 0.281821127198576 
1958	 0.282315093324142 
1959	 0.282771662837183 
1960	 0.283237515216251 
1961	 0.283695666908651 
1962	 0.284143144617339 
1963	 0.28458799202021 
1964	 0.285032037285893 
1965	 0.285457526426423 
1966	 0.285875090433462 
1967	 0.286280179444546 
1968	 0.286654376582082 
1969	 0.287071512256487 
1970	 0.287479062850182 
1971	 0.287858119391422 
1972	 0.288292104262403 
1973	 0.288715803020289 
1974	 0.289142567980577 
1975	 0.2895867128408 
1976	 0.290032884573394 
1977	 0.290472633332231 
1978	 0.290919756981565 
1979	 0.291367802039941 
1980	 0.291832024865001 
1981	 0.292322535788352 
1982	 0.292792005229987 
1983	 0.293303982366449 
1984	 0.293835957405928 
1985	 0.294317272089455 
1986	 0.294830035173281 
1987	 0.295325422316307 
1988	 0.295795903462675 
1989	 0.296280841062641 
1990	 0.296777444251893 
1991	 0.297258553187595 
1992	 0.297736125916895 
1993	 0.298232614330534 
1994	 0.298665477698608 
1995	 0.299089814361829 
1996	 0.299517613737271 
1997	 0.299910552566567 
1998	 0.300311225083543 
1999	 0.300728024996617 
2000	 0.301104987515543 
2001	 0.30146542739576 
2002	 0.301801906088811 
2003	 0.302103546492973 
2004	 0.302416705682051 
2005	 0.302707802975041 
2006	 0.303000462730536 
2007	 0.303312641578099 
2008	 0.303593290475249 
2009	 0.303834205755071 
2010	 0.304088972835716 
2011	 0.304305896508764 
2012	 0.304496665385798 
2013	 0.304672435922525 
2014	 0.304844108231431 
2015	 0.304974722497853 
2016	 0.30508981120923 
2017	 0.305149286740952 
2018	 0.305184625733182 
2019	 0.305152397415064 
2020	 0.305057574544409 
2021	 0.304925409972301 
2022	 0.304748075352238 
2023	 0.304515823437561 
2024	 0.304249656744568 
2025	 0.303952985311921 
2026	 0.303593243631613 
2027	 0.303166944213043 
2028	 0.302734464442254 
2029	 0.302252985010033 
2030	 0.301746300169805 
2031	 0.301239758038226 
2032	 0.300665619961028 
2033	 0.300011163800053 
2034	 0.299373849043775 
2035	 0.298698488888815 
2036	 0.298001086520925 
2037	 0.297370963988972 
2038	 0.296724771840554 
2039	 0.296091601936132 
2040	 0.295487612914635 
2041	 0.294863217341939 
2042	 0.294212962432678 
2043	 0.293608611919496 
2044	 0.292985058756957 
2045	 0.292435357825083 
2046	 0.291942446468247 
2047	 0.291462455020395 
2048	 0.291005318671408 
2049	 0.290608391512357 
2050	 0.290222143159505 
2051	 0.289908074508696 
2052	 0.289683953697988 
2053	 0.289541520978626 
2054	 0.289496454124948 
2055	 0.289542244867315 
2056	 0.289674169073606 
2057	 0.289892630052396 
2058	 0.290216013851429 
2059	 0.290648449983552 
2060	 0.291144595231411 
2061	 0.291773641891348 
2062	 0.292414395208625 
2063	 0.293124456701687 
2064	 0.293856700117917 
2065	 0.294633380518416 
2066	 0.295427301049119 
2067	 0.296293720911412 
2068	 0.297159177931596 
2069	 0.298019230692736 
2070	 0.298931222921675 
2071	 0.299767072959245 
2072	 0.300573116301683 
2073	 0.301358201601437 
2074	 0.30210403032498 
2075	 0.302840948299408 
2076	 0.303569301257909 
2077	 0.304255241192631 
2078	 0.30493645301663 
2079	 0.30555817536715 
2080	 0.30612692762084 
2081	 0.306666086655281 
2082	 0.307163930240744 
2083	 0.307618152682339 
2084	 0.308051926264199 
2085	 0.308432772171664 
2086	 0.308788323916643 
2087	 0.30911719295962 
2088	 0.30939052449866 
2089	 0.309614228819085 
2090	 0.309816269329533 
2091	 0.309956730278034 
2092	 0.31009945977364 
2093	 0.310244459727681 
2094	 0.310335861201421 
2095	 0.310382780810163 
2096	 0.310420450304929 
2097	 0.310423290262878 
2098	 0.310403257357785 
2099	 0.310377479909122 
2100	 0.31034697275689 
2101	 0.310268167531306 
2102	 0.310150088955422 
2103	 0.310024590222654 
2104	 0.309875468429581 
2105	 0.309694943000885 
2106	 0.309498309076536 
2107	 0.309269973964995 
2108	 0.309021496974158 
2109	 0.308717270607778 
2110	 0.308360197831019 
2111	 0.307996672850392 
2112	 0.307576632895259 
2113	 0.307160091991518 
2114	 0.306760039299312 
2115	 0.306315306858521 
2116	 0.30584137824284 
2117	 0.3053366528743 
2118	 0.304820113190872 
2119	 0.304269181569714 
2120	 0.303732509208456 
2121	 0.303179614807769 
2122	 0.302641356663344 
2123	 0.302105663538826 
2124	 0.301567194813745 
2125	 0.301060337936006 
2126	 0.300492434482758 
2127	 0.299889559831685 
2128	 0.299293541041297 
2129	 0.29866048310818 
2130	 0.298033300088451 
2131	 0.297434663368076 
2132	 0.296792609300993 
2133	 0.296131984037074 
2134	 0.295451068668182 
2135	 0.294683480086279 
2136	 0.293922754304499 
2137	 0.293130294599587 
2138	 0.292262744029466 
2139	 0.291460300886487 
2140	 0.290684442624575 
2141	 0.289875088856878 
2142	 0.289054297769454 
2143	 0.288267700715354 
2144	 0.287468636144118 
2145	 0.286700987420524 
2146	 0.285966925884051 
2147	 0.28524443074101 
2148	 0.284533969296661 
2149	 0.283833005469225 
2150	 0.283171905342874 
2151	 0.282496614934737 
2152	 0.281812335722769 
2153	 0.281146770669051 
2154	 0.280457745915974 
2155	 0.279751254822406 
2156	 0.279068851178503 
2157	 0.278381310296172 
2158	 0.27770038770901 
2159	 0.277033710119685 
2160	 0.276375371059471 
2161	 0.275701908450729 
2162	 0.275074704261027 
2163	 0.274464063022559 
2164	 0.273895048557369 
2165	 0.273353010482601 
2166	 0.272848834958558 
2167	 0.272376080744868 
2168	 0.271952842438083 
2169	 0.271557003513544 
2170	 0.271223971605017 
2171	 0.270953196228695 
2172	 0.270722383181934 
2173	 0.270561041800747 
2174	 0.270408155504312 
2175	 0.27031266098214 
2176	 0.270243698722962 
2177	 0.270199194339529 
2178	 0.270185487011929 
2179	 0.270214703434392 
2180	 0.270274113480738 
2181	 0.270359204561122 
2182	 0.270498781806095 
2183	 0.270627632956225 
2184	 0.270763588318719 
2185	 0.270933688268395 
2186	 0.271137704821173 
2187	 0.271332934476357 
2188	 0.271578727814377 
2189	 0.271763383020362 
2190	 0.271902436557698 
2191	 0.272063909736945 
2192	 0.272208978223614 
2193	 0.272356617985951 
2194	 0.272548250033971 
2195	 0.27268081221615 
2196	 0.27278558803859 
2197	 0.27286427677595 
2198	 0.272870664803331 
2199	 0.272883295559622 
2200	 0.272885958718381 
2201	 0.272866488649749 
2202	 0.272832554651874 
2203	 0.272795177494982 
2204	 0.272735073757396 
2205	 0.272635596737884 
2206	 0.272555317040512 
2207	 0.272484100393993 
2208	 0.272389638520954 
2209	 0.272285307594231 
2210	 0.272173576859233 
2211	 0.272027685018091 
2212	 0.271914801951733 
2213	 0.271831350687053 
2214	 0.271711760834401 
2215	 0.271595731110219 
2216	 0.271460327843311 
2217	 0.27132899379218 
2218	 0.271132720283327 
2219	 0.270912923759284 
2220	 0.27065183835788 
2221	 0.270347993207809 
2222	 0.269963794794961 
2223	 0.269602313026829 
2224	 0.26915051196171 
2225	 0.26857813910405 
2226	 0.267969630509943 
2227	 0.267225255670122 
2228	 0.266362719911423 
2229	 0.265423764653163 
2230	 0.264377634772058 
2231	 0.263250704774397 
2232	 0.262041695149465 
2233	 0.260722353697405 
2234	 0.259333082191686 
2235	 0.257788895035616 
2236	 0.25610334017537 
2237	 0.254330347196233 
2238	 0.252373000759134 
2239	 0.250418092706045 
2240	 0.248406329859638 
2241	 0.246315668855618 
2242	 0.244243340355354 
2243	 0.241964057877376 
2244	 0.239512470602753 
2245	 0.237011430676826 
2246	 0.234254054462611 
2247	 0.231608912813711 
2248	 0.229035120855899 
2249	 0.226340605246967 
2250	 0.22362372709585 
2251	 0.220903334940524 
2252	 0.217898006179814 
2253	 0.214937860349092 
2254	 0.211935245921281 
2255	 0.208848432630675 
2256	 0.205975164060844 
2257	 0.203052187303622 
2258	 0.200146891154515 
2259	 0.197323491180553 
2260	 0.194399106757815 
2261	 0.191386395434999 
2262	 0.188476862454038 
2263	 0.185492072701189 
2264	 0.182714068769334 
2265	 0.180071730023317 
2266	 0.17743408213569 
2267	 0.174931797516694 
2268	 0.17240469850382 
2269	 0.169816928978236 
2270	 0.167431717596964 
2271	 0.165062874310578 
2272	 0.162937632768605 
2273	 0.161042290847258 
2274	 0.159206850602401 
2275	 0.15759881291258 
2276	 0.15597497508889 
2277	 0.154406476082124 
2278	 0.152917470755093 
2279	 0.151488964937521 
2280	 0.150103798005718 
2281	 0.148859597471125 
2282	 0.147549181221139 
2283	 0.146263983962429 
2284	 0.144959244470915 
2285	 0.143524705890112 
2286	 0.142086345296856 
2287	 0.140570369629715 
2288	 0.138957314177654 
2289	 0.137392863771901 
2290	 0.135666429902822 
2291	 0.133857367528475 
2292	 0.13197958017101 
2293	 0.12986756371217 
2294	 0.127742971329286 
2295	 0.125514700154867 
2296	 0.123179955036079 
2297	 0.121003592067178 
2298	 0.118832202484046 
2299	 0.116782509754171 
2300	 0.114827672390615 
2301	 0.112994314536572 
2302	 0.111178893650024 
2303	 0.10969628941719 
2304	 0.108308218720101 
2305	 0.107358021192706 
2306	 0.106726958807227 
2307	 0.106440975464295 
2308	 0.106498935728399 
2309	 0.106951750971023 
2310	 0.107812595819684 
2311	 0.108966838794053 
2312	 0.110659826197174 
2313	 0.112384400744274 
2314	 0.114469514370226 
2315	 0.116486057104929 
2316	 0.118655690544791 
2317	 0.120742311025417 
2318	 0.122971432472982 
2319	 0.124911169697356 
2320	 0.126805176403683 
2321	 0.128445450873959 
2322	 0.12980067111189 
2323	 0.131059531064389 
2324	 0.132162311697528 
2325	 0.133081045865274 
2326	 0.133843228035093 
2327	 0.134398879945746 
2328	 0.134743590626209 
2329	 0.134912735671631 
2330	 0.134870027455717 
2331	 0.134663209761035 
2332	 0.134265643389648 
2333	 0.133621898779313 
2334	 0.132732080937842 
2335	 0.131660475476024 
2336	 0.130375381750759 
2337	 0.128912647371473 
2338	 0.127430242775485 
2339	 0.125820054801124 
2340	 0.124176946242968 
2341	 0.122553327757643 
2342	 0.120891368196432 
2343	 0.11933546925247 
2344	 0.117975950764647 
2345	 0.11690933117735 
2346	 0.11617320839111 
2347	 0.115797529966182 
2348	 0.115736541389059 
2349	 0.116058385081733 
2350	 0.116755468282266 
2351	 0.117833225269606 
2352	 0.119284743934379 
2353	 0.120964331240347 
2354	 0.122617774230657 
2355	 0.124291769808761 
2356	 0.125890271021368 
2357	 0.127376362287387 
2358	 0.128908899177609 
2359	 0.130265584584528 
2360	 0.131416371205832 
2361	 0.132367152059213 
2362	 0.13315513591986 
2363	 0.13383484504353 
2364	 0.134402397253962 
2365	 0.134879317059152 
2366	 0.135325825546873 
2367	 0.135738078138337 
2368	 0.136071285789112 
2369	 0.136429673893271 
2370	 0.136766510268088 
2371	 0.137010011987902 
2372	 0.137334904287355 
2373	 0.137672432331161 
2374	 0.13787055944393 
2375	 0.138091637938151 
2376	 0.138275101105655 
2377	 0.138434241045856 
2378	 0.13873270550368 
2379	 0.138958971497946 
2380	 0.139157030226758 
2381	 0.139395212896575 
2382	 0.13957255692572 
2383	 0.139676880073136 
2384	 0.139835661976038 
2385	 0.139991721609222 
2386	 0.140127837873923 
2387	 0.140266101025711 
2388	 0.140409560132756 
2389	 0.140580074325468 
2390	 0.140651404959778 
2391	 0.140656123315145 
2392	 0.140696523739852 
2393	 0.140663131814081 
2394	 0.140704802517489 
2395	 0.140845078947318 
2396	 0.140913020217024 
2397	 0.140920172091433 
2398	 0.140993177558879 
2399	 0.141094063481397 
2400	 0.14116607136119 
2401	 0.141243156737809 
2402	 0.141375228838325 
2403	 0.141543378937263 
2404	 0.141754143656377 
2405	 0.141995448568208 
2406	 0.142319330634491 
2407	 0.142576440905919 
2408	 0.142906343882779 
2409	 0.143294293087569 
2410	 0.143543133827264 
2411	 0.143817564319434 
2412	 0.144092130251182 
2413	 0.144282567103023 
2414	 0.144415257198695 
2415	 0.144587542310078 
2416	 0.144820192757159 
2417	 0.144979134772252 
2418	 0.145158597649932 
2419	 0.145362423581925 
2420	 0.14543492490128 
2421	 0.14551066613309 
2422	 0.145635384485908 
2423	 0.145718222908876 
2424	 0.145897533050602 
2425	 0.14608684981625 
2426	 0.146197790476608 
2427	 0.146316228662831 
2428	 0.146350155994283 
2429	 0.146380251157802 
2430	 0.146562883157571 
2431	 0.146729360450785 
2432	 0.146774469223847 
2433	 0.146782994151721 
2434	 0.146756029966204 
2435	 0.146620956777493 
2436	 0.146441431424985 
2437	 0.146368670146541 
2438	 0.146235007457356 
2439	 0.146043835931465 
2440	 0.145899976304328 
2441	 0.14575321348139 
2442	 0.145645848463803 
2443	 0.145473655899046 
2444	 0.145261752047267 
2445	 0.144978960218284 
2446	 0.144480215194785 
2447	 0.14396357448325 
2448	 0.143608514705106 
2449	 0.143209463801465 
2450	 0.142801369446218 
2451	 0.142507396807691 
2452	 0.142095317629625 
2453	 0.141649816396612 
2454	 0.141333088041613 
2455	 0.140893433490274 
2456	 0.140368561534108 
2457	 0.140017022941321 
2458	 0.139607018944466 
2459	 0.139238320164295 
2460	 0.139082816850665 
2461	 0.13883633942646 
2462	 0.138631211116288 
2463	 0.138670915643959 
2464	 0.138738597147553 
2465	 0.138798538936074 
2466	 0.138890537926536 
2467	 0.138911816924101 
2468	 0.139088752128261 
2469	 0.139397405707134 
2470	 0.139776394284212 
2471	 0.140333975843691 
2472	 0.140696797447375 
2473	 0.141033857484955 
2474	 0.141463137476599 
2475	 0.141762426241485 
2476	 0.142206901391827 
2477	 0.142640183873632 
2478	 0.142995173954023 
2479	 0.143388247465945 
2480	 0.143839994387447 
2481	 0.144299712000974 
2482	 0.144861179983247 
2483	 0.145377855872073 
2484	 0.145816797695746 
2485	 0.146242460665368 
2486	 0.146534842626228 
2487	 0.14681312881988 
2488	 0.146939121550382 
2489	 0.147158277824683 
2490	 0.147584862491568 
2491	 0.147725851891606 
2492	 0.148186299347876 
2493	 0.148822620210416 
2494	 0.149069157264586 
2495	 0.149437202622742 
2496	 0.149702982628967 
2497	 0.149696490582281 
2498	 0.149925723313041 
2499	 0.150400351991697 
2500	 0.150828428775459 
