Wavelength	spectrum00020.asd
350	 3.16863013883633E-02 
351	 0.030751734000285 
352	 2.89709549387257E-02 
353	 2.74986194999633E-02 
354	 0.028777584647585 
355	 2.74225566418091E-02 
356	 2.66080632282083E-02 
357	 0.0284454033078 
358	 2.59063908041763E-02 
359	 2.43913818693352E-02 
360	 0.024871874348159 
361	 2.57222881748546E-02 
362	 2.53747448593525E-02 
363	 0.024622454056968 
364	 2.40675854020603E-02 
365	 2.36924524217145E-02 
366	 2.41423030086827E-02 
367	 2.42172439886052E-02 
368	 2.32089913906639E-02 
369	 0.023398750562967 
370	 0.023813167778717 
371	 2.37588334856008E-02 
372	 2.29613453221831E-02 
373	 2.30102975647221E-02 
374	 2.35230767727499E-02 
375	 2.41089896177516E-02 
376	 2.47291776403391E-02 
377	 2.49348164478114E-02 
378	 2.42759881530758E-02 
379	 2.29315212864048E-02 
380	 2.30136302166315E-02 
381	 0.023328494929053 
382	 2.31843095322316E-02 
383	 2.24310221076765E-02 
384	 0.022379130829489 
385	 2.31140255219236E-02 
386	 0.023883820665653 
387	 2.29278477283731E-02 
388	 2.26935504638852E-02 
389	 2.28689010444709E-02 
390	 2.25873037316586E-02 
391	 2.18362062406264E-02 
392	 2.19030933428557E-02 
393	 2.26128237085985E-02 
394	 2.28552325927259E-02 
395	 2.29058770263793E-02 
396	 2.25837776388528E-02 
397	 2.20291337543248E-02 
398	 2.19704108004079E-02 
399	 2.18855575782067E-02 
400	 2.19533691638247E-02 
401	 2.23032823187292E-02 
402	 2.20294165470787E-02 
403	 2.18733660046091E-02 
404	 0.021975556461964 
405	 2.19667694685937E-02 
406	 2.14914223769571E-02 
407	 0.0211126116025 
408	 2.12119876014472E-02 
409	 2.16816850815647E-02 
410	 0.021486948094382 
411	 2.10875463089317E-02 
412	 2.12596865541104E-02 
413	 2.16427945699985E-02 
414	 2.15498774778623E-02 
415	 2.11139381425517E-02 
416	 2.11654015767606E-02 
417	 2.12650881246418E-02 
418	 2.13645171524253E-02 
419	 2.14189949327014E-02 
420	 2.11988859955856E-02 
421	 2.11464634955613E-02 
422	 0.021315871286897 
423	 2.15354906348446E-02 
424	 2.13991114820858E-02 
425	 2.11641840897614E-02 
426	 2.11022347608257E-02 
427	 2.14266386098693E-02 
428	 2.12989192618486E-02 
429	 2.11447063552745E-02 
430	 2.13256403978108E-02 
431	 2.10705927142637E-02 
432	 2.10051109740578E-02 
433	 2.11132804759378E-02 
434	 2.10463133229079E-02 
435	 2.10354294362379E-02 
436	 2.10715582454925E-02 
437	 2.10873341186031E-02 
438	 0.020954169233493 
439	 2.10116562116849E-02 
440	 2.11128171833812E-02 
441	 2.10585091263049E-02 
442	 2.10741331161218E-02 
443	 2.11367646340651E-02 
444	 2.11989948477939E-02 
445	 2.12068654497785E-02 
446	 0.021244828720256 
447	 2.11989058618849E-02 
448	 2.10733186539697E-02 
449	 2.12201136898605E-02 
450	 2.12689953684052E-02 
451	 0.021238091157762 
452	 2.12719700042108E-02 
453	 2.12873444205078E-02 
454	 2.13680353924275E-02 
455	 0.021475324672626 
456	 2.14313409202595E-02 
457	 2.14303615400276E-02 
458	 2.14330793047605E-02 
459	 0.021404993722634 
460	 2.14964739958238E-02 
461	 2.15421067066146E-02 
462	 2.15041578780818E-02 
463	 2.14320221107464E-02 
464	 2.14149525073143E-02 
465	 2.15183714246576E-02 
466	 2.16576482953337E-02 
467	 2.15211926402793E-02 
468	 2.15200228399744E-02 
469	 2.15524108640436E-02 
470	 2.14718003645095E-02 
471	 2.16324206982734E-02 
472	 2.16537543507596E-02 
473	 0.021550529345516 
474	 2.16437481030713E-02 
475	 2.16049403327543E-02 
476	 2.15965040122704E-02 
477	 2.17159229143724E-02 
478	 0.021752657219155 
479	 2.17247907254684E-02 
480	 2.16795823309948E-02 
481	 2.16712496079484E-02 
482	 0.021659217300509 
483	 2.17009124128908E-02 
484	 2.17671225886521E-02 
485	 2.17277589973958E-02 
486	 2.18461421176442E-02 
487	 2.19200959042259E-02 
488	 2.18028264550351E-02 
489	 2.18564951168459E-02 
490	 2.19164024108636E-02 
491	 2.19518648914831E-02 
492	 2.20087833148432E-02 
493	 0.022071610666543 
494	 2.20614423534374E-02 
495	 0.02199235160202 
496	 2.20454254287021E-02 
497	 2.20582844321835E-02 
498	 2.20483108113116E-02 
499	 2.20848282703783E-02 
500	 2.22197123473176E-02 
501	 2.22694349852919E-02 
502	 2.22158311883349E-02 
503	 2.21942420428183E-02 
504	 2.22345428782802E-02 
505	 2.22643442204111E-02 
506	 2.22520256305611E-02 
507	 2.23221306323744E-02 
508	 2.23504563223081E-02 
509	 2.23553642834846E-02 
510	 2.24100445864805E-02 
511	 2.24877087182698E-02 
512	 2.25695174361976E-02 
513	 2.26268483177723E-02 
514	 0.022617811746675 
515	 2.26387101044515E-02 
516	 2.26564643696479E-02 
517	 2.26388729067183E-02 
518	 2.26816025724963E-02 
519	 2.27367056093142E-02 
520	 2.28000462210276E-02 
521	 2.28927981592581E-02 
522	 2.29436415245184E-02 
523	 2.29409900436377E-02 
524	 2.29182343578798E-02 
525	 2.29750982968861E-02 
526	 2.30778560797295E-02 
527	 2.31925952210615E-02 
528	 2.32846448615582E-02 
529	 2.33421252986523E-02 
530	 2.33460855269523E-02 
531	 2.33580235270691E-02 
532	 2.35162886462603E-02 
533	 2.36284478084508E-02 
534	 2.37034693503887E-02 
535	 2.37888271702083E-02 
536	 2.39017844798781E-02 
537	 2.40589433610937E-02 
538	 2.42174960593164E-02 
539	 2.43148170163422E-02 
540	 2.44327114682814E-02 
541	 2.45697715849493E-02 
542	 2.47255364041293E-02 
543	 2.49210132681417E-02 
544	 2.50953818286548E-02 
545	 2.52443810721619E-02 
546	 2.53890459149576E-02 
547	 2.55685277514654E-02 
548	 2.57642617618522E-02 
549	 2.59617011177192E-02 
550	 2.61522475577054E-02 
551	 0.026322341880572 
552	 2.65266300630186E-02 
553	 0.026782902642757 
554	 2.69813497746327E-02 
555	 2.72030711642309E-02 
556	 2.74614698512385E-02 
557	 2.77386707263061E-02 
558	 2.80378231135505E-02 
559	 2.83606981672764E-02 
560	 2.86927436051724E-02 
561	 2.89972034221034E-02 
562	 2.93317980086004E-02 
563	 2.97052719797034E-02 
564	 3.01124713997104E-02 
565	 3.05629121713639E-02 
566	 0.030979489624965 
567	 0.031377128491993 
568	 0.031833852579526 
569	 3.22643245080138E-02 
570	 3.26743871870299E-02 
571	 3.30913842753388E-02 
572	 3.35560067328483E-02 
573	 3.40448775597642E-02 
574	 3.45535094008566E-02 
575	 0.035088091541658 
576	 3.56832261025442E-02 
577	 3.62532574688868E-02 
578	 3.68011731060867E-02 
579	 3.74348739054415E-02 
580	 3.80376061381362E-02 
581	 3.86064452602608E-02 
582	 3.91766378745544E-02 
583	 0.03980891399834 
584	 0.040476189518302 
585	 0.04115028191229 
586	 4.18108786823023E-02 
587	 4.25103480013644E-02 
588	 0.043217076912796 
589	 4.39211651518774E-02 
590	 4.46677278920812E-02 
591	 4.53778387258941E-02 
592	 4.60640783177583E-02 
593	 4.67574176950415E-02 
594	 4.74311373852772E-02 
595	 4.81287547045302E-02 
596	 4.88603856656538E-02 
597	 4.96009731217797E-02 
598	 5.03251555795654E-02 
599	 5.10765191418273E-02 
600	 5.18790489732152E-02 
601	 0.052676376098448 
602	 5.34646509136102E-02 
603	 0.054228986883525 
604	 5.49629138902621E-02 
605	 5.57384961670646E-02 
606	 5.65234791563326E-02 
607	 5.72968249146432E-02 
608	 5.80609169339247E-02 
609	 5.88094940701849E-02 
610	 5.95503652506418E-02 
611	 6.02994166037869E-02 
612	 6.10890184956973E-02 
613	 6.18246652114074E-02 
614	 6.25204045812698E-02 
615	 6.32541251579127E-02 
616	 6.39414748134001E-02 
617	 0.064639139352863 
618	 6.53712998995623E-02 
619	 6.60766906974256E-02 
620	 6.67550404848538E-02 
621	 6.74399067136239E-02 
622	 6.81519888293393E-02 
623	 0.068778276823692 
624	 6.94414737661487E-02 
625	 7.01471678455253E-02 
626	 0.070789330352105 
627	 7.14498078053333E-02 
628	 7.21140287980807E-02 
629	 7.27587377593166E-02 
630	 7.33792701098266E-02 
631	 7.40072520130119E-02 
632	 7.46468976969477E-02 
633	 7.52841738986255E-02 
634	 7.58842276568534E-02 
635	 7.64875166851452E-02 
636	 7.71056120267959E-02 
637	 7.77029764801646E-02 
638	 7.83073437359723E-02 
639	 7.89196988110076E-02 
640	 7.95276638659535E-02 
641	 8.00958980428399E-02 
642	 8.06527671510612E-02 
643	 8.12373461197359E-02 
644	 0.081880676822929 
645	 8.24761731208786E-02 
646	 8.30391421523291E-02 
647	 8.36013366624071E-02 
648	 8.41951828274833E-02 
649	 8.47875099575085E-02 
650	 8.53783068959218E-02 
651	 8.59739144110163E-02 
652	 8.65641044050295E-02 
653	 8.71554552564151E-02 
654	 8.77446782627101E-02 
655	 8.83217035598356E-02 
656	 8.89180967095508E-02 
657	 8.95252584345055E-02 
658	 9.01306870785345E-02 
659	 9.07273266103312E-02 
660	 9.13429732236859E-02 
661	 0.091965055643608 
662	 9.25721447232633E-02 
663	 9.31903595823732E-02 
664	 9.37929981954057E-02 
665	 9.43982505820418E-02 
666	 0.095065313228793 
667	 9.56865914122859E-02 
668	 9.63045898295095E-02 
669	 9.69611977972911E-02 
670	 9.76197100084275E-02 
671	 9.82794321990735E-02 
672	 9.89300086498544E-02 
673	 9.95684512890612E-02 
674	 0.100253058451835 
675	 0.100951557427408 
676	 0.101637296672247 
677	 0.10230248996839 
678	 0.102974366626992 
679	 0.103648281952946 
680	 0.104326217884345 
681	 0.105055314365852 
682	 0.105800535098549 
683	 0.106536482697168 
684	 0.107247634609363 
685	 0.107943150762987 
686	 0.108654769704041 
687	 0.109402778004171 
688	 0.110191633540478 
689	 0.110929131132563 
690	 0.111646595450597 
691	 0.112392473127885 
692	 0.113136978033348 
693	 0.113928039977445 
694	 0.114734484302817 
695	 0.115483559674503 
696	 0.116237738635952 
697	 0.117008150515992 
698	 0.117791463458517 
699	 0.118571397163061 
700	 0.11934605584859 
701	 0.120119095501604 
702	 0.120891801807231 
703	 0.121636021445448 
704	 0.122446642293693 
705	 0.123279413678151 
706	 0.124009097628745 
707	 0.1247487143604 
708	 0.12549976080954 
709	 0.126257802071957 
710	 0.127035364832611 
711	 0.127787712433075 
712	 0.128529653262215 
713	 0.129278694599499 
714	 0.129981384651094 
715	 0.1306980957595 
716	 0.131442288919581 
717	 0.132184940256422 
718	 0.132874164009011 
719	 0.13352383432968 
720	 0.134160116029983 
721	 0.13480892318945 
722	 0.135458912859917 
723	 0.136091670695352 
724	 0.136697011273726 
725	 0.13731153828739 
726	 0.137890243966253 
727	 0.138451196487494 
728	 0.139046115700353 
729	 0.139566522813695 
730	 0.14003583433175 
731	 0.140497199812606 
732	 0.140995022677576 
733	 0.141469469980486 
734	 0.141902545819217 
735	 0.142297999876756 
736	 0.142683998177793 
737	 0.143054985118147 
738	 0.143381494227699 
739	 0.143635511554742 
740	 0.143951437984068 
741	 0.144267584534237 
742	 0.144534582253285 
743	 0.144760250991 
744	 0.144973275656227 
745	 0.145185006634216 
746	 0.145389958937559 
747	 0.145553518095495 
748	 0.145657042029927 
749	 0.145720161146838 
750	 0.14578272640072 
751	 0.14584481152981 
752	 0.145894700706285 
753	 0.145918847810996 
754	 0.145904675632796 
755	 0.145878876593842 
756	 0.145836634834789 
757	 0.145769275091834 
758	 0.145679658269353 
759	 0.145576596982056 
760	 0.145445072958267 
761	 0.145269688953837 
762	 0.145107046276227 
763	 0.144929060169801 
764	 0.144734064310882 
765	 0.144551249161261 
766	 0.144305592223614 
767	 0.144064499989764 
768	 0.14386549663743 
769	 0.143617313050142 
770	 0.143321457592093 
771	 0.14301144282018 
772	 0.14272380838411 
773	 0.142434825478741 
774	 0.142107813682389 
775	 0.141742229628821 
776	 0.141370026424436 
777	 0.141024732040943 
778	 0.140706263610252 
779	 0.140382823267195 
780	 0.139983127246834 
781	 0.139542815305389 
782	 0.139125263586795 
783	 0.138764430579948 
784	 0.138365533914435 
785	 0.137980754027308 
786	 0.13759252071806 
787	 0.137155528982367 
788	 0.136728967582613 
789	 0.136318576095555 
790	 0.135916679862596 
791	 0.135505899422684 
792	 0.13506966319122 
793	 0.134631667345629 
794	 0.134209237417441 
795	 0.133780425060263 
796	 0.133371295217565 
797	 0.132982052955823 
798	 0.13259011380496 
799	 0.132113824435004 
800	 0.131681656375614 
801	 0.131290091732199 
802	 0.130839352176528 
803	 0.130422700519015 
804	 0.130011149383335 
805	 0.129595032490596 
806	 0.129215843110735 
807	 0.128814872876928 
808	 0.128407229910635 
809	 0.128018724373503 
810	 0.127647173603226 
811	 0.127298885911928 
812	 0.126940196390809 
813	 0.126536917029865 
814	 0.126154524069428 
815	 0.125795063643776 
816	 0.125451836255018 
817	 0.125113858039368 
818	 0.12477518198195 
819	 0.124442796410813 
820	 0.124114426760372 
821	 0.123768612868782 
822	 0.123452233200636 
823	 0.123166058252696 
824	 0.12289605093261 
825	 0.122634760089238 
826	 0.122311075290254 
827	 0.121977252670737 
828	 0.121724478002886 
829	 0.121504591784927 
830	 0.121251491607743 
831	 0.120972757647761 
832	 0.120735459105246 
833	 0.12048721398844 
834	 0.120265023036771 
835	 0.120071579727459 
836	 0.119839602434104 
837	 0.119633578556879 
838	 0.119430970765638 
839	 0.119214861273693 
840	 0.119045062037986 
841	 0.118879719965331 
842	 0.118725394018438 
843	 0.118592833077518 
844	 0.118416172747133 
845	 0.118249707894214 
846	 0.118119501798077 
847	 0.118018015406928 
848	 0.117883291164842 
849	 0.117756703744112 
850	 0.117663582676425 
851	 0.117591423708084 
852	 0.117496749810301 
853	 0.11740489920203 
854	 0.117337499446435 
855	 0.117273822057992 
856	 0.117250566585726 
857	 0.117225031985858 
858	 0.117160038842768 
859	 0.11713008913167 
860	 0.117111812721395 
861	 0.117105274435318 
862	 0.117118073615175 
863	 0.117127097758097 
864	 0.117159108651572 
865	 0.117210808702888 
866	 0.117251678576078 
867	 0.117276847042481 
868	 0.11732566025675 
869	 0.117406448949592 
870	 0.117478778728104 
871	 0.117606075748822 
872	 0.117732014561541 
873	 0.117817303484685 
874	 0.117916742212833 
875	 0.118032374549968 
876	 0.118155457720705 
877	 0.118283291580343 
878	 0.118453778949841 
879	 0.118619453050963 
880	 0.11877244539144 
881	 0.118929105519716 
882	 0.119112513447687 
883	 0.119302592627657 
884	 0.11950206253912 
885	 0.119728416242316 
886	 0.119945862631969 
887	 0.120189839936245 
888	 0.120450183127934 
889	 0.120663242085722 
890	 0.120922917623637 
891	 0.121188320187704 
892	 0.121441445794662 
893	 0.121743402337191 
894	 0.122062064357124 
895	 0.122378192730344 
896	 0.122678353137111 
897	 0.122949484332927 
898	 0.123287081890231 
899	 0.123643680885677 
900	 0.123955290049883 
901	 0.124295863938758 
902	 0.1246880188602 
903	 0.125098133034884 
904	 0.125476011395147 
905	 0.125852242299733 
906	 0.126236518799077 
907	 0.126660016598174 
908	 0.127148368837234 
909	 0.127579827146865 
910	 0.128017420463512 
911	 0.128492196263003 
912	 0.128979729346942 
913	 0.129430677622507 
914	 0.129909312646277 
915	 0.130439647421687 
916	 0.130967977408588 
917	 0.131490176974295 
918	 0.13206029573539 
919	 0.132680166630922 
920	 0.133237706805841 
921	 0.133782589431784 
922	 0.134341801392976 
923	 0.134936070479172 
924	 0.135583983305538 
925	 0.136249523798451 
926	 0.136922876595908 
927	 0.137603358705969 
928	 0.13828757840005 
929	 0.138967416809406 
930	 0.139644591917258 
931	 0.140329009834417 
932	 0.141042487809568 
933	 0.141780791290781 
934	 0.142527975215617 
935	 0.143268795661523 
936	 0.144018256543877 
937	 0.144800783438004 
938	 0.14560397242498 
939	 0.146396020842079 
940	 0.147201148339544 
941	 0.148036929282959 
942	 0.148892340842213 
943	 0.149744700040292 
944	 0.150692389274242 
945	 0.151577407260556 
946	 0.152380565856082 
947	 0.15324900618967 
948	 0.154139170633067 
949	 0.155064296168746 
950	 0.156010901062841 
951	 0.15693186659122 
952	 0.157863212257093 
953	 0.158820083585899 
954	 0.159799202346841 
955	 0.16077778317851 
956	 0.161762240363119 
957	 0.162749983891939 
958	 0.163754521738225 
959	 0.164814796024412 
960	 0.165885665184096 
961	 0.166916212662448 
962	 0.167910571644853 
963	 0.168976367705388 
964	 0.169976980417439 
965	 0.171028203734982 
966	 0.172196594780236 
967	 0.173297406333985 
968	 0.174380977124907 
969	 0.175532415468139 
970	 0.176753713023015 
971	 0.177816631630164 
972	 0.178901539881386 
973	 0.180016620722768 
974	 0.181136251436141 
975	 0.182291547603183 
976	 0.183499501625495 
977	 0.184735345428147 
978	 0.185956887896764 
979	 0.187114608943425 
980	 0.188307645829199 
981	 0.18958391370404 
982	 0.19092343157399 
983	 0.192179279114911 
984	 0.193394404039617 
985	 0.19463997502407 
986	 0.195950404638696 
987	 0.197204472886905 
988	 0.198465796116907 
989	 0.19974596524514 
990	 0.201035133147787 
991	 0.202320727523386 
992	 0.20359354530991 
993	 0.204858393314987 
994	 0.206146031104379 
995	 0.207557581157708 
996	 0.208901518568153 
997	 0.210164017071267 
998	 0.211445915774271 
999	 0.212975584506073 
1000	 0.214452012623682 
1001	 0.221881186577417 
1002	 0.223274119340793 
1003	 0.224698625156806 
1004	 0.226055124372753 
1005	 0.227338519270286 
1006	 0.228695696299073 
1007	 0.230059847535228 
1008	 0.23143132429591 
1009	 0.23280671911689 
1010	 0.234192366848926 
1011	 0.235603048051622 
1012	 0.236988981312344 
1013	 0.238384633164888 
1014	 0.239776149299235 
1015	 0.241144495453015 
1016	 0.242496188294384 
1017	 0.24393315868432 
1018	 0.245325320887307 
1019	 0.246776006747573 
1020	 0.248243510167746 
1021	 0.24963003405365 
1022	 0.250983488134395 
1023	 0.25233463480485 
1024	 0.253607811511072 
1025	 0.254950002277067 
1026	 0.25631394819 
1027	 0.257665241589834 
1028	 0.259042989170383 
1029	 0.260425585262878 
1030	 0.261730612249124 
1031	 0.263127035257177 
1032	 0.264467659019673 
1033	 0.265794346116723 
1034	 0.267214820353758 
1035	 0.268543732656717 
1036	 0.269900409895443 
1037	 0.271317116244254 
1038	 0.272651350298967 
1039	 0.273938599420185 
1040	 0.275248288187356 
1041	 0.276497092472309 
1042	 0.277799402914977 
1043	 0.279147178059485 
1044	 0.280451686549793 
1045	 0.281788072527885 
1046	 0.283147970914764 
1047	 0.284413034265563 
1048	 0.285742963879427 
1049	 0.287041634116582 
1050	 0.288308975853631 
1051	 0.289664625357962 
1052	 0.290945902906228 
1053	 0.292256486570253 
1054	 0.293624379840257 
1055	 0.294922985968037 
1056	 0.296155310525374 
1057	 0.297462072413062 
1058	 0.298778318519706 
1059	 0.30004422113952 
1060	 0.301402340941666 
1061	 0.302759935578795 
1062	 0.304107496229283 
1063	 0.305460436299583 
1064	 0.306746637157436 
1065	 0.308032953681122 
1066	 0.309283586518586 
1067	 0.310541245828036 
1068	 0.311878138693008 
1069	 0.313145142413804 
1070	 0.314455465711405 
1071	 0.315790052310327 
1072	 0.317143594510633 
1073	 0.318379225926853 
1074	 0.319692586331344 
1075	 0.320957089163402 
1076	 0.322130537954157 
1077	 0.323436155181429 
1078	 0.324700396886329 
1079	 0.325992451271622 
1080	 0.327353580669545 
1081	 0.32858323817394 
1082	 0.329857338393096 
1083	 0.331117420820342 
1084	 0.332297173729871 
1085	 0.333572570131293 
1086	 0.334840516147084 
1087	 0.33610984282914 
1088	 0.33739943628533 
1089	 0.338676342816311 
1090	 0.339844345028259 
1091	 0.341059144647047 
1092	 0.342251301593567 
1093	 0.343446737894932 
1094	 0.344753620086222 
1095	 0.345971442382408 
1096	 0.347183794862909 
1097	 0.348450677708468 
1098	 0.34960496372262 
1099	 0.350776874672599 
1100	 0.351938019905282 
1101	 0.353051779810643 
1102	 0.354254033021601 
1103	 0.355431326585143 
1104	 0.356619411281075 
1105	 0.357813816511767 
1106	 0.359023706931474 
1107	 0.360143877353618 
1108	 0.361283934684714 
1109	 0.362435664945901 
1110	 0.363548342692167 
1111	 0.36469335483861 
1112	 0.365825513378444 
1113	 0.366964361843612 
1114	 0.368091105131917 
1115	 0.369146485331144 
1116	 0.37022847828124 
1117	 0.371283993215995 
1118	 0.372345311168202 
1119	 0.373427612483334 
1120	 0.374487272224916 
1121	 0.375528237049655 
1122	 0.376583325638445 
1123	 0.377627189783982 
1124	 0.378603746425916 
1125	 0.379612564318465 
1126	 0.380587455292774 
1127	 0.381531565918801 
1128	 0.382512640856256 
1129	 0.383442762755739 
1130	 0.384361111128419 
1131	 0.385292045044022 
1132	 0.386149823136309 
1133	 0.387008968705791 
1134	 0.387863234300022 
1135	 0.388692551092154 
1136	 0.389497980150056 
1137	 0.390304528512772 
1138	 0.391094022081429 
1139	 0.391875671912058 
1140	 0.392660925004993 
1141	 0.393397027166145 
1142	 0.394138343807471 
1143	 0.394870463023227 
1144	 0.395573934721055 
1145	 0.396314572893816 
1146	 0.397018962956931 
1147	 0.397729069293531 
1148	 0.398471535268717 
1149	 0.399142082329708 
1150	 0.399802146779918 
1151	 0.400445408577644 
1152	 0.401078927655599 
1153	 0.401686555922712 
1154	 0.40230101253215 
1155	 0.402919570302829 
1156	 0.403520912018651 
1157	 0.404122945041084 
1158	 0.404666713143854 
1159	 0.405180760307808 
1160	 0.405685552479389 
1161	 0.406136307529388 
1162	 0.406602235243057 
1163	 0.407042954620197 
1164	 0.407460761837542 
1165	 0.407878013095729 
1166	 0.40824646245917 
1167	 0.40860816758249 
1168	 0.408945341587182 
1169	 0.409263636436234 
1170	 0.409546569947839 
1171	 0.409839955580483 
1172	 0.410128893529962 
1173	 0.41040389255135 
1174	 0.410669245876321 
1175	 0.410917784715107 
1176	 0.411139709372321 
1177	 0.411375177175199 
1178	 0.411600603538344 
1179	 0.41184290371673 
1180	 0.412083976806503 
1181	 0.412327691367136 
1182	 0.41258885295174 
1183	 0.412844726674527 
1184	 0.413143765038391 
1185	 0.413487453258173 
1186	 0.413873851993741 
1187	 0.414310796843622 
1188	 0.414776872021221 
1189	 0.415277909602049 
1190	 0.415816154935646 
1191	 0.416396389851122 
1192	 0.416982932689285 
1193	 0.417606807451478 
1194	 0.418241376041951 
1195	 0.41889972176098 
1196	 0.419563971768134 
1197	 0.420226861231295 
1198	 0.420935504590086 
1199	 0.42168453622245 
1200	 0.422396181172514 
1201	 0.423144036044768 
1202	 0.423888438155954 
1203	 0.424613283820416 
1204	 0.425403285528696 
1205	 0.426195188609484 
1206	 0.427010405383229 
1207	 0.427858062919441 
1208	 0.428704706849497 
1209	 0.4296078920695 
1210	 0.430557177252398 
1211	 0.431543159893205 
1212	 0.432583720241297 
1213	 0.433642019086384 
1214	 0.434725101088266 
1215	 0.43585360564759 
1216	 0.437023021269694 
1217	 0.438199354931751 
1218	 0.439430064528581 
1219	 0.440651997267144 
1220	 0.441851804148236 
1221	 0.443128507658016 
1222	 0.444352330016793 
1223	 0.445585663974841 
1224	 0.446781798127013 
1225	 0.447953682836512 
1226	 0.449088646892706 
1227	 0.450210369181027 
1228	 0.451279118074081 
1229	 0.452317241840222 
1230	 0.453311492396411 
1231	 0.45425263594402 
1232	 0.455178104497633 
1233	 0.456059206188873 
1234	 0.456917118150947 
1235	 0.457737747542419 
1236	 0.458558441517847 
1237	 0.45936857117104 
1238	 0.460153304556375 
1239	 0.460920627677347 
1240	 0.461678324558044 
1241	 0.462437438875648 
1242	 0.463119089448195 
1243	 0.463794987588659 
1244	 0.464446829029883 
1245	 0.465102311247118 
1246	 0.465732725444291 
1247	 0.466356564217694 
1248	 0.466976423775204 
1249	 0.4675999526034 
1250	 0.468219793222247 
1251	 0.468804673005746 
1252	 0.469389408359435 
1253	 0.469958931263821 
1254	 0.470489611284948 
1255	 0.471019546001326 
1256	 0.471550795916126 
1257	 0.472076130249705 
1258	 0.472584727921245 
1259	 0.473081827154467 
1260	 0.473590905881439 
1261	 0.474074211681974 
1262	 0.474512621766607 
1263	 0.474963876156133 
1264	 0.475430600245606 
1265	 0.475898843622161 
1266	 0.476365806867837 
1267	 0.476861631585944 
1268	 0.477310762505939 
1269	 0.477725602869549 
1270	 0.478159307296925 
1271	 0.478594064011562 
1272	 0.47900585298181 
1273	 0.479414034079061 
1274	 0.479811383477947 
1275	 0.48017801873028 
1276	 0.480550143549838 
1277	 0.480934662233405 
1278	 0.481294061901926 
1279	 0.48162148252862 
1280	 0.481965366659346 
1281	 0.48229881503985 
1282	 0.482640394517673 
1283	 0.483002101457044 
1284	 0.483348730571094 
1285	 0.483689040695042 
1286	 0.484018503596714 
1287	 0.48436156945133 
1288	 0.484712577990736 
1289	 0.485033374157562 
1290	 0.485346023864079 
1291	 0.485662497580506 
1292	 0.485950633293475 
1293	 0.486261013303471 
1294	 0.486592991596807 
1295	 0.486912331413478 
1296	 0.487224798858133 
1297	 0.487539441074152 
1298	 0.48785528499637 
1299	 0.488171365523235 
1300	 0.488488028351332 
1301	 0.488799834542228 
1302	 0.489115602930994 
1303	 0.489421318974091 
1304	 0.489729086221044 
1305	 0.490015429026115 
1306	 0.490276226277309 
1307	 0.490547251020614 
1308	 0.490813175776473 
1309	 0.491072248200627 
1310	 0.491325031485735 
1311	 0.491583466676325 
1312	 0.491829597942954 
1313	 0.492054180666752 
1314	 0.492296821401913 
1315	 0.492554223780641 
1316	 0.492787410444435 
1317	 0.493024835851377 
1318	 0.493231404395256 
1319	 0.493408978427944 
1320	 0.493593128638101 
1321	 0.493770274556962 
1322	 0.493931205477155 
1323	 0.494086486755391 
1324	 0.494230969106121 
1325	 0.494345888286247 
1326	 0.494477126129685 
1327	 0.494629332780823 
1328	 0.49474920908936 
1329	 0.494888545726223 
1330	 0.494966721438154 
1331	 0.494998075496102 
1332	 0.495010372427741 
1333	 0.494984027516128 
1334	 0.494934111928169 
1335	 0.494871621019436 
1336	 0.49480105293766 
1337	 0.494685624468348 
1338	 0.494543237348618 
1339	 0.494374921445561 
1340	 0.494176767641982 
1341	 0.493950199901743 
1342	 0.493710861552501 
1343	 0.493414750052502 
1344	 0.49308247068188 
1345	 0.49270516922484 
1346	 0.492270166404505 
1347	 0.491829602127564 
1348	 0.491353655175601 
1349	 0.490866020075567 
1350	 0.490352901354756 
1351	 0.489836767697597 
1352	 0.489275214010854 
1353	 0.488758048289378 
1354	 0.488253574352772 
1355	 0.487761879457855 
1356	 0.48731314621864 
1357	 0.486838271649623 
1358	 0.486348100841922 
1359	 0.485867727033931 
1360	 0.48539812280321 
1361	 0.484906562411904 
1362	 0.484396596988256 
1363	 0.483923760908888 
1364	 0.483414452954393 
1365	 0.482890348159082 
1366	 0.482345788136501 
1367	 0.481799238252611 
1368	 0.481212360432911 
1369	 0.48058939822035 
1370	 0.47996402482133 
1371	 0.479306999964486 
1372	 0.47867376687837 
1373	 0.478034968038751 
1374	 0.477405118861843 
1375	 0.47677472913443 
1376	 0.476159047358751 
1377	 0.475554376628104 
1378	 0.47494030474284 
1379	 0.474332281784699 
1380	 0.47372564968779 
1381	 0.473119458825361 
1382	 0.472500411672889 
1383	 0.471855404177223 
1384	 0.471255889902613 
1385	 0.470653764677609 
1386	 0.470087153444493 
1387	 0.469577444109523 
1388	 0.469071179484581 
1389	 0.468589276185944 
1390	 0.468099851407719 
1391	 0.467646654499492 
1392	 0.467145562457515 
1393	 0.466662707082035 
1394	 0.466126824709896 
1395	 0.465525865895735 
1396	 0.464904634841863 
1397	 0.464176919176136 
1398	 0.463382874796097 
1399	 0.462486489605309 
1400	 0.461502785191136 
1401	 0.46044163611051 
1402	 0.459295679900315 
1403	 0.458057367531676 
1404	 0.456721157664747 
1405	 0.455355829839672 
1406	 0.453890806245833 
1407	 0.452419521151782 
1408	 0.450878811420819 
1409	 0.449383097068605 
1410	 0.447836063697853 
1411	 0.446365269448672 
1412	 0.444914598032362 
1413	 0.443554582529711 
1414	 0.442223880720336 
1415	 0.44099327040709 
1416	 0.439851815509387 
1417	 0.438773282406945 
1418	 0.437775665826823 
1419	 0.436832696119761 
1420	 0.435965628728972 
1421	 0.435149927019934 
1422	 0.434393733975129 
1423	 0.433683405746498 
1424	 0.433037437695657 
1425	 0.432411333416131 
1426	 0.431856491867847 
1427	 0.431352668312798 
1428	 0.430870195845471 
1429	 0.430454349243272 
1430	 0.430105508922572 
1431	 0.429803281759406 
1432	 0.429565371722584 
1433	 0.429408770198608 
1434	 0.429286275516576 
1435	 0.429204896351879 
1436	 0.429181403581963 
1437	 0.429234608548326 
1438	 0.429287680633717 
1439	 0.429360612212351 
1440	 0.429497267409093 
1441	 0.429670688743889 
1442	 0.429886087062065 
1443	 0.430174607923489 
1444	 0.430465055592878 
1445	 0.430775735789953 
1446	 0.431111990911635 
1447	 0.431476254728777 
1448	 0.431862099056264 
1449	 0.43228016570812 
1450	 0.432705819253613 
1451	 0.433158351090511 
1452	 0.433613240969076 
1453	 0.434089561461931 
1454	 0.434547548999302 
1455	 0.435004235220894 
1456	 0.435461752717315 
1457	 0.435907360765547 
1458	 0.436360918803028 
1459	 0.436822010459177 
1460	 0.437283900309702 
1461	 0.437746497551905 
1462	 0.438208013119314 
1463	 0.43865297023086 
1464	 0.439130536169497 
1465	 0.439615645630166 
1466	 0.440132033322422 
1467	 0.440649452460284 
1468	 0.441172090548166 
1469	 0.441695872675844 
1470	 0.442189751523486 
1471	 0.442712670634262 
1472	 0.443250657468083 
1473	 0.443784693564412 
1474	 0.444322294004865 
1475	 0.444866870524882 
1476	 0.445417526096398 
1477	 0.445965709013203 
1478	 0.446524349424967 
1479	 0.447061268585159 
1480	 0.447594843931654 
1481	 0.448109815224265 
1482	 0.448611402428926 
1483	 0.449103866683828 
1484	 0.449574815016949 
1485	 0.450056630282077 
1486	 0.450542501724135 
1487	 0.451003276089233 
1488	 0.451449896315302 
1489	 0.451904685946648 
1490	 0.452353504994729 
1491	 0.452787903623726 
1492	 0.453225138069563 
1493	 0.453652922594841 
1494	 0.454054894349559 
1495	 0.454460866125165 
1496	 0.454870255575168 
1497	 0.455278060899694 
1498	 0.455681788498455 
1499	 0.456077322430502 
1500	 0.456472424944607 
1501	 0.45686374878283 
1502	 0.457243190461035 
1503	 0.457620620202909 
1504	 0.458001835406905 
1505	 0.45837424211671 
1506	 0.458743768761266 
1507	 0.459098511373814 
1508	 0.459434023694758 
1509	 0.459779925444292 
1510	 0.460125018904133 
1511	 0.460458053950863 
1512	 0.460805977686295 
1513	 0.461126619959086 
1514	 0.461429131829016 
1515	 0.461711151775628 
1516	 0.461965603734936 
1517	 0.462217057177669 
1518	 0.462435616303945 
1519	 0.462669507618409 
1520	 0.462920178014679 
1521	 0.463150172743342 
1522	 0.463378740727127 
1523	 0.463631864041478 
1524	 0.463850159971258 
1525	 0.464054655322828 
1526	 0.464252650071303 
1527	 0.464432748134687 
1528	 0.464621191840887 
1529	 0.464806770489833 
1530	 0.464990818846836 
1531	 0.465177543719443 
1532	 0.46535243707832 
1533	 0.46551935630663 
1534	 0.465687348001162 
1535	 0.465848802579955 
1536	 0.466011547836592 
1537	 0.466176286695303 
1538	 0.466334306923478 
1539	 0.466490364746111 
1540	 0.466638268859719 
1541	 0.466778430092714 
1542	 0.466920511267767 
1543	 0.467063572045368 
1544	 0.467189745127224 
1545	 0.46731157149386 
1546	 0.467423828265934 
1547	 0.467515449624984 
1548	 0.467616296295297 
1549	 0.467728890307372 
1550	 0.46781058777288 
1551	 0.467874895148897 
1552	 0.46794171498365 
1553	 0.467979687284705 
1554	 0.46804702775245 
1555	 0.468127537240946 
1556	 0.468212371345015 
1557	 0.468303370919905 
1558	 0.46840693376677 
1559	 0.468530211857314 
1560	 0.468637941860396 
1561	 0.468746781566301 
1562	 0.468859034486039 
1563	 0.468951593585559 
1564	 0.469075819466188 
1565	 0.469229222176651 
1566	 0.469368922939703 
1567	 0.469513755113358 
1568	 0.469663479984113 
1569	 0.469811966221866 
1570	 0.4699616949873 
1571	 0.470122588055198 
1572	 0.470277127435694 
1573	 0.470423107580395 
1574	 0.470575555917501 
1575	 0.470737303669184 
1576	 0.470888363660387 
1577	 0.471035586692666 
1578	 0.47118056361774 
1579	 0.471323479423526 
1580	 0.471457033111884 
1581	 0.471577513626459 
1582	 0.471710494569028 
1583	 0.471846402389991 
1584	 0.471974403128948 
1585	 0.472118049769269 
1586	 0.472238063474203 
1587	 0.472326409422442 
1588	 0.472432413526026 
1589	 0.472535148722925 
1590	 0.472642720279375 
1591	 0.472767248569308 
1592	 0.472877533655391 
1593	 0.472977756965718 
1594	 0.473082526146638 
1595	 0.473190697599447 
1596	 0.473285146949368 
1597	 0.473382591881709 
1598	 0.473462476211075 
1599	 0.473532511639931 
1600	 0.473580480250718 
1601	 0.473592843381017 
1602	 0.473626798567355 
1603	 0.473654804847539 
1604	 0.473682260387756 
1605	 0.47372806862702 
1606	 0.473761351113212 
1607	 0.473787614060282 
1608	 0.473799451448003 
1609	 0.473817995557184 
1610	 0.473802609059046 
1611	 0.473755131555767 
1612	 0.473701215414005 
1613	 0.473625958185158 
1614	 0.473543759656546 
1615	 0.473438677410955 
1616	 0.473347695174211 
1617	 0.473261149618875 
1618	 0.473161751413099 
1619	 0.473068188277319 
1620	 0.472962861893714 
1621	 0.472857710965435 
1622	 0.472717161161314 
1623	 0.472557360447486 
1624	 0.472383882842445 
1625	 0.472169622326821 
1626	 0.471958229728965 
1627	 0.471732863880468 
1628	 0.471521702580788 
1629	 0.471290201774891 
1630	 0.471095197220557 
1631	 0.470934977293166 
1632	 0.470769795825539 
1633	 0.470633950066996 
1634	 0.470478357727826 
1635	 0.470294862364145 
1636	 0.470145113382466 
1637	 0.470009455300047 
1638	 0.469872256343755 
1639	 0.469776722336211 
1640	 0.469640064759602 
1641	 0.469495989404786 
1642	 0.469314842125868 
1643	 0.469098154570555 
1644	 0.468868616336925 
1645	 0.468618498353349 
1646	 0.46833488291864 
1647	 0.468042998085092 
1648	 0.467698381911031 
1649	 0.467324295725935 
1650	 0.466884326806553 
1651	 0.466388714704957 
1652	 0.465852333444052 
1653	 0.465274749201464 
1654	 0.464620898503677 
1655	 0.463915336888256 
1656	 0.46313513576802 
1657	 0.462304456330874 
1658	 0.46134684859495 
1659	 0.460315749683865 
1660	 0.459170711412131 
1661	 0.457924713991614 
1662	 0.456530333386256 
1663	 0.455026164846271 
1664	 0.453358361064366 
1665	 0.451548860689942 
1666	 0.449543359744913 
1667	 0.447375589564834 
1668	 0.445065978696278 
1669	 0.442580966628791 
1670	 0.439932394509512 
1671	 0.437081171159054 
1672	 0.434143347599041 
1673	 0.431040706822541 
1674	 0.427835189034521 
1675	 0.424493505145362 
1676	 0.421190199534102 
1677	 0.417773486881838 
1678	 0.414385571500403 
1679	 0.410978144454727 
1680	 0.407596398814785 
1681	 0.404184792865773 
1682	 0.400805136653644 
1683	 0.397477481675734 
1684	 0.394218088135723 
1685	 0.390961771968785 
1686	 0.387773983437143 
1687	 0.384612241178497 
1688	 0.381565254619714 
1689	 0.378562362345579 
1690	 0.375685759653567 
1691	 0.372962433261267 
1692	 0.370349765303575 
1693	 0.367813627177538 
1694	 0.365427576015553 
1695	 0.363192105574625 
1696	 0.361003423398813 
1697	 0.358939820940842 
1698	 0.356900298375122 
1699	 0.354940997312819 
1700	 0.353062383897749 
1701	 0.351236436179629 
1702	 0.349501505124296 
1703	 0.347823346902304 
1704	 0.346271795304599 
1705	 0.34481286051007 
1706	 0.34343292699701 
1707	 0.342244622550955 
1708	 0.341094846289134 
1709	 0.340043809760426 
1710	 0.339090674334852 
1711	 0.338119081745784 
1712	 0.337230799533709 
1713	 0.336394502471642 
1714	 0.335578080824748 
1715	 0.33486317256776 
1716	 0.334177793213444 
1717	 0.333517676914606 
1718	 0.332918557053 
1719	 0.332359018454708 
1720	 0.331856405180298 
1721	 0.331447373314433 
1722	 0.331156286893142 
1723	 0.331003901045459 
1724	 0.330999929632321 
1725	 0.331134426277509 
1726	 0.331440737364202 
1727	 0.33193181490301 
1728	 0.332575073412493 
1729	 0.333417055220909 
1730	 0.334429647495957 
1731	 0.335504517372407 
1732	 0.336700752169733 
1733	 0.337913582018973 
1734	 0.339120673147716 
1735	 0.340357785851632 
1736	 0.341512916741775 
1737	 0.342605853159315 
1738	 0.343556594920358 
1739	 0.344364544100457 
1740	 0.345036499067524 
1741	 0.345613922884942 
1742	 0.346034870465018 
1743	 0.346449245723185 
1744	 0.346753893942405 
1745	 0.347079784004631 
1746	 0.347357237505932 
1747	 0.347662988189045 
1748	 0.347964287269036 
1749	 0.348307782119313 
1750	 0.348643841760034 
1751	 0.349088573955654 
1752	 0.349555950254349 
1753	 0.350162509741893 
1754	 0.350871798256176 
1755	 0.351672623838419 
1756	 0.352562354567564 
1757	 0.353583464326897 
1758	 0.354778728124521 
1759	 0.356050498826931 
1760	 0.357485383682624 
1761	 0.3590668316923 
1762	 0.36067332774284 
1763	 0.362440344133609 
1764	 0.364260267473937 
1765	 0.366133369642293 
1766	 0.368184001050461 
1767	 0.370199504207482 
1768	 0.372292192861571 
1769	 0.374437234318319 
1770	 0.376361595331083 
1771	 0.378260642901159 
1772	 0.380075303329804 
1773	 0.381732667205059 
1774	 0.383405745780056 
1775	 0.384946186309758 
1776	 0.386388345443188 
1777	 0.387719969349939 
1778	 0.388856798315017 
1779	 0.389921180725373 
1780	 0.390864377053586 
1781	 0.391705196002849 
1782	 0.392493630281807 
1783	 0.393192479785424 
1784	 0.393837380126248 
1785	 0.394351708726362 
1786	 0.394828195709697 
1787	 0.395217901855151 
1788	 0.395592938959154 
1789	 0.395918889539686 
1790	 0.39623002558977 
1791	 0.396528067597616 
1792	 0.396791705378088 
1793	 0.397011320870681 
1794	 0.397209748619646 
1795	 0.397400126702855 
1796	 0.39758955263771 
1797	 0.397794252225572 
1798	 0.397999546103029 
1799	 0.398184900469673 
1800	 0.398419154444314 
1801	 0.381670018341806 
1802	 0.381851503196559 
1803	 0.382056237857743 
1804	 0.382244821067317 
1805	 0.382472784078447 
1806	 0.382683462887548 
1807	 0.382914236531244 
1808	 0.383123476836905 
1809	 0.383312886491773 
1810	 0.383511860271177 
1811	 0.38371598725181 
1812	 0.383919677061003 
1813	 0.384123766043737 
1814	 0.384331167759484 
1815	 0.384527285457911 
1816	 0.384730496474449 
1817	 0.384948975615525 
1818	 0.385173019381954 
1819	 0.385406324059532 
1820	 0.385651385212966 
1821	 0.385906320424964 
1822	 0.386171771100604 
1823	 0.386441398367584 
1824	 0.386709229553159 
1825	 0.387001955466401 
1826	 0.38729007292428 
1827	 0.387580997737046 
1828	 0.387864328472546 
1829	 0.388159555534343 
1830	 0.388436917055246 
1831	 0.388698290321053 
1832	 0.388968328806468 
1833	 0.389220302244539 
1834	 0.389487548997899 
1835	 0.389755141011313 
1836	 0.390020430825546 
1837	 0.3903093529072 
1838	 0.390615195895883 
1839	 0.390918159877654 
1840	 0.391248000160255 
1841	 0.391557412012871 
1842	 0.391859054319466 
1843	 0.392158860822546 
1844	 0.392460306364239 
1845	 0.392743803046439 
1846	 0.393053387709387 
1847	 0.393365747154621 
1848	 0.393661936827335 
1849	 0.393981567315472 
1850	 0.394245320942992 
1851	 0.394479629229057 
1852	 0.3946968439375 
1853	 0.394890844480476 
1854	 0.395037860288146 
1855	 0.395177366385934 
1856	 0.395302768478126 
1857	 0.395414224003744 
1858	 0.395506437226723 
1859	 0.395555364096726 
1860	 0.395587918840509 
1861	 0.395565925084674 
1862	 0.395493619788305 
1863	 0.395402451231513 
1864	 0.395258194689744 
1865	 0.395081686629667 
1866	 0.394874009108512 
1867	 0.394597785992224 
1868	 0.394304671604463 
1869	 0.393956964324917 
1870	 0.393547212066328 
1871	 0.393109002769403 
1872	 0.392583884482227 
1873	 0.391997580077509 
1874	 0.391339651213789 
1875	 0.390594114163474 
1876	 0.38970278267312 
1877	 0.388761089801627 
1878	 0.387691161718478 
1879	 0.386479175581233 
1880	 0.385215179798708 
1881	 0.383759150875579 
1882	 0.382138374056501 
1883	 0.380391669151509 
1884	 0.378455290307644 
1885	 0.37621459035271 
1886	 0.373870393982638 
1887	 0.371270811375081 
1888	 0.368389810826058 
1889	 0.365587352694507 
1890	 0.362540305795062 
1891	 0.359443789085133 
1892	 0.356400695760765 
1893	 0.353249438377188 
1894	 0.349934451663584 
1895	 0.346771315631193 
1896	 0.343591101469681 
1897	 0.340433293893272 
1898	 0.337579722004275 
1899	 0.334739608012424 
1900	 0.332028464830902 
1901	 0.32948812190125 
1902	 0.326884448905285 
1903	 0.324496637846519 
1904	 0.322221442041698 
1905	 0.320033594236828 
1906	 0.317968115216609 
1907	 0.316193958600446 
1908	 0.314446888442334 
1909	 0.31284013220047 
1910	 0.311407290859444 
1911	 0.309980304697748 
1912	 0.308706637238659 
1913	 0.307515940257484 
1914	 0.306364259976826 
1915	 0.305339152992621 
1916	 0.304447812426962 
1917	 0.303584887090678 
1918	 0.302812195679418 
1919	 0.302160712957937 
1920	 0.301539131970785 
1921	 0.301018790587753 
1922	 0.300576423498237 
1923	 0.300195977483173 
1924	 0.299906404823151 
1925	 0.299672220827176 
1926	 0.299485625903318 
1927	 0.299356628692894 
1928	 0.299270218935033 
1929	 0.29923195856796 
1930	 0.299242652617806 
1931	 0.299314762962982 
1932	 0.299426356804895 
1933	 0.29959019917789 
1934	 0.299833056883604 
1935	 0.300090826744006 
1936	 0.300389411763914 
1937	 0.300743464654883 
1938	 0.301147862483104 
1939	 0.301574442255856 
1940	 0.302044029358085 
1941	 0.302564799868895 
1942	 0.303085918085808 
1943	 0.303653301040134 
1944	 0.304233804421349 
1945	 0.304844674899792 
1946	 0.305517254360911 
1947	 0.306157211239339 
1948	 0.30682385825526 
1949	 0.307529618413535 
1950	 0.308199555292012 
1951	 0.308843854360427 
1952	 0.309513725583515 
1953	 0.310188044418064 
1954	 0.310840412378238 
1955	 0.311552314628649 
1956	 0.312253776428365 
1957	 0.312965646440341 
1958	 0.313702566594236 
1959	 0.314385039021853 
1960	 0.3150859562461 
1961	 0.315776083434632 
1962	 0.316446379513275 
1963	 0.317128955057106 
1964	 0.317820437020819 
1965	 0.318492561298861 
1966	 0.319170724467132 
1967	 0.31984079456476 
1968	 0.32044270001641 
1969	 0.321071186769347 
1970	 0.321700876367967 
1971	 0.322315165064966 
1972	 0.322984220747007 
1973	 0.3236521283008 
1974	 0.324295329437024 
1975	 0.324941628070259 
1976	 0.32556376844993 
1977	 0.326150129308145 
1978	 0.32674697273227 
1979	 0.327340891109101 
1980	 0.327918842175846 
1981	 0.328507151611834 
1982	 0.3290713185809 
1983	 0.329640048051122 
1984	 0.330196667192856 
1985	 0.330699224515805 
1986	 0.33120931177864 
1987	 0.331689312889189 
1988	 0.332124201113269 
1989	 0.332569090530544 
1990	 0.333018996748941 
1991	 0.333432812898105 
1992	 0.333846542254695 
1993	 0.334214903756313 
1994	 0.334519192783936 
1995	 0.334795778772354 
1996	 0.335022864120397 
1997	 0.335220753802984 
1998	 0.335407176498552 
1999	 0.335577157764801 
2000	 0.335718184362107 
2001	 0.335854536605417 
2002	 0.335923938286184 
2003	 0.335944154306281 
2004	 0.335942764293057 
2005	 0.33589564658041 
2006	 0.335820029566575 
2007	 0.335723004954168 
2008	 0.335591839725602 
2009	 0.335412965863093 
2010	 0.335183116997199 
2011	 0.334943954510969 
2012	 0.334679666225482 
2013	 0.334373030886595 
2014	 0.33406233076281 
2015	 0.333664463325072 
2016	 0.33319952488227 
2017	 0.332701325241323 
2018	 0.332122124494959 
2019	 0.33153167570029 
2020	 0.330918648912491 
2021	 0.330264735692195 
2022	 0.329577570493151 
2023	 0.328874644680955 
2024	 0.328088357032695 
2025	 0.327277512746198 
2026	 0.326430883532662 
2027	 0.325496802969374 
2028	 0.324620690432765 
2029	 0.323749864569689 
2030	 0.322855377813368 
2031	 0.321986417193924 
2032	 0.321072296410679 
2033	 0.320079321400627 
2034	 0.319156220417321 
2035	 0.318240191115241 
2036	 0.317317507765567 
2037	 0.316499210895524 
2038	 0.315688878510116 
2039	 0.314920919700772 
2040	 0.314202586775025 
2041	 0.313497431184564 
2042	 0.312812440412154 
2043	 0.312178917109142 
2044	 0.311558678776366 
2045	 0.311007663651441 
2046	 0.310527531709991 
2047	 0.310063827687729 
2048	 0.309668037732286 
2049	 0.309266788821303 
2050	 0.308876303070314 
2051	 0.308510920296685 
2052	 0.308165659892064 
2053	 0.307858097551023 
2054	 0.307595600246798 
2055	 0.307398170287119 
2056	 0.307181146258812 
2057	 0.306999096799365 
2058	 0.306806481414312 
2059	 0.306611040667556 
2060	 0.306424896685424 
2061	 0.306235353459798 
2062	 0.306071723167457 
2063	 0.305921807133593 
2064	 0.305781799801214 
2065	 0.305653996456939 
2066	 0.305554359877359 
2067	 0.305463608018262 
2068	 0.305394948734494 
2069	 0.305325791912386 
2070	 0.305283141586043 
2071	 0.305226986855522 
2072	 0.30516889368655 
2073	 0.305106287081827 
2074	 0.305058279344541 
2075	 0.304977920977145 
2076	 0.304867038917785 
2077	 0.304773836006628 
2078	 0.304665991429694 
2079	 0.304572111652494 
2080	 0.30449478030636 
2081	 0.304413367652206 
2082	 0.304334405984712 
2083	 0.304250072647053 
2084	 0.30417705836033 
2085	 0.30411133741066 
2086	 0.304026310933431 
2087	 0.303939193867331 
2088	 0.303841454123118 
2089	 0.303738009451917 
2090	 0.30360930780875 
2091	 0.303463645144208 
2092	 0.303313916346393 
2093	 0.303143216790305 
2094	 0.302967819472799 
2095	 0.302779568635432 
2096	 0.302599976665941 
2097	 0.302425535918872 
2098	 0.302229263597998 
2099	 0.302040121828024 
2100	 0.301850572567469 
2101	 0.301597289434121 
2102	 0.301300537742205 
2103	 0.300999940861435 
2104	 0.300655019197753 
2105	 0.300314730467015 
2106	 0.299970623933844 
2107	 0.299606311892534 
2108	 0.299242290298752 
2109	 0.298829723150873 
2110	 0.298385771192335 
2111	 0.297927583486893 
2112	 0.297401128656527 
2113	 0.296909259672694 
2114	 0.296449469619506 
2115	 0.295946082144024 
2116	 0.295426816451799 
2117	 0.294912085490691 
2118	 0.294355351247597 
2119	 0.293737233283264 
2120	 0.293180609455438 
2121	 0.292605642399906 
2122	 0.29209527142682 
2123	 0.291644638121541 
2124	 0.291165935016556 
2125	 0.290711614845519 
2126	 0.290253674048361 
2127	 0.289768959547083 
2128	 0.289330341555762 
2129	 0.288917453234572 
2130	 0.288517893218772 
2131	 0.288154928526903 
2132	 0.287784611392469 
2133	 0.28741216135925 
2134	 0.287069659603445 
2135	 0.286719977705911 
2136	 0.28638172593892 
2137	 0.286066010528027 
2138	 0.285768804636857 
2139	 0.285481730181955 
2140	 0.285201421992609 
2141	 0.284957389619131 
2142	 0.284726830534718 
2143	 0.284537643228318 
2144	 0.284388747993769 
2145	 0.284260416782957 
2146	 0.284169375376698 
2147	 0.284084539371945 
2148	 0.284017741053804 
2149	 0.283974375698165 
2150	 0.283959018355363 
2151	 0.283943832326525 
2152	 0.28393698302578 
2153	 0.283965308633466 
2154	 0.283984995424972 
2155	 0.284002453284341 
2156	 0.284014569027838 
2157	 0.284037435437463 
2158	 0.284035974176133 
2159	 0.284021054226227 
2160	 0.283997994306912 
2161	 0.283957918165532 
2162	 0.283926152859406 
2163	 0.283892916900322 
2164	 0.283849195481503 
2165	 0.283806663119114 
2166	 0.283755242318974 
2167	 0.28368074201525 
2168	 0.283616005451315 
2169	 0.283542273148487 
2170	 0.28349199341518 
2171	 0.283445321919617 
2172	 0.283420440907532 
2173	 0.28341901180868 
2174	 0.283422348239133 
2175	 0.283465281273136 
2176	 0.283505594741369 
2177	 0.283550308937368 
2178	 0.283615046726449 
2179	 0.283670649474118 
2180	 0.283732849271667 
2181	 0.283765415609489 
2182	 0.283784218656409 
2183	 0.283813517365079 
2184	 0.28382516762289 
2185	 0.283838944865098 
2186	 0.283867537246457 
2187	 0.283886384479797 
2188	 0.283883266053622 
2189	 0.283895303277694 
2190	 0.283943396201419 
2191	 0.28394215711325 
2192	 0.283924398788195 
2193	 0.283885979264564 
2194	 0.283808090151596 
2195	 0.283727626305301 
2196	 0.283624306793181 
2197	 0.283530066948745 
2198	 0.283441193597397 
2199	 0.283339251940936 
2200	 0.283214272364833 
2201	 0.283091617683244 
2202	 0.282928321723802 
2203	 0.282734648811148 
2204	 0.282514187176427 
2205	 0.282261518561879 
2206	 0.282006675905092 
2207	 0.281733546998661 
2208	 0.281427573751595 
2209	 0.281131369290621 
2210	 0.280759968314251 
2211	 0.280333176242762 
2212	 0.279871547712086 
2213	 0.27936210816189 
2214	 0.278814596286797 
2215	 0.278229375963688 
2216	 0.277595283599039 
2217	 0.276962318720948 
2218	 0.276205576779279 
2219	 0.275374372278149 
2220	 0.274465571912476 
2221	 0.273463575853581 
2222	 0.27233943576241 
2223	 0.271262613865772 
2224	 0.270050367455951 
2225	 0.268747782472009 
2226	 0.267391803787361 
2227	 0.265829218733466 
2228	 0.264104804302923 
2229	 0.262278334476481 
2230	 0.260272245152142 
2231	 0.258223358917647 
2232	 0.256093159102508 
2233	 0.25380800274476 
2234	 0.251485124379957 
2235	 0.248878079648618 
2236	 0.246031636683248 
2237	 0.24311390686208 
2238	 0.239902873217209 
2239	 0.236769699057933 
2240	 0.233647203654296 
2241	 0.230360482758896 
2242	 0.227076993858202 
2243	 0.223559010617518 
2244	 0.219749607825084 
2245	 0.216007807707918 
2246	 0.212029554976054 
2247	 0.208215947558908 
2248	 0.204510351632895 
2249	 0.200770466924466 
2250	 0.197051909220636 
2251	 0.193432450385036 
2252	 0.189566793722074 
2253	 0.185883351756777 
2254	 0.182242325660857 
2255	 0.178632068272904 
2256	 0.175451284005206 
2257	 0.172300521213341 
2258	 0.169304855124477 
2259	 0.166519487369719 
2260	 0.163776403165607 
2261	 0.161089801920194 
2262	 0.158621911161351 
2263	 0.156258898036705 
2264	 0.154121256309756 
2265	 0.15222316267903 
2266	 0.15038696044171 
2267	 0.148787126407388 
2268	 0.147157561708491 
2269	 0.145595782244477 
2270	 0.144103213167759 
2271	 0.142659374923315 
2272	 0.141277994361337 
2273	 0.140042711091877 
2274	 0.138728915251068 
2275	 0.137486253765751 
2276	 0.13613339108101 
2277	 0.134711521433201 
2278	 0.133262913292946 
2279	 0.131702215181603 
2280	 0.130184626493332 
2281	 0.128699642363581 
2282	 0.127143803367021 
2283	 0.125566540614599 
2284	 0.123983174719639 
2285	 0.12224608416645 
2286	 0.120572877713603 
2287	 0.118887133075481 
2288	 0.11718467019176 
2289	 0.115623972584583 
2290	 0.114016820878392 
2291	 0.112476920770072 
2292	 0.111060323141565 
2293	 0.109621941202733 
2294	 0.108291105658553 
2295	 0.107060203980597 
2296	 0.105913745915461 
2297	 0.104994312954396 
2298	 0.104235852957852 
2299	 0.103683523949545 
2300	 0.103342779993361 
2301	 0.103182505838226 
2302	 0.10320338141678 
2303	 0.103450123734534 
2304	 0.103936599860945 
2305	 0.104568410542642 
2306	 0.105436664635528 
2307	 0.106431032653279 
2308	 0.107566682583853 
2309	 0.108916224073778 
2310	 0.110536265260564 
2311	 0.112150564755394 
2312	 0.11403901456975 
2313	 0.1157578636203 
2314	 0.117479991629235 
2315	 0.11914728538533 
2316	 0.120782448447066 
2317	 0.12229961213837 
2318	 0.123815313424465 
2319	 0.125104588695229 
2320	 0.126267126242562 
2321	 0.127247867367585 
2322	 0.128017493494386 
2323	 0.128664703836416 
2324	 0.129128712739919 
2325	 0.129475362225487 
2326	 0.129667123964956 
2327	 0.129735948877254 
2328	 0.12965026704102 
2329	 0.129460270121245 
2330	 0.129130845925678 
2331	 0.128688008707923 
2332	 0.128170359834618 
2333	 0.127544313754568 
2334	 0.126768394872014 
2335	 0.125959903156669 
2336	 0.125085885651274 
2337	 0.124144743930494 
2338	 0.123299074444199 
2339	 0.122441073233073 
2340	 0.121596088648721 
2341	 0.120839998517843 
2342	 0.120140242565434 
2343	 0.119597676127393 
2344	 0.119252891199498 
2345	 0.119118675744798 
2346	 0.119183816878515 
2347	 0.119486451936978 
2348	 0.119957969457231 
2349	 0.120675290317252 
2350	 0.121641185836814 
2351	 0.12275670125738 
2352	 0.123990915204034 
2353	 0.125270977081805 
2354	 0.12650117856953 
2355	 0.127658709842088 
2356	 0.128707957539133 
2357	 0.129619771062787 
2358	 0.1304510122863 
2359	 0.131124596484869 
2360	 0.131666021502495 
2361	 0.132100375509515 
2362	 0.132399446395475 
2363	 0.132614874329009 
2364	 0.13277137518658 
2365	 0.132899792421778 
2366	 0.133054398676986 
2367	 0.13319704303463 
2368	 0.133286515811482 
2369	 0.133343463684359 
2370	 0.133373749166656 
2371	 0.133359619279898 
2372	 0.133334917272413 
2373	 0.133294888818687 
2374	 0.133275312561515 
2375	 0.133288311160327 
2376	 0.133303974451166 
2377	 0.133437758565181 
2378	 0.133526553271412 
2379	 0.133470803007625 
2380	 0.133456092702865 
2381	 0.133400753122488 
2382	 0.133354110041085 
2383	 0.133306626974879 
2384	 0.133271845348673 
2385	 0.133235382953363 
2386	 0.133194068049528 
2387	 0.133140983461672 
2388	 0.133110770912065 
2389	 0.133101205603865 
2390	 0.133055996552594 
2391	 0.133008289689482 
2392	 0.132959860430465 
2393	 0.132885242448503 
2394	 0.132831903896857 
2395	 0.132795571461733 
2396	 0.132748070116461 
2397	 0.132654096162797 
2398	 0.13266817874643 
2399	 0.13278742096827 
2400	 0.132776182707127 
2401	 0.132771081896163 
2402	 0.132732710824342 
2403	 0.132617545640159 
2404	 0.13267148681506 
2405	 0.132761371072732 
2406	 0.13282067686334 
2407	 0.133014732540854 
2408	 0.133245874967115 
2409	 0.133420725681532 
2410	 0.133529577505165 
2411	 0.133510092685902 
2412	 0.133486852590262 
2413	 0.133506100828751 
2414	 0.133548284033419 
2415	 0.133699779256605 
2416	 0.133743574074587 
2417	 0.133662304962308 
2418	 0.133673146338861 
2419	 0.13368795825765 
2420	 0.133747663130953 
2421	 0.133865444430354 
2422	 0.133907929746149 
2423	 0.133864949635404 
2424	 0.133821357842238 
2425	 0.133803305927363 
2426	 0.13377306418305 
2427	 0.133808831727147 
2428	 0.133826978003814 
2429	 0.133723093025099 
2430	 0.133578863742755 
2431	 0.133432228116522 
2432	 0.133273193383987 
2433	 0.133185913950228 
2434	 0.133121961646152 
2435	 0.132998753210008 
2436	 0.132898195580125 
2437	 0.132739369931976 
2438	 0.132580693854049 
2439	 0.132420041364434 
2440	 0.132105944608086 
2441	 0.131734730022687 
2442	 0.131424385924125 
2443	 0.131182513938659 
2444	 0.130984837823626 
2445	 0.130827340687884 
2446	 0.130544742841961 
2447	 0.130151407562973 
2448	 0.129801680341931 
2449	 0.12943144679075 
2450	 0.129098444299915 
2451	 0.128836381377868 
2452	 0.128556161870764 
2453	 0.128220865350803 
2454	 0.127904357440176 
2455	 0.127585976638067 
2456	 0.127189990964122 
2457	 0.12687758785522 
2458	 0.12664543872558 
2459	 0.126380416965906 
2460	 0.12619120742876 
2461	 0.12600255858481 
2462	 0.125780685709163 
2463	 0.125570178192719 
2464	 0.125342617660743 
2465	 0.125214180949271 
2466	 0.125014371064921 
2467	 0.124873565827136 
2468	 0.124793790720316 
2469	 0.124673839917059 
2470	 0.124792482410495 
2471	 0.124819190740733 
2472	 0.124946517919639 
2473	 0.125110334875613 
2474	 0.124902879350405 
2475	 0.12489443384621 
2476	 0.124974956827632 
2477	 0.125081862480693 
2478	 0.125490872802347 
2479	 0.125922792370615 
2480	 0.12598118470256 
2481	 0.126056262907526 
2482	 0.126078631295449 
2483	 0.126032913745504 
2484	 0.12620917319962 
2485	 0.126498745555049 
2486	 0.126665437248387 
2487	 0.126937240527275 
2488	 0.127338707489656 
2489	 0.12761232363467 
2490	 0.12789492775821 
2491	 0.128201490334425 
2492	 0.128266955746958 
2493	 0.128381595162769 
2494	 0.128687470167871 
2495	 0.128991089440698 
2496	 0.129239200835035 
2497	 0.129575704448282 
2498	 0.129761034403637 
2499	 0.129702462145863 
2500	 0.129968440481271 
