Wavelength	spectrum00010.asd
350	 2.81829468131076E-02 
351	 2.60443414754816E-02 
352	 2.31829819474472E-02 
353	 2.26043322336926E-02 
354	 2.19117932264285E-02 
355	 2.25106150019469E-02 
356	 2.37252204829896E-02 
357	 2.42770375637829E-02 
358	 2.21893600944071E-02 
359	 2.13115558934722E-02 
360	 0.02186155521553 
361	 2.21678742815541E-02 
362	 2.27519441577801E-02 
363	 2.15748087491178E-02 
364	 1.92316620786748E-02 
365	 1.98888984132378E-02 
366	 0.022053896412996 
367	 2.27791112272363E-02 
368	 2.08361801574283E-02 
369	 2.15180365398171E-02 
370	 2.23813433233858E-02 
371	 0.022217943330559 
372	 2.09922423424041E-02 
373	 2.17744236849987E-02 
374	 2.30557889406828E-02 
375	 2.34923063733192E-02 
376	 0.022729627490145 
377	 2.25814693890381E-02 
378	 2.23283559969561E-02 
379	 2.12976816335647E-02 
380	 2.13663314510697E-02 
381	 2.20803720351641E-02 
382	 2.26992225823882E-02 
383	 2.24651932716151E-02 
384	 2.18750045924531E-02 
385	 2.17683953935263E-02 
386	 2.21124400316125E-02 
387	 0.021538932586378 
388	 2.11151016804502E-02 
389	 2.16006894923485E-02 
390	 2.29290896259879E-02 
391	 2.25334270002757E-02 
392	 2.19761899570326E-02 
393	 2.17653414822185E-02 
394	 2.16578871012109E-02 
395	 2.20848840424757E-02 
396	 0.022461959105049 
397	 0.022391685919449 
398	 2.19184155124498E-02 
399	 2.21318797435797E-02 
400	 2.24180032345032E-02 
401	 2.20165594392406E-02 
402	 2.17580723623742E-02 
403	 2.20022437150088E-02 
404	 0.022390265825384 
405	 2.21479626188335E-02 
406	 2.22513424992493E-02 
407	 2.23517293466332E-02 
408	 2.22709525459273E-02 
409	 2.25952916042186E-02 
410	 2.24437448663933E-02 
411	 2.21163828322863E-02 
412	 2.21919384484534E-02 
413	 2.25949810112232E-02 
414	 2.25573626165374E-02 
415	 2.22047242106356E-02 
416	 2.24264338937224E-02 
417	 2.23346215922613E-02 
418	 2.23083915803904E-02 
419	 2.25442964562642E-02 
420	 2.22604375547793E-02 
421	 2.21788687421192E-02 
422	 2.23534610642332E-02 
423	 2.25377490784801E-02 
424	 2.25522609316682E-02 
425	 2.23581964802155E-02 
426	 0.0221628635175 
427	 2.24181352916374E-02 
428	 2.24967640702698E-02 
429	 2.24584924040864E-02 
430	 2.24406871618803E-02 
431	 2.22813907687791E-02 
432	 0.02230218893768 
433	 2.23938560836753E-02 
434	 0.022262030006218 
435	 2.23608672837399E-02 
436	 2.24161225573195E-02 
437	 0.02232690348001 
438	 2.23887410274373E-02 
439	 2.24019958578815E-02 
440	 2.24573944761331E-02 
441	 2.26214308746066E-02 
442	 2.25054088530153E-02 
443	 2.24284790743917E-02 
444	 2.24862254813984E-02 
445	 2.25663797577396E-02 
446	 2.25287112248287E-02 
447	 2.25166813236932E-02 
448	 2.26022212106623E-02 
449	 2.25916403675593E-02 
450	 2.25755790318806E-02 
451	 2.26111963812463E-02 
452	 2.27139994070071E-02 
453	 2.27191431425935E-02 
454	 2.27209315302144E-02 
455	 2.27494819097852E-02 
456	 2.27444314932673E-02 
457	 2.27698289568465E-02 
458	 2.27943328211607E-02 
459	 2.28060093844127E-02 
460	 2.29263382557396E-02 
461	 0.023003889343015 
462	 2.29403169829312E-02 
463	 2.27212716634005E-02 
464	 2.27145111226959E-02 
465	 2.28340135467538E-02 
466	 2.29362662896397E-02 
467	 2.28762066901389E-02 
468	 2.28503062292488E-02 
469	 2.28026900611275E-02 
470	 2.26951269269027E-02 
471	 0.022908083613899 
472	 0.022928138963931 
473	 2.28071996786738E-02 
474	 2.30257162535328E-02 
475	 2.30700248732401E-02 
476	 0.02300955033086 
477	 2.29670554591608E-02 
478	 2.29655471881118E-02 
479	 2.29732746595174E-02 
480	 2.29939181596204E-02 
481	 2.30349534666033E-02 
482	 2.30447872502139E-02 
483	 2.30431593417491E-02 
484	 2.30430647647575E-02 
485	 2.30432568707091E-02 
486	 2.30568871311774E-02 
487	 2.30725005775015E-02 
488	 2.30928433559434E-02 
489	 2.31903715204706E-02 
490	 2.32601747932848E-02 
491	 0.023285496939348 
492	 2.33042338084303E-02 
493	 2.33200356607632E-02 
494	 2.33094698769028E-02 
495	 2.32938645531316E-02 
496	 2.33758748491912E-02 
497	 2.34863105626964E-02 
498	 2.35230880658023E-02 
499	 2.34372351811801E-02 
500	 2.34530403819069E-02 
501	 2.34948503572021E-02 
502	 2.35077487146046E-02 
503	 2.34742460147124E-02 
504	 2.35280746203537E-02 
505	 0.023565903436374 
506	 2.35315582816183E-02 
507	 2.35953564964544E-02 
508	 2.36177907633056E-02 
509	 2.36188106129475E-02 
510	 2.36706651627115E-02 
511	 2.36761955121024E-02 
512	 2.36964396337325E-02 
513	 2.37624655606359E-02 
514	 2.38527438510581E-02 
515	 2.37861738851005E-02 
516	 2.37048621375725E-02 
517	 2.37684912144224E-02 
518	 0.02389703994727 
519	 2.39347615806356E-02 
520	 2.38956789498039E-02 
521	 2.39117064237967E-02 
522	 2.39913584307252E-02 
523	 2.40296502104208E-02 
524	 0.023997760482473 
525	 2.40498052347932E-02 
526	 2.41117930727755E-02 
527	 0.024156143310904 
528	 2.41738529048668E-02 
529	 2.41731741921985E-02 
530	 2.41948386542221E-02 
531	 2.42490331299458E-02 
532	 2.43115277573078E-02 
533	 2.43607428603931E-02 
534	 2.43884127407889E-02 
535	 2.44033245215079E-02 
536	 2.44452724833614E-02 
537	 2.45276901348149E-02 
538	 2.46074438757452E-02 
539	 2.46230439448501E-02 
540	 2.46521942255066E-02 
541	 0.024737734620486 
542	 2.48570810044499E-02 
543	 2.48921911638591E-02 
544	 0.024901717970153 
545	 2.49223357743964E-02 
546	 2.49797996901922E-02 
547	 2.50766074492001E-02 
548	 2.51750516798622E-02 
549	 2.52481374560004E-02 
550	 2.52843865233043E-02 
551	 2.53518151594234E-02 
552	 0.025429185118966 
553	 2.54896256355397E-02 
554	 2.55329574165848E-02 
555	 2.56070397900832E-02 
556	 2.56977561256411E-02 
557	 2.57679297292113E-02 
558	 0.025859383151749 
559	 0.025961064109689 
560	 2.60545963923981E-02 
561	 2.61185742928118E-02 
562	 2.61826237055369E-02 
563	 2.62693771209653E-02 
564	 2.63788768629031E-02 
565	 2.64371722555571E-02 
566	 2.65008400111247E-02 
567	 2.65752756311266E-02 
568	 2.66272904457243E-02 
569	 2.66763617903743E-02 
570	 2.67321661962985E-02 
571	 2.67980731560705E-02 
572	 0.026866332247482 
573	 2.69532828910339E-02 
574	 2.70408481202015E-02 
575	 2.71077129024444E-02 
576	 2.72042280123041E-02 
577	 2.72642230203927E-02 
578	 2.72949699944694E-02 
579	 2.73923588522013E-02 
580	 2.74541382171849E-02 
581	 2.75090972614269E-02 
582	 2.75908479344294E-02 
583	 2.76466916297488E-02 
584	 2.77379247485242E-02 
585	 2.78419102646925E-02 
586	 0.027896169620182 
587	 2.79672522116292E-02 
588	 2.80663953775487E-02 
589	 2.81730718277268E-02 
590	 2.82265829439717E-02 
591	 2.82832800225454E-02 
592	 2.83401338289264E-02 
593	 2.83818827821303E-02 
594	 2.84210529563466E-02 
595	 2.84726275545219E-02 
596	 2.85236520060285E-02 
597	 2.85420557333006E-02 
598	 2.86142207277973E-02 
599	 2.86953346690107E-02 
600	 2.87439809239783E-02 
601	 2.87820211466037E-02 
602	 2.88375907386055E-02 
603	 2.89054890439401E-02 
604	 2.89644041359142E-02 
605	 2.90025282606671E-02 
606	 2.90626474018426E-02 
607	 2.91503615226693E-02 
608	 2.92204506435827E-02 
609	 2.92374003416305E-02 
610	 2.92658998827269E-02 
611	 2.93569122624293E-02 
612	 2.94302003843396E-02 
613	 2.94780408926539E-02 
614	 2.95002913804853E-02 
615	 2.95074247172885E-02 
616	 2.95427815586519E-02 
617	 0.029612176208414 
618	 2.96930686910398E-02 
619	 2.97232253179182E-02 
620	 2.97557264062465E-02 
621	 2.97972154478537E-02 
622	 2.98376317139787E-02 
623	 2.98620685213381E-02 
624	 2.98966890031834E-02 
625	 2.99486584740925E-02 
626	 3.00044119665097E-02 
627	 3.00373451402276E-02 
628	 3.00612174136426E-02 
629	 3.00964444006252E-02 
630	 3.01639658533525E-02 
631	 3.01953272360002E-02 
632	 3.02213152173714E-02 
633	 3.02979866224422E-02 
634	 3.03163290880714E-02 
635	 3.03315459383199E-02 
636	 3.03738211659837E-02 
637	 3.04243791410849E-02 
638	 3.04560703120956E-02 
639	 3.04850854204094E-02 
640	 0.030524975641539 
641	 3.05378390739763E-02 
642	 3.05673110825724E-02 
643	 3.06236049610977E-02 
644	 3.06909986477176E-02 
645	 3.07342648646764E-02 
646	 3.07403950480892E-02 
647	 3.07389822548724E-02 
648	 3.08252235406427E-02 
649	 3.08707500921688E-02 
650	 3.08818129232291E-02 
651	 0.030901992449346 
652	 3.09399175875389E-02 
653	 3.09779750028998E-02 
654	 0.0310098765139 
655	 3.10407290083574E-02 
656	 3.10875751437326E-02 
657	 3.11433103423079E-02 
658	 3.11927905247319E-02 
659	 3.12107079948069E-02 
660	 3.12325846855208E-02 
661	 3.12801590702076E-02 
662	 3.13536540709064E-02 
663	 3.13752625409806E-02 
664	 3.13782458596092E-02 
665	 3.14064521543126E-02 
666	 0.031499891528383 
667	 3.15202709950317E-02 
668	 3.15193653120434E-02 
669	 3.15565573610632E-02 
670	 3.16088017100763E-02 
671	 3.16529217202371E-02 
672	 3.16809737957158E-02 
673	 3.17010904595638E-02 
674	 3.17660626508293E-02 
675	 3.18217619462754E-02 
676	 3.18493633164257E-02 
677	 3.18834893072278E-02 
678	 3.19228371681522E-02 
679	 3.19687287300299E-02 
680	 3.20155257932838E-02 
681	 3.20358242490328E-02 
682	 3.20701491324337E-02 
683	 3.21096476063838E-02 
684	 3.21252084266678E-02 
685	 3.21651575821684E-02 
686	 3.22003147910718E-02 
687	 0.032228701511717 
688	 3.22978578246144E-02 
689	 3.23398762667674E-02 
690	 3.23539282588736E-02 
691	 3.23673220683915E-02 
692	 0.032438845875478 
693	 3.24823833193075E-02 
694	 3.25025169351198E-02 
695	 3.25545343463108E-02 
696	 3.25726685575261E-02 
697	 3.26016383929324E-02 
698	 3.26577200816364E-02 
699	 3.26922406999927E-02 
700	 3.27460380067956E-02 
701	 3.27966971704721E-02 
702	 3.28186062356281E-02 
703	 0.032838769995045 
704	 3.28904103476328E-02 
705	 3.29486657650004E-02 
706	 0.032958793634383 
707	 3.30046375828736E-02 
708	 3.30484485789963E-02 
709	 3.30736915802763E-02 
710	 3.31270031236982E-02 
711	 3.31601229492257E-02 
712	 3.31861613627559E-02 
713	 3.32287515637736E-02 
714	 3.32775290026252E-02 
715	 3.33146837921892E-02 
716	 0.033345471881155 
717	 0.033390459113415 
718	 3.34437017734272E-02 
719	 3.34871302747243E-02 
720	 3.35167714541505E-02 
721	 3.35544717556299E-02 
722	 3.35952861268753E-02 
723	 3.36396718917227E-02 
724	 3.36879238951156E-02 
725	 3.37370983754402E-02 
726	 3.37781841395307E-02 
727	 3.38180181424902E-02 
728	 3.38716343484231E-02 
729	 3.39149607546628E-02 
730	 3.39461734304106E-02 
731	 0.033978009040566 
732	 3.40423620287037E-02 
733	 0.034084316363567 
734	 3.41204804489049E-02 
735	 3.41739947003534E-02 
736	 3.42052389187126E-02 
737	 3.42571570001908E-02 
738	 3.43115487416278E-02 
739	 3.43223359893938E-02 
740	 3.43935781925927E-02 
741	 3.44639268745782E-02 
742	 0.034497446251511 
743	 3.45262799356528E-02 
744	 3.45739715901497E-02 
745	 3.46242565082126E-02 
746	 3.46611421838968E-02 
747	 3.47127010656293E-02 
748	 0.03476014672727 
749	 3.48000718556431E-02 
750	 3.48387967875652E-02 
751	 3.48776395331509E-02 
752	 3.49385356808286E-02 
753	 3.50121229218243E-02 
754	 0.035048395881291 
755	 3.50836045641845E-02 
756	 0.035131134735544 
757	 3.51879014656586E-02 
758	 3.52187140367929E-02 
759	 3.52584683573082E-02 
760	 3.52988158070737E-02 
761	 3.53212958294467E-02 
762	 3.53833230470824E-02 
763	 3.54399901810376E-02 
764	 3.54726909349193E-02 
765	 3.55005699422524E-02 
766	 3.55516063233908E-02 
767	 3.55938021414551E-02 
768	 3.56188084226376E-02 
769	 3.57067675738414E-02 
770	 3.57537067106644E-02 
771	 3.57733466386938E-02 
772	 3.58154236886896E-02 
773	 3.58737559499287E-02 
774	 3.59194245817064E-02 
775	 3.59480510418164E-02 
776	 3.59777821986672E-02 
777	 3.60231889939339E-02 
778	 3.60847148301553E-02 
779	 3.61469775279917E-02 
780	 3.61730910485062E-02 
781	 3.62060804103269E-02 
782	 3.62486427540877E-02 
783	 3.62924142911977E-02 
784	 3.63318609919496E-02 
785	 3.63960929181148E-02 
786	 3.64590250980221E-02 
787	 3.64752442042064E-02 
788	 0.036509779826338 
789	 3.65443700005697E-02 
790	 3.65787712710919E-02 
791	 0.036641110315197 
792	 3.66992397817591E-02 
793	 3.67357565790277E-02 
794	 0.036754378635956 
795	 3.67997127532285E-02 
796	 3.68502924289934E-02 
797	 3.68995234802362E-02 
798	 3.69416456693884E-02 
799	 3.69487819621363E-02 
800	 3.69872438080609E-02 
801	 3.70453951413117E-02 
802	 3.70579612988267E-02 
803	 3.70996449503686E-02 
804	 3.71375716569408E-02 
805	 3.71636755252934E-02 
806	 3.72270784401019E-02 
807	 0.037272426669115 
808	 3.72988521116424E-02 
809	 3.73214086488937E-02 
810	 3.73559486920694E-02 
811	 0.037404796109376 
812	 3.74468524475083E-02 
813	 3.74616620746327E-02 
814	 3.74951147424157E-02 
815	 3.75388514548784E-02 
816	 3.75813613792924E-02 
817	 3.76140247088603E-02 
818	 3.76639842369954E-02 
819	 3.77045488784998E-02 
820	 3.77239711206649E-02 
821	 3.77475538479459E-02 
822	 3.77886076096777E-02 
823	 3.78406296189048E-02 
824	 3.78901405300476E-02 
825	 3.79249771818414E-02 
826	 3.79455417676442E-02 
827	 3.79744337743719E-02 
828	 3.80321664274427E-02 
829	 3.80667641354806E-02 
830	 0.038104891038057 
831	 0.038149679435071 
832	 3.81808004228769E-02 
833	 3.81998400263884E-02 
834	 0.038237530967394 
835	 0.038298197103073 
836	 0.038340452422401 
837	 3.83811345666982E-02 
838	 0.038420550964719 
839	 0.038460330649323 
840	 3.85206793159323E-02 
841	 3.85367112992821E-02 
842	 3.85373963342824E-02 
843	 3.85776240706965E-02 
844	 3.86310804630881E-02 
845	 0.03866045681292 
846	 0.038676625467931 
847	 0.038721476851725 
848	 3.87751113079728E-02 
849	 3.87835405415624E-02 
850	 3.87619247700668E-02 
851	 3.88097263593524E-02 
852	 3.88636604273981E-02 
853	 3.88951181269677E-02 
854	 3.89083541523436E-02 
855	 3.89632314190148E-02 
856	 3.89891870192018E-02 
857	 3.89951754310323E-02 
858	 3.90117801496296E-02 
859	 3.90495569877171E-02 
860	 0.039073774548909 
861	 3.91015239086321E-02 
862	 3.91628328999379E-02 
863	 3.91942162534064E-02 
864	 0.039208000175416 
865	 3.92319585376844E-02 
866	 3.92934032199435E-02 
867	 3.93251718558091E-02 
868	 0.039359624567128 
869	 3.94015958219791E-02 
870	 3.94029424002563E-02 
871	 3.94628331343324E-02 
872	 3.95109963247583E-02 
873	 3.95046674118454E-02 
874	 3.95441438101468E-02 
875	 3.95886861148182E-02 
876	 3.96215977242386E-02 
877	 3.96441256052959E-02 
878	 3.96962910681798E-02 
879	 3.97447957558347E-02 
880	 3.97886459901495E-02 
881	 3.98403492277626E-02 
882	 3.98926453841267E-02 
883	 0.039927451504335 
884	 3.99517448049139E-02 
885	 3.99889458113441E-02 
886	 4.00262590171495E-02 
887	 4.00433275381782E-02 
888	 4.00516870065046E-02 
889	 4.00956786104076E-02 
890	 4.01382435485512E-02 
891	 4.01811534253209E-02 
892	 4.02246746470282E-02 
893	 0.040255017540771 
894	 4.03261758239377E-02 
895	 4.03898661065488E-02 
896	 4.04064830918841E-02 
897	 4.04249816078729E-02 
898	 4.04720055472455E-02 
899	 4.05123254367534E-02 
900	 4.05204322103152E-02 
901	 4.06046708857944E-02 
902	 4.06236562731179E-02 
903	 4.06161624172508E-02 
904	 4.06821487828487E-02 
905	 4.07086673618304E-02 
906	 4.07651546118361E-02 
907	 4.08425932330062E-02 
908	 4.08742075749246E-02 
909	 4.08572129265048E-02 
910	 4.08764783917614E-02 
911	 4.09513527254853E-02 
912	 4.10243791332828E-02 
913	 4.10676816201951E-02 
914	 4.11081274096957E-02 
915	 4.11664108700697E-02 
916	 4.12383441861541E-02 
917	 4.12575950978928E-02 
918	 4.12833407308046E-02 
919	 4.13538250615959E-02 
920	 4.14198679254864E-02 
921	 4.14631499310703E-02 
922	 4.14831925237137E-02 
923	 4.15004696044039E-02 
924	 4.15688702820985E-02 
925	 4.16376115859509E-02 
926	 4.16851116273722E-02 
927	 4.17103457574762E-02 
928	 4.17402571860961E-02 
929	 4.17931486515003E-02 
930	 4.18658683824136E-02 
931	 4.19372713725148E-02 
932	 4.19598639893621E-02 
933	 0.041999605066995 
934	 4.20708854671327E-02 
935	 4.21480158832742E-02 
936	 4.21728526619066E-02 
937	 4.22417806423208E-02 
938	 4.23271869532696E-02 
939	 4.23370921260623E-02 
940	 4.24014556169832E-02 
941	 4.24776522477677E-02 
942	 4.25339950691032E-02 
943	 0.042571276241449 
944	 4.26641543388196E-02 
945	 4.27358569311205E-02 
946	 0.042782082475335 
947	 4.28791900538217E-02 
948	 4.29097037491858E-02 
949	 4.29292879096919E-02 
950	 4.29676835538629E-02 
951	 4.29922540284693E-02 
952	 4.30419567145172E-02 
953	 4.31279390052319E-02 
954	 4.32279492075219E-02 
955	 4.32844980714893E-02 
956	 4.33232275673592E-02 
957	 0.04339327587659 
958	 4.34934938064936E-02 
959	 4.35336476284287E-02 
960	 4.35833000419097E-02 
961	 4.36358993912396E-02 
962	 4.36910725841088E-02 
963	 0.043793974254092 
964	 4.38586368992294E-02 
965	 4.39092259887954E-02 
966	 4.39809163627254E-02 
967	 4.40648572401132E-02 
968	 0.044104111107975 
969	 4.41325979866124E-02 
970	 4.41907488207285E-02 
971	 4.42647753808139E-02 
972	 4.42974750887129E-02 
973	 4.43310690291743E-02 
974	 4.44053672549618E-02 
975	 0.044463696036125 
976	 4.44896018138587E-02 
977	 4.45370965171777E-02 
978	 0.044641429880903 
979	 4.47117361939005E-02 
980	 4.47481182529199E-02 
981	 4.48064280250642E-02 
982	 4.49143796034182E-02 
983	 4.49407184684006E-02 
984	 4.50156611101009E-02 
985	 4.51454714612768E-02 
986	 4.52758608347198E-02 
987	 4.53181856987493E-02 
988	 4.53742438204289E-02 
989	 4.54356810236101E-02 
990	 4.54709507753751E-02 
991	 4.55121713259323E-02 
992	 4.56021446923527E-02 
993	 4.56544913670987E-02 
994	 0.045633807298145 
995	 4.58403640813048E-02 
996	 4.59681172364268E-02 
997	 4.59865106719571E-02 
998	 4.59909205892037E-02 
999	 4.61163158940488E-02 
1000	 4.61569682015385E-02 
1001	 0.047512816712134 
1002	 4.75689300869689E-02 
1003	 4.76400220258114E-02 
1004	 4.77102865866667E-02 
1005	 0.047774111892396 
1006	 4.78372087734079E-02 
1007	 0.047898652781195 
1008	 4.79751692494372E-02 
1009	 4.80424520275603E-02 
1010	 4.81183054283897E-02 
1011	 4.82285568359974E-02 
1012	 4.83225464330159E-02 
1013	 4.84080150005352E-02 
1014	 4.84901800578198E-02 
1015	 4.85773037835953E-02 
1016	 4.86389094408804E-02 
1017	 4.87156452844562E-02 
1018	 4.87791201209559E-02 
1019	 4.88274227294686E-02 
1020	 4.89121024700847E-02 
1021	 4.89994479314246E-02 
1022	 4.91021283460429E-02 
1023	 0.049175185313933 
1024	 4.92431505917356E-02 
1025	 4.93207984102579E-02 
1026	 4.93842284662547E-02 
1027	 4.94583477884075E-02 
1028	 4.95468287265655E-02 
1029	 4.96464527164457E-02 
1030	 4.97271782720957E-02 
1031	 4.97788103366298E-02 
1032	 4.98590711505128E-02 
1033	 4.99206017965385E-02 
1034	 4.99852978041581E-02 
1035	 5.00512661436392E-02 
1036	 5.00993745713536E-02 
1037	 5.01295294264478E-02 
1038	 5.01900834849065E-02 
1039	 5.02427240083843E-02 
1040	 5.03046322793199E-02 
1041	 5.04002427797026E-02 
1042	 5.04661831056236E-02 
1043	 5.04944510726216E-02 
1044	 5.05854666985458E-02 
1045	 5.06767344107363E-02 
1046	 5.07467777664327E-02 
1047	 5.08324762694782E-02 
1048	 5.09190719181605E-02 
1049	 5.09933461816732E-02 
1050	 5.10644440035069E-02 
1051	 5.11511914641226E-02 
1052	 5.12082820884729E-02 
1053	 5.12807630654934E-02 
1054	 5.13540327336528E-02 
1055	 5.14396739843447E-02 
1056	 5.15402423046864E-02 
1057	 5.16387244281445E-02 
1058	 5.17434404667256E-02 
1059	 5.18283792256357E-02 
1060	 5.19301435445122E-02 
1061	 5.20309097347543E-02 
1062	 5.21192249090059E-02 
1063	 5.22099767927406E-02 
1064	 5.22954349781495E-02 
1065	 5.23735273159066E-02 
1066	 5.24332781364352E-02 
1067	 5.25119938131032E-02 
1068	 5.26151111485829E-02 
1069	 5.26870771885161E-02 
1070	 5.27890739990125E-02 
1071	 5.29194060786485E-02 
1072	 5.30548706789513E-02 
1073	 5.31385137805047E-02 
1074	 5.32387177781775E-02 
1075	 5.33116192605266E-02 
1076	 5.33502336129499E-02 
1077	 5.34239828926704E-02 
1078	 5.35041149381857E-02 
1079	 5.35918415802554E-02 
1080	 5.37020572678312E-02 
1081	 5.37887322384125E-02 
1082	 5.38768755222949E-02 
1083	 5.40036344934714E-02 
1084	 0.054096365652235 
1085	 5.41674754886972E-02 
1086	 5.42595420477089E-02 
1087	 5.43661446716661E-02 
1088	 5.44291245768166E-02 
1089	 5.44996496425524E-02 
1090	 5.46112572500122E-02 
1091	 5.47008705924594E-02 
1092	 5.47953171074774E-02 
1093	 5.48971219897899E-02 
1094	 5.49797068321174E-02 
1095	 5.50670399627237E-02 
1096	 5.51510958279281E-02 
1097	 5.52285847336004E-02 
1098	 5.52946061638612E-02 
1099	 5.53387876320077E-02 
1100	 5.53999997486312E-02 
1101	 5.54789360512461E-02 
1102	 5.55781932580241E-02 
1103	 5.56676204159549E-02 
1104	 5.57713777408387E-02 
1105	 5.58501468666967E-02 
1106	 5.59407364777908E-02 
1107	 0.056022882509878 
1108	 5.61091441887874E-02 
1109	 0.056197465443776 
1110	 5.62452029013059E-02 
1111	 5.62914127345066E-02 
1112	 5.63642257346493E-02 
1113	 5.64434100639023E-02 
1114	 5.65259558159416E-02 
1115	 5.66135741075462E-02 
1116	 5.66940237768625E-02 
1117	 5.67759893493866E-02 
1118	 5.68542499685277E-02 
1119	 0.056940477770061 
1120	 5.70150370047872E-02 
1121	 5.70834791819702E-02 
1122	 0.057134805022784 
1123	 5.72044159733157E-02 
1124	 5.72904265118723E-02 
1125	 5.73607498885047E-02 
1126	 5.74275979716351E-02 
1127	 5.75021723023808E-02 
1128	 5.75555352692565E-02 
1129	 0.057614396386371 
1130	 5.77145577624669E-02 
1131	 5.77902023959594E-02 
1132	 5.78432337078247E-02 
1133	 5.79165149035575E-02 
1134	 5.79820472982401E-02 
1135	 5.80501983587195E-02 
1136	 5.81285628657757E-02 
1137	 5.81999523288922E-02 
1138	 5.82691500424546E-02 
1139	 5.83361900681506E-02 
1140	 0.058400168628914 
1141	 5.84578814597533E-02 
1142	 5.85259280243172E-02 
1143	 5.85855471176339E-02 
1144	 5.86463364023926E-02 
1145	 5.87300356244687E-02 
1146	 5.88042985052465E-02 
1147	 5.88594655405183E-02 
1148	 5.89256322701579E-02 
1149	 5.89861507585176E-02 
1150	 5.90478513597046E-02 
1151	 5.91276650319519E-02 
1152	 5.91941258992439E-02 
1153	 5.92472532514635E-02 
1154	 5.93168683695395E-02 
1155	 0.059390773171663 
1156	 5.94614452321707E-02 
1157	 0.059538929638168 
1158	 5.96189233845122E-02 
1159	 5.97021847088013E-02 
1160	 5.97776071150742E-02 
1161	 5.98484732717191E-02 
1162	 5.99258523631057E-02 
1163	 5.99814595667044E-02 
1164	 6.00388170047284E-02 
1165	 6.01159663511301E-02 
1166	 6.01875080501968E-02 
1167	 6.02553593618998E-02 
1168	 6.03177446483243E-02 
1169	 6.03853519062778E-02 
1170	 6.04486584607616E-02 
1171	 6.05141836642663E-02 
1172	 0.060587438649871 
1173	 6.06590347120011E-02 
1174	 0.060729775657269 
1175	 6.07951104528424E-02 
1176	 6.08552591520883E-02 
1177	 6.09189646884809E-02 
1178	 6.09763501035985E-02 
1179	 6.10451959380629E-02 
1180	 6.11090848641855E-02 
1181	 6.11841895806516E-02 
1182	 6.12605177453321E-02 
1183	 6.13236125264145E-02 
1184	 6.14005758269604E-02 
1185	 6.14874650781111E-02 
1186	 6.15694544216566E-02 
1187	 6.16552985750426E-02 
1188	 6.17358698519059E-02 
1189	 6.18132484543374E-02 
1190	 6.18923958458482E-02 
1191	 6.19689946671563E-02 
1192	 6.20480505195141E-02 
1193	 6.21286039348592E-02 
1194	 6.22084855660501E-02 
1195	 6.22896451654591E-02 
1196	 6.23712862350901E-02 
1197	 6.24458244038084E-02 
1198	 0.062537498673678 
1199	 6.26302471078841E-02 
1200	 6.27151771683601E-02 
1201	 6.28149854528068E-02 
1202	 0.062895447915702 
1203	 6.29717191349695E-02 
1204	 0.063057884084251 
1205	 6.31443175313873E-02 
1206	 6.32363140416341E-02 
1207	 6.33210989367434E-02 
1208	 6.33969853401564E-02 
1209	 6.34907675536296E-02 
1210	 6.35941888231967E-02 
1211	 6.36857326785605E-02 
1212	 6.37840800691023E-02 
1213	 6.38799899542066E-02 
1214	 6.39610834819737E-02 
1215	 6.40519607630969E-02 
1216	 6.41630905506567E-02 
1217	 6.42564488725244E-02 
1218	 6.43428293478752E-02 
1219	 6.44159391660926E-02 
1220	 0.064496484006003 
1221	 6.45943484576799E-02 
1222	 6.46999489811918E-02 
1223	 6.48138319957437E-02 
1224	 6.49114645649022E-02 
1225	 6.49970279882316E-02 
1226	 6.50927975655168E-02 
1227	 6.51871798267608E-02 
1228	 6.52797942979727E-02 
1229	 6.53795209474277E-02 
1230	 6.54738998586339E-02 
1231	 6.55568312370946E-02 
1232	 6.56510023559292E-02 
1233	 6.57546859137098E-02 
1234	 6.58475981273715E-02 
1235	 6.59357580282092E-02 
1236	 0.066031159977372 
1237	 6.61291227469299E-02 
1238	 6.62212643124568E-02 
1239	 6.63157379607057E-02 
1240	 6.64058768940543E-02 
1241	 6.65032727472292E-02 
1242	 6.65990249564334E-02 
1243	 6.66895547064584E-02 
1244	 0.066789375559236 
1245	 0.0668740567808 
1246	 6.69395874317593E-02 
1247	 6.70218069754445E-02 
1248	 6.71085533317623E-02 
1249	 6.71961038885416E-02 
1250	 6.72926508806358E-02 
1251	 6.73748736587403E-02 
1252	 0.067441733163511 
1253	 6.75299742769633E-02 
1254	 6.76324791561956E-02 
1255	 6.77165659256479E-02 
1256	 6.78051411157401E-02 
1257	 0.06789068030448 
1258	 6.79485281519367E-02 
1259	 6.80246645514465E-02 
1260	 0.068128021395982 
1261	 0.06821465641725 
1262	 0.068289537752717 
1263	 6.83718384170593E-02 
1264	 6.84580028793808E-02 
1265	 6.85399845430152E-02 
1266	 6.86240448959969E-02 
1267	 0.068715980803752 
1268	 6.88079132771335E-02 
1269	 0.068902181657414 
1270	 0.068982901506233 
1271	 6.90583022208604E-02 
1272	 6.91427802027804E-02 
1273	 6.92133124444208E-02 
1274	 0.069299362835472 
1275	 6.94056631080966E-02 
1276	 6.95049729308136E-02 
1277	 0.069597900155169 
1278	 6.96997307032713E-02 
1279	 6.98157035627947E-02 
1280	 6.99206279353604E-02 
1281	 0.070013391423422 
1282	 7.01221533995333E-02 
1283	 7.02436825018293E-02 
1284	 7.03508156523145E-02 
1285	 7.04562255861498E-02 
1286	 7.05683523027385E-02 
1287	 7.06781560674394E-02 
1288	 7.07741900069558E-02 
1289	 7.08801235666357E-02 
1290	 7.09989638539513E-02 
1291	 7.11091396551497E-02 
1292	 7.12104615509923E-02 
1293	 0.071317442480677 
1294	 7.14334585982557E-02 
1295	 7.15370744591139E-02 
1296	 7.16258390954159E-02 
1297	 7.17325944173267E-02 
1298	 7.18383077950128E-02 
1299	 7.19537134412931E-02 
1300	 7.20954137459745E-02 
1301	 7.22146947145864E-02 
1302	 7.23262775144172E-02 
1303	 7.24367089221674E-02 
1304	 0.072534954359375 
1305	 7.26367965637277E-02 
1306	 0.072735988513672 
1307	 7.28414391749126E-02 
1308	 7.29532728581839E-02 
1309	 0.073060801157349 
1310	 7.31636620399437E-02 
1311	 7.32659862821464E-02 
1312	 7.33734633638462E-02 
1313	 7.34781923480883E-02 
1314	 7.35800765424653E-02 
1315	 0.073690390622311 
1316	 7.37895942604923E-02 
1317	 7.38729022592097E-02 
1318	 7.39694038793621E-02 
1319	 7.40774519498615E-02 
1320	 7.41685606549136E-02 
1321	 7.42542429455872E-02 
1322	 7.43395735381336E-02 
1323	 7.44032229190296E-02 
1324	 7.44926918677738E-02 
1325	 7.46085899045863E-02 
1326	 0.074701135553914 
1327	 7.47923309790433E-02 
1328	 7.48826053852423E-02 
1329	 7.49576874167709E-02 
1330	 7.50368998580026E-02 
1331	 0.075129529847417 
1332	 7.52092179018711E-02 
1333	 7.52749632584119E-02 
1334	 7.53413902719648E-02 
1335	 7.54170732764058E-02 
1336	 7.54936678343877E-02 
1337	 7.55679032258947E-02 
1338	 7.56512659784429E-02 
1339	 7.57219214591442E-02 
1340	 7.57793247162002E-02 
1341	 7.58495439795749E-02 
1342	 7.59232804392435E-02 
1343	 7.59949786979148E-02 
1344	 7.60728251999062E-02 
1345	 7.61427595465881E-02 
1346	 0.076205419132225 
1347	 7.62739171342872E-02 
1348	 7.63408781133937E-02 
1349	 0.076410869234522 
1350	 7.64872080408785E-02 
1351	 7.65584819360365E-02 
1352	 7.66317515879915E-02 
1353	 7.66983953835952E-02 
1354	 7.67547076887657E-02 
1355	 7.68202913985423E-02 
1356	 7.68874370721172E-02 
1357	 7.69535598197427E-02 
1358	 7.70246719394187E-02 
1359	 7.70953526972328E-02 
1360	 7.71594068679757E-02 
1361	 7.72324184507581E-02 
1362	 7.73042869486022E-02 
1363	 7.73769087000558E-02 
1364	 0.077445377251313 
1365	 7.75080625613455E-02 
1366	 7.75785392773483E-02 
1367	 7.76531907947422E-02 
1368	 7.77202974774782E-02 
1369	 7.77893340584214E-02 
1370	 7.78543362526282E-02 
1371	 0.07790800052992 
1372	 7.79730808116413E-02 
1373	 7.80494910618879E-02 
1374	 7.81106542710597E-02 
1375	 7.81654642157995E-02 
1376	 7.82271925391671E-02 
1377	 7.82792968243885E-02 
1378	 7.83431148214828E-02 
1379	 7.84179958436329E-02 
1380	 7.84926835331825E-02 
1381	 7.85772481406391E-02 
1382	 0.078650663711086 
1383	 7.87230823393774E-02 
1384	 7.87923069382442E-02 
1385	 7.88435032712771E-02 
1386	 7.89097231769058E-02 
1387	 7.89854620846337E-02 
1388	 7.90589908092647E-02 
1389	 7.91429531890872E-02 
1390	 7.92185600679363E-02 
1391	 7.92882532768318E-02 
1392	 7.93591049830824E-02 
1393	 0.0794165696924 
1394	 7.94810247372913E-02 
1395	 7.95443992846327E-02 
1396	 0.079605823650363 
1397	 7.96661027485068E-02 
1398	 0.079728323806036 
1399	 7.97882065876049E-02 
1400	 7.98464291043891E-02 
1401	 7.99012990377978E-02 
1402	 7.99577934170307E-02 
1403	 8.00079815845845E-02 
1404	 8.00471368069523E-02 
1405	 8.00939802237732E-02 
1406	 8.01491300938525E-02 
1407	 8.01884056187987E-02 
1408	 8.02184816319982E-02 
1409	 8.02569788590189E-02 
1410	 0.080286394515522 
1411	 8.03233785673285E-02 
1412	 0.080371007171067 
1413	 8.04160914689261E-02 
1414	 8.04582342414808E-02 
1415	 8.05049056506655E-02 
1416	 8.05528098644881E-02 
1417	 0.080607402240934 
1418	 8.06635215453426E-02 
1419	 8.07266060200054E-02 
1420	 8.07991247244651E-02 
1421	 8.08736908490884E-02 
1422	 8.09561993412883E-02 
1423	 8.10360075350339E-02 
1424	 8.11147364345828E-02 
1425	 8.11992136258532E-02 
1426	 8.12786504714667E-02 
1427	 8.13593224227324E-02 
1428	 8.14437800843036E-02 
1429	 8.15236757318245E-02 
1430	 8.16095189688612E-02 
1431	 8.16955657291636E-02 
1432	 0.081789045868517 
1433	 8.18909111711519E-02 
1434	 0.081986112201073 
1435	 8.20811364998168E-02 
1436	 8.21820563646927E-02 
1437	 8.22802854048516E-02 
1438	 8.23845414935766E-02 
1439	 8.25016232167652E-02 
1440	 8.26075834734374E-02 
1441	 8.27061927727474E-02 
1442	 0.082813655152805 
1443	 8.29210386416546E-02 
1444	 8.30326072436483E-02 
1445	 8.31548278859075E-02 
1446	 8.32684075110845E-02 
1447	 8.33737968394939E-02 
1448	 8.34887413373398E-02 
1449	 8.36072728822551E-02 
1450	 0.083724854410662 
1451	 8.38501007810851E-02 
1452	 8.39719523840209E-02 
1453	 8.40865194171411E-02 
1454	 0.084206607143143 
1455	 8.43345743265278E-02 
1456	 8.44545139964638E-02 
1457	 0.084566812053282 
1458	 8.46894580405307E-02 
1459	 8.48133429420639E-02 
1460	 8.49385542877888E-02 
1461	 8.50765870993207E-02 
1462	 8.52057047878904E-02 
1463	 8.53269932560505E-02 
1464	 8.54506806617955E-02 
1465	 0.085568573304436 
1466	 0.085697518844171 
1467	 8.58221398485694E-02 
1468	 8.59375857007256E-02 
1469	 8.60516908949509E-02 
1470	 8.61590772750024E-02 
1471	 0.086277541864111 
1472	 8.63991242018646E-02 
1473	 8.65195876228893E-02 
1474	 0.086646548047138 
1475	 8.67688522004623E-02 
1476	 8.68855011276757E-02 
1477	 8.70106054536418E-02 
1478	 8.71404718588111E-02 
1479	 8.72659385279474E-02 
1480	 8.73936986304895E-02 
1481	 8.75173008745792E-02 
1482	 8.76343879191832E-02 
1483	 8.77614541313929E-02 
1484	 8.78950126051943E-02 
1485	 8.80218442263738E-02 
1486	 8.81517616373568E-02 
1487	 8.82748680685904E-02 
1488	 8.83852058910171E-02 
1489	 8.85088892610038E-02 
1490	 8.86412339281243E-02 
1491	 8.87661040552727E-02 
1492	 8.88924642595095E-02 
1493	 8.90182507937777E-02 
1494	 8.91374546801643E-02 
1495	 8.92594668719862E-02 
1496	 8.93854007772672E-02 
1497	 8.95113009520531E-02 
1498	 8.96404362123075E-02 
1499	 8.97621274908354E-02 
1500	 8.98755509650803E-02 
1501	 8.99988581649447E-02 
1502	 9.01219861778513E-02 
1503	 9.02452390031407E-02 
1504	 9.03805992896825E-02 
1505	 9.05081353090335E-02 
1506	 0.090628693573537 
1507	 9.07483459269786E-02 
1508	 9.08627440665757E-02 
1509	 9.09835264900825E-02 
1510	 9.11069457737504E-02 
1511	 9.12268598617551E-02 
1512	 9.13508578761204E-02 
1513	 0.091471744477407 
1514	 9.15851335451686E-02 
1515	 9.17022664392291E-02 
1516	 9.18208914190141E-02 
1517	 9.19407964869075E-02 
1518	 9.20644954379457E-02 
1519	 9.21842779642162E-02 
1520	 0.092303766110812 
1521	 9.24219371326441E-02 
1522	 9.25312468457609E-02 
1523	 9.26488528866276E-02 
1524	 9.27639206689621E-02 
1525	 9.28759718194498E-02 
1526	 9.30005553044772E-02 
1527	 9.31326058065861E-02 
1528	 9.32571582882039E-02 
1529	 9.33875548312439E-02 
1530	 9.35120420538551E-02 
1531	 9.36331852540429E-02 
1532	 0.093743801822258 
1533	 9.38485074645591E-02 
1534	 9.39594122913338E-02 
1535	 9.40580673961487E-02 
1536	 9.41724050490483E-02 
1537	 9.43011104575058E-02 
1538	 9.44237797879763E-02 
1539	 9.45465991748145E-02 
1540	 9.46703543522692E-02 
1541	 9.47989289015929E-02 
1542	 9.49201522062618E-02 
1543	 9.50371815503507E-02 
1544	 9.51564794466393E-02 
1545	 9.52741161560444E-02 
1546	 0.095390784119492 
1547	 9.55088084528625E-02 
1548	 9.56242667610574E-02 
1549	 9.57351789882099E-02 
1550	 9.58497228906093E-02 
1551	 0.095966853698173 
1552	 9.60803483728145E-02 
1553	 9.61892030408215E-02 
1554	 9.63069754623983E-02 
1555	 9.64282376943621E-02 
1556	 9.65476253085241E-02 
1557	 9.66760550083176E-02 
1558	 9.67940830017997E-02 
1559	 9.69008766127909E-02 
1560	 9.70167401597284E-02 
1561	 9.71336232355858E-02 
1562	 9.72514475310283E-02 
1563	 9.73768279047961E-02 
1564	 9.74937943075637E-02 
1565	 9.75979176474248E-02 
1566	 9.77203413739355E-02 
1567	 9.78486716615677E-02 
1568	 9.79784140474953E-02 
1569	 9.81295606430536E-02 
1570	 9.82591277411254E-02 
1571	 9.83711573507252E-02 
1572	 9.84949144183634E-02 
1573	 9.86176459707796E-02 
1574	 0.098738854068796 
1575	 9.88622847110591E-02 
1576	 9.89899523455303E-02 
1577	 9.91165378662253E-02 
1578	 0.099242564974612 
1579	 9.93755179333897E-02 
1580	 9.95054549274661E-02 
1581	 9.96316299613378E-02 
1582	 9.97564741939443E-02 
1583	 9.98882452681958E-02 
1584	 0.100007676949418 
1585	 0.10010881086276 
1586	 0.100224696802025 
1587	 0.10034539319676 
1588	 0.100461511235471 
1589	 0.100576422412986 
1590	 0.100702370578159 
1591	 0.100833530082008 
1592	 0.10095845624205 
1593	 0.101089588278442 
1594	 0.10122284861818 
1595	 0.101350563162699 
1596	 0.101477104832917 
1597	 0.101617267949424 
1598	 0.101742401088459 
1599	 0.101845208305992 
1600	 0.101964068827927 
1601	 0.102090099655207 
1602	 0.102209823139824 
1603	 0.1023399973736 
1604	 0.102456014011207 
1605	 0.102548051357929 
1606	 0.102659083411205 
1607	 0.102775830466227 
1608	 0.102891859189062 
1609	 0.103024404984049 
1610	 0.103144243964771 
1611	 0.103248024720294 
1612	 0.103362305713156 
1613	 0.103480321327379 
1614	 0.103594600692652 
1615	 0.103711828635243 
1616	 0.103831365682097 
1617	 0.103947717188686 
1618	 0.104064297688036 
1619	 0.104184941879863 
1620	 0.10430373449708 
1621	 0.104422961147434 
1622	 0.104537871923632 
1623	 0.104652183957256 
1624	 0.104763648289991 
1625	 0.104856478851901 
1626	 0.10497222637182 
1627	 0.105110685215671 
1628	 0.105231411064276 
1629	 0.105361258228179 
1630	 0.105479774246712 
1631	 0.105574182172576 
1632	 0.10567791519664 
1633	 0.105781495300028 
1634	 0.105890604317968 
1635	 0.106004656870413 
1636	 0.10611588431109 
1637	 0.106236498824959 
1638	 0.106345829509042 
1639	 0.106436114117797 
1640	 0.106545536482751 
1641	 0.106658502291677 
1642	 0.106777655469486 
1643	 0.106924135104085 
1644	 0.107044808109158 
1645	 0.107148254456498 
1646	 0.107256932374052 
1647	 0.107361017740394 
1648	 0.107460309607314 
1649	 0.107561337592628 
1650	 0.107659373934435 
1651	 0.107739980954841 
1652	 0.107834106918276 
1653	 0.107947855310837 
1654	 0.108040455129516 
1655	 0.108131150247143 
1656	 0.108208857911912 
1657	 0.108271321200057 
1658	 0.108327910826088 
1659	 0.108368852356701 
1660	 0.108418219211472 
1661	 0.108466382726861 
1662	 0.108503376728703 
1663	 0.108547623993515 
1664	 0.108576694939844 
1665	 0.108597507053073 
1666	 0.108597625748251 
1667	 0.10858731797642 
1668	 0.108554420325236 
1669	 0.108490733099207 
1670	 0.108425784773709 
1671	 0.108347283291851 
1672	 0.108262374298974 
1673	 0.108167074448621 
1674	 0.108067573578852 
1675	 0.107965696628099 
1676	 0.107847360019299 
1677	 0.107720362718019 
1678	 0.107583303055349 
1679	 0.107422701628943 
1680	 0.107271351245284 
1681	 0.107115696815773 
1682	 0.106959801718369 
1683	 0.106808118689649 
1684	 0.106651525965198 
1685	 0.106491829138985 
1686	 0.106332636545376 
1687	 0.106159537035934 
1688	 0.106011836486078 
1689	 0.105875966409251 
1690	 0.105737911746517 
1691	 0.105614660800684 
1692	 0.10548913029442 
1693	 0.105358171256607 
1694	 0.105245075701783 
1695	 0.105141159161329 
1696	 0.10503902802388 
1697	 0.104946418658693 
1698	 0.104854674042104 
1699	 0.104765634294775 
1700	 0.104689337090143 
1701	 0.104621200914357 
1702	 0.104550701635119 
1703	 0.104482318083953 
1704	 0.104425715789053 
1705	 0.10437121633195 
1706	 0.104336532172109 
1707	 0.104319998938895 
1708	 0.10430106563554 
1709	 0.104266734896188 
1710	 0.104245682709545 
1711	 0.104248309179143 
1712	 0.104260239625431 
1713	 0.104275681137889 
1714	 0.104309444346669 
1715	 0.104328298896182 
1716	 0.104325877635058 
1717	 0.104352019335996 
1718	 0.104390518639151 
1719	 0.104430837604539 
1720	 0.104487681717923 
1721	 0.10455535853261 
1722	 0.104608708959582 
1723	 0.10468175844305 
1724	 0.104802209289996 
1725	 0.104923692745839 
1726	 0.105059518278923 
1727	 0.105217369002683 
1728	 0.105393101128247 
1729	 0.105610062561026 
1730	 0.105845488385915 
1731	 0.106068458960055 
1732	 0.106288479508345 
1733	 0.106499549524594 
1734	 0.106724465983239 
1735	 0.106971200905371 
1736	 0.107190207761802 
1737	 0.107409554891023 
1738	 0.107617971056646 
1739	 0.107790918316035 
1740	 0.107941776921333 
1741	 0.108092974599307 
1742	 0.108210570943146 
1743	 0.108348883028986 
1744	 0.10850092533516 
1745	 0.108647645986791 
1746	 0.108792161867203 
1747	 0.108932508247486 
1748	 0.109068978799106 
1749	 0.109210326743331 
1750	 0.109353193927989 
1751	 0.109499728826805 
1752	 0.109645436425474 
1753	 0.109806568919965 
1754	 0.109959979590932 
1755	 0.110140517587155 
1756	 0.110347455679651 
1757	 0.110554382058478 
1758	 0.110799093353641 
1759	 0.111040121855254 
1760	 0.111293120306594 
1761	 0.111571330268025 
1762	 0.111846708715646 
1763	 0.112148840522175 
1764	 0.11247238851023 
1765	 0.112798377964754 
1766	 0.113123061200217 
1767	 0.113429796943169 
1768	 0.113733153757542 
1769	 0.11404625415463 
1770	 0.114354064135996 
1771	 0.114672573640573 
1772	 0.114979107434068 
1773	 0.115263792585372 
1774	 0.115557780549864 
1775	 0.115826965479476 
1776	 0.116087001184786 
1777	 0.116342086964588 
1778	 0.116560389478878 
1779	 0.116787984560575 
1780	 0.11700260810819 
1781	 0.117185001622321 
1782	 0.117382588175264 
1783	 0.117563239276069 
1784	 0.117750652247804 
1785	 0.117956371241759 
1786	 0.118131998962462 
1787	 0.118309959614 
1788	 0.118471167958601 
1789	 0.118596475965423 
1790	 0.118754704261676 
1791	 0.118934096731802 
1792	 0.119068998646925 
1793	 0.119179114278966 
1794	 0.119294082579432 
1795	 0.119423180818181 
1796	 0.119556038810018 
1797	 0.119725723781077 
1798	 0.11987389285385 
1799	 0.11998374327799 
1800	 0.120122673248751 
1801	 0.11906167698049 
1802	 0.119215209829101 
1803	 0.119365396386151 
1804	 0.119510549958196 
1805	 0.119672807823714 
1806	 0.11982293929512 
1807	 0.119968501923789 
1808	 0.120122046079696 
1809	 0.120277326211587 
1810	 0.120428587099394 
1811	 0.120587352504653 
1812	 0.120740023670114 
1813	 0.12088211005842 
1814	 0.121034614543899 
1815	 0.121189938768693 
1816	 0.12134592706197 
1817	 0.12149928013298 
1818	 0.121648927994001 
1819	 0.121807365624456 
1820	 0.121971563960349 
1821	 0.122129438719784 
1822	 0.122283904003708 
1823	 0.122455039864887 
1824	 0.122619610983554 
1825	 0.1227757329834 
1826	 0.122936969473987 
1827	 0.123103769667061 
1828	 0.12326825789531 
1829	 0.123430515780232 
1830	 0.123591446036825 
1831	 0.123749406129676 
1832	 0.12392193371789 
1833	 0.124081366672214 
1834	 0.124238137117515 
1835	 0.12440657411277 
1836	 0.124574046570571 
1837	 0.124745494590691 
1838	 0.124918980887692 
1839	 0.125098147328843 
1840	 0.125290011805021 
1841	 0.125465877979091 
1842	 0.125634018885081 
1843	 0.12581208794691 
1844	 0.125978196516231 
1845	 0.126133601100599 
1846	 0.126312857760544 
1847	 0.1264918380166 
1848	 0.126663903431638 
1849	 0.126851334735864 
1850	 0.127010342746238 
1851	 0.127147830297098 
1852	 0.127290276383432 
1853	 0.127433898105473 
1854	 0.127563712612475 
1855	 0.127714411404009 
1856	 0.127850867692482 
1857	 0.127981138870765 
1858	 0.12812435604792 
1859	 0.128258179317413 
1860	 0.128397786302057 
1861	 0.128528032949596 
1862	 0.128658092781902 
1863	 0.128762897400228 
1864	 0.128865833856209 
1865	 0.128944641682553 
1866	 0.129029648429798 
1867	 0.129112562812547 
1868	 0.129176726738835 
1869	 0.129258469049231 
1870	 0.129323545085911 
1871	 0.129372430055473 
1872	 0.129415858106211 
1873	 0.129462289951078 
1874	 0.12948015853921 
1875	 0.129490613049216 
1876	 0.129499823426561 
1877	 0.12950002895488 
1878	 0.129474824743097 
1879	 0.129432741819014 
1880	 0.129370397820139 
1881	 0.129280040474113 
1882	 0.129165293169917 
1883	 0.129036949997716 
1884	 0.128861950648491 
1885	 0.128639493436318 
1886	 0.128384982060401 
1887	 0.128091666870539 
1888	 0.127770580107265 
1889	 0.127445117740139 
1890	 0.127073673088663 
1891	 0.126686167003404 
1892	 0.126288412364861 
1893	 0.125877675334109 
1894	 0.125437955235389 
1895	 0.125024432532508 
1896	 0.124596801669839 
1897	 0.12415886061186 
1898	 0.123756563391268 
1899	 0.123360049151786 
1900	 0.122982836384193 
1901	 0.122629265980777 
1902	 0.122268737601923 
1903	 0.12192914278282 
1904	 0.121611217166825 
1905	 0.121306348581148 
1906	 0.121024419205651 
1907	 0.120785865898074 
1908	 0.120571156671625 
1909	 0.120383797919286 
1910	 0.120234508923519 
1911	 0.120089165515135 
1912	 0.119960727066713 
1913	 0.119859613124025 
1914	 0.119771585094087 
1915	 0.11970938673513 
1916	 0.119678358060222 
1917	 0.119663800482104 
1918	 0.119656848167021 
1919	 0.119676143168176 
1920	 0.119708789699135 
1921	 0.119754005032905 
1922	 0.119807592737504 
1923	 0.119862747027213 
1924	 0.119937039989601 
1925	 0.120027632908899 
1926	 0.120119777453263 
1927	 0.12022751294302 
1928	 0.120331774843038 
1929	 0.120439076959255 
1930	 0.120540968190873 
1931	 0.120652106833006 
1932	 0.120773049984417 
1933	 0.120906236757981 
1934	 0.121062191152011 
1935	 0.121214801677301 
1936	 0.121383918408246 
1937	 0.121559336850999 
1938	 0.121737240978067 
1939	 0.121920721049478 
1940	 0.12211949486828 
1941	 0.122314915016051 
1942	 0.122497510606978 
1943	 0.122700963798926 
1944	 0.122901945382658 
1945	 0.123109608374138 
1946	 0.123343369157549 
1947	 0.123578342694118 
1948	 0.123820701229212 
1949	 0.124071705448853 
1950	 0.124307542016547 
1951	 0.124529278112929 
1952	 0.124762323716502 
1953	 0.124989004284896 
1954	 0.125225416476227 
1955	 0.125479559825175 
1956	 0.125727705498386 
1957	 0.125972126819454 
1958	 0.126210705410719 
1959	 0.126447467139827 
1960	 0.126693905998472 
1961	 0.126934761301508 
1962	 0.127177168353426 
1963	 0.127422181608805 
1964	 0.127657763342303 
1965	 0.127903569422318 
1966	 0.128165250391298 
1967	 0.128419055924489 
1968	 0.128650769527161 
1969	 0.128894706637202 
1970	 0.129119507456156 
1971	 0.129339394410053 
1972	 0.12959307326414 
1973	 0.129836533826283 
1974	 0.130080804468925 
1975	 0.130343378911312 
1976	 0.130582168682127 
1977	 0.130797532378024 
1978	 0.131033313617712 
1979	 0.131271855591525 
1980	 0.131502518094282 
1981	 0.131755941671389 
1982	 0.131981468315251 
1983	 0.132204286050103 
1984	 0.132442129528459 
1985	 0.132655537153801 
1986	 0.132884408619648 
1987	 0.133113788360364 
1988	 0.133341392108004 
1989	 0.133567302290654 
1990	 0.133806653870054 
1991	 0.134027209850566 
1992	 0.134235449502702 
1993	 0.13445170803599 
1994	 0.134636400219761 
1995	 0.13482215699849 
1996	 0.135027894919595 
1997	 0.135206271575198 
1998	 0.135393728925322 
1999	 0.135595711939647 
2000	 0.135782754717717 
2001	 0.1359692748027 
2002	 0.136132674779286 
2003	 0.13627989871169 
2004	 0.136423012414766 
2005	 0.136532633200867 
2006	 0.136666708333951 
2007	 0.136810079703655 
2008	 0.136962061192982 
2009	 0.137118121323167 
2010	 0.137246029072079 
2011	 0.137349285862943 
2012	 0.137449122527335 
2013	 0.137539590142368 
2014	 0.137612863902422 
2015	 0.137687389906882 
2016	 0.137763479746748 
2017	 0.137821596336675 
2018	 0.137861755029418 
2019	 0.137907251973777 
2020	 0.137948995074802 
2021	 0.137981500910432 
2022	 0.138006586166181 
2023	 0.138029403541775 
2024	 0.138040133830473 
2025	 0.138036647334734 
2026	 0.138027711438498 
2027	 0.138012905774246 
2028	 0.137991486608234 
2029	 0.137954004130573 
2030	 0.137921332729567 
2031	 0.137887713079634 
2032	 0.137855141482488 
2033	 0.13781627861553 
2034	 0.137785387752141 
2035	 0.137760459520692 
2036	 0.137728045003923 
2037	 0.137715112534133 
2038	 0.137704161927218 
2039	 0.137693540085791 
2040	 0.137686990874704 
2041	 0.137689352401654 
2042	 0.137682148964468 
2043	 0.137707403619341 
2044	 0.137760740736144 
2045	 0.137809413039835 
2046	 0.137872120371741 
2047	 0.137937499600818 
2048	 0.138004287420585 
2049	 0.138075192373807 
2050	 0.138152682946528 
2051	 0.138243224614145 
2052	 0.138319800195549 
2053	 0.138404082129184 
2054	 0.138495038650545 
2055	 0.138588886691248 
2056	 0.138687584348542 
2057	 0.13879154867734 
2058	 0.138904526661287 
2059	 0.139035399014205 
2060	 0.139145697743892 
2061	 0.139254599078253 
2062	 0.139363351275194 
2063	 0.139452705319808 
2064	 0.139555198637151 
2065	 0.139664331027492 
2066	 0.139775982097628 
2067	 0.139919011423859 
2068	 0.140052768158143 
2069	 0.140179940889103 
2070	 0.140322857065631 
2071	 0.140447155394499 
2072	 0.140546110920887 
2073	 0.140661371652632 
2074	 0.14078022393745 
2075	 0.140899937557609 
2076	 0.141020417184347 
2077	 0.141140929840314 
2078	 0.141269699832242 
2079	 0.141389846435289 
2080	 0.141512379264198 
2081	 0.141622379692527 
2082	 0.141718286930426 
2083	 0.141808572391827 
2084	 0.14192417474908 
2085	 0.142032889200101 
2086	 0.142140955036785 
2087	 0.142263861388269 
2088	 0.142377876228531 
2089	 0.142478249798945 
2090	 0.142584152897269 
2091	 0.142702555479936 
2092	 0.142804933104669 
2093	 0.142890602228537 
2094	 0.142984445094352 
2095	 0.14308643832301 
2096	 0.143174204103222 
2097	 0.143257447082158 
2098	 0.143336006863938 
2099	 0.143409962254756 
2100	 0.143465492155094 
2101	 0.14352587035341 
2102	 0.143588306016989 
2103	 0.143641953340519 
2104	 0.143683567381187 
2105	 0.143733885790786 
2106	 0.143782744638028 
2107	 0.143833651599782 
2108	 0.143902990119885 
2109	 0.143941875900588 
2110	 0.143965087937396 
2111	 0.143985898829842 
2112	 0.14398423417983 
2113	 0.143989610439986 
2114	 0.143999621283796 
2115	 0.144003994872025 
2116	 0.144004392706136 
2117	 0.143990316811769 
2118	 0.144006874390484 
2119	 0.144039454792498 
2120	 0.144055707730299 
2121	 0.14408311264919 
2122	 0.144105601458706 
2123	 0.144105711936722 
2124	 0.144130812497772 
2125	 0.144194431005273 
2126	 0.14421133760851 
2127	 0.14420476506469 
2128	 0.144207575295927 
2129	 0.144183817468207 
2130	 0.144179559090086 
2131	 0.144197888316988 
2132	 0.1442068614962 
2133	 0.144211857745904 
2134	 0.144218719202946 
2135	 0.144228609421643 
2136	 0.144235048190974 
2137	 0.144241261790132 
2138	 0.144247553686742 
2139	 0.144253814669271 
2140	 0.144254958693413 
2141	 0.144264924800676 
2142	 0.144275567471356 
2143	 0.144294427030869 
2144	 0.144321406465468 
2145	 0.144349350560292 
2146	 0.144381449105028 
2147	 0.144419233947382 
2148	 0.144465309584696 
2149	 0.144507116153049 
2150	 0.144546210345351 
2151	 0.144593679670138 
2152	 0.14463946343528 
2153	 0.144693125725055 
2154	 0.144763234307767 
2155	 0.144840744091668 
2156	 0.144894636116777 
2157	 0.144942003907996 
2158	 0.144985878729841 
2159	 0.145015940649157 
2160	 0.145045639122204 
2161	 0.145082716999807 
2162	 0.145099182480013 
2163	 0.145093239506681 
2164	 0.145097522947582 
2165	 0.145099143075776 
2166	 0.145095931287715 
2167	 0.145088395869602 
2168	 0.145086161092115 
2169	 0.145067005808704 
2170	 0.145072028677436 
2171	 0.145101107194314 
2172	 0.145122964778912 
2173	 0.145140496815582 
2174	 0.145183557937916 
2175	 0.145228378786084 
2176	 0.145266200146363 
2177	 0.145317546980764 
2178	 0.145387022218281 
2179	 0.145443644222248 
2180	 0.145499197676405 
2181	 0.145552540178874 
2182	 0.145601113380718 
2183	 0.14566036349985 
2184	 0.145727639111199 
2185	 0.145781228431186 
2186	 0.145834256988011 
2187	 0.145887032132325 
2188	 0.145921381435929 
2189	 0.145977076663408 
2190	 0.146053618491401 
2191	 0.146117353259439 
2192	 0.146192604015452 
2193	 0.146245998058617 
2194	 0.146276899890726 
2195	 0.146317141918345 
2196	 0.146356818432277 
2197	 0.146387201372124 
2198	 0.146405007069081 
2199	 0.146433214788241 
2200	 0.146451367770294 
2201	 0.146449501534872 
2202	 0.146465304481512 
2203	 0.146499622283297 
2204	 0.146503184577105 
2205	 0.146489596492963 
2206	 0.146491530583328 
2207	 0.146489640094088 
2208	 0.146481530468504 
2209	 0.14648695171703 
2210	 0.14647298970347 
2211	 0.146442918936552 
2212	 0.146401674050596 
2213	 0.146362759785966 
2214	 0.146296341201823 
2215	 0.146201481362966 
2216	 0.146102662650528 
2217	 0.145997163287129 
2218	 0.145866077166452 
2219	 0.145732967323195 
2220	 0.145563268903929 
2221	 0.145368150731101 
2222	 0.145128277762016 
2223	 0.144890591887496 
2224	 0.144608885380759 
2225	 0.144297358273452 
2226	 0.143988012289173 
2227	 0.143633928496844 
2228	 0.143252056744156 
2229	 0.142816138554075 
2230	 0.142338554190275 
2231	 0.141836704622026 
2232	 0.141292320633766 
2233	 0.140708775760984 
2234	 0.140124224561707 
2235	 0.139437234456027 
2236	 0.138680662270753 
2237	 0.137865579546399 
2238	 0.136942340802531 
2239	 0.136032477074729 
2240	 0.135088375500396 
2241	 0.134100289153639 
2242	 0.133125589276005 
2243	 0.132050268261217 
2244	 0.130871494479608 
2245	 0.129693094389305 
2246	 0.128426454823128 
2247	 0.127177730858374 
2248	 0.125936182411671 
2249	 0.124662667040517 
2250	 0.123351709231687 
2251	 0.122072043627938 
2252	 0.120734204848092 
2253	 0.119436400447291 
2254	 0.118122250097499 
2255	 0.116813026219179 
2256	 0.115617830277382 
2257	 0.114401363131114 
2258	 0.113239679530372 
2259	 0.112151083838328 
2260	 0.111063803358523 
2261	 0.109962837892418 
2262	 0.10896920506476 
2263	 0.108023836361367 
2264	 0.107152918723686 
2265	 0.106375338985693 
2266	 0.105609321814946 
2267	 0.104919242935169 
2268	 0.104216060147128 
2269	 0.103531194892391 
2270	 0.102880625298028 
2271	 0.102244886113267 
2272	 0.101642516686543 
2273	 0.101107494689571 
2274	 0.100526487500993 
2275	 9.99778803137317E-02 
2276	 9.93716881953788E-02 
2277	 9.87302056292517E-02 
2278	 9.80670999702235E-02 
2279	 9.73440361299585E-02 
2280	 9.66313151921266E-02 
2281	 9.59157379184767E-02 
2282	 9.51734675747393E-02 
2283	 0.09441654655163 
2284	 9.36669707495091E-02 
2285	 9.28338222741348E-02 
2286	 9.19939416882006E-02 
2287	 9.11121693565637E-02 
2288	 9.02174488599318E-02 
2289	 8.94159658057773E-02 
2290	 8.86041773389536E-02 
2291	 8.78193684686455E-02 
2292	 8.70777968777268E-02 
2293	 8.63030887512463E-02 
2294	 8.55681062649526E-02 
2295	 8.48729309461633E-02 
2296	 0.084237291495099 
2297	 8.37241147969759E-02 
2298	 8.32757589073055E-02 
2299	 8.29729176100194E-02 
2300	 8.28237036767179E-02 
2301	 8.27355463454079E-02 
2302	 8.27439260162104E-02 
2303	 8.28605266928607E-02 
2304	 8.30578743541089E-02 
2305	 8.33983682540728E-02 
2306	 8.39054096150652E-02 
2307	 8.44661904538116E-02 
2308	 8.51336090735278E-02 
2309	 8.58936038045844E-02 
2310	 8.67702600100801E-02 
2311	 8.76664204089649E-02 
2312	 8.87342711344782E-02 
2313	 8.96892944851897E-02 
2314	 9.06341752322782E-02 
2315	 9.15527982928352E-02 
2316	 9.24418253492421E-02 
2317	 9.32840204145613E-02 
2318	 0.09413496349962 
2319	 9.48752293165024E-02 
2320	 9.55759714066618E-02 
2321	 9.61355710682986E-02 
2322	 9.65604641271705E-02 
2323	 9.69326293033269E-02 
2324	 9.71756386928505E-02 
2325	 9.73826516196424E-02 
2326	 0.097545790267109 
2327	 9.76247864281626E-02 
2328	 9.76085203202701E-02 
2329	 9.75361216073123E-02 
2330	 9.73811422858165E-02 
2331	 9.71750246462498E-02 
2332	 9.69630529515526E-02 
2333	 9.67029580550682E-02 
2334	 9.63389863529975E-02 
2335	 9.59494976574559E-02 
2336	 9.54617650999196E-02 
2337	 9.49659320458806E-02 
2338	 9.45700875989833E-02 
2339	 9.41824063787533E-02 
2340	 9.38211812164603E-02 
2341	 9.34753762100319E-02 
2342	 9.31163452386203E-02 
2343	 0.092811210494911 
2344	 9.25842574132148E-02 
2345	 9.24692598660872E-02 
2346	 9.24972737319909E-02 
2347	 9.26743618281209E-02 
2348	 9.29711798732872E-02 
2349	 9.33894931434753E-02 
2350	 9.39300350109853E-02 
2351	 0.094532520073012 
2352	 0.095158599237268 
2353	 9.58459038154215E-02 
2354	 9.64784367866546E-02 
2355	 9.70417729371255E-02 
2356	 9.76406049404621E-02 
2357	 0.098221671981458 
2358	 9.87260174148576E-02 
2359	 9.91217622355072E-02 
2360	 9.94327468283664E-02 
2361	 9.96388584137123E-02 
2362	 9.98440447906154E-02 
2363	 0.100080058502651 
2364	 0.100208979722092 
2365	 0.100285422202594 
2366	 0.100342146691911 
2367	 0.100380763804094 
2368	 0.100481029818445 
2369	 0.100590917018778 
2370	 0.100670333907675 
2371	 0.100735500042656 
2372	 0.100779770478802 
2373	 0.100823266294324 
2374	 0.100857548636799 
2375	 0.100907321006836 
2376	 0.100962454634744 
2377	 0.100967383411257 
2378	 0.100970109799548 
2379	 0.100984488577612 
2380	 0.100951227138331 
2381	 0.100963544429973 
2382	 0.100984871789529 
2383	 0.101013075256383 
2384	 0.101009271895244 
2385	 0.101011351051618 
2386	 0.101036121397205 
2387	 0.101059775383368 
2388	 0.101074394351042 
2389	 0.101102520599169 
2390	 0.101141878328791 
2391	 0.101165114723231 
2392	 0.101188412677276 
2393	 0.101274415497978 
2394	 0.101263699437698 
2395	 0.101146082922669 
2396	 0.101107415631181 
2397	 0.101075201326885 
2398	 0.101047826867292 
2399	 0.101023467589649 
2400	 0.101093769110048 
2401	 0.101242325496453 
2402	 0.101315440496899 
2403	 0.101387518684718 
2404	 0.101411808628828 
2405	 0.101371057784805 
2406	 0.101445091930727 
2407	 0.101567886019235 
2408	 0.10166634424498 
2409	 0.101783734851211 
2410	 0.101862933076175 
2411	 0.101907071287482 
2412	 0.101920018167731 
2413	 0.101936366810322 
2414	 0.10194900206743 
2415	 0.10199938051309 
2416	 0.102106400596468 
2417	 0.102173665970383 
2418	 0.102212443635825 
2419	 0.102253592807322 
2420	 0.102254579639355 
2421	 0.10221175344773 
2422	 0.102197030714012 
2423	 0.102270847487028 
2424	 0.102408224899801 
2425	 0.102495899933786 
2426	 0.102472066526582 
2427	 0.102410412849783 
2428	 0.102330336938278 
2429	 0.102317030424316 
2430	 0.102524849288728 
2431	 0.102695725557196 
2432	 0.10268654247079 
2433	 0.102657578468599 
2434	 0.102553042254213 
2435	 0.102467833867476 
2436	 0.102435243374943 
2437	 0.102378216516218 
2438	 0.102299199355042 
2439	 0.102147275047063 
2440	 0.102036299086868 
2441	 0.101936750817539 
2442	 0.101872089887202 
2443	 0.101839920912815 
2444	 0.101623267825062 
2445	 0.101433127558594 
2446	 0.101305307446755 
2447	 0.101106649105835 
2448	 0.10102998793081 
2449	 0.100918959713794 
2450	 0.10068957424412 
2451	 0.100456332342136 
2452	 0.100187614290311 
2453	 9.99652201670301E-02 
2454	 9.97448317959751E-02 
2455	 9.94820053127198E-02 
2456	 9.92408461339056E-02 
2457	 9.90972619075212E-02 
2458	 9.90477384377852E-02 
2459	 9.89486239654396E-02 
2460	 9.89132108080266E-02 
2461	 9.88987233349026E-02 
2462	 9.87230263115476E-02 
2463	 9.86430890446675E-02 
2464	 9.87161278167085E-02 
2465	 9.87506694661525E-02 
2466	 9.87118798855759E-02 
2467	 0.098616187485638 
2468	 9.84465704242065E-02 
2469	 9.82217691457971E-02 
2470	 9.80949809966797E-02 
2471	 0.098090947445333 
2472	 9.80243657298183E-02 
2473	 9.80666944010401E-02 
2474	 0.09824539668794 
2475	 9.83835788338604E-02 
2476	 9.86961647522547E-02 
2477	 9.88987362273976E-02 
2478	 9.87999047640935E-02 
2479	 9.87293190175504E-02 
2480	 9.86040920197321E-02 
2481	 9.86914165414729E-02 
2482	 9.91194524651704E-02 
2483	 9.91790383107339E-02 
2484	 9.91284494995875E-02 
2485	 9.90977700712912E-02 
2486	 9.91647102377391E-02 
2487	 9.93774287687036E-02 
2488	 9.97106872842978E-02 
2489	 0.099919728240616 
2490	 0.100149709445534 
2491	 0.100477768815718 
2492	 0.10058231932292 
2493	 0.100540393341886 
2494	 0.100456255564395 
2495	 0.100347495498732 
2496	 0.10043045164702 
2497	 0.100739094576068 
2498	 0.100955824214471 
2499	 0.101121633718897 
2500	 0.101397772797316 
