Wavelength	spectrum00004.asd
350	 6.46160672754523E-02 
351	 6.20381489327573E-02 
352	 5.95697188740735E-02 
353	 5.94727242363835E-02 
354	 5.95516802445073E-02 
355	 6.01285513977156E-02 
356	 6.00716548150694E-02 
357	 5.85519964574602E-02 
358	 5.60246203902626E-02 
359	 0.054821202744833 
360	 5.54443995126857E-02 
361	 5.70200427789941E-02 
362	 5.69805719186462E-02 
363	 5.58326085615248E-02 
364	 5.47106717163301E-02 
365	 5.50409018217906E-02 
366	 0.056803063349343 
367	 5.72821234570118E-02 
368	 5.51058768420725E-02 
369	 5.51162838385499E-02 
370	 5.54918333252332E-02 
371	 5.54577130029097E-02 
372	 5.49354368748847E-02 
373	 0.054024245738648 
374	 5.41817117282046E-02 
375	 5.54642869804387E-02 
376	 5.58411921450619E-02 
377	 5.55074859095783E-02 
378	 5.48333373267048E-02 
379	 5.43215857064259E-02 
380	 0.054523200976618 
381	 5.51207921799591E-02 
382	 5.53475993895566E-02 
383	 5.44509543307745E-02 
384	 0.054088113561305 
385	 5.45733283463903E-02 
386	 5.53085682969975E-02 
387	 5.46216871040586E-02 
388	 0.0543695740668 
389	 5.42625488667709E-02 
390	 5.38800956035133E-02 
391	 5.46636121294409E-02 
392	 5.49925473285908E-02 
393	 5.46570887830273E-02 
394	 5.44554641192466E-02 
395	 0.054792772378684 
396	 5.48653449350097E-02 
397	 5.44315547409894E-02 
398	 5.44101895861635E-02 
399	 5.46168046190628E-02 
400	 5.47517875722656E-02 
401	 5.45813329789007E-02 
402	 5.42932372893433E-02 
403	 5.43705391974327E-02 
404	 5.45019262603394E-02 
405	 5.39175003525832E-02 
406	 0.054115192114576 
407	 5.43183615888425E-02 
408	 5.40687514066369E-02 
409	 5.41447291320636E-02 
410	 5.44257516145816E-02 
411	 5.46269860119177E-02 
412	 0.054555810360051 
413	 5.48890382188555E-02 
414	 5.47979785346649E-02 
415	 5.44153770447302E-02 
416	 5.47254762750256E-02 
417	 5.46875707834705E-02 
418	 5.47182015781408E-02 
419	 5.50991325012004E-02 
420	 5.52207345545172E-02 
421	 5.52075234191579E-02 
422	 5.51838768027854E-02 
423	 5.52686037192486E-02 
424	 5.54741250284127E-02 
425	 5.56601323975905E-02 
426	 5.58270073312074E-02 
427	 5.61455471174898E-02 
428	 5.62119997762928E-02 
429	 5.64359211911072E-02 
430	 5.70120521554216E-02 
431	 5.68941895180644E-02 
432	 5.70740380576647E-02 
433	 5.74612939758689E-02 
434	 0.057446265018225 
435	 5.77702900119997E-02 
436	 0.05810137720846 
437	 0.058286356729366 
438	 5.86420922296266E-02 
439	 5.88881284657556E-02 
440	 5.91092134392773E-02 
441	 5.94280474876467E-02 
442	 5.96724564478074E-02 
443	 5.98338042648577E-02 
444	 6.00229302038594E-02 
445	 6.04084805928333E-02 
446	 6.05816939123369E-02 
447	 6.06982533290499E-02 
448	 6.09047155442625E-02 
449	 6.11144743359308E-02 
450	 6.13849612024984E-02 
451	 6.16097178231849E-02 
452	 0.061674025588467 
453	 0.061810263617385 
454	 6.19371199405232E-02 
455	 6.20124105440278E-02 
456	 6.20618904821248E-02 
457	 0.062001816071972 
458	 6.19807390600021E-02 
459	 6.21128000537142E-02 
460	 6.22661935027474E-02 
461	 6.24200795202623E-02 
462	 6.24912415692866E-02 
463	 6.24098951324217E-02 
464	 6.24813643222114E-02 
465	 6.26538696398063E-02 
466	 6.27931058945917E-02 
467	 6.27011099866255E-02 
468	 0.062683433473352 
469	 6.27781211831766E-02 
470	 6.29290282493878E-02 
471	 6.30828467642766E-02 
472	 6.31142729384797E-02 
473	 0.063103463482283 
474	 6.32720447013382E-02 
475	 6.33723843109243E-02 
476	 6.33911815731285E-02 
477	 6.33850837574299E-02 
478	 6.34711349803726E-02 
479	 6.36129243286691E-02 
480	 6.37598204341256E-02 
481	 6.38848691777092E-02 
482	 6.41838844379384E-02 
483	 6.43675518812847E-02 
484	 6.44029712851062E-02 
485	 6.45826265481223E-02 
486	 6.48168152026967E-02 
487	 6.50229003378829E-02 
488	 6.51770656952024E-02 
489	 6.54450114907524E-02 
490	 6.57131704940218E-02 
491	 6.59661203652085E-02 
492	 6.62388820452608E-02 
493	 6.64356047663876E-02 
494	 6.66925278849236E-02 
495	 6.70538421766746E-02 
496	 6.73704401469735E-02 
497	 6.76572206413222E-02 
498	 6.79856885496298E-02 
499	 6.84081161606517E-02 
500	 6.87990012624188E-02 
501	 6.91869087303799E-02 
502	 6.95586795041585E-02 
503	 6.98690831555823E-02 
504	 7.02920131243494E-02 
505	 7.07125418810734E-02 
506	 7.10791970561492E-02 
507	 7.16410697406997E-02 
508	 7.21234591962296E-02 
509	 7.25652092949723E-02 
510	 7.31203524878723E-02 
511	 7.36851732087258E-02 
512	 7.42364862555689E-02 
513	 7.47772734570897E-02 
514	 7.53378816505446E-02 
515	 7.57975096184389E-02 
516	 7.62935222886265E-02 
517	 7.69491545159577E-02 
518	 0.077595427494126 
519	 7.82857146098271E-02 
520	 7.89925873326428E-02 
521	 7.96390929159786E-02 
522	 8.02823643953149E-02 
523	 8.09465283319001E-02 
524	 8.16416426398186E-02 
525	 8.23694499013618E-02 
526	 8.30542937655264E-02 
527	 8.37538126421606E-02 
528	 8.45495968299846E-02 
529	 8.53648735408974E-02 
530	 8.61488585171942E-02 
531	 8.69034555161202E-02 
532	 8.76825856200334E-02 
533	 8.85119216643728E-02 
534	 8.93584595048572E-02 
535	 9.01983292350052E-02 
536	 9.10846552180748E-02 
537	 9.19645721584378E-02 
538	 9.28368224156182E-02 
539	 9.37251350410024E-02 
540	 0.094587824624818 
541	 0.095456117029759 
542	 9.63508972400548E-02 
543	 9.72664791841593E-02 
544	 9.81523764272522E-02 
545	 0.099017289599951 
546	 9.98849726261793E-02 
547	 0.100751797329411 
548	 0.101610760389327 
549	 0.102449511803706 
550	 0.103254308404572 
551	 0.10409539021222 
552	 0.104961091288752 
553	 0.105819481392354 
554	 0.106625554367006 
555	 0.10742868535007 
556	 0.108243186673313 
557	 0.109064255251263 
558	 0.109889270871267 
559	 0.110684120377741 
560	 0.111439157730641 
561	 0.112182241984248 
562	 0.112931076359003 
563	 0.113669045123881 
564	 0.114376246668149 
565	 0.115069619733846 
566	 0.115707386333646 
567	 0.116311919141653 
568	 0.116949908328772 
569	 0.117588641635558 
570	 0.118171393478465 
571	 0.11868954708241 
572	 0.119238507554971 
573	 0.119811565647151 
574	 0.120365518784971 
575	 0.120861529875031 
576	 0.121400479927549 
577	 0.121912043957929 
578	 0.122382999125167 
579	 0.122875613510412 
580	 0.123341920311425 
581	 0.123786999339023 
582	 0.12422852602462 
583	 0.124681601189632 
584	 0.125147420872874 
585	 0.125591754640641 
586	 0.125977092142215 
587	 0.126436258606692 
588	 0.126877733464185 
589	 0.127255228989278 
590	 0.127639260690496 
591	 0.128021605559163 
592	 0.128409208807015 
593	 0.128801026109664 
594	 0.129152536278849 
595	 0.129507721549438 
596	 0.129855792039689 
597	 0.130141813728238 
598	 0.130479866921761 
599	 0.130843173962467 
600	 0.131187163563321 
601	 0.131477696241116 
602	 0.131828319281576 
603	 0.132210230016353 
604	 0.132535170141343 
605	 0.132792278089782 
606	 0.133079966759441 
607	 0.133418990932097 
608	 0.133722794379528 
609	 0.134002618702939 
610	 0.134278464461554 
611	 0.134570579338622 
612	 0.134889672267023 
613	 0.135169554999214 
614	 0.135413884858362 
615	 0.135673237249881 
616	 0.135952993924439 
617	 0.136248813959008 
618	 0.136545138122675 
619	 0.136811261517661 
620	 0.137070341497457 
621	 0.137340263713233 
622	 0.137631110163704 
623	 0.137924411059902 
624	 0.138216944090291 
625	 0.138505845997748 
626	 0.138788377220193 
627	 0.139051274321594 
628	 0.139338156351182 
629	 0.139667413625771 
630	 0.139976340660995 
631	 0.140221483243341 
632	 0.140459620587616 
633	 0.140772415593203 
634	 0.141050674232783 
635	 0.141336436911852 
636	 0.141648582102502 
637	 0.14196012119713 
638	 0.14222452655313 
639	 0.142504907156654 
640	 0.142840044202563 
641	 0.143091947689069 
642	 0.143359006782559 
643	 0.143667717666923 
644	 0.143995954526885 
645	 0.144324127630435 
646	 0.144632051033631 
647	 0.144922984928794 
648	 0.145235647781112 
649	 0.145578462180647 
650	 0.145906026023561 
651	 0.146182594469671 
652	 0.146489514946312 
653	 0.146800887889763 
654	 0.147116335689404 
655	 0.147453092591339 
656	 0.147745726740938 
657	 0.14805316526843 
658	 0.148404331542075 
659	 0.148723895960976 
660	 0.149031765726295 
661	 0.149349239899251 
662	 0.149689963547544 
663	 0.150013466538109 
664	 0.150331609335091 
665	 0.150660391473352 
666	 0.151013131164188 
667	 0.151328001145515 
668	 0.151630175870487 
669	 0.151954050300232 
670	 0.152315417078272 
671	 0.152655405059824 
672	 0.152965267130651 
673	 0.153271413440002 
674	 0.153654754564047 
675	 0.153997371796763 
676	 0.154284497496374 
677	 0.154643251842438 
678	 0.15494987486667 
679	 0.1552430879347 
680	 0.155576725530338 
681	 0.155936810150353 
682	 0.156270526962277 
683	 0.156597490792535 
684	 0.156963626096093 
685	 0.157270290420363 
686	 0.157547358590395 
687	 0.157847452966911 
688	 0.158235339747924 
689	 0.158589097937464 
690	 0.158895929713554 
691	 0.159187928835078 
692	 0.159531780289264 
693	 0.15989783347748 
694	 0.160256032240074 
695	 0.160580135048244 
696	 0.160879671785908 
697	 0.161201240628157 
698	 0.161556444747445 
699	 0.161896080757502 
700	 0.162246160866265 
701	 0.162585471714353 
702	 0.162904104344238 
703	 0.163284517037931 
704	 0.163641899253878 
705	 0.163967197536346 
706	 0.16430705816126 
707	 0.164674329004836 
708	 0.16505421144845 
709	 0.165429087153231 
710	 0.165785264765131 
711	 0.166120161162515 
712	 0.166458493995327 
713	 0.16682460285788 
714	 0.1672099727218 
715	 0.167573461747522 
716	 0.16791782241954 
717	 0.168278163938602 
718	 0.168673962874317 
719	 0.169058583744728 
720	 0.169405179041386 
721	 0.169731170765591 
722	 0.170113429763809 
723	 0.1705032169723 
724	 0.17084774289174 
725	 0.171252274191036 
726	 0.171626083410203 
727	 0.171977225473548 
728	 0.17237613054555 
729	 0.172726857229556 
730	 0.173085408614966 
731	 0.1734742430305 
732	 0.173828345327778 
733	 0.174183523976143 
734	 0.174533859253693 
735	 0.174879613973084 
736	 0.175288312406888 
737	 0.175677642257415 
738	 0.17601232252373 
739	 0.17630565907586 
740	 0.176678798901718 
741	 0.177079436785423 
742	 0.177456013022712 
743	 0.177794058822653 
744	 0.178154310568125 
745	 0.178507895915364 
746	 0.178831133217115 
747	 0.179210248508808 
748	 0.179539833410483 
749	 0.179832396534154 
750	 0.180160894472077 
751	 0.180478079689405 
752	 0.180790874885336 
753	 0.18110138459164 
754	 0.181399333240291 
755	 0.181734395680698 
756	 0.182051313689904 
757	 0.182310175434007 
758	 0.182584482594181 
759	 0.182849482783841 
760	 0.183125399666383 
761	 0.183437345705277 
762	 0.183713038164919 
763	 0.183961340296977 
764	 0.184221747343838 
765	 0.184551172327113 
766	 0.184822443069114 
767	 0.185054891960555 
768	 0.185289262491608 
769	 0.185547786718384 
770	 0.185770942248425 
771	 0.185978667363046 
772	 0.186206648539736 
773	 0.186406234675593 
774	 0.186628795688455 
775	 0.186855211250638 
776	 0.187019363437892 
777	 0.187244732814623 
778	 0.187469829217418 
779	 0.187648236005168 
780	 0.187804589986465 
781	 0.187967703991215 
782	 0.18813221999992 
783	 0.18829139842962 
784	 0.188476644829116 
785	 0.188650188671545 
786	 0.188807385494965 
787	 0.18895844117812 
788	 0.18906208808201 
789	 0.189188311230497 
790	 0.189347934516774 
791	 0.189472865195765 
792	 0.189610969736918 
793	 0.18972847509582 
794	 0.189813501114061 
795	 0.189948347641916 
796	 0.190062785984899 
797	 0.19014793327586 
798	 0.190215085732503 
799	 0.190247585970134 
800	 0.190330157042418 
801	 0.190448381181075 
802	 0.190517595499373 
803	 0.190608104712963 
804	 0.190696818923913 
805	 0.190772570926866 
806	 0.190859770545526 
807	 0.190914030884998 
808	 0.190950797228283 
809	 0.190993243323669 
810	 0.191035641433227 
811	 0.191110484774114 
812	 0.191162972575125 
813	 0.191135109533516 
814	 0.191182763650141 
815	 0.191240458438287 
816	 0.191276969927337 
817	 0.191304745787755 
818	 0.191329333573604 
819	 0.191351877960341 
820	 0.191369033835455 
821	 0.191371604187554 
822	 0.191389206940323 
823	 0.191418911079411 
824	 0.19144675337925 
825	 0.19145959250889 
826	 0.191434913212661 
827	 0.191411528682469 
828	 0.191440208871509 
829	 0.191465080377781 
830	 0.191473674047908 
831	 0.19146797869109 
832	 0.191461593946453 
833	 0.19146862151903 
834	 0.191475218786201 
835	 0.191473475116719 
836	 0.19147172354372 
837	 0.191459789116495 
838	 0.191427118147965 
839	 0.191386586320018 
840	 0.191419677149463 
841	 0.191414168765739 
842	 0.191382349359621 
843	 0.191376365585016 
844	 0.191366561439379 
845	 0.191357242738923 
846	 0.191349566082682 
847	 0.191340607064614 
848	 0.191321571323224 
849	 0.191286081121409 
850	 0.191253554403752 
851	 0.191268406303681 
852	 0.191210744071455 
853	 0.191153056216725 
854	 0.19115644596165 
855	 0.191173892050083 
856	 0.191153827374578 
857	 0.191104304203806 
858	 0.191060601318925 
859	 0.191068188295683 
860	 0.191072925237585 
861	 0.191046158809878 
862	 0.19098958858248 
863	 0.190978040103946 
864	 0.190981626997369 
865	 0.190980960166866 
866	 0.190974769096638 
867	 0.190981585416146 
868	 0.190976260444343 
869	 0.190955731103702 
870	 0.190954110144772 
871	 0.190977916812021 
872	 0.19100442062569 
873	 0.191011021123536 
874	 0.190989659423873 
875	 0.190992998826139 
876	 0.191008364562831 
877	 0.191010976632712 
878	 0.191015864077143 
879	 0.19102541630227 
880	 0.19103643735948 
881	 0.191047325762558 
882	 0.191082674958796 
883	 0.191113024898197 
884	 0.191123071678506 
885	 0.191114097446696 
886	 0.191096469832955 
887	 0.19109696576651 
888	 0.191144460936219 
889	 0.191257431680084 
890	 0.191293264814836 
891	 0.191299594328857 
892	 0.191320251842794 
893	 0.191327480343485 
894	 0.191411509464963 
895	 0.191494263526379 
896	 0.191511610787971 
897	 0.191549494606515 
898	 0.1915916626205 
899	 0.191629174201178 
900	 0.191658198354288 
901	 0.191688062490203 
902	 0.191748332259954 
903	 0.191830994499796 
904	 0.191904185042266 
905	 0.191926175132648 
906	 0.19197177279595 
907	 0.192054627937119 
908	 0.192136117815726 
909	 0.192185967086776 
910	 0.192274574185996 
911	 0.192378297406695 
912	 0.192387815779336 
913	 0.192443941454697 
914	 0.192527137295885 
915	 0.192599043874514 
916	 0.192635452335831 
917	 0.19271842640066 
918	 0.192846289922353 
919	 0.192989441926691 
920	 0.193106708751367 
921	 0.193169962116217 
922	 0.193216495849376 
923	 0.193291154357688 
924	 0.193406667149113 
925	 0.193538800468052 
926	 0.193678930673697 
927	 0.193814040420388 
928	 0.193898648538644 
929	 0.193977323872857 
930	 0.194063988585565 
931	 0.194161859365446 
932	 0.194293715683895 
933	 0.19441311460562 
934	 0.194518795036529 
935	 0.194632260343478 
936	 0.194732534531719 
937	 0.194912534433361 
938	 0.195088443098063 
939	 0.195107072305447 
940	 0.19522016558356 
941	 0.195430176419706 
942	 0.195664329247069 
943	 0.19582322410312 
944	 0.195986319873709 
945	 0.196126655367557 
946	 0.196255250089069 
947	 0.196422953537917 
948	 0.196541363895863 
949	 0.196648543395768 
950	 0.196771664006444 
951	 0.196902102671609 
952	 0.197091457664416 
953	 0.19729227689568 
954	 0.197473047630673 
955	 0.197653446688352 
956	 0.197806420738497 
957	 0.197977874282314 
958	 0.198174729451597 
959	 0.198316096698293 
960	 0.19846923822138 
961	 0.198642551183269 
962	 0.198829413279636 
963	 0.199023170214102 
964	 0.199173983844359 
965	 0.199299685087963 
966	 0.19945305074106 
967	 0.199716711102734 
968	 0.199936430071719 
969	 0.200110619288641 
970	 0.200269454085998 
971	 0.200392723549117 
972	 0.200623938333015 
973	 0.200857656080794 
974	 0.200997447571444 
975	 0.201194663161447 
976	 0.201455369248758 
977	 0.201711718287679 
978	 0.201900437869096 
979	 0.202045600605357 
980	 0.202328288634348 
981	 0.202636924377076 
982	 0.202822785923171 
983	 0.202974290035333 
984	 0.203086190975719 
985	 0.203331276916193 
986	 0.203768894022813 
987	 0.203908201325885 
988	 0.204140334588196 
989	 0.204404792190656 
990	 0.2045452875666 
991	 0.204652602577925 
992	 0.204898935510286 
993	 0.205194246060445 
994	 0.205403542550554 
995	 0.205598884123739 
996	 0.205951597597527 
997	 0.206258398247931 
998	 0.206378686833529 
999	 0.206862630476285 
1000	 0.207164567655214 
1001	 0.209504279305346 
1002	 0.209815507255657 
1003	 0.210138602336593 
1004	 0.210424873692055 
1005	 0.210733056466827 
1006	 0.210998209302108 
1007	 0.211206508018956 
1008	 0.211451295421122 
1009	 0.211673417114236 
1010	 0.211950517241502 
1011	 0.21227309829855 
1012	 0.212556492331033 
1013	 0.212854463060751 
1014	 0.213160480775418 
1015	 0.213435302694362 
1016	 0.213727667141867 
1017	 0.214101788038835 
1018	 0.214437658601589 
1019	 0.214750055253316 
1020	 0.215100701219208 
1021	 0.215416889454796 
1022	 0.215699482001355 
1023	 0.215998180600387 
1024	 0.216290152408016 
1025	 0.216598143664483 
1026	 0.216903710043112 
1027	 0.217228876215545 
1028	 0.217574503231159 
1029	 0.217931463435313 
1030	 0.218259348605667 
1031	 0.218592480328762 
1032	 0.218911020171683 
1033	 0.219199322806582 
1034	 0.219536362095879 
1035	 0.2199012706837 
1036	 0.220240643736185 
1037	 0.220584075393928 
1038	 0.220932943285052 
1039	 0.22127261952245 
1040	 0.221613446134705 
1041	 0.221953785683383 
1042	 0.222315723639556 
1043	 0.222694148961721 
1044	 0.2230490977751 
1045	 0.223407296269299 
1046	 0.223766413960942 
1047	 0.224061827584877 
1048	 0.224361192284544 
1049	 0.224692488936108 
1050	 0.225059285736502 
1051	 0.225489389922918 
1052	 0.225903754807396 
1053	 0.226296386884041 
1054	 0.226701282228182 
1055	 0.227068863872682 
1056	 0.227361566787794 
1057	 0.227741833384251 
1058	 0.228156808935078 
1059	 0.228535575415283 
1060	 0.228981667318595 
1061	 0.229411941033955 
1062	 0.229799756076008 
1063	 0.230235883049259 
1064	 0.230637709451345 
1065	 0.231031086595562 
1066	 0.231429799774227 
1067	 0.231812242170269 
1068	 0.232243271783452 
1069	 0.232691446510888 
1070	 0.233141373320752 
1071	 0.233609230365897 
1072	 0.234071094101226 
1073	 0.234507057535917 
1074	 0.23497647998516 
1075	 0.235403980710275 
1076	 0.235802340974385 
1077	 0.23626964298016 
1078	 0.236689063009658 
1079	 0.237109535358748 
1080	 0.237612146536593 
1081	 0.238063672798188 
1082	 0.238502034221384 
1083	 0.23895954134392 
1084	 0.239386534548948 
1085	 0.239826123125758 
1086	 0.240277391527284 
1087	 0.240733546729581 
1088	 0.241207123404837 
1089	 0.24168857058852 
1090	 0.242139132910924 
1091	 0.242594282750933 
1092	 0.243035388341469 
1093	 0.243474203136807 
1094	 0.243947432313336 
1095	 0.244393706278438 
1096	 0.244834342699127 
1097	 0.245304642837644 
1098	 0.245745706323322 
1099	 0.246175938430127 
1100	 0.24660971843033 
1101	 0.247012534767359 
1102	 0.247446336858016 
1103	 0.247883603392627 
1104	 0.248337129574719 
1105	 0.248786222160206 
1106	 0.249252835679764 
1107	 0.249682357814524 
1108	 0.250123723249215 
1109	 0.250586941352525 
1110	 0.251030104582314 
1111	 0.251475223065542 
1112	 0.251893434268113 
1113	 0.252310539398346 
1114	 0.252740699807741 
1115	 0.253158604206646 
1116	 0.253586309967901 
1117	 0.253987682166639 
1118	 0.25440459009424 
1119	 0.254824603111731 
1120	 0.255243704337524 
1121	 0.255654187359211 
1122	 0.256111133741568 
1123	 0.256559104480864 
1124	 0.256965304901489 
1125	 0.257402258634198 
1126	 0.257805857766581 
1127	 0.258202834986644 
1128	 0.258651979120595 
1129	 0.259080257999288 
1130	 0.259520645224413 
1131	 0.259944799972752 
1132	 0.260313110888746 
1133	 0.260726228921411 
1134	 0.261135399495162 
1135	 0.261525463139783 
1136	 0.261916786496408 
1137	 0.262318343269601 
1138	 0.26268531148029 
1139	 0.263086418855346 
1140	 0.263530245362263 
1141	 0.263940721298273 
1142	 0.264337430833467 
1143	 0.264741038571661 
1144	 0.265131206702258 
1145	 0.265548149974702 
1146	 0.265940903852068 
1147	 0.26634245939971 
1148	 0.266776464816615 
1149	 0.267184416925106 
1150	 0.26761437408196 
1151	 0.268030683233259 
1152	 0.268428885797957 
1153	 0.268796060718253 
1154	 0.269182386412385 
1155	 0.269566162704055 
1156	 0.269953372525494 
1157	 0.270339640276095 
1158	 0.270716038405034 
1159	 0.271083544885687 
1160	 0.271468041794983 
1161	 0.271844441430009 
1162	 0.272247796599979 
1163	 0.272647629419058 
1164	 0.273044461071538 
1165	 0.273438908671144 
1166	 0.273806208607964 
1167	 0.274178793352962 
1168	 0.274547074433521 
1169	 0.274923193776734 
1170	 0.275304147030757 
1171	 0.275688515792017 
1172	 0.276084428067934 
1173	 0.276470024399198 
1174	 0.276843549851283 
1175	 0.277223842793343 
1176	 0.277605705287131 
1177	 0.27798599692007 
1178	 0.278360168251087 
1179	 0.278764716246261 
1180	 0.279145310707975 
1181	 0.279513049327282 
1182	 0.27990526461937 
1183	 0.280270455499437 
1184	 0.280626349950366 
1185	 0.280994054862517 
1186	 0.281362171280426 
1187	 0.281718962067838 
1188	 0.282093798806253 
1189	 0.282490661732273 
1190	 0.282867997080342 
1191	 0.283241177288473 
1192	 0.283609216094055 
1193	 0.283968805576986 
1194	 0.284332369623859 
1195	 0.284695026935507 
1196	 0.28505705154735 
1197	 0.285406586943188 
1198	 0.285786664600356 
1199	 0.286168156820713 
1200	 0.286521288580558 
1201	 0.28687975263248 
1202	 0.287223348321018 
1203	 0.287575689552407 
1204	 0.287938665475562 
1205	 0.288291090052917 
1206	 0.288654057350799 
1207	 0.28900967996848 
1208	 0.289346041289496 
1209	 0.289695847317285 
1210	 0.290063114333898 
1211	 0.290409514874741 
1212	 0.290745317824143 
1213	 0.291089515894825 
1214	 0.291428194930832 
1215	 0.291769910007792 
1216	 0.292119822412269 
1217	 0.29246092923556 
1218	 0.292800825106194 
1219	 0.293133042516799 
1220	 0.29346276837423 
1221	 0.293799495000079 
1222	 0.294100476002335 
1223	 0.29441779091232 
1224	 0.294743832646258 
1225	 0.295067758411172 
1226	 0.295391022680088 
1227	 0.295738416816776 
1228	 0.296056505570576 
1229	 0.29634451848131 
1230	 0.296661649904238 
1231	 0.296994541466351 
1232	 0.297305660698744 
1233	 0.297617553237986 
1234	 0.297923696889696 
1235	 0.298199125919095 
1236	 0.298500650128292 
1237	 0.298820733967663 
1238	 0.299136501851639 
1239	 0.299456031625268 
1240	 0.299783157066799 
1241	 0.300110991158258 
1242	 0.300416707347931 
1243	 0.300715624565564 
1244	 0.3010034886902 
1245	 0.301291074537719 
1246	 0.30156487872342 
1247	 0.301851483205784 
1248	 0.302146379761616 
1249	 0.302431365425209 
1250	 0.302710526451603 
1251	 0.302993957797092 
1252	 0.303278530752249 
1253	 0.303557578340504 
1254	 0.303839939020188 
1255	 0.304119396156974 
1256	 0.304385664987276 
1257	 0.304663126191446 
1258	 0.304958544549312 
1259	 0.305234046438609 
1260	 0.305500412984786 
1261	 0.305769285501931 
1262	 0.306023858862574 
1263	 0.306288197714344 
1264	 0.306544256712847 
1265	 0.306802037088574 
1266	 0.307062433081596 
1267	 0.307318433955256 
1268	 0.307572092948497 
1269	 0.307827901960344 
1270	 0.308085860698059 
1271	 0.308335672944687 
1272	 0.308594480014613 
1273	 0.308865686735794 
1274	 0.309130582028675 
1275	 0.309395260906351 
1276	 0.309654270929311 
1277	 0.309897866920388 
1278	 0.310163647438992 
1279	 0.310448652684074 
1280	 0.310712438169464 
1281	 0.310969957501356 
1282	 0.31124039703877 
1283	 0.311491265519504 
1284	 0.311758447333319 
1285	 0.31203858303807 
1286	 0.312348757910999 
1287	 0.312631508349629 
1288	 0.312908817378101 
1289	 0.313186654286394 
1290	 0.313452414426517 
1291	 0.313737010080487 
1292	 0.314030908540375 
1293	 0.314318607100509 
1294	 0.314616720360686 
1295	 0.314901909726375 
1296	 0.315173076736554 
1297	 0.315454270669962 
1298	 0.315730315111314 
1299	 0.316018403498171 
1300	 0.316325551991845 
1301	 0.316613660341241 
1302	 0.316898407866354 
1303	 0.31718156765652 
1304	 0.317456318427125 
1305	 0.317725663902495 
1306	 0.317988809072595 
1307	 0.318257644530932 
1308	 0.318525340444131 
1309	 0.318789204978372 
1310	 0.31904415231144 
1311	 0.319300615114475 
1312	 0.319554098875949 
1313	 0.319797454744964 
1314	 0.320037135427031 
1315	 0.320284016661694 
1316	 0.320513756520545 
1317	 0.320720040915318 
1318	 0.320943179172773 
1319	 0.32116610354719 
1320	 0.321394034509852 
1321	 0.321630856753664 
1322	 0.321860357497342 
1323	 0.322090873362427 
1324	 0.322316900767119 
1325	 0.322543621292802 
1326	 0.322759983358343 
1327	 0.32297113402116 
1328	 0.323176606549304 
1329	 0.323380525131327 
1330	 0.32356725944184 
1331	 0.323736669415571 
1332	 0.323910173814551 
1333	 0.324068050304417 
1334	 0.324227002866219 
1335	 0.324408945651896 
1336	 0.32460818976155 
1337	 0.324796633392825 
1338	 0.324993687247816 
1339	 0.325183946953514 
1340	 0.32536538478615 
1341	 0.325555541719721 
1342	 0.325758365551453 
1343	 0.325942922333496 
1344	 0.326130193364499 
1345	 0.326294247069004 
1346	 0.326438266936435 
1347	 0.326583004926238 
1348	 0.326717245705281 
1349	 0.326846177144567 
1350	 0.326963658368061 
1351	 0.327091631028334 
1352	 0.327206132487236 
1353	 0.327342150697067 
1354	 0.327492545392436 
1355	 0.327650520394946 
1356	 0.327821429565845 
1357	 0.327996539146308 
1358	 0.328188838888147 
1359	 0.328371911615733 
1360	 0.328547677319036 
1361	 0.328739128677603 
1362	 0.328927125342464 
1363	 0.329089771060113 
1364	 0.329250123060237 
1365	 0.329400373999955 
1366	 0.329558136347429 
1367	 0.329705377549753 
1368	 0.329863823129594 
1369	 0.330031903071663 
1370	 0.330196741557612 
1371	 0.330363508463717 
1372	 0.330525135487537 
1373	 0.330691508096128 
1374	 0.330846455142038 
1375	 0.330989987189483 
1376	 0.331139336004197 
1377	 0.331290195870673 
1378	 0.331435253032134 
1379	 0.331577788539759 
1380	 0.331721372553078 
1381	 0.331868730672799 
1382	 0.332001338143684 
1383	 0.332125168835826 
1384	 0.332252371916142 
1385	 0.332372375955274 
1386	 0.332486433103489 
1387	 0.332608967550526 
1388	 0.332715575035531 
1389	 0.332804265310922 
1390	 0.332891149636284 
1391	 0.33297741573981 
1392	 0.333051205103339 
1393	 0.333107781225577 
1394	 0.333168663274803 
1395	 0.333209800073843 
1396	 0.333228983055488 
1397	 0.333262698672325 
1398	 0.333295487382171 
1399	 0.333318726464069 
1400	 0.333347487007273 
1401	 0.333358227914171 
1402	 0.333347641259694 
1403	 0.33335022299181 
1404	 0.333356222537831 
1405	 0.333349310846685 
1406	 0.333339641473563 
1407	 0.333326476577646 
1408	 0.333299304976929 
1409	 0.333279022840716 
1410	 0.333266677185231 
1411	 0.33324405849345 
1412	 0.333215647929431 
1413	 0.333186866324299 
1414	 0.333134591097277 
1415	 0.333116539654034 
1416	 0.333110166688385 
1417	 0.333115402077127 
1418	 0.333132945248879 
1419	 0.333179406464848 
1420	 0.333252388940286 
1421	 0.333324029481553 
1422	 0.333430268440754 
1423	 0.333521207022134 
1424	 0.333598177516689 
1425	 0.333680335826574 
1426	 0.333761450313684 
1427	 0.333858086456829 
1428	 0.333975769392483 
1429	 0.3341016342665 
1430	 0.334235994032902 
1431	 0.334392226340182 
1432	 0.334533487946884 
1433	 0.334672935132855 
1434	 0.334817344464544 
1435	 0.33496448106676 
1436	 0.335108685646875 
1437	 0.335251538539765 
1438	 0.335399608383374 
1439	 0.335548372876462 
1440	 0.335696987142673 
1441	 0.335850504390321 
1442	 0.336005698170351 
1443	 0.336150675284671 
1444	 0.33631641834727 
1445	 0.336502512151487 
1446	 0.336674780784649 
1447	 0.336845094180998 
1448	 0.337027677088006 
1449	 0.337209354847425 
1450	 0.337397224780282 
1451	 0.337600299919495 
1452	 0.337801759735488 
1453	 0.338005744944715 
1454	 0.33820344092354 
1455	 0.338412220937129 
1456	 0.33860373597684 
1457	 0.338779523981629 
1458	 0.338954970723129 
1459	 0.339115964621571 
1460	 0.339285696659632 
1461	 0.339455992029268 
1462	 0.33962829848546 
1463	 0.339808855194539 
1464	 0.339985778198256 
1465	 0.34016435690963 
1466	 0.340337795616512 
1467	 0.340507730100609 
1468	 0.340672243121676 
1469	 0.340833647253965 
1470	 0.34098830623767 
1471	 0.341132792966114 
1472	 0.341266079693624 
1473	 0.341406632524636 
1474	 0.341536803314281 
1475	 0.341683147869999 
1476	 0.341837606311421 
1477	 0.341999005629721 
1478	 0.342170766236252 
1479	 0.342334457499789 
1480	 0.342503171302315 
1481	 0.342667638947411 
1482	 0.342828103079767 
1483	 0.342986064794464 
1484	 0.343148022396549 
1485	 0.3432999119792 
1486	 0.343440864933036 
1487	 0.343584924883191 
1488	 0.343720780214174 
1489	 0.3438680057094 
1490	 0.344021389154653 
1491	 0.344171971877116 
1492	 0.344322026632812 
1493	 0.344483273850257 
1494	 0.344637648191289 
1495	 0.344815256337055 
1496	 0.34501333414095 
1497	 0.345215653283229 
1498	 0.345437913198841 
1499	 0.345651575475134 
1500	 0.345859628888978 
1501	 0.346083623684344 
1502	 0.346308798013897 
1503	 0.346546614552181 
1504	 0.346806401023059 
1505	 0.347062503450147 
1506	 0.347329544878384 
1507	 0.347586283100101 
1508	 0.347832604371081 
1509	 0.348091537724766 
1510	 0.348354665611865 
1511	 0.348612219372167 
1512	 0.348881475871535 
1513	 0.349141117626073 
1514	 0.349382699669043 
1515	 0.349634709089002 
1516	 0.349883730815244 
1517	 0.350143550515779 
1518	 0.350420907997401 
1519	 0.350687623879021 
1520	 0.350951696896416 
1521	 0.351222717503133 
1522	 0.351480881382051 
1523	 0.351751214633976 
1524	 0.352010563664011 
1525	 0.352268042381868 
1526	 0.352538270842412 
1527	 0.352801117419815 
1528	 0.353087024411137 
1529	 0.35339804032976 
1530	 0.353691004781454 
1531	 0.353985734632588 
1532	 0.354279192686933 
1533	 0.354563968157525 
1534	 0.354866175153992 
1535	 0.355178456486748 
1536	 0.355484942664214 
1537	 0.35580124981749 
1538	 0.356103139411613 
1539	 0.356398589254727 
1540	 0.356690090920693 
1541	 0.356975818122843 
1542	 0.357259068857299 
1543	 0.357540138151871 
1544	 0.357810683703865 
1545	 0.358076974926739 
1546	 0.358333529108297 
1547	 0.358582251913977 
1548	 0.358818962828019 
1549	 0.359044666245537 
1550	 0.359266673637415 
1551	 0.359472254188974 
1552	 0.359686978277165 
1553	 0.3598991031603 
1554	 0.360118122688285 
1555	 0.360347712823572 
1556	 0.360562786060188 
1557	 0.360762985390188 
1558	 0.360989928624639 
1559	 0.361228053323941 
1560	 0.361453803669289 
1561	 0.361700272046955 
1562	 0.361924894803699 
1563	 0.362112695454268 
1564	 0.362331795193316 
1565	 0.362570772557995 
1566	 0.362794049975447 
1567	 0.363018024946383 
1568	 0.36324408193276 
1569	 0.36345627113585 
1570	 0.363684543629455 
1571	 0.363932360575534 
1572	 0.364167553591741 
1573	 0.364400009176057 
1574	 0.364634965695013 
1575	 0.364867034943272 
1576	 0.365100479138009 
1577	 0.365342616415663 
1578	 0.36557322936905 
1579	 0.365801026870387 
1580	 0.366018398298303 
1581	 0.366213995314119 
1582	 0.366430059310931 
1583	 0.366650921074982 
1584	 0.366871388020986 
1585	 0.367112004449847 
1586	 0.367333408724525 
1587	 0.36753181421454 
1588	 0.367747573976835 
1589	 0.36795609259877 
1590	 0.368185106936363 
1591	 0.368440994133467 
1592	 0.368684403974516 
1593	 0.368940914024071 
1594	 0.369182151489138 
1595	 0.369398747348481 
1596	 0.369635295827708 
1597	 0.369869179571749 
1598	 0.370116908233694 
1599	 0.370407257031598 
1600	 0.370655484672394 
1601	 0.370877303633929 
1602	 0.371114162447381 
1603	 0.371334603128501 
1604	 0.371557446662744 
1605	 0.371801146638376 
1606	 0.372029369734733 
1607	 0.372239792010007 
1608	 0.372452920242908 
1609	 0.372658626311606 
1610	 0.372876061731168 
1611	 0.373095661316089 
1612	 0.373314940734609 
1613	 0.37354487746309 
1614	 0.373771673567747 
1615	 0.373991782532648 
1616	 0.374219617072202 
1617	 0.374459020054988 
1618	 0.374687817526138 
1619	 0.374902776923944 
1620	 0.37513537961753 
1621	 0.375383321886023 
1622	 0.375612974540939 
1623	 0.375848228635558 
1624	 0.376076772503226 
1625	 0.376271987155643 
1626	 0.376494176019465 
1627	 0.376744575507473 
1628	 0.376972849912777 
1629	 0.377203465745792 
1630	 0.377424845333349 
1631	 0.377638304290277 
1632	 0.377835631957744 
1633	 0.378018500665612 
1634	 0.378203559981171 
1635	 0.378360203846386 
1636	 0.378538099709226 
1637	 0.378735954389173 
1638	 0.378924865757551 
1639	 0.379125080957469 
1640	 0.379311077259746 
1641	 0.37947866922143 
1642	 0.379660617857982 
1643	 0.379845296185081 
1644	 0.380022724125954 
1645	 0.380205793427204 
1646	 0.380385132413928 
1647	 0.38055131867036 
1648	 0.380726769214891 
1649	 0.38091180321675 
1650	 0.381092941074415 
1651	 0.38126825390365 
1652	 0.381449205885889 
1653	 0.381638016071934 
1654	 0.381817966183933 
1655	 0.382011246994995 
1656	 0.382178388415901 
1657	 0.382332721042436 
1658	 0.382469790860947 
1659	 0.382573531971769 
1660	 0.382688954358561 
1661	 0.382804702979202 
1662	 0.382907509769385 
1663	 0.383016179243058 
1664	 0.383099214429663 
1665	 0.383152014006146 
1666	 0.38321255294505 
1667	 0.383276119994476 
1668	 0.38330845814315 
1669	 0.383336906936801 
1670	 0.383336600885298 
1671	 0.383304721197666 
1672	 0.383255590373874 
1673	 0.383178935139489 
1674	 0.383098361969554 
1675	 0.382990269571376 
1676	 0.382889681345763 
1677	 0.382794089348523 
1678	 0.382684232859624 
1679	 0.382548638895423 
1680	 0.382443520295562 
1681	 0.382332314601833 
1682	 0.38225584753103 
1683	 0.38221125595049 
1684	 0.382174937301253 
1685	 0.382158012191144 
1686	 0.382152452528479 
1687	 0.382146516026741 
1688	 0.382187277702826 
1689	 0.382263354813431 
1690	 0.38234432769936 
1691	 0.382461774870008 
1692	 0.382576044993119 
1693	 0.38268299878731 
1694	 0.38282135429164 
1695	 0.382992581970065 
1696	 0.383152444419732 
1697	 0.383335609455182 
1698	 0.383487686913698 
1699	 0.383625440021939 
1700	 0.38375797505689 
1701	 0.383873555924529 
1702	 0.383997422630383 
1703	 0.384118677956126 
1704	 0.38424060392805 
1705	 0.384367251201354 
1706	 0.384471762779245 
1707	 0.384573418395067 
1708	 0.384652067987299 
1709	 0.384737574927986 
1710	 0.384798047841972 
1711	 0.384812282614112 
1712	 0.384807346599377 
1713	 0.384771967200861 
1714	 0.384710178553588 
1715	 0.384656587439059 
1716	 0.384593840922473 
1717	 0.384506644040319 
1718	 0.384416507466373 
1719	 0.384322125663367 
1720	 0.384216523669536 
1721	 0.384101341017276 
1722	 0.383997527029668 
1723	 0.383915956929828 
1724	 0.383835212341367 
1725	 0.383805839592608 
1726	 0.383837120466795 
1727	 0.383882176748141 
1728	 0.383979851105712 
1729	 0.384103799126335 
1730	 0.384212721845447 
1731	 0.384346207287187 
1732	 0.384511284340976 
1733	 0.384680427404988 
1734	 0.384884371496737 
1735	 0.385106307806933 
1736	 0.385310126911034 
1737	 0.385539039961683 
1738	 0.38578387184074 
1739	 0.386001335512307 
1740	 0.386207829168985 
1741	 0.386429397713626 
1742	 0.386623518013579 
1743	 0.386864082756367 
1744	 0.387163104137925 
1745	 0.387426505999774 
1746	 0.387683578038171 
1747	 0.387941146158694 
1748	 0.388195226045702 
1749	 0.388438454342778 
1750	 0.388692056616791 
1751	 0.388927911135705 
1752	 0.38913446585765 
1753	 0.389340902938689 
1754	 0.389544251201746 
1755	 0.389740604750926 
1756	 0.389910926049583 
1757	 0.390115266681772 
1758	 0.390348881872812 
1759	 0.3905808137976 
1760	 0.390818748096138 
1761	 0.391059159512767 
1762	 0.391277289253688 
1763	 0.39148593563593 
1764	 0.391707842747861 
1765	 0.391930301925825 
1766	 0.392153615546018 
1767	 0.392397493409091 
1768	 0.39265571510131 
1769	 0.392919843502959 
1770	 0.393173214872831 
1771	 0.393401827815091 
1772	 0.393650210972271 
1773	 0.393903471274182 
1774	 0.394135200096891 
1775	 0.394377437312527 
1776	 0.394606128341086 
1777	 0.394802970417129 
1778	 0.394997600998144 
1779	 0.395208983967254 
1780	 0.395402753570164 
1781	 0.395570607064291 
1782	 0.395743267194464 
1783	 0.395907212975452 
1784	 0.396053409383314 
1785	 0.396221084029415 
1786	 0.396390167425416 
1787	 0.396537018950768 
1788	 0.396705738987965 
1789	 0.396889353689877 
1790	 0.397071223873286 
1791	 0.397286568353571 
1792	 0.397488611280827 
1793	 0.39767166653578 
1794	 0.397874726726085 
1795	 0.398025251350898 
1796	 0.398172113174521 
1797	 0.398384400064801 
1798	 0.398578773242364 
1799	 0.39877114204768 
1800	 0.398993616837288 
1801	 0.400183651921967 
1802	 0.40037071586471 
1803	 0.400572616481063 
1804	 0.400780110017022 
1805	 0.40099471765189 
1806	 0.401215743077848 
1807	 0.401449090108551 
1808	 0.401678536300995 
1809	 0.401921383424576 
1810	 0.402144731900243 
1811	 0.402371291388223 
1812	 0.402584159204015 
1813	 0.402770928342573 
1814	 0.402976635075622 
1815	 0.403186271064303 
1816	 0.403378052337893 
1817	 0.403580066491148 
1818	 0.40378646416671 
1819	 0.403990780755292 
1820	 0.404193323928786 
1821	 0.404400661816598 
1822	 0.404606506941422 
1823	 0.404829683483855 
1824	 0.405045131414296 
1825	 0.40524388789338 
1826	 0.405451772570539 
1827	 0.405661155013272 
1828	 0.405867960220439 
1829	 0.406078883103688 
1830	 0.406280854198639 
1831	 0.406483382617605 
1832	 0.406675757330552 
1833	 0.406831757075062 
1834	 0.407008552600259 
1835	 0.407205362778185 
1836	 0.407368888353695 
1837	 0.407547884242779 
1838	 0.407753442745557 
1839	 0.407930076918417 
1840	 0.408094631263617 
1841	 0.40825371370969 
1842	 0.408396021250524 
1843	 0.408548411515725 
1844	 0.408701525342754 
1845	 0.408839208217542 
1846	 0.409014445580259 
1847	 0.409180902856166 
1848	 0.409334353541457 
1849	 0.409500186799263 
1850	 0.409630540797647 
1851	 0.40972888283278 
1852	 0.409842554153884 
1853	 0.409940645473935 
1854	 0.410015021722873 
1855	 0.410095420991975 
1856	 0.410164849064285 
1857	 0.410233342914244 
1858	 0.41029577247406 
1859	 0.410342114758021 
1860	 0.410392806032615 
1861	 0.410407083327956 
1862	 0.410390960884511 
1863	 0.410378196376253 
1864	 0.410344121606046 
1865	 0.410269092014115 
1866	 0.410166125594867 
1867	 0.410030688820654 
1868	 0.409861431804219 
1869	 0.409664913003025 
1870	 0.409428257348434 
1871	 0.409161732281037 
1872	 0.408854850051056 
1873	 0.408507134088287 
1874	 0.408139304751452 
1875	 0.407733893840364 
1876	 0.407242500220971 
1877	 0.406725830398142 
1878	 0.406146388946163 
1879	 0.405491602374354 
1880	 0.404837448796794 
1881	 0.404087110358069 
1882	 0.403265846092459 
1883	 0.402373782194312 
1884	 0.401409515236053 
1885	 0.400296357766841 
1886	 0.399151348133302 
1887	 0.397874099531209 
1888	 0.396445865954658 
1889	 0.395051904306201 
1890	 0.393507604865255 
1891	 0.391910408601178 
1892	 0.390300722880935 
1893	 0.388571186885896 
1894	 0.386705974158657 
1895	 0.384862953578916 
1896	 0.382926984643073 
1897	 0.380905143647046 
1898	 0.379012680310584 
1899	 0.377045966779062 
1900	 0.375100334275192 
1901	 0.373207806600688 
1902	 0.371168070848675 
1903	 0.369181185519135 
1904	 0.367246233241816 
1905	 0.365303865981651 
1906	 0.363417335016469 
1907	 0.361734181655203 
1908	 0.360063592437469 
1909	 0.358478342237581 
1910	 0.356978849456641 
1911	 0.355440500349878 
1912	 0.354050869143992 
1913	 0.352704195820947 
1914	 0.351382397482294 
1915	 0.35017367974172 
1916	 0.349091360750362 
1917	 0.347986799536157 
1918	 0.346956951704232 
1919	 0.34602603339307 
1920	 0.345073610710928 
1921	 0.344207600298984 
1922	 0.343385614667183 
1923	 0.342599325881649 
1924	 0.341936232000711 
1925	 0.341302699886104 
1926	 0.340707675913191 
1927	 0.340176149481274 
1928	 0.339676080478286 
1929	 0.339193969939983 
1930	 0.33877263590589 
1931	 0.338434400754172 
1932	 0.338152447788012 
1933	 0.337932646873953 
1934	 0.337757245263906 
1935	 0.33760903754552 
1936	 0.337523062146951 
1937	 0.337496033974398 
1938	 0.337532247632817 
1939	 0.337603520263009 
1940	 0.337734508478101 
1941	 0.337895609222001 
1942	 0.338083128810185 
1943	 0.33834139431456 
1944	 0.338647292362878 
1945	 0.338982964603833 
1946	 0.339367425864351 
1947	 0.339768058031104 
1948	 0.340200317461135 
1949	 0.340688344329854 
1950	 0.341184442305435 
1951	 0.341705421633385 
1952	 0.342254999491707 
1953	 0.342832014928617 
1954	 0.343421161674651 
1955	 0.34404775217996 
1956	 0.344667454273856 
1957	 0.34531940261467 
1958	 0.345993305697339 
1959	 0.34663385384783 
1960	 0.347304141548616 
1961	 0.347960579411615 
1962	 0.34858749538284 
1963	 0.349238761753958 
1964	 0.34991348158957 
1965	 0.350568883582104 
1966	 0.35122770670787 
1967	 0.351890046425434 
1968	 0.352492835541047 
1969	 0.353123520192695 
1970	 0.353766503715379 
1971	 0.354402529156035 
1972	 0.355101299034406 
1973	 0.355778074211342 
1974	 0.356445418598264 
1975	 0.357120426220829 
1976	 0.357771014842466 
1977	 0.358387497490741 
1978	 0.35903239788198 
1979	 0.359676722015641 
1980	 0.360312409371977 
1981	 0.360992318929662 
1982	 0.361656389887335 
1983	 0.362328793830863 
1984	 0.362999534585119 
1985	 0.363622258121336 
1986	 0.364248252086002 
1987	 0.364880958707356 
1988	 0.365483827795318 
1989	 0.366131956694537 
1990	 0.366819549951488 
1991	 0.367489764434475 
1992	 0.368176354833201 
1993	 0.36886315450136 
1994	 0.369506086646178 
1995	 0.37014162102758 
1996	 0.370758782307843 
1997	 0.371364674356411 
1998	 0.372001050440286 
1999	 0.372658689844025 
2000	 0.373287065324567 
2001	 0.373944873297245 
2002	 0.374551997697645 
2003	 0.375116511241864 
2004	 0.375683875069918 
2005	 0.376228476627589 
2006	 0.376766200056275 
2007	 0.37730407364894 
2008	 0.377817334500885 
2009	 0.378316875200454 
2010	 0.378790410348145 
2011	 0.379201164845356 
2012	 0.379611584770056 
2013	 0.37998374840849 
2014	 0.380315841404374 
2015	 0.38062977748614 
2016	 0.380935221687925 
2017	 0.381183140849581 
2018	 0.381406172699677 
2019	 0.38157541454275 
2020	 0.381705774790571 
2021	 0.381764316961433 
2022	 0.381774998285979 
2023	 0.381754168485546 
2024	 0.381680346556225 
2025	 0.381589465637216 
2026	 0.381450744728766 
2027	 0.38126405070959 
2028	 0.38105948320113 
2029	 0.38080316779607 
2030	 0.380543269565809 
2031	 0.380248354910851 
2032	 0.37997952392724 
2033	 0.37967692215261 
2034	 0.379428267387723 
2035	 0.379207899991459 
2036	 0.378994123031739 
2037	 0.378841873978178 
2038	 0.378744985727747 
2039	 0.378692157799397 
2040	 0.378684441993227 
2041	 0.378748693806847 
2042	 0.378856611266963 
2043	 0.379041623520604 
2044	 0.379333772311073 
2045	 0.379619539694734 
2046	 0.37995818456714 
2047	 0.380316175207061 
2048	 0.380663714390637 
2049	 0.381091413562272 
2050	 0.381595482563223 
2051	 0.382104307361106 
2052	 0.382669810635871 
2053	 0.383289129055495 
2054	 0.38388368541569 
2055	 0.384485009214426 
2056	 0.385108381925334 
2057	 0.38572741792937 
2058	 0.386387638077162 
2059	 0.387084551422975 
2060	 0.387779261644922 
2061	 0.388527127764485 
2062	 0.389227701638877 
2063	 0.389892784655775 
2064	 0.390592367137826 
2065	 0.391291353250733 
2066	 0.391980494875147 
2067	 0.392733707021774 
2068	 0.393461330653902 
2069	 0.394171441654311 
2070	 0.394890075947856 
2071	 0.395555279372392 
2072	 0.396189698484289 
2073	 0.396805247031984 
2074	 0.397370256593837 
2075	 0.3979443070099 
2076	 0.398508679668971 
2077	 0.399057515605931 
2078	 0.399609428244944 
2079	 0.400133462210576 
2080	 0.400642723670164 
2081	 0.40112236364537 
2082	 0.401574857456732 
2083	 0.401995108688686 
2084	 0.402425570039775 
2085	 0.402806186714243 
2086	 0.40318438210365 
2087	 0.403562270215534 
2088	 0.40390237938242 
2089	 0.404214750795657 
2090	 0.404507810251755 
2091	 0.404769544118586 
2092	 0.405020632078541 
2093	 0.405249797643722 
2094	 0.405462920383148 
2095	 0.405662238704566 
2096	 0.405846656283889 
2097	 0.406001103016398 
2098	 0.406153191067262 
2099	 0.406315484472859 
2100	 0.406467056455536 
2101	 0.406621277800488 
2102	 0.40678207651842 
2103	 0.406933699739486 
2104	 0.407077394929993 
2105	 0.407220865407916 
2106	 0.407360429302464 
2107	 0.407503807115582 
2108	 0.407644237090476 
2109	 0.407787694202978 
2110	 0.407947060670919 
2111	 0.40808198728565 
2112	 0.40822042651023 
2113	 0.408329134429197 
2114	 0.408403670357207 
2115	 0.408483719405375 
2116	 0.40855837580874 
2117	 0.408606799830654 
2118	 0.408655156041553 
2119	 0.408702718397339 
2120	 0.408733007371097 
2121	 0.408747100659297 
2122	 0.408758392606147 
2123	 0.408775370459812 
2124	 0.408753908837819 
2125	 0.408728219886138 
2126	 0.408648138271227 
2127	 0.408534775271872 
2128	 0.408382828013994 
2129	 0.408175943188895 
2130	 0.407958393988746 
2131	 0.407744839828345 
2132	 0.407445547733867 
2133	 0.407095923815894 
2134	 0.406716251221816 
2135	 0.406224048461433 
2136	 0.405686766700351 
2137	 0.40514910852115 
2138	 0.404571490671572 
2139	 0.40398204343433 
2140	 0.403377032215971 
2141	 0.402755140437721 
2142	 0.402110802100761 
2143	 0.401445012989009 
2144	 0.400773856643604 
2145	 0.400067538042559 
2146	 0.399302991130785 
2147	 0.398563337155006 
2148	 0.397833736629779 
2149	 0.397056604855291 
2150	 0.396286788323796 
2151	 0.395469991114402 
2152	 0.394573235224857 
2153	 0.39370373284749 
2154	 0.392812981676951 
2155	 0.391900721176859 
2156	 0.391036538065057 
2157	 0.390178470314921 
2158	 0.389355859952464 
2159	 0.388594012106709 
2160	 0.387774332054396 
2161	 0.386935423770492 
2162	 0.386135542555047 
2163	 0.38529481094559 
2164	 0.384536771358133 
2165	 0.383832271430862 
2166	 0.38316576730881 
2167	 0.382544514071737 
2168	 0.381952206840989 
2169	 0.381389592383634 
2170	 0.380886334555656 
2171	 0.380412068841719 
2172	 0.380002455042801 
2173	 0.379659288107482 
2174	 0.379363632860552 
2175	 0.379150491451985 
2176	 0.378962098908348 
2177	 0.378798171704017 
2178	 0.37869083040604 
2179	 0.378585951718912 
2180	 0.378488495541118 
2181	 0.378433178057038 
2182	 0.37840448135809 
2183	 0.378422123003086 
2184	 0.378473105276193 
2185	 0.378561944746268 
2186	 0.378698723709304 
2187	 0.378863870355357 
2188	 0.379093645158181 
2189	 0.379293756403185 
2190	 0.379517552363832 
2191	 0.379735165332452 
2192	 0.379921866776074 
2193	 0.380140838366638 
2194	 0.380396932575374 
2195	 0.380636951854338 
2196	 0.380884491309542 
2197	 0.381129302141657 
2198	 0.381353953813229 
2199	 0.381596159249723 
2200	 0.381835855080771 
2201	 0.38209050417165 
2202	 0.382308633385046 
2203	 0.382511835625121 
2204	 0.382713824765596 
2205	 0.382888843226955 
2206	 0.383080239901955 
2207	 0.383289319847232 
2208	 0.383475025395639 
2209	 0.383640091821264 
2210	 0.383822723251432 
2211	 0.383998764082544 
2212	 0.384182657444052 
2213	 0.384386683642433 
2214	 0.384579907962512 
2215	 0.384760815587599 
2216	 0.384955638887494 
2217	 0.385176980695648 
2218	 0.385360172256414 
2219	 0.385550106451686 
2220	 0.385699692942673 
2221	 0.385812799773038 
2222	 0.3858948452876 
2223	 0.385973477118503 
2224	 0.386043447102168 
2225	 0.38606843696556 
2226	 0.386064241544325 
2227	 0.386041245776322 
2228	 0.3859948654065 
2229	 0.385885497642408 
2230	 0.385758149598548 
2231	 0.385555501091621 
2232	 0.385272340866885 
2233	 0.384960742486102 
2234	 0.38461671607022 
2235	 0.384204276221103 
2236	 0.383746513970976 
2237	 0.383207151011881 
2238	 0.382580667441258 
2239	 0.381924971438953 
2240	 0.381211094175378 
2241	 0.380434715425775 
2242	 0.379634153548018 
2243	 0.378734052992751 
2244	 0.377704708286643 
2245	 0.376690261702434 
2246	 0.375599097901969 
2247	 0.374508315140847 
2248	 0.373413441709727 
2249	 0.372295217621324 
2250	 0.371154778627149 
2251	 0.37001498730655 
2252	 0.368764037640718 
2253	 0.367512482945461 
2254	 0.366240885495362 
2255	 0.364969630124163 
2256	 0.363848460704348 
2257	 0.362770519129733 
2258	 0.36171946790007 
2259	 0.360715064025272 
2260	 0.359764688358359 
2261	 0.358810644338127 
2262	 0.358022401751936 
2263	 0.357340492494089 
2264	 0.356718205960528 
2265	 0.3562380867532 
2266	 0.35574906652889 
2267	 0.355326811385387 
2268	 0.354895209645816 
2269	 0.354495405763257 
2270	 0.354108685675432 
2271	 0.353734644512135 
2272	 0.353360218978824 
2273	 0.353013271422727 
2274	 0.352655576209615 
2275	 0.352287625447816 
2276	 0.351934641473068 
2277	 0.351559364078913 
2278	 0.351248780697246 
2279	 0.350953397721722 
2280	 0.350706368535794 
2281	 0.350547687026194 
2282	 0.350379415969424 
2283	 0.350226989757497 
2284	 0.350083107090049 
2285	 0.350000901949498 
2286	 0.349974668957156 
2287	 0.350013878879564 
2288	 0.350159552117705 
2289	 0.350324018538476 
2290	 0.350508128238536 
2291	 0.350695967617882 
2292	 0.350881869242263 
2293	 0.351132592486212 
2294	 0.351373297923899 
2295	 0.351644117477351 
2296	 0.351958409746359 
2297	 0.352248503463925 
2298	 0.352520233864657 
2299	 0.352817147891638 
2300	 0.353134054587133 
2301	 0.353435716003691 
2302	 0.353748582291307 
2303	 0.354030456647022 
2304	 0.354286388440026 
2305	 0.354572444027818 
2306	 0.354851910225363 
2307	 0.355138659257076 
2308	 0.355436028163245 
2309	 0.355744436978182 
2310	 0.356046549755107 
2311	 0.356373259754586 
2312	 0.356753263920052 
2313	 0.357091739295526 
2314	 0.357432169182221 
2315	 0.357743615287473 
2316	 0.358026450124924 
2317	 0.358293263383492 
2318	 0.35856938000044 
2319	 0.358770323122968 
2320	 0.358933453158294 
2321	 0.359050448474971 
2322	 0.359097601697861 
2323	 0.359107531440466 
2324	 0.359069160556292 
2325	 0.35900422150143 
2326	 0.358886559554113 
2327	 0.358754503991728 
2328	 0.358552413735783 
2329	 0.35841200634911 
2330	 0.358297328177733 
2331	 0.358158915825506 
2332	 0.35802907031762 
2333	 0.357863988336569 
2334	 0.357623716114416 
2335	 0.357372107454536 
2336	 0.357096961468238 
2337	 0.356798771105178 
2338	 0.356547754219527 
2339	 0.356271184508573 
2340	 0.355998398594359 
2341	 0.355792133279399 
2342	 0.355525008160697 
2343	 0.355278071952392 
2344	 0.355153721785344 
2345	 0.355078673584285 
2346	 0.355101741061234 
2347	 0.355177722631206 
2348	 0.355219864679736 
2349	 0.355342239892102 
2350	 0.355495177150848 
2351	 0.355672460996347 
2352	 0.355962637181811 
2353	 0.356245831106719 
2354	 0.356497680846167 
2355	 0.35684016550627 
2356	 0.357157048359423 
2357	 0.357375467473334 
2358	 0.357593200517465 
2359	 0.35772892227238 
2360	 0.357842362381625 
2361	 0.35799821088258 
2362	 0.358096598654824 
2363	 0.358144424684949 
2364	 0.358164056488974 
2365	 0.358188927784815 
2366	 0.358264799084671 
2367	 0.358368965046178 
2368	 0.358437340660807 
2369	 0.358418837374024 
2370	 0.358347671971246 
2371	 0.358282962383709 
2372	 0.358175077499321 
2373	 0.35805238357327 
2374	 0.35800321983174 
2375	 0.357937461911714 
2376	 0.357870158975911 
2377	 0.357868128490418 
2378	 0.357765802502147 
2379	 0.357571129180594 
2380	 0.357365585197564 
2381	 0.357101908139944 
2382	 0.356926888848152 
2383	 0.356824940593988 
2384	 0.35665598811636 
2385	 0.356524519835534 
2386	 0.356340329829796 
2387	 0.356038149074094 
2388	 0.355839970586801 
2389	 0.35571437162587 
2390	 0.355544819131571 
2391	 0.355371845582445 
2392	 0.355216604927289 
2393	 0.355088424159196 
2394	 0.354890757200133 
2395	 0.354684055544044 
2396	 0.354419625038548 
2397	 0.354041466254071 
2398	 0.353742091496715 
2399	 0.353469439256783 
2400	 0.35321580710244 
2401	 0.353004296748657 
2402	 0.352785095222146 
2403	 0.352499424601664 
2404	 0.352207230817778 
2405	 0.3518801125931 
2406	 0.351527493390232 
2407	 0.351241686755906 
2408	 0.351032348675089 
2409	 0.350828720105741 
2410	 0.35057805525801 
2411	 0.350312757961138 
2412	 0.34996926235633 
2413	 0.349645747336258 
2414	 0.349354760223485 
2415	 0.348981946611982 
2416	 0.348617973667478 
2417	 0.348201037425621 
2418	 0.347734120325025 
2419	 0.347378500945315 
2420	 0.347075461540904 
2421	 0.346691894252914 
2422	 0.346355005678578 
2423	 0.346092951308249 
2424	 0.34571607745976 
2425	 0.34536510948538 
2426	 0.345045568874878 
2427	 0.344626639210502 
2428	 0.344264677267675 
2429	 0.34388568018903 
2430	 0.343369398740053 
2431	 0.342797924748249 
2432	 0.342195298139482 
2433	 0.341587950287715 
2434	 0.340986290255207 
2435	 0.340377462838331 
2436	 0.339758273301716 
2437	 0.339079508830383 
2438	 0.338410219969015 
2439	 0.337774737980264 
2440	 0.33704480590122 
2441	 0.33638655986742 
2442	 0.335919447025676 
2443	 0.335295642285857 
2444	 0.334591974312804 
2445	 0.333923757875837 
2446	 0.333030118562053 
2447	 0.332210141977695 
2448	 0.331449619841727 
2449	 0.330578429751078 
2450	 0.329822540326287 
2451	 0.32911308211995 
2452	 0.328477669188198 
2453	 0.3277760817374 
2454	 0.32705446256195 
2455	 0.326406521192249 
2456	 0.325648857486326 
2457	 0.324988608736813 
2458	 0.324353688440957 
2459	 0.323750059410509 
2460	 0.323296880524758 
2461	 0.322943508874653 
2462	 0.322526324427883 
2463	 0.321985383192126 
2464	 0.321530217941858 
2465	 0.320969105031932 
2466	 0.320538908962573 
2467	 0.320153379134308 
2468	 0.319439441958768 
2469	 0.318912591550885 
2470	 0.318529524718207 
2471	 0.318004629740375 
2472	 0.317530063088662 
2473	 0.317130543027668 
2474	 0.316559264552887 
2475	 0.316039226984834 
2476	 0.315881005357763 
2477	 0.315583567190084 
2478	 0.315307584631204 
2479	 0.315146120852626 
2480	 0.314535092220884 
2481	 0.314204272693703 
2482	 0.313897578786234 
2483	 0.31360629162005 
2484	 0.313469867494463 
2485	 0.313088108453846 
2486	 0.312599167309596 
2487	 0.312374382002208 
2488	 0.312158503361424 
2489	 0.312004257786133 
2490	 0.311876825901535 
2491	 0.311459288168634 
2492	 0.310927284671761 
2493	 0.310412418143826 
2494	 0.309988918468744 
2495	 0.309705964210471 
2496	 0.309538181557059 
2497	 0.309336287275888 
2498	 0.308924384197034 
2499	 0.308750285487357 
2500	 0.308601143728551 
