Wavelength	spectrum00013.asd
350	 5.74862015879869E-02 
351	 5.47673163733385E-02 
352	 5.13027787370363E-02 
353	 4.97181421966828E-02 
354	 5.18588027565146E-02 
355	 0.05267643096003 
356	 5.15241205887911E-02 
357	 4.94626857014904E-02 
358	 4.91119308443396E-02 
359	 4.78935698386195E-02 
360	 4.67520009372298E-02 
361	 4.78686809637494E-02 
362	 4.79816739686795E-02 
363	 4.66220931225539E-02 
364	 4.46279798380984E-02 
365	 4.40304258072917E-02 
366	 4.56791757652908E-02 
367	 4.69050643228937E-02 
368	 4.57663080365995E-02 
369	 4.54471416908516E-02 
370	 4.51210570585242E-02 
371	 4.49759315652188E-02 
372	 4.56091216906759E-02 
373	 4.61510571133807E-02 
374	 4.54722808826998E-02 
375	 4.42040853475655E-02 
376	 4.54164719373129E-02 
377	 4.64072128061417E-02 
378	 4.66421158618932E-02 
379	 4.61854520300031E-02 
380	 4.47203771653552E-02 
381	 4.55175111911834E-02 
382	 4.68251201989874E-02 
383	 4.46400899069535E-02 
384	 4.48635683490875E-02 
385	 4.56457181425185E-02 
386	 4.54312301137076E-02 
387	 4.44669550825581E-02 
388	 4.43343338454781E-02 
389	 4.47356610990077E-02 
390	 4.48854590000523E-02 
391	 4.43465476520493E-02 
392	 4.44668065189873E-02 
393	 4.50216166606235E-02 
394	 4.48243517628154E-02 
395	 4.44610592946271E-02 
396	 4.44971931892792E-02 
397	 4.49725555283201E-02 
398	 4.51278745697203E-02 
399	 4.47996787199962E-02 
400	 4.44654970922057E-02 
401	 4.45655222269496E-02 
402	 4.44505550687327E-02 
403	 4.47118235735665E-02 
404	 4.50736798078062E-02 
405	 4.46904859415246E-02 
406	 4.44388806929275E-02 
407	 4.42003678606576E-02 
408	 4.39364757443931E-02 
409	 4.40893749829501E-02 
410	 4.41250183814779E-02 
411	 4.41708680875772E-02 
412	 4.44536000796432E-02 
413	 4.46085868716486E-02 
414	 4.42997039706096E-02 
415	 4.39360421970384E-02 
416	 0.044487623523065 
417	 4.45860533608963E-02 
418	 4.44767325036675E-02 
419	 4.45031843341962E-02 
420	 4.45103292787082E-02 
421	 0.044684499135859 
422	 4.49181693424068E-02 
423	 4.50419296773382E-02 
424	 4.53569581929485E-02 
425	 4.55984383569344E-02 
426	 4.56530295863176E-02 
427	 4.56275890862252E-02 
428	 4.57066481649025E-02 
429	 4.59808957076556E-02 
430	 4.63678978771127E-02 
431	 4.63524483528095E-02 
432	 4.64622799738848E-02 
433	 4.67736471670973E-02 
434	 4.70880461545374E-02 
435	 0.047288988064109 
436	 4.74956218317176E-02 
437	 4.77433698413592E-02 
438	 4.78838787321115E-02 
439	 4.81393428345777E-02 
440	 4.84158580010403E-02 
441	 4.85875545140227E-02 
442	 4.87914757547801E-02 
443	 4.91428493422731E-02 
444	 4.94635357753597E-02 
445	 4.93939195999503E-02 
446	 0.04947596817055 
447	 0.049680913006579 
448	 0.049892520757219 
449	 5.00174938149324E-02 
450	 5.01796914137019E-02 
451	 5.03013428037281E-02 
452	 5.02787633629165E-02 
453	 5.03372803869128E-02 
454	 5.04518908764281E-02 
455	 5.05402553713658E-02 
456	 5.04844487647317E-02 
457	 5.04673660077119E-02 
458	 5.04563381590646E-02 
459	 5.04412440295184E-02 
460	 5.06652221097503E-02 
461	 5.06863864065025E-02 
462	 5.05449612616494E-02 
463	 5.05355937312375E-02 
464	 5.05308664685916E-02 
465	 5.06394916044375E-02 
466	 0.050805880940025 
467	 5.06826377868198E-02 
468	 5.06530398176439E-02 
469	 5.07283924200075E-02 
470	 5.08125978072781E-02 
471	 5.08697833483617E-02 
472	 0.050867890138617 
473	 5.08625190872853E-02 
474	 5.09630572394792E-02 
475	 5.09967796310081E-02 
476	 0.051023569623252 
477	 5.10946431860352E-02 
478	 5.11585464841393E-02 
479	 5.12042588719379E-02 
480	 5.12690587641864E-02 
481	 0.05140350488593 
482	 5.16082755243124E-02 
483	 5.17687214132106E-02 
484	 5.18593531745566E-02 
485	 5.19650705139724E-02 
486	 5.22518334906626E-02 
487	 5.25016509080969E-02 
488	 5.25515951927183E-02 
489	 5.26788133824486E-02 
490	 5.29332993501197E-02 
491	 5.32628566525285E-02 
492	 5.35497995532927E-02 
493	 5.37252009929877E-02 
494	 5.39390710399015E-02 
495	 5.42594505842462E-02 
496	 5.45805590979185E-02 
497	 5.48402333506695E-02 
498	 5.50694705710375E-02 
499	 5.53338240610489E-02 
500	 5.56920142295074E-02 
501	 0.056019557421178 
502	 0.056313073894986 
503	 5.66766948719953E-02 
504	 5.70286994626656E-02 
505	 0.057348790120006 
506	 5.76529370455731E-02 
507	 5.80127285482969E-02 
508	 5.84063716419301E-02 
509	 5.88217326313595E-02 
510	 5.92390836016383E-02 
511	 0.059560696416188 
512	 5.99590891724083E-02 
513	 6.04607835831928E-02 
514	 0.06087794060911 
515	 6.13237184980912E-02 
516	 6.17487988572084E-02 
517	 6.21202266070077E-02 
518	 0.062594409133517 
519	 6.31278886809455E-02 
520	 6.36726785826173E-02 
521	 6.41872376999817E-02 
522	 6.47315772529844E-02 
523	 6.52672740832976E-02 
524	 6.57895261006338E-02 
525	 6.63949396653408E-02 
526	 6.69629153380454E-02 
527	 6.75531868260379E-02 
528	 6.82542614286869E-02 
529	 6.89408130141252E-02 
530	 6.95729770105566E-02 
531	 7.01979570366784E-02 
532	 7.09421869758119E-02 
533	 7.16925356179177E-02 
534	 7.24664542475397E-02 
535	 0.073288264719496 
536	 7.41192906511354E-02 
537	 7.50120815817746E-02 
538	 7.59310356164067E-02 
539	 7.68027403161573E-02 
540	 7.76848041265184E-02 
541	 7.86226532787053E-02 
542	 7.96276446751096E-02 
543	 8.06635338485555E-02 
544	 8.17035708998362E-02 
545	 8.27653549386981E-02 
546	 8.38721352717928E-02 
547	 8.50011673531036E-02 
548	 8.61452788029181E-02 
549	 8.73123129995863E-02 
550	 8.85193985395743E-02 
551	 8.97128420085869E-02 
552	 9.09893705119099E-02 
553	 9.23850978347476E-02 
554	 9.37087717012618E-02 
555	 9.50655309379966E-02 
556	 9.64971692620933E-02 
557	 9.80088184714552E-02 
558	 0.099567633463615 
559	 0.101147032005001 
560	 0.10273428225151 
561	 0.104336024912204 
562	 0.105972453321067 
563	 0.107671555556775 
564	 0.109428961162229 
565	 0.111125820840732 
566	 0.112814697256147 
567	 0.114517017987146 
568	 0.116231849952504 
569	 0.118022122235306 
570	 0.119769475656447 
571	 0.121421907366598 
572	 0.123112934224704 
573	 0.124888282481339 
574	 0.126673755607361 
575	 0.128371247821178 
576	 0.130079219294361 
577	 0.131801187967869 
578	 0.133517866545316 
579	 0.135189218936174 
580	 0.136851257109856 
581	 0.138488939290807 
582	 0.140095623355261 
583	 0.141719005229545 
584	 0.143355886965689 
585	 0.144966625116524 
586	 0.146502053809216 
587	 0.148019150838493 
588	 0.149511041628473 
589	 0.150966910363833 
590	 0.15238336442139 
591	 0.153761388776864 
592	 0.155087564494938 
593	 0.156346450446844 
594	 0.157536375158596 
595	 0.1587072597947 
596	 0.159846957988775 
597	 0.160889720313166 
598	 0.161926228855357 
599	 0.162958341043761 
600	 0.163960127006257 
601	 0.164864780491478 
602	 0.165787487565876 
603	 0.166698268181561 
604	 0.167511311497088 
605	 0.168253028445341 
606	 0.16896323924489 
607	 0.169665422207607 
608	 0.17035823884138 
609	 0.170993062281658 
610	 0.171558255871376 
611	 0.17207772080668 
612	 0.172653317548896 
613	 0.173171899407093 
614	 0.173617718039343 
615	 0.174041796460941 
616	 0.174447791264315 
617	 0.174842251452886 
618	 0.175229336644491 
619	 0.175612425214663 
620	 0.175984080016026 
621	 0.176315853369982 
622	 0.176597485293855 
623	 0.176930762568219 
624	 0.177269223556598 
625	 0.177586506560853 
626	 0.177882492353992 
627	 0.17815627208764 
628	 0.178421523742479 
629	 0.178693794616743 
630	 0.17899130846097 
631	 0.179252180409746 
632	 0.179505008698308 
633	 0.179798234844721 
634	 0.180003231653208 
635	 0.180247087950058 
636	 0.180565688882081 
637	 0.180854750659601 
638	 0.181086219127265 
639	 0.181335009060567 
640	 0.181656961148951 
641	 0.181959443876404 
642	 0.182207439312313 
643	 0.182448262292665 
644	 0.182767378744122 
645	 0.183072182620503 
646	 0.183371353148418 
647	 0.183682540478148 
648	 0.184018553568442 
649	 0.184351695022042 
650	 0.184675585631545 
651	 0.184995066676538 
652	 0.185329362234888 
653	 0.185665252694023 
654	 0.186015533680178 
655	 0.186408802510043 
656	 0.186784924370536 
657	 0.187184127881561 
658	 0.187622789619863 
659	 0.188033918137355 
660	 0.188433020374294 
661	 0.18887853358843 
662	 0.189407448417956 
663	 0.189848667953276 
664	 0.190276115453403 
665	 0.190741178740824 
666	 0.191253509345107 
667	 0.19178141250165 
668	 0.192307454147482 
669	 0.192828855083747 
670	 0.193370443649303 
671	 0.193929269735742 
672	 0.194509028339013 
673	 0.195107383530519 
674	 0.195662746938312 
675	 0.196218239721589 
676	 0.196829166039733 
677	 0.197551327305791 
678	 0.198194554308463 
679	 0.198811931432056 
680	 0.199482424865511 
681	 0.200171929956799 
682	 0.20088012614273 
683	 0.20160746808146 
684	 0.20235095551435 
685	 0.203070017363732 
686	 0.203809205486313 
687	 0.204585122557589 
688	 0.205365166935678 
689	 0.206146456382081 
690	 0.206928710610802 
691	 0.207725113615905 
692	 0.208581134888198 
693	 0.209481379143605 
694	 0.21037925744595 
695	 0.211219749783682 
696	 0.212072316226728 
697	 0.212966429527261 
698	 0.213901277968124 
699	 0.214838309846091 
700	 0.215764704274983 
701	 0.216705722530437 
702	 0.217687973688963 
703	 0.218691718116176 
704	 0.219708503825879 
705	 0.220711065832951 
706	 0.221674950795178 
707	 0.222735115553457 
708	 0.223808769409989 
709	 0.224838819462955 
710	 0.225858311405167 
711	 0.226924015590333 
712	 0.228006476819286 
713	 0.229068937755329 
714	 0.230171664916122 
715	 0.231234758721086 
716	 0.232274626954475 
717	 0.233371005989096 
718	 0.234490962236365 
719	 0.235616194411251 
720	 0.236730912713297 
721	 0.237818647906455 
722	 0.23887015922619 
723	 0.239925102103497 
724	 0.241024927232076 
725	 0.242166367056252 
726	 0.243253794697612 
727	 0.244293113562669 
728	 0.245356302222129 
729	 0.246353572386872 
730	 0.247340165775271 
731	 0.248361003521207 
732	 0.249415756337935 
733	 0.250398204381481 
734	 0.251334025100034 
735	 0.252277637306576 
736	 0.25321699422218 
737	 0.25413517684709 
738	 0.255009912731947 
739	 0.255827200239161 
740	 0.256686088051212 
741	 0.257534122669293 
742	 0.258329318396932 
743	 0.259076626960183 
744	 0.259813716261499 
745	 0.260516978946135 
746	 0.26117475395626 
747	 0.261879542713912 
748	 0.262531572797731 
749	 0.263117583546426 
750	 0.263673287484281 
751	 0.26417092246361 
752	 0.264665939907581 
753	 0.265160460684995 
754	 0.26557993093071 
755	 0.266003289725343 
756	 0.266400899880475 
757	 0.266726989061926 
758	 0.266954098283619 
759	 0.267191077779167 
760	 0.26744229822052 
761	 0.267661560410543 
762	 0.26784847427549 
763	 0.268007743111515 
764	 0.268129479807067 
765	 0.268190236180151 
766	 0.268214669875222 
767	 0.268221483917598 
768	 0.26822051464771 
769	 0.268213731993209 
770	 0.268111861880961 
771	 0.267942161445704 
772	 0.267777122233382 
773	 0.267665919728005 
774	 0.267499951098915 
775	 0.267246253592013 
776	 0.266947509159479 
777	 0.266678334156673 
778	 0.266401637352211 
779	 0.26608942922558 
780	 0.265763522177289 
781	 0.265337525139158 
782	 0.264874582334447 
783	 0.26445814170259 
784	 0.264082417166425 
785	 0.263697297215287 
786	 0.26324606020722 
787	 0.262696006563513 
788	 0.262180449736677 
789	 0.261679420213669 
790	 0.261154095027808 
791	 0.26056665330543 
792	 0.260006509656756 
793	 0.259425120487284 
794	 0.258798079531122 
795	 0.25823613656922 
796	 0.257623107369371 
797	 0.256984232463303 
798	 0.25636860005155 
799	 0.255665959889623 
800	 0.254972766732499 
801	 0.25431841307245 
802	 0.253672392270466 
803	 0.253025847718415 
804	 0.252362249573604 
805	 0.251677637321912 
806	 0.250985521833252 
807	 0.250296167056146 
808	 0.249581439355464 
809	 0.24883191205486 
810	 0.248114866876099 
811	 0.247470012163805 
812	 0.246808543277627 
813	 0.246030985052451 
814	 0.245342297444343 
815	 0.244625481132654 
816	 0.243866167430569 
817	 0.243150884028093 
818	 0.242416172986912 
819	 0.241704170681346 
820	 0.241022518840715 
821	 0.240299601060458 
822	 0.239536869306031 
823	 0.2388353120906 
824	 0.238240870615441 
825	 0.237556693032968 
826	 0.236804432358795 
827	 0.236064685442845 
828	 0.235422310678986 
829	 0.234807499304805 
830	 0.234157122774181 
831	 0.233459927949695 
832	 0.232756550171086 
833	 0.232111398437383 
834	 0.231476567298607 
835	 0.230819524934144 
836	 0.230158080128505 
837	 0.229568675303364 
838	 0.228975285281708 
839	 0.228324204778622 
840	 0.22773756016261 
841	 0.22712202599791 
842	 0.226521647722908 
843	 0.225990772819474 
844	 0.225354161095817 
845	 0.224750191642353 
846	 0.224230165551166 
847	 0.223752572485157 
848	 0.223178233749384 
849	 0.222580650173989 
850	 0.22202577897012 
851	 0.221531293514707 
852	 0.221016771336021 
853	 0.220497456370822 
854	 0.22000534867939 
855	 0.219566718446542 
856	 0.219074645447907 
857	 0.218578395930015 
858	 0.218149652157731 
859	 0.217744617341569 
860	 0.217323100665502 
861	 0.216892582581784 
862	 0.216481816512401 
863	 0.21606912863898 
864	 0.21566323483278 
865	 0.215289734900629 
866	 0.214969878278863 
867	 0.214560865898923 
868	 0.214148289783209 
869	 0.213787828202164 
870	 0.213448120297656 
871	 0.213157013076131 
872	 0.212875106059424 
873	 0.212570804494419 
874	 0.212259950088521 
875	 0.211970620874015 
876	 0.211687161414355 
877	 0.211401525424419 
878	 0.211193715886577 
879	 0.210954467859475 
880	 0.210679029296617 
881	 0.210421834711041 
882	 0.210239883778722 
883	 0.210020169855998 
884	 0.209784808830395 
885	 0.209641726421931 
886	 0.209436969521356 
887	 0.209253010367279 
888	 0.209128645734848 
889	 0.209017711369552 
890	 0.208833123261491 
891	 0.208656707783103 
892	 0.208537929971401 
893	 0.208415423747132 
894	 0.208336328772303 
895	 0.208261227409606 
896	 0.208162171954801 
897	 0.20809978975666 
898	 0.20800262138035 
899	 0.207894903746442 
900	 0.207829083908125 
901	 0.207827698868638 
902	 0.2078449462428 
903	 0.207845999490787 
904	 0.207805059215518 
905	 0.207687274680179 
906	 0.207644914241636 
907	 0.207717597704861 
908	 0.207836074611866 
909	 0.207871990507413 
910	 0.207889782069577 
911	 0.20793023801712 
912	 0.207986820029545 
913	 0.208063733559351 
914	 0.208150308340719 
915	 0.208228676530235 
916	 0.208279584645716 
917	 0.20839157476591 
918	 0.208551550058205 
919	 0.208710067293006 
920	 0.208798537075331 
921	 0.208898570314395 
922	 0.209028090394058 
923	 0.20917815058025 
924	 0.209320005098893 
925	 0.209466768842803 
926	 0.209636987262129 
927	 0.209833918655311 
928	 0.210000121491091 
929	 0.210224708867041 
930	 0.210466194988644 
931	 0.210659611793297 
932	 0.210892720226447 
933	 0.211166712612428 
934	 0.211451963521652 
935	 0.211704553404407 
936	 0.211886844390525 
937	 0.212180747302985 
938	 0.212512172271739 
939	 0.212680285965107 
940	 0.212948698031263 
941	 0.213303807781413 
942	 0.213665375285528 
943	 0.213939935822897 
944	 0.214231560960423 
945	 0.214555114299818 
946	 0.214897542823351 
947	 0.215229935712341 
948	 0.215564978697911 
949	 0.215880004023957 
950	 0.216187061792256 
951	 0.216540889428007 
952	 0.216891417846642 
953	 0.217264113895986 
954	 0.217647823445836 
955	 0.217966915985216 
956	 0.218308668882533 
957	 0.218721684964934 
958	 0.219171832519317 
959	 0.219511267616107 
960	 0.219905030114087 
961	 0.220353383589133 
962	 0.220806630463356 
963	 0.221203119151925 
964	 0.221584547839648 
965	 0.222015745059217 
966	 0.222504853533195 
967	 0.222927389121664 
968	 0.223344092186362 
969	 0.223820601776843 
970	 0.224342207810869 
971	 0.224687659407491 
972	 0.225213904914181 
973	 0.225770623394303 
974	 0.226175942424305 
975	 0.226616503202544 
976	 0.227097387565053 
977	 0.227645687168901 
978	 0.228241401023341 
979	 0.22872723564641 
980	 0.229252517333973 
981	 0.229778617591541 
982	 0.230257109603724 
983	 0.230812389767853 
984	 0.231443575352979 
985	 0.232076043567944 
986	 0.232641292699078 
987	 0.233189843480742 
988	 0.233720814363774 
989	 0.23428126957515 
990	 0.234868214314654 
991	 0.235255284539937 
992	 0.235781827656348 
993	 0.236351702084156 
994	 0.236836536653134 
995	 0.2375863338405 
996	 0.238279944419052 
997	 0.238857447897049 
998	 0.239398651006534 
999	 0.240075292353156 
1000	 0.240795853839052 
1001	 0.243290906587487 
1002	 0.243909299876857 
1003	 0.244561657507843 
1004	 0.2451925313741 
1005	 0.245813419687363 
1006	 0.246455915423699 
1007	 0.247105455748324 
1008	 0.247751593916265 
1009	 0.248378449243921 
1010	 0.249054993916516 
1011	 0.249752641135203 
1012	 0.250458512076661 
1013	 0.251233998204021 
1014	 0.251962903067658 
1015	 0.252670294035585 
1016	 0.253350650846894 
1017	 0.254086499026978 
1018	 0.254775316461395 
1019	 0.255509716665001 
1020	 0.256294754304286 
1021	 0.257045971271324 
1022	 0.25778968834184 
1023	 0.258537228943488 
1024	 0.25926616878461 
1025	 0.260036220364291 
1026	 0.260818177401253 
1027	 0.261617547697358 
1028	 0.262458524822198 
1029	 0.263287661088133 
1030	 0.264092406928105 
1031	 0.264921150225149 
1032	 0.265707276160791 
1033	 0.266487345981509 
1034	 0.267356074340572 
1035	 0.268205189995828 
1036	 0.269051875808353 
1037	 0.26995452578762 
1038	 0.270795086929772 
1039	 0.271562835916026 
1040	 0.272412189645804 
1041	 0.273273634112272 
1042	 0.274159273852835 
1043	 0.275102039953025 
1044	 0.276007783912797 
1045	 0.276923565121552 
1046	 0.277845085250333 
1047	 0.2787346180504 
1048	 0.279647555694431 
1049	 0.280545871542442 
1050	 0.281469217062682 
1051	 0.282446829481079 
1052	 0.283397283124576 
1053	 0.284371658294199 
1054	 0.285383324089233 
1055	 0.286369612934307 
1056	 0.28734569921635 
1057	 0.288346267691541 
1058	 0.289342469790403 
1059	 0.290329886154268 
1060	 0.291410745819081 
1061	 0.292467446010561 
1062	 0.293555862749203 
1063	 0.29472351498903 
1064	 0.29581087732481 
1065	 0.296885701451073 
1066	 0.297988273851446 
1067	 0.299074745357139 
1068	 0.300221822479089 
1069	 0.301381897533207 
1070	 0.302553689810561 
1071	 0.303753380654369 
1072	 0.304945067069316 
1073	 0.306089829240427 
1074	 0.307279040574481 
1075	 0.308429110708802 
1076	 0.309576693914691 
1077	 0.310802540219341 
1078	 0.312002155467495 
1079	 0.313275565301773 
1080	 0.314578984353474 
1081	 0.31579550964405 
1082	 0.317045817390648 
1083	 0.318271298779835 
1084	 0.319491990887902 
1085	 0.320819645356643 
1086	 0.322118420416181 
1087	 0.323422614873581 
1088	 0.324752083028889 
1089	 0.326065622821777 
1090	 0.327290012728998 
1091	 0.32858378530504 
1092	 0.329856468086539 
1093	 0.331171543337971 
1094	 0.332603881645068 
1095	 0.333949440387314 
1096	 0.335336359749697 
1097	 0.336747794299096 
1098	 0.338030083035294 
1099	 0.339374947788611 
1100	 0.340731735279766 
1101	 0.342040888108406 
1102	 0.343444630242532 
1103	 0.344831862304157 
1104	 0.346219154181818 
1105	 0.347636664140561 
1106	 0.34909709517092 
1107	 0.350466615376692 
1108	 0.351860439521644 
1109	 0.353233684365536 
1110	 0.354602545384955 
1111	 0.356063166261953 
1112	 0.35749472359168 
1113	 0.358961125179398 
1114	 0.360439020836003 
1115	 0.361816017340154 
1116	 0.363239343856989 
1117	 0.364655796413899 
1118	 0.366077039705537 
1119	 0.367509809659246 
1120	 0.368946703764028 
1121	 0.370373345101657 
1122	 0.371841813479044 
1123	 0.37332517427472 
1124	 0.374711851572388 
1125	 0.376146728222164 
1126	 0.37755646171148 
1127	 0.378930617403296 
1128	 0.38040921472652 
1129	 0.381839334948363 
1130	 0.383268500975935 
1131	 0.38475766092564 
1132	 0.386132495501116 
1133	 0.387519397372136 
1134	 0.388921547607753 
1135	 0.390312956163885 
1136	 0.391690726836887 
1137	 0.393078439496187 
1138	 0.394475435424663 
1139	 0.395863085211417 
1140	 0.397262913800909 
1141	 0.398574295299659 
1142	 0.399931612695359 
1143	 0.40128132114809 
1144	 0.402612079190108 
1145	 0.404014570311514 
1146	 0.405343059985696 
1147	 0.406689560741323 
1148	 0.408060777931434 
1149	 0.409328021275616 
1150	 0.410643832143135 
1151	 0.41193137265495 
1152	 0.413217609260042 
1153	 0.414493439076773 
1154	 0.415774481802512 
1155	 0.417071184475952 
1156	 0.418342037309326 
1157	 0.419582377502541 
1158	 0.420800589917444 
1159	 0.422002571244253 
1160	 0.423195635423675 
1161	 0.424377905661563 
1162	 0.425620475838114 
1163	 0.426796867378634 
1164	 0.427974019970361 
1165	 0.429161843064481 
1166	 0.430254783651013 
1167	 0.431396429974573 
1168	 0.432532013377299 
1169	 0.433650685596298 
1170	 0.434759471702541 
1171	 0.435868433320295 
1172	 0.436972164750138 
1173	 0.438060050506032 
1174	 0.439142191743937 
1175	 0.44018491396434 
1176	 0.441208824872782 
1177	 0.442214610614884 
1178	 0.443180453161498 
1179	 0.444164898370038 
1180	 0.445106225672124 
1181	 0.446057069475808 
1182	 0.44701408803115 
1183	 0.447911751917086 
1184	 0.448841091423095 
1185	 0.449755786535386 
1186	 0.450669731116941 
1187	 0.451583562014685 
1188	 0.452495702784423 
1189	 0.453398462805892 
1190	 0.454319378510473 
1191	 0.455233712763463 
1192	 0.456149717654147 
1193	 0.457080789390954 
1194	 0.458006695343699 
1195	 0.458947914364551 
1196	 0.459881584619038 
1197	 0.460811386836579 
1198	 0.461741611514562 
1199	 0.462691842249832 
1200	 0.463544826061773 
1201	 0.464416579369406 
1202	 0.465297918809209 
1203	 0.466159417856864 
1204	 0.46707228336978 
1205	 0.46797656458281 
1206	 0.468892300300439 
1207	 0.469831080562093 
1208	 0.470763219112302 
1209	 0.471733961450153 
1210	 0.472723199553596 
1211	 0.473760729070956 
1212	 0.474836377204908 
1213	 0.475952420858657 
1214	 0.477125947226501 
1215	 0.478312229006 
1216	 0.479531416983428 
1217	 0.480751140683739 
1218	 0.481995757376529 
1219	 0.483241952830367 
1220	 0.484488322270474 
1221	 0.485822217639396 
1222	 0.487117684170001 
1223	 0.488430919122894 
1224	 0.489710311670713 
1225	 0.490975859662822 
1226	 0.492197149986594 
1227	 0.493405785202926 
1228	 0.494567870505475 
1229	 0.495692479973217 
1230	 0.496790837743848 
1231	 0.497864758433169 
1232	 0.498892591728406 
1233	 0.499870783184715 
1234	 0.500819375268226 
1235	 0.501720710504141 
1236	 0.502610504335857 
1237	 0.503475857299104 
1238	 0.504325173747227 
1239	 0.505160318366885 
1240	 0.505957602404828 
1241	 0.506761628438652 
1242	 0.507507733325851 
1243	 0.508255482652538 
1244	 0.508981165185833 
1245	 0.509708442615534 
1246	 0.510431523717046 
1247	 0.511126442498422 
1248	 0.511817317775307 
1249	 0.512477133592904 
1250	 0.513097312033209 
1251	 0.513716926937458 
1252	 0.514320450118789 
1253	 0.514920103794688 
1254	 0.515517799900406 
1255	 0.516096001709287 
1256	 0.516659733610496 
1257	 0.517218476182219 
1258	 0.517782846965086 
1259	 0.518302078773817 
1260	 0.5187929644535 
1261	 0.519277705533849 
1262	 0.519723809026419 
1263	 0.520165260200735 
1264	 0.520599156296068 
1265	 0.521038014993329 
1266	 0.521450654765827 
1267	 0.521839128925481 
1268	 0.522224947027766 
1269	 0.522597014375643 
1270	 0.522970236179437 
1271	 0.523335750110028 
1272	 0.523695818271771 
1273	 0.524051617401129 
1274	 0.524403589838669 
1275	 0.52474569555378 
1276	 0.525085281265403 
1277	 0.52542844220127 
1278	 0.525756869060456 
1279	 0.526060948914436 
1280	 0.526381699602448 
1281	 0.526696370095596 
1282	 0.527020831085459 
1283	 0.527374920840961 
1284	 0.527703200888208 
1285	 0.5280211822582 
1286	 0.52832949014813 
1287	 0.528639668681339 
1288	 0.52894172332197 
1289	 0.529229309049257 
1290	 0.52951252290816 
1291	 0.529792557882428 
1292	 0.530048894915022 
1293	 0.530320874945643 
1294	 0.530612260111227 
1295	 0.530877100046844 
1296	 0.531107553996611 
1297	 0.531382946766823 
1298	 0.531685511879676 
1299	 0.531956480385967 
1300	 0.532252978465303 
1301	 0.532514107404161 
1302	 0.532720903217969 
1303	 0.532948507453525 
1304	 0.533185475563174 
1305	 0.533407976767649 
1306	 0.53361473069715 
1307	 0.533832070282734 
1308	 0.534050716289124 
1309	 0.534266293458532 
1310	 0.534468764655123 
1311	 0.53467185229326 
1312	 0.534873059987089 
1313	 0.535061051157577 
1314	 0.535248553687859 
1315	 0.535452635143048 
1316	 0.535621187332874 
1317	 0.535771451758775 
1318	 0.535905904080599 
1319	 0.536021616413535 
1320	 0.536129345555171 
1321	 0.536209004787217 
1322	 0.536305345280251 
1323	 0.536400694850068 
1324	 0.536495717900344 
1325	 0.536594354233733 
1326	 0.536693778626851 
1327	 0.536803795211038 
1328	 0.53689138952005 
1329	 0.536992148338016 
1330	 0.537052213471391 
1331	 0.537086065141362 
1332	 0.537095570546985 
1333	 0.537066538590118 
1334	 0.537029236641936 
1335	 0.536993098974003 
1336	 0.536940238147069 
1337	 0.536891207903068 
1338	 0.536846864025373 
1339	 0.536789823703904 
1340	 0.536727175977635 
1341	 0.536648344479489 
1342	 0.536563432289556 
1343	 0.536463552973398 
1344	 0.536358900180692 
1345	 0.536218682748021 
1346	 0.536067989551345 
1347	 0.535881288217148 
1348	 0.535660485068574 
1349	 0.53541649955641 
1350	 0.535130597120398 
1351	 0.534854286325582 
1352	 0.534546306257928 
1353	 0.534257891450011 
1354	 0.533970200099679 
1355	 0.533699468937688 
1356	 0.5334456096444 
1357	 0.53318586184773 
1358	 0.532933462756517 
1359	 0.532684280795184 
1360	 0.532436467104063 
1361	 0.532187747093855 
1362	 0.531926846393034 
1363	 0.531684172141006 
1364	 0.53141444298713 
1365	 0.531137981631887 
1366	 0.530827014330971 
1367	 0.530505514351911 
1368	 0.530148746649381 
1369	 0.529754189847486 
1370	 0.529353555391861 
1371	 0.528945782035645 
1372	 0.528496667880153 
1373	 0.528029704328171 
1374	 0.527520873462206 
1375	 0.526967743994141 
1376	 0.526393564861588 
1377	 0.525809741372084 
1378	 0.525150115183926 
1379	 0.524435323724354 
1380	 0.523697036400247 
1381	 0.522913305126734 
1382	 0.522083013958636 
1383	 0.521226174378687 
1384	 0.520323569545513 
1385	 0.519355961995502 
1386	 0.518373072595177 
1387	 0.517331637936389 
1388	 0.516327469044391 
1389	 0.515295455351867 
1390	 0.514298834258074 
1391	 0.513341351966931 
1392	 0.51236868325733 
1393	 0.51146073350384 
1394	 0.510577944879952 
1395	 0.509734735053482 
1396	 0.508957659321939 
1397	 0.508151456461982 
1398	 0.507380745842009 
1399	 0.506546451750325 
1400	 0.505713415501476 
1401	 0.504804940265602 
1402	 0.503863249992332 
1403	 0.502837620832887 
1404	 0.501748636787966 
1405	 0.500617168440241 
1406	 0.499421442185067 
1407	 0.498179465874835 
1408	 0.496854208453835 
1409	 0.495556622302065 
1410	 0.494133550179084 
1411	 0.492893111333346 
1412	 0.491603073076567 
1413	 0.490624437361512 
1414	 0.489741076641374 
1415	 0.489179154257638 
1416	 0.488941400340248 
1417	 0.488824840720089 
1418	 0.489058189162008 
1419	 0.489238829668251 
1420	 0.489602743451725 
1421	 0.489862987627884 
1422	 0.490147990345214 
1423	 0.490341189488463 
1424	 0.490455819195924 
1425	 0.490535236838195 
1426	 0.490551928115222 
1427	 0.490527752718922 
1428	 0.490513299115291 
1429	 0.49049438572206 
1430	 0.490498848327755 
1431	 0.490509334677962 
1432	 0.490540217813549 
1433	 0.490590627597529 
1434	 0.490642691747714 
1435	 0.490708113932809 
1436	 0.490776923814525 
1437	 0.490845488243322 
1438	 0.490933955537098 
1439	 0.491033775979033 
1440	 0.491147234519722 
1441	 0.491276550649357 
1442	 0.491415292741344 
1443	 0.491574035474096 
1444	 0.491724366787912 
1445	 0.491880905433928 
1446	 0.492038142548835 
1447	 0.492190441844911 
1448	 0.492351941830723 
1449	 0.492525471874621 
1450	 0.492693807866996 
1451	 0.492867344944831 
1452	 0.493032374115953 
1453	 0.493196437537203 
1454	 0.493351181745678 
1455	 0.493502193820259 
1456	 0.493642484338473 
1457	 0.493770717651029 
1458	 0.493897603437494 
1459	 0.494008794382921 
1460	 0.49412857847077 
1461	 0.494253962243194 
1462	 0.494374468187605 
1463	 0.494493572508328 
1464	 0.494615980051005 
1465	 0.494737450132499 
1466	 0.494858385145342 
1467	 0.494975234562498 
1468	 0.495096920381558 
1469	 0.495239006084183 
1470	 0.49536584419449 
1471	 0.495492269000649 
1472	 0.49563503655006 
1473	 0.495746107909694 
1474	 0.495832673136594 
1475	 0.495925579550341 
1476	 0.496020151846956 
1477	 0.496082990502789 
1478	 0.496133911588325 
1479	 0.496166909379443 
1480	 0.496170728101247 
1481	 0.496175081601782 
1482	 0.496181098869849 
1483	 0.496154096057562 
1484	 0.496110444986488 
1485	 0.496040450857561 
1486	 0.495932804300355 
1487	 0.495833724950003 
1488	 0.49570888321086 
1489	 0.495606931422564 
1490	 0.49550937667031 
1491	 0.495416518588124 
1492	 0.495321208066318 
1493	 0.495253433965286 
1494	 0.495192788437416 
1495	 0.495157471787136 
1496	 0.49515287796154 
1497	 0.495154975118198 
1498	 0.495176413197789 
1499	 0.495200126268889 
1500	 0.495232633029277 
1501	 0.495277362062785 
1502	 0.495330884493559 
1503	 0.495392632186955 
1504	 0.495467399143379 
1505	 0.495549115667807 
1506	 0.495648256149367 
1507	 0.495735777778482 
1508	 0.495811347139869 
1509	 0.49591242093545 
1510	 0.496011864683475 
1511	 0.496129307543267 
1512	 0.49628156791483 
1513	 0.496429607175905 
1514	 0.496575125142752 
1515	 0.496736610459153 
1516	 0.49691904277729 
1517	 0.49709320648519 
1518	 0.4972653751029 
1519	 0.497449692310823 
1520	 0.497637410718382 
1521	 0.497823705565003 
1522	 0.498025006417289 
1523	 0.498246966749055 
1524	 0.498456887596487 
1525	 0.498662483228882 
1526	 0.498885445742298 
1527	 0.499120413772745 
1528	 0.499338079154675 
1529	 0.499563287376028 
1530	 0.49977319948013 
1531	 0.499953712134992 
1532	 0.50017721733138 
1533	 0.500413084776841 
1534	 0.500658492478236 
1535	 0.500929085252352 
1536	 0.501187623115496 
1537	 0.501444498580979 
1538	 0.501710263384496 
1539	 0.501987266931136 
1540	 0.502248915573645 
1541	 0.502506597974887 
1542	 0.502770329804978 
1543	 0.503032994422306 
1544	 0.503283966547363 
1545	 0.503541031717924 
1546	 0.503783037193994 
1547	 0.504007442818739 
1548	 0.504228687302624 
1549	 0.504455247225387 
1550	 0.504653715807157 
1551	 0.504831965788215 
1552	 0.505001776573384 
1553	 0.505157394141581 
1554	 0.505299217061315 
1555	 0.50542632524847 
1556	 0.505546444233544 
1557	 0.505652671739267 
1558	 0.50575051577315 
1559	 0.505837257560721 
1560	 0.505922183073238 
1561	 0.505999632476679 
1562	 0.506067853209063 
1563	 0.506127503825978 
1564	 0.506189073061233 
1565	 0.506233620144663 
1566	 0.50629574602485 
1567	 0.50637573350694 
1568	 0.506440362595733 
1569	 0.506508817195972 
1570	 0.506564537045319 
1571	 0.506589600439802 
1572	 0.506649968111103 
1573	 0.506724062420503 
1574	 0.506797236435395 
1575	 0.506892280345048 
1576	 0.506978752132094 
1577	 0.507051839080353 
1578	 0.507139924117383 
1579	 0.50723961441913 
1580	 0.507338468659658 
1581	 0.507450460217108 
1582	 0.507546731326997 
1583	 0.50763497440645 
1584	 0.507726134014934 
1585	 0.50779948861096 
1586	 0.507894702618682 
1587	 0.508005849091744 
1588	 0.50811429795201 
1589	 0.50823451354766 
1590	 0.508349073276295 
1591	 0.508462083097601 
1592	 0.508573729592566 
1593	 0.508684725735986 
1594	 0.508795123977024 
1595	 0.508898460805652 
1596	 0.509010448684186 
1597	 0.50913290445132 
1598	 0.509244341769669 
1599	 0.509354056293502 
1600	 0.509464127825749 
1601	 0.509573279060229 
1602	 0.509671734236911 
1603	 0.509772035273894 
1604	 0.509860679978845 
1605	 0.509927943531864 
1606	 0.510001381498607 
1607	 0.510081381227622 
1608	 0.510144457412802 
1609	 0.510197118852089 
1610	 0.510249201683561 
1611	 0.5102958167518 
1612	 0.510330439269438 
1613	 0.510355361360836 
1614	 0.510381719637311 
1615	 0.510396179224579 
1616	 0.510410385075981 
1617	 0.510430234261876 
1618	 0.510444820373957 
1619	 0.510448347272182 
1620	 0.510456964487928 
1621	 0.51047211392243 
1622	 0.51047716850305 
1623	 0.510482766622613 
1624	 0.510477254030917 
1625	 0.510473054825027 
1626	 0.510442735106039 
1627	 0.510377669651829 
1628	 0.510331920902021 
1629	 0.510273877762753 
1630	 0.510224172835615 
1631	 0.51019958156655 
1632	 0.510157414484816 
1633	 0.510117865346367 
1634	 0.510052187469959 
1635	 0.509965710815873 
1636	 0.50987536467022 
1637	 0.509765003385658 
1638	 0.509651290029315 
1639	 0.509545317059727 
1640	 0.509412357110386 
1641	 0.509255817906575 
1642	 0.509093780762519 
1643	 0.508899306466851 
1644	 0.508727866930301 
1645	 0.508577816629377 
1646	 0.508401718453085 
1647	 0.508225307943346 
1648	 0.508034406589548 
1649	 0.5078264205804 
1650	 0.507598061865223 
1651	 0.507364473046622 
1652	 0.507108484885529 
1653	 0.506848700329219 
1654	 0.506528582447517 
1655	 0.506168316810293 
1656	 0.505778880289526 
1657	 0.505341697286828 
1658	 0.504868966028269 
1659	 0.504372765253766 
1660	 0.503839275581023 
1661	 0.503244121810821 
1662	 0.502645164643977 
1663	 0.502018872003327 
1664	 0.501379643357242 
1665	 0.50075180553853 
1666	 0.500041842203281 
1667	 0.499302319138392 
1668	 0.498507660728136 
1669	 0.497655374540835 
1670	 0.496738744346271 
1671	 0.495759639320209 
1672	 0.49473100853531 
1673	 0.49365006801392 
1674	 0.492486214172129 
1675	 0.491268332456637 
1676	 0.490003931076449 
1677	 0.48865470123667 
1678	 0.487262530296292 
1679	 0.485821029793366 
1680	 0.484326319111661 
1681	 0.482770442620573 
1682	 0.481153883706476 
1683	 0.479486515537661 
1684	 0.477796425417026 
1685	 0.476033337173626 
1686	 0.474263247687551 
1687	 0.472449714633377 
1688	 0.470641548051778 
1689	 0.468797038615958 
1690	 0.466980452963493 
1691	 0.465190786955197 
1692	 0.463415790398352 
1693	 0.461663902366053 
1694	 0.459880187809326 
1695	 0.458096265505195 
1696	 0.456262840451695 
1697	 0.454406077005095 
1698	 0.452495579187526 
1699	 0.450538941750018 
1700	 0.448628125098188 
1701	 0.446667089538379 
1702	 0.444778151405016 
1703	 0.442900249096837 
1704	 0.441106816568579 
1705	 0.439346576320505 
1706	 0.437638493057614 
1707	 0.436123058394005 
1708	 0.434642881690151 
1709	 0.433212009782256 
1710	 0.431848247155089 
1711	 0.430451938899988 
1712	 0.429122855685333 
1713	 0.427803564061453 
1714	 0.426484019795015 
1715	 0.425265826683582 
1716	 0.424014091138573 
1717	 0.422776672743116 
1718	 0.421571308837018 
1719	 0.420351043568047 
1720	 0.419242668769962 
1721	 0.41820227310967 
1722	 0.417267611566543 
1723	 0.416548739024544 
1724	 0.415950209478473 
1725	 0.415528986628329 
1726	 0.415378774252584 
1727	 0.415443689315144 
1728	 0.415723015174219 
1729	 0.416314831662445 
1730	 0.417213926930006 
1731	 0.418272235235524 
1732	 0.419585872587307 
1733	 0.421020502562493 
1734	 0.422498336142171 
1735	 0.424088047526217 
1736	 0.425608496233711 
1737	 0.427050625956245 
1738	 0.428380090659529 
1739	 0.42949722831394 
1740	 0.430478188271574 
1741	 0.4312865621692 
1742	 0.431894717313982 
1743	 0.432382820944262 
1744	 0.432694190419176 
1745	 0.432909950379718 
1746	 0.432962891209316 
1747	 0.432970677006381 
1748	 0.432833748510058 
1749	 0.432735857497121 
1750	 0.432573041281616 
1751	 0.43245423228056 
1752	 0.432339210973228 
1753	 0.43226608473089 
1754	 0.43217917803059 
1755	 0.432205708824325 
1756	 0.432276534647945 
1757	 0.432460348085687 
1758	 0.432754584393167 
1759	 0.433101030607128 
1760	 0.433622696965471 
1761	 0.434332934130539 
1762	 0.435114732222051 
1763	 0.436105521082078 
1764	 0.437225637340005 
1765	 0.438424404934678 
1766	 0.439816907678615 
1767	 0.441233174564986 
1768	 0.442711818836719 
1769	 0.444239432243834 
1770	 0.445624709991908 
1771	 0.44700847230133 
1772	 0.448331192283062 
1773	 0.449517593888536 
1774	 0.450698118780481 
1775	 0.451745456790477 
1776	 0.452700562077022 
1777	 0.453613556482839 
1778	 0.454369617333187 
1779	 0.455069814853901 
1780	 0.455698332289501 
1781	 0.456230236266208 
1782	 0.456780790873117 
1783	 0.457266151366784 
1784	 0.457697682066335 
1785	 0.458034984155382 
1786	 0.458356335071156 
1787	 0.458655515581003 
1788	 0.458900186158911 
1789	 0.459096594211705 
1790	 0.459289998925373 
1791	 0.459437864535376 
1792	 0.459584218151708 
1793	 0.459718652828722 
1794	 0.459821984711996 
1795	 0.45994177081737 
1796	 0.460054056052789 
1797	 0.460157598568739 
1798	 0.460282847462277 
1799	 0.460403745398114 
1800	 0.460564986046239 
1801	 0.458366646159347 
1802	 0.458580407387877 
1803	 0.458774628585088 
1804	 0.458963686414542 
1805	 0.459168810250893 
1806	 0.459349792432958 
1807	 0.459514810148787 
1808	 0.45968877910118 
1809	 0.459855118931869 
1810	 0.460024227148376 
1811	 0.46018924663447 
1812	 0.46036792680695 
1813	 0.460548110785601 
1814	 0.460741676293157 
1815	 0.460936360581145 
1816	 0.461153274879097 
1817	 0.461372084957931 
1818	 0.461583753901425 
1819	 0.461827545211559 
1820	 0.462086822520185 
1821	 0.462362879696547 
1822	 0.462657507522855 
1823	 0.462982277536263 
1824	 0.463302739227012 
1825	 0.463627885706334 
1826	 0.463950520279973 
1827	 0.46427681619641 
1828	 0.464596239359674 
1829	 0.464926495478973 
1830	 0.465232973486911 
1831	 0.465520794778684 
1832	 0.465820394821243 
1833	 0.466105524526816 
1834	 0.466398816607832 
1835	 0.466706914378443 
1836	 0.466996107609979 
1837	 0.467294139883638 
1838	 0.467587637127862 
1839	 0.467880384372202 
1840	 0.468190024806721 
1841	 0.468480063914551 
1842	 0.468744891211089 
1843	 0.469039889695367 
1844	 0.469343795422008 
1845	 0.469604248760698 
1846	 0.469884171844802 
1847	 0.470144307691142 
1848	 0.47038585876749 
1849	 0.47061559656849 
1850	 0.470818999056553 
1851	 0.471001277331334 
1852	 0.47117615504585 
1853	 0.471329765197167 
1854	 0.471436527194549 
1855	 0.4715318792209 
1856	 0.471595055507418 
1857	 0.47161188194156 
1858	 0.471613162321477 
1859	 0.471577608015045 
1860	 0.471524605799981 
1861	 0.471412534460792 
1862	 0.471254151425392 
1863	 0.471068138034594 
1864	 0.47083492724642 
1865	 0.470571030653778 
1866	 0.47030290671828 
1867	 0.469972711372892 
1868	 0.469596116956672 
1869	 0.469174521583811 
1870	 0.468693626893028 
1871	 0.468178499493893 
1872	 0.467576032768309 
1873	 0.466913068125273 
1874	 0.466188970647765 
1875	 0.465397347735336 
1876	 0.464459830838269 
1877	 0.463495518326097 
1878	 0.46241617467923 
1879	 0.461181515955833 
1880	 0.45993903172178 
1881	 0.458545796804507 
1882	 0.457024197897971 
1883	 0.455406509431126 
1884	 0.453668858363215 
1885	 0.451668164162838 
1886	 0.449598161983026 
1887	 0.447307159137779 
1888	 0.444773819997594 
1889	 0.442304118169241 
1890	 0.439597444524002 
1891	 0.436814132353151 
1892	 0.434019989409034 
1893	 0.431056809164336 
1894	 0.427882062776888 
1895	 0.424767915486697 
1896	 0.421560690429876 
1897	 0.41828692140234 
1898	 0.415251731408732 
1899	 0.412128869254231 
1900	 0.409094316905815 
1901	 0.406186219321975 
1902	 0.403104361039276 
1903	 0.400201669534417 
1904	 0.397421915880474 
1905	 0.394698811697385 
1906	 0.392080750346775 
1907	 0.389810076524063 
1908	 0.387594349228814 
1909	 0.385508388217979 
1910	 0.383633020772244 
1911	 0.38175007929673 
1912	 0.380046478105154 
1913	 0.378446110059372 
1914	 0.376895691897368 
1915	 0.375487168475713 
1916	 0.374242157457945 
1917	 0.37300945830145 
1918	 0.371856873864398 
1919	 0.370788061131746 
1920	 0.369708074186992 
1921	 0.368752913665751 
1922	 0.367877087909515 
1923	 0.367043918795028 
1924	 0.366342316335225 
1925	 0.365682373173164 
1926	 0.365066889876951 
1927	 0.364513487284208 
1928	 0.36400807970667 
1929	 0.36354685460544 
1930	 0.363132232113118 
1931	 0.36278656245412 
1932	 0.362486935520805 
1933	 0.362265068936023 
1934	 0.362116949983314 
1935	 0.361997164834356 
1936	 0.36194133873716 
1937	 0.361944458762591 
1938	 0.36200774008049 
1939	 0.362105961739373 
1940	 0.362258465023286 
1941	 0.362464398558898 
1942	 0.362702183660819 
1943	 0.362971900465859 
1944	 0.363272046408436 
1945	 0.363604744304886 
1946	 0.363975343528145 
1947	 0.364350050024396 
1948	 0.364751831555021 
1949	 0.365199692278909 
1950	 0.365643783240284 
1951	 0.366098262701718 
1952	 0.366561732361125 
1953	 0.367042619093556 
1954	 0.367519439660671 
1955	 0.368013910743584 
1956	 0.368508028032735 
1957	 0.369000926331173 
1958	 0.36948972635745 
1959	 0.369948341209258 
1960	 0.3704185907093 
1961	 0.370876649060841 
1962	 0.371321876928176 
1963	 0.37176848398854 
1964	 0.372221262485592 
1965	 0.372643609601452 
1966	 0.373057916454621 
1967	 0.373464449030605 
1968	 0.373820480675411 
1969	 0.374184954370374 
1970	 0.374548724329536 
1971	 0.374917225998876 
1972	 0.375326875912631 
1973	 0.37573252948777 
1974	 0.376148862073588 
1975	 0.376583205714608 
1976	 0.377025629393704 
1977	 0.37746696806119 
1978	 0.377928574054384 
1979	 0.378409438089478 
1980	 0.378891490824981 
1981	 0.379398512570931 
1982	 0.379904218458616 
1983	 0.380421534984612 
1984	 0.380933751428476 
1985	 0.381416515488581 
1986	 0.381920697945061 
1987	 0.382427784634314 
1988	 0.382930419510138 
1989	 0.383448364011073 
1990	 0.383998368874066 
1991	 0.384515064599686 
1992	 0.385028253350403 
1993	 0.385538272648806 
1994	 0.386007094863529 
1995	 0.386454551467913 
1996	 0.386901727471206 
1997	 0.387360755528966 
1998	 0.387814782816138 
1999	 0.388279715149046 
2000	 0.388716808655216 
2001	 0.389159154304849 
2002	 0.389553707976068 
2003	 0.38991709932033 
2004	 0.390272766599373 
2005	 0.390598131930619 
2006	 0.390906524208744 
2007	 0.391209974334699 
2008	 0.391474081009584 
2009	 0.391714178361233 
2010	 0.391965015134546 
2011	 0.392182729294737 
2012	 0.392379229554485 
2013	 0.392540431188813 
2014	 0.392679295800866 
2015	 0.392772265653595 
2016	 0.392843025850845 
2017	 0.392849394175382 
2018	 0.392806599526378 
2019	 0.392715758821234 
2020	 0.392564528468602 
2021	 0.392373602788551 
2022	 0.392164108511207 
2023	 0.391895800818625 
2024	 0.391573582471644 
2025	 0.391226092205524 
2026	 0.390786738287444 
2027	 0.390249294151549 
2028	 0.389711822773123 
2029	 0.389116087399864 
2030	 0.388486955686209 
2031	 0.387833794115979 
2032	 0.387150969273109 
2033	 0.386402551013903 
2034	 0.38565930269763 
2035	 0.38489985621079 
2036	 0.384105386825475 
2037	 0.38336151749733 
2038	 0.382603709651949 
2039	 0.381864326800359 
2040	 0.381163174960297 
2041	 0.380435893204919 
2042	 0.379676678119929 
2043	 0.378977279576345 
2044	 0.378263503318769 
2045	 0.377628372889517 
2046	 0.377057380315815 
2047	 0.376498873930166 
2048	 0.375956574111379 
2049	 0.375497026130785 
2050	 0.375071755786499 
2051	 0.374704289677885 
2052	 0.374438220648554 
2053	 0.374260903418033 
2054	 0.374173030250646 
2055	 0.374163244566334 
2056	 0.374262156624716 
2057	 0.374454507737486 
2058	 0.374758548035662 
2059	 0.375190508133697 
2060	 0.375667855865555 
2061	 0.376277924482409 
2062	 0.376897085963516 
2063	 0.377569829451154 
2064	 0.378279186388454 
2065	 0.37904455843768 
2066	 0.379814695366239 
2067	 0.380678849371962 
2068	 0.381544311513406 
2069	 0.38239819565965 
2070	 0.383306085299695 
2071	 0.384139820805052 
2072	 0.384946283191594 
2073	 0.385720275551414 
2074	 0.386449053983385 
2075	 0.387178387575178 
2076	 0.387901933270539 
2077	 0.388564091488869 
2078	 0.389228430965185 
2079	 0.389820819632729 
2080	 0.390328643589747 
2081	 0.390816308993825 
2082	 0.391274859566457 
2083	 0.391667931010699 
2084	 0.392035001278484 
2085	 0.39237656102562 
2086	 0.392677545529241 
2087	 0.392942022862016 
2088	 0.393169187568356 
2089	 0.393360539417943 
2090	 0.39351402793736 
2091	 0.393617596478478 
2092	 0.39370838720458 
2093	 0.393768649915438 
2094	 0.393800530553983 
2095	 0.393796769586475 
2096	 0.393784673068291 
2097	 0.393755165289312 
2098	 0.393691134068088 
2099	 0.39361477377216 
2100	 0.393529382930406 
2101	 0.393396764047362 
2102	 0.393223144994617 
2103	 0.393039420012459 
2104	 0.3928239920893 
2105	 0.392594764872386 
2106	 0.392352259111921 
2107	 0.392077903695752 
2108	 0.391789660067436 
2109	 0.391455251566085 
2110	 0.391073370929229 
2111	 0.390685902799473 
2112	 0.390251405819388 
2113	 0.389824123808472 
2114	 0.389411974129008 
2115	 0.388956164067341 
2116	 0.388471728555178 
2117	 0.387982418744719 
2118	 0.38745356071949 
2119	 0.386879531746661 
2120	 0.386318102821213 
2121	 0.385728248146581 
2122	 0.385161693073351 
2123	 0.384599281540728 
2124	 0.384034561990902 
2125	 0.383492309613556 
2126	 0.382910581627739 
2127	 0.382323737524907 
2128	 0.381707632014292 
2129	 0.381056032551245 
2130	 0.380396405563924 
2131	 0.379715475164505 
2132	 0.379022868531362 
2133	 0.378321541876324 
2134	 0.377609859065371 
2135	 0.376843256276857 
2136	 0.376071821799663 
2137	 0.375251424085702 
2138	 0.374358766914899 
2139	 0.373518887026596 
2140	 0.372678758647456 
2141	 0.371818741590652 
2142	 0.370974825925053 
2143	 0.370101993518963 
2144	 0.369192623232324 
2145	 0.368298830298077 
2146	 0.367387085964481 
2147	 0.366501251350339 
2148	 0.365630847618892 
2149	 0.364745373500438 
2150	 0.363889303229209 
2151	 0.363004229859087 
2152	 0.362072857102059 
2153	 0.361184493999355 
2154	 0.360260359297456 
2155	 0.359308714411236 
2156	 0.358419968678687 
2157	 0.357543200668223 
2158	 0.356682007445909 
2159	 0.355874438538495 
2160	 0.355036876013318 
2161	 0.354165374123667 
2162	 0.353367630050075 
2163	 0.352566769014913 
2164	 0.351850001077274 
2165	 0.351213748770809 
2166	 0.350582572778753 
2167	 0.349979708916652 
2168	 0.349442370362844 
2169	 0.348927072048055 
2170	 0.348484871650425 
2171	 0.348143084133396 
2172	 0.347806928234836 
2173	 0.347527224314034 
2174	 0.347247267006656 
2175	 0.347002376964382 
2176	 0.34677705997576 
2177	 0.346559906311592 
2178	 0.34636550264827 
2179	 0.346180437802547 
2180	 0.346002274094811 
2181	 0.345841719205311 
2182	 0.345706111719745 
2183	 0.345565222432639 
2184	 0.345448242937244 
2185	 0.345300502674805 
2186	 0.345140860314638 
2187	 0.344982933985557 
2188	 0.344812073192528 
2189	 0.344636443964569 
2190	 0.344463863621218 
2191	 0.344281597289157 
2192	 0.344102156502623 
2193	 0.343891825045377 
2194	 0.343665420569976 
2195	 0.343428467257095 
2196	 0.343176091016135 
2197	 0.342889387270363 
2198	 0.342602945797034 
2199	 0.342289105559882 
2200	 0.341907114934586 
2201	 0.341477303425582 
2202	 0.340993922535438 
2203	 0.340425263136932 
2204	 0.339890566325986 
2205	 0.339257117296111 
2206	 0.338795836675851 
2207	 0.338348000950347 
2208	 0.338064263807661 
2209	 0.33786923179711 
2210	 0.337865090709448 
2211	 0.338030884927468 
2212	 0.338286234878147 
2213	 0.338812426237028 
2214	 0.339220664678617 
2215	 0.339727740546875 
2216	 0.340112948510765 
2217	 0.340470810702283 
2218	 0.340722327530669 
2219	 0.340911252945812 
2220	 0.340987322993274 
2221	 0.340960757598291 
2222	 0.340831714018901 
2223	 0.340647054170309 
2224	 0.340346623748802 
2225	 0.339915473545563 
2226	 0.339406900305384 
2227	 0.338762090291914 
2228	 0.337957293261132 
2229	 0.337106758956304 
2230	 0.336156558821995 
2231	 0.335124438143342 
2232	 0.334007183151711 
2233	 0.332791657301255 
2234	 0.33149318573214 
2235	 0.330083661547332 
2236	 0.328555993530592 
2237	 0.326961784637177 
2238	 0.325196785403286 
2239	 0.323489938047073 
2240	 0.321771394954423 
2241	 0.319973810401647 
2242	 0.318229886078179 
2243	 0.316304833008256 
2244	 0.314171837009529 
2245	 0.31209866977172 
2246	 0.309888329906505 
2247	 0.307761572607094 
2248	 0.305744160290705 
2249	 0.303632324360748 
2250	 0.301483593024188 
2251	 0.2993628834288 
2252	 0.29709062835231 
2253	 0.294872833155728 
2254	 0.292679321808096 
2255	 0.290433774520603 
2256	 0.288303534976468 
2257	 0.286174074141379 
2258	 0.284078547939198 
2259	 0.282046036328301 
2260	 0.279959732986637 
2261	 0.277855047589363 
2262	 0.275811124500816 
2263	 0.27370716590721 
2264	 0.271758424201445 
2265	 0.269931641716183 
2266	 0.268084431298228 
2267	 0.266336562752031 
2268	 0.264541627092745 
2269	 0.262703976689382 
2270	 0.26095671609642 
2271	 0.259192057942852 
2272	 0.257551992548881 
2273	 0.256049459265647 
2274	 0.254519066303633 
2275	 0.253121601984172 
2276	 0.251600240053136 
2277	 0.250025749714767 
2278	 0.248444458395905 
2279	 0.246754735533199 
2280	 0.245135284855713 
2281	 0.243587117119023 
2282	 0.24195742583404 
2283	 0.240341827033597 
2284	 0.238690887911847 
2285	 0.236819953831018 
2286	 0.234974285122649 
2287	 0.233024492511755 
2288	 0.231005007057614 
2289	 0.229081825672585 
2290	 0.22705842310293 
2291	 0.225069487706184 
2292	 0.223034235360239 
2293	 0.220829313098829 
2294	 0.218701199415765 
2295	 0.216488390377225 
2296	 0.214259550448409 
2297	 0.212279473605899 
2298	 0.210398613114203 
2299	 0.208695277380961 
2300	 0.207190932270975 
2301	 0.2058318107843 
2302	 0.204559461394073 
2303	 0.203636249311742 
2304	 0.202881290222807 
2305	 0.202520515810648 
2306	 0.202488325037663 
2307	 0.202808080467989 
2308	 0.203473502617653 
2309	 0.204519941241217 
2310	 0.206027153803739 
2311	 0.20770228247574 
2312	 0.209862667138981 
2313	 0.211986129929488 
2314	 0.214410935293605 
2315	 0.216683184439904 
2316	 0.219063396497929 
2317	 0.221221949751271 
2318	 0.223368309992716 
2319	 0.225180720515034 
2320	 0.226857957847384 
2321	 0.22820219811224 
2322	 0.229178751335473 
2323	 0.229991431737737 
2324	 0.230499648361845 
2325	 0.230856328351541 
2326	 0.230985623352787 
2327	 0.230982700727694 
2328	 0.230803848814254 
2329	 0.23042596569939 
2330	 0.229854544483621 
2331	 0.229117262381258 
2332	 0.228195646839757 
2333	 0.227080215551907 
2334	 0.225772630025967 
2335	 0.224334941320759 
2336	 0.222692633920824 
2337	 0.22093522055559 
2338	 0.219228705752425 
2339	 0.217396556151527 
2340	 0.215550798252104 
2341	 0.213765466066958 
2342	 0.212000754608479 
2343	 0.210396252846846 
2344	 0.209035552451889 
2345	 0.208034753046184 
2346	 0.207405032873104 
2347	 0.207197084291783 
2348	 0.207356481028151 
2349	 0.207968486437847 
2350	 0.208998259738429 
2351	 0.210318028452776 
2352	 0.211900306782431 
2353	 0.213692492465024 
2354	 0.215404885576221 
2355	 0.217077067920875 
2356	 0.218658152768248 
2357	 0.220006209735014 
2358	 0.221271561871808 
2359	 0.222241766527118 
2360	 0.222973870691786 
2361	 0.223493684278046 
2362	 0.223818444042679 
2363	 0.224062371119112 
2364	 0.22420641850408 
2365	 0.224301947326793 
2366	 0.22437115480346 
2367	 0.224381761206614 
2368	 0.224386871936742 
2369	 0.224406185245098 
2370	 0.224353830747687 
2371	 0.224302429795636 
2372	 0.224274727523953 
2373	 0.22417998696181 
2374	 0.224076285918943 
2375	 0.224007658359065 
2376	 0.223935856833279 
2377	 0.22386553960426 
2378	 0.223805131513919 
2379	 0.223700903333016 
2380	 0.22356934184975 
2381	 0.223561661485003 
2382	 0.223561561906439 
2383	 0.223596686864925 
2384	 0.223638498167103 
2385	 0.223742877860925 
2386	 0.223795716427784 
2387	 0.223834455089671 
2388	 0.223893876118735 
2389	 0.223949263805361 
2390	 0.223985012111017 
2391	 0.224020795551214 
2392	 0.22405603047896 
2393	 0.224079981444416 
2394	 0.224117802089374 
2395	 0.224168161745816 
2396	 0.224209010518474 
2397	 0.224219808882704 
2398	 0.224288197256883 
2399	 0.224381887601267 
2400	 0.224478717378555 
2401	 0.224655662985244 
2402	 0.224671714889191 
2403	 0.224711875674337 
2404	 0.224739854429641 
2405	 0.22473076708193 
2406	 0.224815059949746 
2407	 0.224923754508696 
2408	 0.225002989709649 
2409	 0.225127874005653 
2410	 0.22514536354245 
2411	 0.225079694639376 
2412	 0.225081491496592 
2413	 0.2249816406996 
2414	 0.224866368898803 
2415	 0.224805800555908 
2416	 0.22462004232751 
2417	 0.224513669134197 
2418	 0.22448469811005 
2419	 0.224315407016168 
2420	 0.224254119097606 
2421	 0.224190930096465 
2422	 0.223977794018049 
2423	 0.223901123628081 
2424	 0.223892185744269 
2425	 0.223790106717369 
2426	 0.223698156794212 
2427	 0.223654532171296 
2428	 0.223469115043662 
2429	 0.223212373224674 
2430	 0.223059329806868 
2431	 0.222841018406305 
2432	 0.222604266221689 
2433	 0.222419357944215 
2434	 0.222038313185548 
2435	 0.221619507828896 
2436	 0.221306142092524 
2437	 0.220924129919167 
2438	 0.220643162837642 
2439	 0.220437526371375 
2440	 0.220085918437706 
2441	 0.219731352751008 
2442	 0.219411544642756 
2443	 0.21905635554664 
2444	 0.218723475536425 
2445	 0.218351805997249 
2446	 0.217972278310429 
2447	 0.217605561725946 
2448	 0.217199034256576 
2449	 0.21677878191168 
2450	 0.216362718594961 
2451	 0.215937426498691 
2452	 0.21541531922235 
2453	 0.214917289852246 
2454	 0.214476915978189 
2455	 0.213945801868129 
2456	 0.213347903260938 
2457	 0.212803147640278 
2458	 0.212307829269233 
2459	 0.211767513943674 
2460	 0.211526093289144 
2461	 0.211421439518815 
2462	 0.211073556120872 
2463	 0.21087283515627 
2464	 0.210668525118652 
2465	 0.210353307803691 
2466	 0.210103733294923 
2467	 0.209781365502689 
2468	 0.209514323095036 
2469	 0.209296796621386 
2470	 0.209201856658179 
2471	 0.2091824250094 
2472	 0.209009373815215 
2473	 0.208947292188032 
2474	 0.208859143237126 
2475	 0.208719667050212 
2476	 0.208790445670398 
2477	 0.208804177084036 
2478	 0.208904842293173 
2479	 0.209263526842529 
2480	 0.209570199274956 
2481	 0.209734476041856 
2482	 0.209772054661079 
2483	 0.209743784563729 
2484	 0.209852119307099 
2485	 0.209940217239547 
2486	 0.210064735018006 
2487	 0.210201265072359 
2488	 0.210244634708714 
2489	 0.210440892675042 
2490	 0.210824669612103 
2491	 0.211157937617505 
2492	 0.21132346395393 
2493	 0.211527888050754 
2494	 0.211737942648414 
2495	 0.211848333958416 
2496	 0.212086606175897 
2497	 0.212245047211888 
2498	 0.212251353823721 
2499	 0.212538304085832 
2500	 0.212758071798773 
