Wavelength	spectrum00019.asd
350	 6.14795659455248E-02 
351	 6.08604394700767E-02 
352	 6.02577908077948E-02 
353	 0.05906797307793 
354	 5.80787250525042E-02 
355	 5.72346523539983E-02 
356	 5.70439894892626E-02 
357	 0.057248644753128 
358	 5.48348337294807E-02 
359	 5.37150113655699E-02 
360	 5.42871010502439E-02 
361	 5.49856194073499E-02 
362	 5.53152617746381E-02 
363	 0.05418417321528 
364	 5.23724902754513E-02 
365	 5.30307227174207E-02 
366	 5.37511384165243E-02 
367	 5.39333199330692E-02 
368	 5.37073174948483E-02 
369	 5.41495712589072E-02 
370	 5.36791978175916E-02 
371	 5.25246124239372E-02 
372	 5.19579893234652E-02 
373	 5.23480291351264E-02 
374	 0.052891126355417 
375	 5.30649582649035E-02 
376	 5.29514024034011E-02 
377	 5.28423481319332E-02 
378	 5.27761634823827E-02 
379	 5.26663052672834E-02 
380	 5.22090072004761E-02 
381	 5.23769988203191E-02 
382	 5.23744769981971E-02 
383	 5.08155974776381E-02 
384	 5.16149874930379E-02 
385	 5.22563519782741E-02 
386	 5.15545652179027E-02 
387	 5.14443992825957E-02 
388	 5.11110368293519E-02 
389	 5.09412341296061E-02 
390	 5.12746545588561E-02 
391	 5.11969238701765E-02 
392	 5.12019365785376E-02 
393	 5.12439972408019E-02 
394	 5.09928359313164E-02 
395	 0.051290263410864 
396	 5.16220394000184E-02 
397	 5.16061337513103E-02 
398	 5.13960352740368E-02 
399	 5.04478609262544E-02 
400	 4.97359889267982E-02 
401	 5.01280628178128E-02 
402	 5.02221826575882E-02 
403	 5.03914096944238E-02 
404	 5.04499858858129E-02 
405	 4.98579533317012E-02 
406	 4.96583234972857E-02 
407	 4.95133099612838E-02 
408	 4.92423042500724E-02 
409	 4.94109716370308E-02 
410	 0.049430535596418 
411	 4.94301771968846E-02 
412	 4.96477675644661E-02 
413	 4.96437591814541E-02 
414	 4.94783172113308E-02 
415	 4.93302756924994E-02 
416	 4.94324154885498E-02 
417	 4.94690730849331E-02 
418	 0.049348654741864 
419	 4.91369544217045E-02 
420	 4.91541637023775E-02 
421	 4.91529131819959E-02 
422	 4.92099192043879E-02 
423	 4.94470708175869E-02 
424	 4.94112201993183E-02 
425	 4.92015363991964E-02 
426	 4.90304611419491E-02 
427	 0.049173523347961 
428	 4.92119231684706E-02 
429	 4.91470860562894E-02 
430	 4.90941457399298E-02 
431	 4.91992807100183E-02 
432	 0.049328423584725 
433	 4.93248741646997E-02 
434	 4.90982245186043E-02 
435	 4.92334036524943E-02 
436	 4.93429995693222E-02 
437	 4.92812283193223E-02 
438	 4.94589824364754E-02 
439	 4.95313938555819E-02 
440	 4.95041314631834E-02 
441	 4.94803180113572E-02 
442	 4.95203346493703E-02 
443	 4.94824924499038E-02 
444	 4.94728783698644E-02 
445	 4.97497371961628E-02 
446	 4.96660533314447E-02 
447	 4.95286106358037E-02 
448	 4.95974419783093E-02 
449	 4.96857879798975E-02 
450	 4.97843993532527E-02 
451	 4.98898523087149E-02 
452	 0.049980969626303 
453	 4.98633291685902E-02 
454	 4.98718295452181E-02 
455	 5.00146080905705E-02 
456	 0.04990968843085 
457	 0.049932144866011 
458	 0.049923475713315 
459	 4.97980928002694E-02 
460	 5.00600931679501E-02 
461	 5.02974309484678E-02 
462	 5.03046390302641E-02 
463	 0.050074592042264 
464	 0.050171582310561 
465	 5.03168093028894E-02 
466	 5.03085341915932E-02 
467	 5.02138205262101E-02 
468	 5.02042575329746E-02 
469	 5.02371008218177E-02 
470	 5.02476349224135E-02 
471	 5.04073061846456E-02 
472	 5.04500166717064E-02 
473	 5.03960045921702E-02 
474	 5.04856015401239E-02 
475	 5.04915036036792E-02 
476	 5.05156335806124E-02 
477	 5.06105995534312E-02 
478	 5.06012741324238E-02 
479	 5.05911784323296E-02 
480	 5.06335790916967E-02 
481	 5.07208008068088E-02 
482	 5.05755522182037E-02 
483	 5.05703091495722E-02 
484	 5.07680940604527E-02 
485	 5.08314151575473E-02 
486	 5.09201557202002E-02 
487	 5.09157260733472E-02 
488	 0.050776348875207 
489	 5.08732338824462E-02 
490	 5.09831409435542E-02 
491	 5.10455903524064E-02 
492	 5.11033769724959E-02 
493	 5.11869656807025E-02 
494	 5.12805582537822E-02 
495	 5.13610451730687E-02 
496	 5.14070821875108E-02 
497	 5.13665136894468E-02 
498	 5.13600271382928E-02 
499	 5.14900060742134E-02 
500	 5.15241997034067E-02 
501	 5.15267868921804E-02 
502	 5.15356717215458E-02 
503	 5.15583517148542E-02 
504	 5.17155668797075E-02 
505	 5.18058395112093E-02 
506	 5.17479021990426E-02 
507	 0.051902370774814 
508	 5.19668175369831E-02 
509	 0.051943215555972 
510	 5.19703961440284E-02 
511	 5.21222711721325E-02 
512	 5.22348440919951E-02 
513	 5.22643499614045E-02 
514	 5.23494636254264E-02 
515	 5.23692829231024E-02 
516	 5.23932415042943E-02 
517	 5.24856718206456E-02 
518	 5.25131403448509E-02 
519	 5.25927149095695E-02 
520	 0.052717770102541 
521	 5.27973871844403E-02 
522	 5.28585338327552E-02 
523	 0.052923902109316 
524	 0.053013568154763 
525	 5.31524751117639E-02 
526	 5.32310062904026E-02 
527	 5.32960869922415E-02 
528	 0.053431295156172 
529	 5.35739613227927E-02 
530	 5.37125783702808E-02 
531	 5.38439819861976E-02 
532	 5.39703843664702E-02 
533	 5.40627007312766E-02 
534	 0.054200157629592 
535	 5.44198321453629E-02 
536	 5.45657622243211E-02 
537	 5.47800075634788E-02 
538	 0.055023171940336 
539	 5.51776707475796E-02 
540	 0.055408417646489 
541	 5.56718475980413E-02 
542	 5.59242824897675E-02 
543	 5.61593029032419E-02 
544	 5.64317872255547E-02 
545	 5.67280694182137E-02 
546	 5.70196232360818E-02 
547	 5.73265282510478E-02 
548	 5.75960573695576E-02 
549	 5.78466242516837E-02 
550	 5.81572844825164E-02 
551	 0.058463816556375 
552	 5.87946859458782E-02 
553	 5.91649441850634E-02 
554	 5.95139539111106E-02 
555	 5.98535770586894E-02 
556	 6.02253619022446E-02 
557	 6.06729757602996E-02 
558	 6.11325840013112E-02 
559	 0.061617629770254 
560	 0.062122283133367 
561	 6.26040369259363E-02 
562	 6.31346062314413E-02 
563	 6.37647050064693E-02 
564	 6.44944494688565E-02 
565	 6.51748860034766E-02 
566	 6.58644089734743E-02 
567	 6.65800263643976E-02 
568	 6.73027439378269E-02 
569	 6.80083556931146E-02 
570	 6.86759596757177E-02 
571	 6.93241824645025E-02 
572	 7.00456545435399E-02 
573	 7.08381110281359E-02 
574	 7.16429702217002E-02 
575	 0.072416110658771 
576	 7.33540056268384E-02 
577	 0.074340142923404 
578	 7.53119264137961E-02 
579	 7.62917128031863E-02 
580	 7.72764163070957E-02 
581	 7.82447782845496E-02 
582	 0.079188925847059 
583	 8.01433271482358E-02 
584	 8.11539904952484E-02 
585	 8.22021718053648E-02 
586	 8.32414121050256E-02 
587	 8.43565262817897E-02 
588	 8.55045534367501E-02 
589	 8.66342294294116E-02 
590	 8.77028751589231E-02 
591	 0.088835165601132 
592	 8.99869826391712E-02 
593	 9.10811200288711E-02 
594	 9.21435800736783E-02 
595	 9.32708998461773E-02 
596	 9.44589217239845E-02 
597	 9.56131830554289E-02 
598	 9.67873015418826E-02 
599	 9.80144385819656E-02 
600	 9.92857554752222E-02 
601	 0.100485441762588 
602	 0.101729506774518 
603	 0.102982842741477 
604	 0.104164592429723 
605	 0.105375096266692 
606	 0.106615975572224 
607	 0.107858031924609 
608	 0.109042578556446 
609	 0.110181586051724 
610	 0.111352763610445 
611	 0.11259574167737 
612	 0.113763209718603 
613	 0.114910067760128 
614	 0.116056475358774 
615	 0.11720052412458 
616	 0.118329508221373 
617	 0.119464075531873 
618	 0.120612932471075 
619	 0.12176396476141 
620	 0.12285885908111 
621	 0.123919955757057 
622	 0.124988666756637 
623	 0.126037872237441 
624	 0.127108945548044 
625	 0.1281927685713 
626	 0.129235015501388 
627	 0.130260252064219 
628	 0.131279423724909 
629	 0.132304218197971 
630	 0.133359925510575 
631	 0.134349019298541 
632	 0.13531479054752 
633	 0.136345066399402 
634	 0.137355414451795 
635	 0.138330858323771 
636	 0.139287661287798 
637	 0.140267026757949 
638	 0.141199416234472 
639	 0.142143010678563 
640	 0.143138244883892 
641	 0.144065118472186 
642	 0.144947434968442 
643	 0.145845551398466 
644	 0.146827215451108 
645	 0.147786594029998 
646	 0.148713300671531 
647	 0.149614997831381 
648	 0.150505631822663 
649	 0.151447460497255 
650	 0.15238782805997 
651	 0.153269032192941 
652	 0.154179467108412 
653	 0.155094214032025 
654	 0.156013856929552 
655	 0.156956948489292 
656	 0.157883846771533 
657	 0.158818260375253 
658	 0.159769476338389 
659	 0.160695099854117 
660	 0.16162195858629 
661	 0.162554749110102 
662	 0.163487606673005 
663	 0.16440397407694 
664	 0.16532810721226 
665	 0.166271153742891 
666	 0.167226246999635 
667	 0.168186315862003 
668	 0.169166140639077 
669	 0.170155077198802 
670	 0.171059541891815 
671	 0.172020065243331 
672	 0.17301657022162 
673	 0.173971130267348 
674	 0.174958626263643 
675	 0.17592780362592 
676	 0.176894367217236 
677	 0.177964378545164 
678	 0.178961321202538 
679	 0.179931577050322 
680	 0.180948973843283 
681	 0.182002191678224 
682	 0.183056593898908 
683	 0.184099732430761 
684	 0.185132706670186 
685	 0.186145330545394 
686	 0.187149285939835 
687	 0.18817423016779 
688	 0.189274061270339 
689	 0.190353202825621 
690	 0.191398511429182 
691	 0.192427099365635 
692	 0.193459134404414 
693	 0.194544952993547 
694	 0.195667695945537 
695	 0.19676346993807 
696	 0.197798444159769 
697	 0.198824732403574 
698	 0.199884174044152 
699	 0.20098405849006 
700	 0.202075085852806 
701	 0.203122702403585 
702	 0.20413072052215 
703	 0.205212422031011 
704	 0.206308280344745 
705	 0.20736934573106 
706	 0.208369385232582 
707	 0.209400323238613 
708	 0.210435188138019 
709	 0.211463622351692 
710	 0.212534429982533 
711	 0.213547109391234 
712	 0.214519946487858 
713	 0.215495871415758 
714	 0.216456334956734 
715	 0.217404827679754 
716	 0.218362905900308 
717	 0.219352019595441 
718	 0.220282656960427 
719	 0.221146622109991 
720	 0.221974266485121 
721	 0.222834376784376 
722	 0.223691462186867 
723	 0.224556458503058 
724	 0.225429661163919 
725	 0.226228321003284 
726	 0.226963168919298 
727	 0.227707299982984 
728	 0.22854859879362 
729	 0.229266732138741 
730	 0.229903431262171 
731	 0.230529937875067 
732	 0.231205324638782 
733	 0.231794066344792 
734	 0.232354370826392 
735	 0.232951479020231 
736	 0.233442856668801 
737	 0.233920748585692 
738	 0.23439741820075 
739	 0.234836156171903 
740	 0.235307651124858 
741	 0.235746072248423 
742	 0.236116658959894 
743	 0.236455958295052 
744	 0.236786875877325 
745	 0.237109983868486 
746	 0.237409772218065 
747	 0.23764806340683 
748	 0.237842943737949 
749	 0.237997717844907 
750	 0.238114775083032 
751	 0.238254422868398 
752	 0.238389795340034 
753	 0.238481773126888 
754	 0.238491028134281 
755	 0.23852287048196 
756	 0.238556066518538 
757	 0.238549017051717 
758	 0.238495243319707 
759	 0.238414299503961 
760	 0.238320857953255 
761	 0.23821909477159 
762	 0.238063162022367 
763	 0.237921369414092 
764	 0.237794332134293 
765	 0.237604621396079 
766	 0.237368191723602 
767	 0.23715976709866 
768	 0.236997102772934 
769	 0.236747762498171 
770	 0.236413130065167 
771	 0.236067477269582 
772	 0.23578455247036 
773	 0.235475000318752 
774	 0.235134355641164 
775	 0.234765078152995 
776	 0.23437782277363 
777	 0.234036293715527 
778	 0.2336955557565 
779	 0.23332177566962 
780	 0.232931022803602 
781	 0.232474477257348 
782	 0.232018024129812 
783	 0.231618543523008 
784	 0.231184079389307 
785	 0.230749595318847 
786	 0.230291258778628 
787	 0.229771788705916 
788	 0.229305356321435 
789	 0.228841931074163 
790	 0.228361945954919 
791	 0.227899293548749 
792	 0.227435541533236 
793	 0.226957422594623 
794	 0.226466791653421 
795	 0.225999536731169 
796	 0.225528669091231 
797	 0.225045140246181 
798	 0.224548995636124 
799	 0.224043441828315 
800	 0.223581071884668 
801	 0.223132968860895 
802	 0.222623418419937 
803	 0.222188683715595 
804	 0.221748426003504 
805	 0.221268320062182 
806	 0.220824475776163 
807	 0.22037551059965 
808	 0.219919697150929 
809	 0.219464508091426 
810	 0.219011662177003 
811	 0.218606681499758 
812	 0.21820682131098 
813	 0.21774950983546 
814	 0.217311020184258 
815	 0.216862062378928 
816	 0.21642763334317 
817	 0.216073435594346 
818	 0.215701272084155 
819	 0.215297293767362 
820	 0.214876994058362 
821	 0.214478648835516 
822	 0.214093897868332 
823	 0.21373562291659 
824	 0.21340711392598 
825	 0.213076165374081 
826	 0.212692135361561 
827	 0.212319949576752 
828	 0.212043687052958 
829	 0.211723952929308 
830	 0.21140187804826 
831	 0.211082595418873 
832	 0.210740274870812 
833	 0.210462403993923 
834	 0.21024597920745 
835	 0.210038287162144 
836	 0.209737993006683 
837	 0.209472741897441 
838	 0.209246751160873 
839	 0.209039591951159 
840	 0.208863408287076 
841	 0.208625020462517 
842	 0.208370168407477 
843	 0.208182231842629 
844	 0.208019273043682 
845	 0.207831558576674 
846	 0.207639256900345 
847	 0.207500710102862 
848	 0.20731577350656 
849	 0.207171201092903 
850	 0.207089000030754 
851	 0.206987262122988 
852	 0.206908799023772 
853	 0.206834636266192 
854	 0.206753509088674 
855	 0.206694972435278 
856	 0.206645715056336 
857	 0.206590382761461 
858	 0.206527752595577 
859	 0.206509374235734 
860	 0.206481530299594 
861	 0.206473458526466 
862	 0.206533636273046 
863	 0.206554700714537 
864	 0.206574632008375 
865	 0.20662447602576 
866	 0.206707933395611 
867	 0.206701914734963 
868	 0.206732025218998 
869	 0.206846416777809 
870	 0.206942303309173 
871	 0.20708921575005 
872	 0.207224983249346 
873	 0.20732113183467 
874	 0.207484831098015 
875	 0.20761873055785 
876	 0.207738191756635 
877	 0.207893158929025 
878	 0.208125737104654 
879	 0.20831763134812 
880	 0.20848667711062 
881	 0.208705405698674 
882	 0.208936697824196 
883	 0.209143985495529 
884	 0.209363609194297 
885	 0.209664693475492 
886	 0.209892510687276 
887	 0.210146914988969 
888	 0.210463278579857 
889	 0.210771148603679 
890	 0.211097763969069 
891	 0.211424412794783 
892	 0.21173908412176 
893	 0.212053026321602 
894	 0.212391420459699 
895	 0.212758631677719 
896	 0.213140447125753 
897	 0.213486324683319 
898	 0.213931289831051 
899	 0.214367814575971 
900	 0.214689176983082 
901	 0.215116553876926 
902	 0.215604393010706 
903	 0.216108404624108 
904	 0.216584619830364 
905	 0.216986503396922 
906	 0.217456360166932 
907	 0.218005239296133 
908	 0.218542146861391 
909	 0.21905272096897 
910	 0.219598243632453 
911	 0.220169549301908 
912	 0.220689370643431 
913	 0.221233732322704 
914	 0.221796033579745 
915	 0.222371644940753 
916	 0.222975245556256 
917	 0.223601834349672 
918	 0.224275601184543 
919	 0.224995730778289 
920	 0.225709842823732 
921	 0.22636059413621 
922	 0.226986809255508 
923	 0.227645671990134 
924	 0.228362970978785 
925	 0.229144518173954 
926	 0.229904711634696 
927	 0.230597275842246 
928	 0.231404528682476 
929	 0.232214695785864 
930	 0.233009986276218 
931	 0.233804657966691 
932	 0.234560261379907 
933	 0.23539005525357 
934	 0.236258274780757 
935	 0.237066943353308 
936	 0.237864960615251 
937	 0.238744013515583 
938	 0.239677854558451 
939	 0.24057101587578 
940	 0.241477418368847 
941	 0.242394053004285 
942	 0.243314117674281 
943	 0.24423675505351 
944	 0.245209058351377 
945	 0.246135577623622 
946	 0.247041831590252 
947	 0.248070950687373 
948	 0.249034542790464 
949	 0.250025725617319 
950	 0.251082980647914 
951	 0.252126538602535 
952	 0.253121931382446 
953	 0.254150365024059 
954	 0.255244483631236 
955	 0.256332767448207 
956	 0.257335650900608 
957	 0.25837743932976 
958	 0.259535383844954 
959	 0.260726708507998 
960	 0.261834158994296 
961	 0.262916608225331 
962	 0.26403310460687 
963	 0.265147615932757 
964	 0.266237155060331 
965	 0.267359478526964 
966	 0.268551410373577 
967	 0.269756149667575 
968	 0.271004974462227 
969	 0.272223454038893 
970	 0.273361130900994 
971	 0.274492295148391 
972	 0.275733878737971 
973	 0.277016714120767 
974	 0.278237394625965 
975	 0.279376506629494 
976	 0.280621874144477 
977	 0.281948774099308 
978	 0.283272862839842 
979	 0.284574443976767 
980	 0.285887909875796 
981	 0.287179453411308 
982	 0.288422355022044 
983	 0.289684183174695 
984	 0.290976760693391 
985	 0.292316523832456 
986	 0.293701385610314 
987	 0.295089103938189 
988	 0.296386317747909 
989	 0.297680257422105 
990	 0.299051035119237 
991	 0.3003117360018 
992	 0.301608969370991 
993	 0.303008496352345 
994	 0.304481332984097 
995	 0.305811936885257 
996	 0.307185708845671 
997	 0.308538689211533 
998	 0.309802823149054 
999	 0.311207733717461 
1000	 0.312571921437976 
1001	 0.317554559921458 
1002	 0.318961640409143 
1003	 0.320392002822511 
1004	 0.321727708875902 
1005	 0.322975046412503 
1006	 0.324320545044335 
1007	 0.325647648261741 
1008	 0.327009756317482 
1009	 0.328417438938717 
1010	 0.329810528794664 
1011	 0.331236378324193 
1012	 0.332611344597408 
1013	 0.333963221196008 
1014	 0.335342554112986 
1015	 0.33671254136642 
1016	 0.338021099911631 
1017	 0.339455740139235 
1018	 0.340868596811492 
1019	 0.342266355670262 
1020	 0.343745001349843 
1021	 0.345146713503828 
1022	 0.346518056726667 
1023	 0.347892721561998 
1024	 0.349212769503518 
1025	 0.350595575685434 
1026	 0.352025730145548 
1027	 0.353419239132554 
1028	 0.354823261994335 
1029	 0.356247835431544 
1030	 0.357585141595243 
1031	 0.358955934297424 
1032	 0.360340523575602 
1033	 0.36168991514136 
1034	 0.363087466966859 
1035	 0.364425119935144 
1036	 0.365783514256671 
1037	 0.367180957837022 
1038	 0.368509216174416 
1039	 0.369804847447799 
1040	 0.371126834613356 
1041	 0.372388148396081 
1042	 0.373698172866848 
1043	 0.375072995788346 
1044	 0.376378901744179 
1045	 0.377685960804485 
1046	 0.379025479832106 
1047	 0.380261722520341 
1048	 0.381544144855122 
1049	 0.382848136512256 
1050	 0.384128289536012 
1051	 0.38548680037978 
1052	 0.386802918156398 
1053	 0.388127243050385 
1054	 0.389487186905335 
1055	 0.390792353571322 
1056	 0.392064645607073 
1057	 0.39335426237361 
1058	 0.39462974619216 
1059	 0.395833715272862 
1060	 0.397160757915815 
1061	 0.398453966842365 
1062	 0.399765033036772 
1063	 0.401160444658295 
1064	 0.402407309028391 
1065	 0.403649315782921 
1066	 0.404902766469713 
1067	 0.406113207888574 
1068	 0.407429371872097 
1069	 0.408708735549337 
1070	 0.410009808119982 
1071	 0.411332221056849 
1072	 0.412664659369065 
1073	 0.413899857085845 
1074	 0.41519895221059 
1075	 0.416473498666882 
1076	 0.417707788237603 
1077	 0.418995728409345 
1078	 0.420258307030875 
1079	 0.421568885478219 
1080	 0.422890265248754 
1081	 0.424147170750851 
1082	 0.425470961182648 
1083	 0.426742928295778 
1084	 0.427972703134749 
1085	 0.429320187846303 
1086	 0.430615511504346 
1087	 0.431883978298057 
1088	 0.433169584019074 
1089	 0.434495186059795 
1090	 0.435700773505693 
1091	 0.436954899807877 
1092	 0.43822657595845 
1093	 0.439460404438845 
1094	 0.440782204026615 
1095	 0.442045075539461 
1096	 0.44330458679696 
1097	 0.444616519601614 
1098	 0.445858909859287 
1099	 0.447125563592716 
1100	 0.448372028153702 
1101	 0.449611959595879 
1102	 0.45091716935019 
1103	 0.45219348158804 
1104	 0.453467644885312 
1105	 0.454798619124369 
1106	 0.456116657906322 
1107	 0.457337581109991 
1108	 0.458612899471312 
1109	 0.459856986218028 
1110	 0.461074707218267 
1111	 0.462374097013013 
1112	 0.463618449875025 
1113	 0.464901479238028 
1114	 0.466214931159065 
1115	 0.467433102560084 
1116	 0.468698664481177 
1117	 0.469944710892731 
1118	 0.471199278894919 
1119	 0.472470885239617 
1120	 0.473727318955663 
1121	 0.474967624946427 
1122	 0.476241767905353 
1123	 0.477513718389634 
1124	 0.478696787647057 
1125	 0.479924883221433 
1126	 0.481127644967424 
1127	 0.482311227585703 
1128	 0.483593044229114 
1129	 0.484829993468822 
1130	 0.486085121702856 
1131	 0.487368569587173 
1132	 0.488515071700849 
1133	 0.489688314013969 
1134	 0.490862330894272 
1135	 0.492031993633027 
1136	 0.493203276034003 
1137	 0.494373003399231 
1138	 0.495537505169116 
1139	 0.496710670976425 
1140	 0.497906024264313 
1141	 0.499005473737249 
1142	 0.500142512611118 
1143	 0.501267607429341 
1144	 0.502367910712911 
1145	 0.503545633137963 
1146	 0.504694314617771 
1147	 0.505840864908516 
1148	 0.507009616208094 
1149	 0.508109434510581 
1150	 0.509217056532523 
1151	 0.510307073310121 
1152	 0.511388860838318 
1153	 0.512434893880503 
1154	 0.513509203770723 
1155	 0.514599498881647 
1156	 0.515689833858266 
1157	 0.516775534516835 
1158	 0.517844099638795 
1159	 0.5189219390376 
1160	 0.519980137038543 
1161	 0.520996281830638 
1162	 0.522070535154375 
1163	 0.52309440987292 
1164	 0.524116383529354 
1165	 0.525152629172333 
1166	 0.526124622342708 
1167	 0.527126656997742 
1168	 0.528104238218965 
1169	 0.529093046783187 
1170	 0.530090913072944 
1171	 0.531088587076153 
1172	 0.532080630237547 
1173	 0.533085546573957 
1174	 0.534090979826247 
1175	 0.535080874450012 
1176	 0.536070328767585 
1177	 0.537069292207725 
1178	 0.538052133076652 
1179	 0.539077677981229 
1180	 0.54006930889325 
1181	 0.541077119138768 
1182	 0.542084558867963 
1183	 0.543046960383458 
1184	 0.544042621446042 
1185	 0.545016828066784 
1186	 0.546006700617239 
1187	 0.547002703282735 
1188	 0.547992940012042 
1189	 0.548989295580319 
1190	 0.549994121219216 
1191	 0.550993023731099 
1192	 0.551978673213432 
1193	 0.552974139358892 
1194	 0.553953006744712 
1195	 0.554919550922081 
1196	 0.555893348331923 
1197	 0.556853008748316 
1198	 0.557839662658994 
1199	 0.558861280619319 
1200	 0.559786287675692 
1201	 0.56074743446687 
1202	 0.561702756244541 
1203	 0.562608742036181 
1204	 0.563583241718651 
1205	 0.564525516401563 
1206	 0.565471158749564 
1207	 0.56640696992802 
1208	 0.567327312673581 
1209	 0.568247631912974 
1210	 0.569165417297067 
1211	 0.57008154115655 
1212	 0.571016075320431 
1213	 0.571924457950682 
1214	 0.572806044281418 
1215	 0.573705871902896 
1216	 0.574608685328633 
1217	 0.575483882221848 
1218	 0.576358084974909 
1219	 0.577222166491754 
1220	 0.578063635365865 
1221	 0.57895808709786 
1222	 0.579808396043514 
1223	 0.580680869069492 
1224	 0.581543940747731 
1225	 0.582384474105395 
1226	 0.583219470734177 
1227	 0.584072566979615 
1228	 0.584897753026232 
1229	 0.585695310903585 
1230	 0.586497452001469 
1231	 0.587293036211438 
1232	 0.588091554183054 
1233	 0.588885965485376 
1234	 0.589661931951135 
1235	 0.590430910637507 
1236	 0.591201887151463 
1237	 0.591959552648157 
1238	 0.592719668306077 
1239	 0.593489207082407 
1240	 0.594249633102841 
1241	 0.595016462656042 
1242	 0.595724736358476 
1243	 0.596442467352508 
1244	 0.597139562930871 
1245	 0.597858162269679 
1246	 0.598572502767112 
1247	 0.599298823021888 
1248	 0.600034814516285 
1249	 0.600788151691189 
1250	 0.601559054339778 
1251	 0.602308571999896 
1252	 0.603084152064042 
1253	 0.603821310292105 
1254	 0.604535033587533 
1255	 0.605235578540952 
1256	 0.60591708824498 
1257	 0.606593638308144 
1258	 0.607264661013319 
1259	 0.607906443631945 
1260	 0.608516498951413 
1261	 0.609138383367858 
1262	 0.609744582314384 
1263	 0.610348770819512 
1264	 0.61094731505345 
1265	 0.611556236315374 
1266	 0.612154935426894 
1267	 0.612737872304275 
1268	 0.613317777721 
1269	 0.613898811803078 
1270	 0.614476658675305 
1271	 0.615058524108877 
1272	 0.615601629187779 
1273	 0.616126238497531 
1274	 0.616652116862261 
1275	 0.61713796203721 
1276	 0.61763910893117 
1277	 0.618151756997327 
1278	 0.618661515604426 
1279	 0.619160117196151 
1280	 0.619664467052362 
1281	 0.620174184712262 
1282	 0.620685990921746 
1283	 0.621207167119547 
1284	 0.621709426603388 
1285	 0.622204091625576 
1286	 0.622689004142928 
1287	 0.623195982270854 
1288	 0.62369891413603 
1289	 0.624201236446324 
1290	 0.624730828947696 
1291	 0.625222728543995 
1292	 0.625691605007581 
1293	 0.626151761025005 
1294	 0.626592158389078 
1295	 0.627043206115123 
1296	 0.627470271713383 
1297	 0.627928232916082 
1298	 0.628406904318815 
1299	 0.628882314813592 
1300	 0.62937872215833 
1301	 0.629854602025634 
1302	 0.630321472214157 
1303	 0.630787405083542 
1304	 0.63125216479254 
1305	 0.631701457327565 
1306	 0.632135393177397 
1307	 0.632576035008904 
1308	 0.633006862855709 
1309	 0.633439473854445 
1310	 0.633865396881184 
1311	 0.634292713381146 
1312	 0.634725512686399 
1313	 0.635146385583486 
1314	 0.635585790583503 
1315	 0.636052197651226 
1316	 0.636486706280037 
1317	 0.636921440319816 
1318	 0.637331953951475 
1319	 0.637718907107678 
1320	 0.63810653043697 
1321	 0.638474506760967 
1322	 0.638852757784192 
1323	 0.639236418209338 
1324	 0.639608110049621 
1325	 0.639966120953067 
1326	 0.640341144026219 
1327	 0.640723515066175 
1328	 0.641094745030321 
1329	 0.641503098016633 
1330	 0.641855030014736 
1331	 0.642158687741071 
1332	 0.642467375159821 
1333	 0.642746516500144 
1334	 0.643027261292588 
1335	 0.643301060229113 
1336	 0.643583775909435 
1337	 0.64383478697981 
1338	 0.644063554377862 
1339	 0.64429261967593 
1340	 0.644509393467054 
1341	 0.644722009843327 
1342	 0.64493434902606 
1343	 0.645127601244729 
1344	 0.645307764167642 
1345	 0.645482143480169 
1346	 0.645647656320708 
1347	 0.645799826289869 
1348	 0.645942954377316 
1349	 0.646076396250882 
1350	 0.646187389736631 
1351	 0.646309981599762 
1352	 0.646427982906015 
1353	 0.646552295420409 
1354	 0.646684083456476 
1355	 0.646811887417491 
1356	 0.646937403600588 
1357	 0.64706881788566 
1358	 0.647200071344376 
1359	 0.647335696785485 
1360	 0.647472716789182 
1361	 0.647625095526084 
1362	 0.647767747347337 
1363	 0.647894199408144 
1364	 0.648026026479587 
1365	 0.648148646569485 
1366	 0.648282393878238 
1367	 0.6484258517 
1368	 0.648554882309841 
1369	 0.648689751877038 
1370	 0.648799482520356 
1371	 0.648900077090551 
1372	 0.648977424913552 
1373	 0.649049701458996 
1374	 0.649077368691708 
1375	 0.649071498469361 
1376	 0.649052695729199 
1377	 0.649022983781283 
1378	 0.648936146279473 
1379	 0.648824254434781 
1380	 0.648671663228006 
1381	 0.648476359150816 
1382	 0.64822992416998 
1383	 0.647947968865649 
1384	 0.647623248387893 
1385	 0.647256187094921 
1386	 0.646830095089557 
1387	 0.646370687910448 
1388	 0.645853984190666 
1389	 0.645276805979361 
1390	 0.644643217667078 
1391	 0.643971184112251 
1392	 0.643213022163455 
1393	 0.642432682199626 
1394	 0.641591603306652 
1395	 0.640718912767111 
1396	 0.639801895076164 
1397	 0.63888239835762 
1398	 0.637925981698034 
1399	 0.636956245168951 
1400	 0.635976515059682 
1401	 0.634970673278826 
1402	 0.633937132738787 
1403	 0.632876414382639 
1404	 0.63178753323177 
1405	 0.630710435988729 
1406	 0.629598973523726 
1407	 0.6285112697545 
1408	 0.627422467668154 
1409	 0.626363715731449 
1410	 0.625289003064246 
1411	 0.624283113630554 
1412	 0.623296336180553 
1413	 0.622401335497617 
1414	 0.621539791255356 
1415	 0.620787340132757 
1416	 0.620128239360249 
1417	 0.619536076759237 
1418	 0.619044643443579 
1419	 0.618595855465851 
1420	 0.618224125784697 
1421	 0.617886618384371 
1422	 0.617627350482665 
1423	 0.617360499114478 
1424	 0.617121111510305 
1425	 0.616896461703281 
1426	 0.616670373799761 
1427	 0.616447233379426 
1428	 0.616233366164146 
1429	 0.61605536981157 
1430	 0.615900186371535 
1431	 0.615765201188428 
1432	 0.615653030144219 
1433	 0.615568459936679 
1434	 0.615504151949465 
1435	 0.615457838873435 
1436	 0.615436743567004 
1437	 0.615460224969817 
1438	 0.61545899896697 
1439	 0.615468557738301 
1440	 0.615469478890547 
1441	 0.615450464142747 
1442	 0.615459936273614 
1443	 0.615490786799149 
1444	 0.615507169250041 
1445	 0.615527513920886 
1446	 0.615549297913017 
1447	 0.615566324898646 
1448	 0.615582398815843 
1449	 0.615617583380237 
1450	 0.615625806645054 
1451	 0.61560718022213 
1452	 0.615599871979618 
1453	 0.615576529225634 
1454	 0.615572455467898 
1455	 0.615594867219371 
1456	 0.615595073121815 
1457	 0.615591373412898 
1458	 0.615584664566987 
1459	 0.61556844420654 
1460	 0.615546179489051 
1461	 0.615514878453617 
1462	 0.615493106515275 
1463	 0.615456349843978 
1464	 0.615438125404511 
1465	 0.615438843975128 
1466	 0.615441759866344 
1467	 0.615458141054394 
1468	 0.615478755071905 
1469	 0.615509152598608 
1470	 0.615560690046 
1471	 0.615614782280427 
1472	 0.615691354615336 
1473	 0.615734620120563 
1474	 0.615776975619119 
1475	 0.615800393690436 
1476	 0.615797912203129 
1477	 0.615805191142824 
1478	 0.615811967205092 
1479	 0.615807040206746 
1480	 0.61579557351069 
1481	 0.615777548216879 
1482	 0.615750170320735 
1483	 0.615719707735232 
1484	 0.61568301016376 
1485	 0.615644983140568 
1486	 0.615590286084857 
1487	 0.615560809388894 
1488	 0.615541070105761 
1489	 0.615523558217195 
1490	 0.615513148375987 
1491	 0.615518606675853 
1492	 0.615513798167813 
1493	 0.615552172496066 
1494	 0.615615719664956 
1495	 0.615709384091428 
1496	 0.615824505604924 
1497	 0.615982131148497 
1498	 0.616182691182155 
1499	 0.61639924221869 
1500	 0.616647909636577 
1501	 0.616923354604857 
1502	 0.61722866752259 
1503	 0.617543885049767 
1504	 0.617888972217479 
1505	 0.61824404290297 
1506	 0.618614541729977 
1507	 0.618991099032586 
1508	 0.619368376888162 
1509	 0.619780697760501 
1510	 0.620214050569817 
1511	 0.620655732739967 
1512	 0.621134557442512 
1513	 0.621611284673614 
1514	 0.622102655735107 
1515	 0.622579161677783 
1516	 0.623044555773179 
1517	 0.623526819183073 
1518	 0.624001085199753 
1519	 0.624482933399936 
1520	 0.624986992363676 
1521	 0.625491053664813 
1522	 0.625961165477366 
1523	 0.626490111300257 
1524	 0.627021376641633 
1525	 0.627563402915914 
1526	 0.628132135033255 
1527	 0.628730994518541 
1528	 0.629323437607338 
1529	 0.629929026958033 
1530	 0.630540559770949 
1531	 0.631165817283299 
1532	 0.631772834029797 
1533	 0.632379891988004 
1534	 0.632992938343748 
1535	 0.633590450895865 
1536	 0.634209984334612 
1537	 0.634860660099719 
1538	 0.635473488993084 
1539	 0.6360837905426 
1540	 0.636669470748464 
1541	 0.637237005703189 
1542	 0.637783529289259 
1543	 0.638319580177792 
1544	 0.63881665755559 
1545	 0.639279061386805 
1546	 0.639732255915051 
1547	 0.640168603294525 
1548	 0.640566590593716 
1549	 0.640947091380489 
1550	 0.641289587264042 
1551	 0.641583536729432 
1552	 0.641868558588575 
1553	 0.642124822345487 
1554	 0.6423768875092 
1555	 0.642600230724538 
1556	 0.642836787428245 
1557	 0.64305802400306 
1558	 0.643308981292569 
1559	 0.643571462601055 
1560	 0.643843445931864 
1561	 0.644138615455977 
1562	 0.644430205718146 
1563	 0.644717553788434 
1564	 0.645025922349202 
1565	 0.645337388094688 
1566	 0.645678513717052 
1567	 0.646053410840111 
1568	 0.646419023947493 
1569	 0.646798395462419 
1570	 0.647182840359296 
1571	 0.64757146630441 
1572	 0.647957200289237 
1573	 0.648354792469263 
1574	 0.648745825151132 
1575	 0.649137597624609 
1576	 0.649511996335399 
1577	 0.649882644533655 
1578	 0.650243315726852 
1579	 0.650578546185043 
1580	 0.650922485898906 
1581	 0.65126349395415 
1582	 0.651611647817278 
1583	 0.651956267484662 
1584	 0.652314087935016 
1585	 0.652688610664607 
1586	 0.653055123412198 
1587	 0.653431430677231 
1588	 0.653793772751524 
1589	 0.65413882880972 
1590	 0.654496120442829 
1591	 0.654837436339751 
1592	 0.655211201744806 
1593	 0.655607192935498 
1594	 0.656011230190095 
1595	 0.656452741426769 
1596	 0.656866688310854 
1597	 0.657277042774037 
1598	 0.657677829006299 
1599	 0.658061550919748 
1600	 0.658447158992853 
1601	 0.658817746363592 
1602	 0.659209687582586 
1603	 0.659613447970149 
1604	 0.660009073018779 
1605	 0.660420748171513 
1606	 0.660819505667923 
1607	 0.661203821860319 
1608	 0.661590637944925 
1609	 0.66197910207638 
1610	 0.66236094624934 
1611	 0.662757753349183 
1612	 0.663112805332971 
1613	 0.663427380522537 
1614	 0.663759146410425 
1615	 0.664061313585142 
1616	 0.664384939122061 
1617	 0.664728927652608 
1618	 0.665081356868747 
1619	 0.665439914094754 
1620	 0.665800169840724 
1621	 0.666195667549734 
1622	 0.666553904301367 
1623	 0.666897462867432 
1624	 0.667227402730413 
1625	 0.6675224728705 
1626	 0.667827506960563 
1627	 0.668127851061874 
1628	 0.668426740842939 
1629	 0.668727222682358 
1630	 0.669022696787391 
1631	 0.669327024891834 
1632	 0.669604999597088 
1633	 0.669865040672274 
1634	 0.670123576305073 
1635	 0.670360896384429 
1636	 0.670597409684116 
1637	 0.67083851137391 
1638	 0.671066695158882 
1639	 0.671284046794139 
1640	 0.671491727809523 
1641	 0.671700872107295 
1642	 0.671886128046858 
1643	 0.672034170574381 
1644	 0.672204279126632 
1645	 0.67238138679933 
1646	 0.672535308450816 
1647	 0.672698667911488 
1648	 0.672839318201331 
1649	 0.672946577819722 
1650	 0.673054258640733 
1651	 0.673172089575225 
1652	 0.673248323494786 
1653	 0.673298677465937 
1654	 0.673329184797781 
1655	 0.673328366388993 
1656	 0.673313273423834 
1657	 0.673306723257521 
1658	 0.673233211332481 
1659	 0.673126477156709 
1660	 0.672966835931284 
1661	 0.672759539201659 
1662	 0.672490089938488 
1663	 0.672159147794166 
1664	 0.671786232648363 
1665	 0.671363570737795 
1666	 0.670872312382216 
1667	 0.670327200886784 
1668	 0.669737701925109 
1669	 0.669089890589851 
1670	 0.668376320171629 
1671	 0.667613982261682 
1672	 0.666780282425545 
1673	 0.665856973247265 
1674	 0.664901113562457 
1675	 0.663879713438856 
1676	 0.662865546058351 
1677	 0.661794325283173 
1678	 0.660750953045378 
1679	 0.659688783192828 
1680	 0.658660131933083 
1681	 0.657625492691534 
1682	 0.65665589723719 
1683	 0.655703835646238 
1684	 0.654866682852043 
1685	 0.654078570818244 
1686	 0.653407974285654 
1687	 0.652842567819892 
1688	 0.65235282601485 
1689	 0.651963837349254 
1690	 0.651651344519067 
1691	 0.651432157259802 
1692	 0.651280672727666 
1693	 0.651247662293771 
1694	 0.651190549288388 
1695	 0.65119199227413 
1696	 0.65118157599636 
1697	 0.651185838623211 
1698	 0.651168289859311 
1699	 0.651167400229581 
1700	 0.651125276980414 
1701	 0.651046471871293 
1702	 0.650972903791034 
1703	 0.650883126531375 
1704	 0.650800578007168 
1705	 0.650732813180765 
1706	 0.650618438279393 
1707	 0.650483291941186 
1708	 0.650268105761536 
1709	 0.650007162785593 
1710	 0.649661174524529 
1711	 0.649186808009338 
1712	 0.648662016708856 
1713	 0.648047181711805 
1714	 0.64733113114537 
1715	 0.646615315709337 
1716	 0.645814842837147 
1717	 0.644928383411305 
1718	 0.644001124747555 
1719	 0.643029103956976 
1720	 0.642085204792412 
1721	 0.641161027923005 
1722	 0.64029330405257 
1723	 0.63954030794348 
1724	 0.638833964823091 
1725	 0.638221324211616 
1726	 0.637782227564023 
1727	 0.637431072440025 
1728	 0.63718854948018 
1729	 0.63708157046367 
1730	 0.637051230501773 
1731	 0.637089418306785 
1732	 0.637245493485192 
1733	 0.637485855500409 
1734	 0.637785029112886 
1735	 0.638129891430533 
1736	 0.638459908381645 
1737	 0.638788556225022 
1738	 0.639121809374759 
1739	 0.639477072771603 
1740	 0.639853702936626 
1741	 0.640257894036918 
1742	 0.640695472141726 
1743	 0.64114457807738 
1744	 0.641624112582393 
1745	 0.642110472204338 
1746	 0.642597936380807 
1747	 0.643074986836585 
1748	 0.643593059654675 
1749	 0.644052080117941 
1750	 0.644499705550229 
1751	 0.644893691787339 
1752	 0.645223224022472 
1753	 0.645554691410162 
1754	 0.645842985989717 
1755	 0.646145480881032 
1756	 0.646436634924621 
1757	 0.646740783794644 
1758	 0.647074386291841 
1759	 0.647434614475987 
1760	 0.64780729301621 
1761	 0.648179032242928 
1762	 0.648529302540634 
1763	 0.648880399478645 
1764	 0.649224648554504 
1765	 0.6495787326083 
1766	 0.649948399977663 
1767	 0.650309261099887 
1768	 0.650709564726712 
1769	 0.651095898553186 
1770	 0.651461353394066 
1771	 0.651863935714321 
1772	 0.652228820158299 
1773	 0.652592704427059 
1774	 0.652944138838294 
1775	 0.65321402432931 
1776	 0.653484835222382 
1777	 0.653735599001864 
1778	 0.653937941232771 
1779	 0.654125520455991 
1780	 0.654261328749969 
1781	 0.654367372625451 
1782	 0.654503615977028 
1783	 0.654657551015141 
1784	 0.654808408055285 
1785	 0.654944109573705 
1786	 0.655068252519068 
1787	 0.655178482670861 
1788	 0.655298202491191 
1789	 0.655411323348583 
1790	 0.655548327124847 
1791	 0.655705709014091 
1792	 0.655852752751763 
1793	 0.656004615544303 
1794	 0.656122650547351 
1795	 0.656247721966642 
1796	 0.65634936458171 
1797	 0.656453236510436 
1798	 0.656597115924791 
1799	 0.656746701041342 
1800	 0.6569127693469 
1801	 0.635059975656972 
1802	 0.635214515333488 
1803	 0.635386483776648 
1804	 0.635546555358609 
1805	 0.635726901864757 
1806	 0.635917302089711 
1807	 0.636139970149084 
1808	 0.636341356932604 
1809	 0.636537169608533 
1810	 0.636739756970923 
1811	 0.636953247828328 
1812	 0.63715466127728 
1813	 0.637364608421263 
1814	 0.637565940408124 
1815	 0.637722872919772 
1816	 0.637876833074344 
1817	 0.638027544150345 
1818	 0.6381574433342 
1819	 0.63829083886476 
1820	 0.638423864034307 
1821	 0.638559380074805 
1822	 0.63867791354929 
1823	 0.638813501890882 
1824	 0.638982188227869 
1825	 0.63916139257431 
1826	 0.639328794057392 
1827	 0.639518365949598 
1828	 0.639675112443595 
1829	 0.639824379385374 
1830	 0.639943402988018 
1831	 0.640046460184685 
1832	 0.640130813302189 
1833	 0.640183376531023 
1834	 0.640256365243688 
1835	 0.640297539026723 
1836	 0.640330407482806 
1837	 0.640368736900141 
1838	 0.640399132081792 
1839	 0.640411928801203 
1840	 0.640432096756983 
1841	 0.640434165351983 
1842	 0.640415440008249 
1843	 0.640381722170803 
1844	 0.640360928441536 
1845	 0.640344737032907 
1846	 0.640310442636526 
1847	 0.640274650962349 
1848	 0.640224214484748 
1849	 0.64016712556972 
1850	 0.640080190494613 
1851	 0.639981905400732 
1852	 0.639862915497125 
1853	 0.639700757648509 
1854	 0.639520868102888 
1855	 0.639335546001672 
1856	 0.63910913317744 
1857	 0.638855320649868 
1858	 0.638561804739418 
1859	 0.63821015714418 
1860	 0.637810498593806 
1861	 0.637352985366664 
1862	 0.636841079582838 
1863	 0.636295636410823 
1864	 0.635661188998958 
1865	 0.634981426890535 
1866	 0.634252785909012 
1867	 0.633391842051661 
1868	 0.632524367029499 
1869	 0.631562345287876 
1870	 0.630486210783636 
1871	 0.629362078309671 
1872	 0.628107605626221 
1873	 0.626738114971783 
1874	 0.625272742023947 
1875	 0.623705313770317 
1876	 0.621895570637902 
1877	 0.620015903636361 
1878	 0.617900219678016 
1879	 0.615530655870931 
1880	 0.613174302356193 
1881	 0.610571452212017 
1882	 0.607736665176929 
1883	 0.604791165424205 
1884	 0.601678277315081 
1885	 0.598137955596892 
1886	 0.594554139932172 
1887	 0.590686407090964 
1888	 0.586522113692866 
1889	 0.58252359666631 
1890	 0.578223389756694 
1891	 0.573841650212972 
1892	 0.569457005428147 
1893	 0.564854208701301 
1894	 0.559968576506917 
1895	 0.555217745516251 
1896	 0.550336698473687 
1897	 0.545362865359976 
1898	 0.540753573664902 
1899	 0.536011791869431 
1900	 0.531375328126877 
1901	 0.526927208844513 
1902	 0.522256575316306 
1903	 0.517828650175051 
1904	 0.513532328147268 
1905	 0.509288859485583 
1906	 0.505205682720823 
1907	 0.501589800797772 
1908	 0.497978370691696 
1909	 0.494571356766512 
1910	 0.491383848261565 
1911	 0.48808386612268 
1912	 0.485053286380054 
1913	 0.482142845336891 
1914	 0.479279907468185 
1915	 0.476656177458872 
1916	 0.474303961280858 
1917	 0.471929726900935 
1918	 0.469681143819097 
1919	 0.467618556465844 
1920	 0.46550449654768 
1921	 0.463585964848415 
1922	 0.461774777801959 
1923	 0.460038134201452 
1924	 0.458546875727088 
1925	 0.457120429140254 
1926	 0.455778259437106 
1927	 0.454573264249961 
1928	 0.453406601499527 
1929	 0.45228036988655 
1930	 0.451277366002191 
1931	 0.450371481107249 
1932	 0.449540535897834 
1933	 0.448860829668725 
1934	 0.448264795087274 
1935	 0.447728279060482 
1936	 0.447311723944236 
1937	 0.446996662123627 
1938	 0.446778233734674 
1939	 0.44665404306464 
1940	 0.446638385139381 
1941	 0.446717282154479 
1942	 0.446867559108553 
1943	 0.447096015884019 
1944	 0.447397698575869 
1945	 0.447781735487719 
1946	 0.448273702050998 
1947	 0.448818789490324 
1948	 0.44944512652077 
1949	 0.450163436426377 
1950	 0.450889017755563 
1951	 0.451647725871082 
1952	 0.45246656976228 
1953	 0.453335499754902 
1954	 0.454216971053984 
1955	 0.455200328184861 
1956	 0.456167150132042 
1957	 0.457161580900227 
1958	 0.458204272040664 
1959	 0.459189167210227 
1960	 0.460223695740598 
1961	 0.461249321435979 
1962	 0.462247517609566 
1963	 0.46329885204272 
1964	 0.464402438144766 
1965	 0.465458297177868 
1966	 0.466529370336694 
1967	 0.467606403094369 
1968	 0.468581643086541 
1969	 0.469600600012043 
1970	 0.470629270771769 
1971	 0.471661465162219 
1972	 0.472795902214449 
1973	 0.473907021573913 
1974	 0.475007876856294 
1975	 0.476150570531044 
1976	 0.477242405581855 
1977	 0.478281215258327 
1978	 0.479341549937149 
1979	 0.480391643136087 
1980	 0.481429107600102 
1981	 0.482533149395376 
1982	 0.483621282985847 
1983	 0.484746787866141 
1984	 0.485881709931411 
1985	 0.486922764671149 
1986	 0.487995239677163 
1987	 0.489062758309886 
1988	 0.490089253867811 
1989	 0.491172727352072 
1990	 0.492298472577444 
1991	 0.493396846517262 
1992	 0.494516091994278 
1993	 0.495642397533595 
1994	 0.49667219283945 
1995	 0.49774672786969 
1996	 0.498790400498548 
1997	 0.499792904723549 
1998	 0.500825808746073 
1999	 0.501874627387286 
2000	 0.502888173436718 
2001	 0.503939342852453 
2002	 0.504888773770867 
2003	 0.505785274109602 
2004	 0.50665786139716 
2005	 0.507448430044451 
2006	 0.508245183261662 
2007	 0.509058810510069 
2008	 0.509790984281133 
2009	 0.510495447233556 
2010	 0.511165465013003 
2011	 0.511720330044922 
2012	 0.512249436161699 
2013	 0.512712046869407 
2014	 0.51311427538908 
2015	 0.513443586870704 
2016	 0.5137252055939 
2017	 0.513918497852135 
2018	 0.514040669781104 
2019	 0.514073663958321 
2020	 0.514031916774871 
2021	 0.513897672036696 
2022	 0.513675147170487 
2023	 0.513365073399738 
2024	 0.512944630062277 
2025	 0.512447068842783 
2026	 0.511861568059842 
2027	 0.511135564874166 
2028	 0.510420973194075 
2029	 0.509622136091088 
2030	 0.508833071758656 
2031	 0.508015131389485 
2032	 0.507198502974731 
2033	 0.506294453728179 
2034	 0.505511681828067 
2035	 0.504746666140486 
2036	 0.504041569273617 
2037	 0.503468607245433 
2038	 0.502980543258105 
2039	 0.502603785298833 
2040	 0.502315581562321 
2041	 0.50216382934197 
2042	 0.502137318744841 
2043	 0.502208918369198 
2044	 0.502416597169231 
2045	 0.502692329086586 
2046	 0.50308394351181 
2047	 0.503528091608311 
2048	 0.504057373897681 
2049	 0.5046449435082 
2050	 0.505314795569795 
2051	 0.506029035903293 
2052	 0.506797335034434 
2053	 0.507626297166228 
2054	 0.508458121255834 
2055	 0.509303184586493 
2056	 0.510222999598556 
2057	 0.511168222377616 
2058	 0.512193523479334 
2059	 0.513328854344904 
2060	 0.514421445441004 
2061	 0.515592350345877 
2062	 0.516695406863831 
2063	 0.517747360287153 
2064	 0.518833393632007 
2065	 0.519918528973682 
2066	 0.520968423147832 
2067	 0.522124485415685 
2068	 0.52325002234125 
2069	 0.524344855136475 
2070	 0.525464170991734 
2071	 0.52651099044371 
2072	 0.527506060830634 
2073	 0.528473567331122 
2074	 0.529396003351 
2075	 0.530306073343862 
2076	 0.531195283462556 
2077	 0.532032273159139 
2078	 0.532857848234889 
2079	 0.533628037482617 
2080	 0.534326758331896 
2081	 0.535003340087377 
2082	 0.535644199316257 
2083	 0.536242586325763 
2084	 0.536835759910003 
2085	 0.537391964282075 
2086	 0.537909660468863 
2087	 0.538414303462774 
2088	 0.538847506694406 
2089	 0.539223252613729 
2090	 0.539563543559188 
2091	 0.539838927152158 
2092	 0.540107193846256 
2093	 0.540323026869387 
2094	 0.540545617408339 
2095	 0.5407668257151 
2096	 0.540958938171907 
2097	 0.541136290847215 
2098	 0.541293356515509 
2099	 0.541416388580194 
2100	 0.54150683979345 
2101	 0.541606632938606 
2102	 0.541697430801138 
2103	 0.541770390543238 
2104	 0.541844461714545 
2105	 0.54188467207683 
2106	 0.541888227874544 
2107	 0.541892610253986 
2108	 0.541884041171252 
2109	 0.541861302111407 
2110	 0.541813238116867 
2111	 0.541783894520976 
2112	 0.541758788629159 
2113	 0.541712530097377 
2114	 0.541695987774018 
2115	 0.541624340722681 
2116	 0.541491706622924 
2117	 0.541369768985621 
2118	 0.541236841061492 
2119	 0.541093154947719 
2120	 0.540907628619604 
2121	 0.54070980608805 
2122	 0.540484170874914 
2123	 0.540220011653394 
2124	 0.539928430070339 
2125	 0.539664021305592 
2126	 0.539281385270958 
2127	 0.538831313075161 
2128	 0.53831594854484 
2129	 0.537706260921758 
2130	 0.537061425232323 
2131	 0.536378565333438 
2132	 0.535615028063272 
2133	 0.534790064611034 
2134	 0.533901318283028 
2135	 0.53291341908055 
2136	 0.531903386750605 
2137	 0.530820242258637 
2138	 0.529645530119607 
2139	 0.528498870917544 
2140	 0.527322626456507 
2141	 0.526102049646675 
2142	 0.524891896560462 
2143	 0.523595144369615 
2144	 0.522207530862647 
2145	 0.520827425561235 
2146	 0.519382544288143 
2147	 0.517965281521578 
2148	 0.516561615793295 
2149	 0.515113304685279 
2150	 0.513676658724686 
2151	 0.512187433163834 
2152	 0.510604805927602 
2153	 0.509079125720389 
2154	 0.507520095846322 
2155	 0.505935099182948 
2156	 0.504418027413269 
2157	 0.502934323959181 
2158	 0.501439608231177 
2159	 0.499990744678786 
2160	 0.498502782842486 
2161	 0.496952831548919 
2162	 0.495516770787462 
2163	 0.494066438670968 
2164	 0.492743282061412 
2165	 0.491526055643953 
2166	 0.490357100534473 
2167	 0.489261825046682 
2168	 0.488231807866109 
2169	 0.487256615323697 
2170	 0.486369596565163 
2171	 0.485537539879486 
2172	 0.484818192307162 
2173	 0.484220704618281 
2174	 0.483670018433274 
2175	 0.483218057028195 
2176	 0.482834503564199 
2177	 0.482479628922606 
2178	 0.482168460219368 
2179	 0.481927505372121 
2180	 0.481750330514877 
2181	 0.481604639341951 
2182	 0.481518480093631 
2183	 0.481466821722066 
2184	 0.481436237425653 
2185	 0.481484874828476 
2186	 0.481604681885968 
2187	 0.481762502363211 
2188	 0.482006810999324 
2189	 0.482238756122517 
2190	 0.482518359822419 
2191	 0.482783416936826 
2192	 0.483036439648925 
2193	 0.483319211431503 
2194	 0.483617739687441 
2195	 0.483925281204687 
2196	 0.484265646248806 
2197	 0.4846113916013 
2198	 0.484896755674519 
2199	 0.485198569913002 
2200	 0.485495850891918 
2201	 0.485773009833515 
2202	 0.486045521454707 
2203	 0.486331873650302 
2204	 0.486596355747756 
2205	 0.486807693939837 
2206	 0.487081312606264 
2207	 0.48738545565924 
2208	 0.487687111417456 
2209	 0.488016336203089 
2210	 0.488336945594923 
2211	 0.488635106011917 
2212	 0.488969769270387 
2213	 0.489333336724119 
2214	 0.489689261045246 
2215	 0.490081110167809 
2216	 0.490447362025704 
2217	 0.490809064097034 
2218	 0.491141292955589 
2219	 0.491470347047667 
2220	 0.491754582760102 
2221	 0.492005149726641 
2222	 0.492231392773452 
2223	 0.492407642147097 
2224	 0.492538873760223 
2225	 0.492619146380721 
2226	 0.492653681722378 
2227	 0.492639124675216 
2228	 0.492601064884454 
2229	 0.49244005463671 
2230	 0.492198379451923 
2231	 0.491895237300824 
2232	 0.491511998383653 
2233	 0.491025293466861 
2234	 0.49049277220477 
2235	 0.489814667397443 
2236	 0.489001535571154 
2237	 0.488095319739682 
2238	 0.487045901013749 
2239	 0.485960398724997 
2240	 0.484795523400908 
2241	 0.483531230689893 
2242	 0.482248242182605 
2243	 0.480777521761191 
2244	 0.479136794747717 
2245	 0.477425364684739 
2246	 0.475477820532169 
2247	 0.473605216558106 
2248	 0.47171988927835 
2249	 0.469771883538857 
2250	 0.46778689815514 
2251	 0.465858578962282 
2252	 0.463703820624974 
2253	 0.461587970321993 
2254	 0.459508925662543 
2255	 0.457399357760464 
2256	 0.455520929344124 
2257	 0.453721223938403 
2258	 0.452039123597192 
2259	 0.450499604618259 
2260	 0.449020746380655 
2261	 0.447604346246095 
2262	 0.446371297559327 
2263	 0.445243818746984 
2264	 0.444277868474475 
2265	 0.443537885930239 
2266	 0.442783170043373 
2267	 0.442148578152399 
2268	 0.441533147740473 
2269	 0.440970893162241 
2270	 0.440451529287171 
2271	 0.440017481167205 
2272	 0.439554605657054 
2273	 0.43911293234899 
2274	 0.438678611010975 
2275	 0.438241091039715 
2276	 0.437830935980198 
2277	 0.437423806967916 
2278	 0.437067038351394 
2279	 0.436700011898538 
2280	 0.436437568418472 
2281	 0.436282515328535 
2282	 0.436136426612016 
2283	 0.436029979282382 
2284	 0.435997762217545 
2285	 0.436001343614892 
2286	 0.436058404894964 
2287	 0.436264803008806 
2288	 0.436535640674875 
2289	 0.436840836529963 
2290	 0.437206832939178 
2291	 0.437590032003489 
2292	 0.438013842046762 
2293	 0.438479076430815 
2294	 0.438949087021387 
2295	 0.439425817183601 
2296	 0.439900633345817 
2297	 0.440374073619308 
2298	 0.440843729462153 
2299	 0.441317808238978 
2300	 0.441794411993132 
2301	 0.442271177310427 
2302	 0.442752915015271 
2303	 0.443220289515006 
2304	 0.443690727867142 
2305	 0.444148037263433 
2306	 0.444601355968894 
2307	 0.445023473062463 
2308	 0.4453987826297 
2309	 0.445818161792722 
2310	 0.446229564663314 
2311	 0.446659178490718 
2312	 0.447148968347619 
2313	 0.447599949899715 
2314	 0.44803385469059 
2315	 0.448454501565821 
2316	 0.448860293362101 
2317	 0.449251592465204 
2318	 0.449671674170392 
2319	 0.44998959431321 
2320	 0.450258646637674 
2321	 0.450486823291901 
2322	 0.450615285714373 
2323	 0.450732504648364 
2324	 0.450822343708652 
2325	 0.450895200904036 
2326	 0.450909152406919 
2327	 0.450942715819914 
2328	 0.450994996674109 
2329	 0.451013300481815 
2330	 0.451014011111454 
2331	 0.450992180402587 
2332	 0.451001685086817 
2333	 0.450912073398973 
2334	 0.450766610874397 
2335	 0.450639370653334 
2336	 0.450430040596586 
2337	 0.450204243251111 
2338	 0.450011838545147 
2339	 0.449774022674367 
2340	 0.449509161123697 
2341	 0.449293941698823 
2342	 0.449066482760982 
2343	 0.448876349660376 
2344	 0.448760460260363 
2345	 0.448651221856611 
2346	 0.4486586116634 
2347	 0.448718827770251 
2348	 0.448759463722354 
2349	 0.448864145674214 
2350	 0.448978212303388 
2351	 0.449173971156028 
2352	 0.44951553446098 
2353	 0.449831011868388 
2354	 0.450088978464816 
2355	 0.450374838134092 
2356	 0.450616143527373 
2357	 0.450860866060294 
2358	 0.451145685255724 
2359	 0.451320094322743 
2360	 0.451388770029893 
2361	 0.45143711120029 
2362	 0.451505170656588 
2363	 0.451563680504422 
2364	 0.451576168397081 
2365	 0.451583404496683 
2366	 0.451574041766078 
2367	 0.451511702262536 
2368	 0.451442904776856 
2369	 0.451415597195567 
2370	 0.45138495588619 
2371	 0.451306202412284 
2372	 0.451174310233722 
2373	 0.450992325701859 
2374	 0.450777650610726 
2375	 0.450541422264986 
2376	 0.450343038911243 
2377	 0.450131505306915 
2378	 0.449864244211439 
2379	 0.449634184589836 
2380	 0.449422130037353 
2381	 0.449190707176965 
2382	 0.44898235979926 
2383	 0.448787020653809 
2384	 0.448585789783547 
2385	 0.44840280355091 
2386	 0.448232923383869 
2387	 0.4480630313167 
2388	 0.447870556135183 
2389	 0.447686548865116 
2390	 0.447457168467248 
2391	 0.44718234483516 
2392	 0.446940715851518 
2393	 0.446717890422097 
2394	 0.446471317076903 
2395	 0.446234467365684 
2396	 0.445950429865612 
2397	 0.445590657869162 
2398	 0.445273582065965 
2399	 0.444990915836675 
2400	 0.44463476403141 
2401	 0.444257192153687 
2402	 0.443852747388742 
2403	 0.443438700339635 
2404	 0.443075533353387 
2405	 0.442657502146544 
2406	 0.442154802309072 
2407	 0.44163639625233 
2408	 0.441089732960358 
2409	 0.440582452901735 
2410	 0.440226021339961 
2411	 0.439880355420309 
2412	 0.439455084455186 
2413	 0.439022216967764 
2414	 0.43860600451931 
2415	 0.43819844590299 
2416	 0.437745831295858 
2417	 0.437289724485846 
2418	 0.436714344396348 
2419	 0.435983062942538 
2420	 0.435406739730763 
2421	 0.434888186740763 
2422	 0.43424994310702 
2423	 0.433643401723892 
2424	 0.432950321165236 
2425	 0.432176179271818 
2426	 0.431562250006946 
2427	 0.431013594548114 
2428	 0.430470208359624 
2429	 0.429846779863495 
2430	 0.429010905898505 
2431	 0.428122752127479 
2432	 0.4272053408722 
2433	 0.426279122526761 
2434	 0.42544496998927 
2435	 0.424508824343293 
2436	 0.423462288582407 
2437	 0.422384780177603 
2438	 0.421229998024611 
2439	 0.420143158401595 
2440	 0.419071808570474 
2441	 0.418002498994936 
2442	 0.416978437539558 
2443	 0.415859563424032 
2444	 0.414755838802908 
2445	 0.413643306160676 
2446	 0.412369761947947 
2447	 0.411143684432406 
2448	 0.410040323946154 
2449	 0.408952009293052 
2450	 0.407939951208343 
2451	 0.40690253136112 
2452	 0.405809455888399 
2453	 0.404610462851684 
2454	 0.403558117089512 
2455	 0.40275594110524 
2456	 0.401742544424867 
2457	 0.400849463421818 
2458	 0.399931626375552 
2459	 0.398839311068941 
2460	 0.398210723528383 
2461	 0.397523196522843 
2462	 0.396627873292357 
2463	 0.395986045158145 
2464	 0.395219196944059 
2465	 0.394365970609057 
2466	 0.393817475354614 
2467	 0.393414673125586 
2468	 0.392854415698282 
2469	 0.392300087193753 
2470	 0.391828066116077 
2471	 0.391191489475201 
2472	 0.390510373477475 
2473	 0.390122365869726 
2474	 0.389854851664054 
2475	 0.389563024994776 
2476	 0.389443709105659 
2477	 0.389207180026599 
2478	 0.388909541288183 
2479	 0.388695002481302 
2480	 0.388351907786282 
2481	 0.388015351479798 
2482	 0.387643044994637 
2483	 0.387327604279254 
2484	 0.386902020071072 
2485	 0.386434932236765 
2486	 0.386031510852329 
2487	 0.385503928776322 
2488	 0.384938731603636 
2489	 0.384333974727565 
2490	 0.383663076378559 
2491	 0.382971572038591 
2492	 0.382379809901466 
2493	 0.382194927579032 
2494	 0.381859311191194 
2495	 0.381235251788034 
2496	 0.380783876530659 
2497	 0.380290440494164 
2498	 0.380042946487041 
2499	 0.380256678239171 
2500	 0.380304436542795 
