Wavelength	spectrum00025.asd
350	 2.61861817628485E-02 
351	 0.026109443255464 
352	 2.54540428175424E-02 
353	 2.54243044831043E-02 
354	 2.70932128274227E-02 
355	 2.65818765798772E-02 
356	 2.48175626615974E-02 
357	 2.34460973984143E-02 
358	 2.26124620856753E-02 
359	 2.23801884171501E-02 
360	 2.24807297978869E-02 
361	 2.25405790298671E-02 
362	 2.29205936507702E-02 
363	 2.30946665126401E-02 
364	 2.29270272192668E-02 
365	 2.28751081408326E-02 
366	 2.30479476792753E-02 
367	 2.32025539681371E-02 
368	 2.31548240826786E-02 
369	 2.32512151087426E-02 
370	 2.29901845021061E-02 
371	 2.30983582880612E-02 
372	 2.45263164073578E-02 
373	 2.37365635650193E-02 
374	 2.31165448801183E-02 
375	 2.35545113025597E-02 
376	 0.022860230527911 
377	 2.40539346764458E-02 
378	 2.48899599140212E-02 
379	 2.33905014582472E-02 
380	 2.32068682969822E-02 
381	 2.38265607347585E-02 
382	 2.41556682002037E-02 
383	 2.31565749794912E-02 
384	 2.35726671044206E-02 
385	 2.42473039412428E-02 
386	 2.41303768440317E-02 
387	 2.29882600375418E-02 
388	 2.28460248008006E-02 
389	 2.34239165319979E-02 
390	 2.37520575516152E-02 
391	 2.29656186572621E-02 
392	 2.26370799131475E-02 
393	 2.29980891246066E-02 
394	 2.33163411821888E-02 
395	 2.32155534798781E-02 
396	 2.32467183076559E-02 
397	 0.023548998561955 
398	 2.33974419181175E-02 
399	 2.27895034161877E-02 
400	 2.25657328171486E-02 
401	 2.32754486744324E-02 
402	 2.32505791013445E-02 
403	 2.33569188689724E-02 
404	 2.35661976465701E-02 
405	 2.31984770033919E-02 
406	 2.30159041920058E-02 
407	 2.29102756449013E-02 
408	 0.022782492355286 
409	 2.28274240150973E-02 
410	 2.27769809300154E-02 
411	 2.28799116470063E-02 
412	 0.023342022351952 
413	 2.33546025124226E-02 
414	 2.29844670012033E-02 
415	 0.022592837299757 
416	 2.27031197390119E-02 
417	 2.26448198725582E-02 
418	 2.26933640735264E-02 
419	 0.022985575108057 
420	 2.29367800497351E-02 
421	 2.29263250029566E-02 
422	 2.30148949681929E-02 
423	 2.30950444348836E-02 
424	 2.28655722827841E-02 
425	 2.27487280380912E-02 
426	 2.28513170691073E-02 
427	 0.022863812371768 
428	 2.26186335261334E-02 
429	 2.25421536089367E-02 
430	 2.28343445205922E-02 
431	 2.25799174505881E-02 
432	 2.24768842749734E-02 
433	 2.25676046400914E-02 
434	 2.25471071786166E-02 
435	 2.26663423065428E-02 
436	 2.27118866913296E-02 
437	 0.022593746559544 
438	 2.24731384182531E-02 
439	 2.25721340600356E-02 
440	 2.26498226676651E-02 
441	 2.24757062019533E-02 
442	 2.24933144941762E-02 
443	 2.24672038221984E-02 
444	 2.24290809947379E-02 
445	 2.26045297160505E-02 
446	 2.25532878949074E-02 
447	 2.23735241343792E-02 
448	 2.22541747384181E-02 
449	 2.24004434233633E-02 
450	 2.25064787964938E-02 
451	 2.25057978219176E-02 
452	 2.24423198858498E-02 
453	 2.23709661691693E-02 
454	 2.24735670624924E-02 
455	 2.26326376570416E-02 
456	 2.24129488473106E-02 
457	 2.24344044053424E-02 
458	 2.24768748011793E-02 
459	 0.022339667760534 
460	 0.022475844666126 
461	 2.25579361652954E-02 
462	 2.24903276738337E-02 
463	 2.23454491219379E-02 
464	 2.24196000747173E-02 
465	 2.24342966989656E-02 
466	 2.22809727710249E-02 
467	 2.22070329481152E-02 
468	 2.22927619707396E-02 
469	 2.23955674244725E-02 
470	 2.23663043347011E-02 
471	 2.23546950530741E-02 
472	 0.022340484778689 
473	 2.23063028804054E-02 
474	 2.22434032409553E-02 
475	 2.21784836124898E-02 
476	 2.21660392457829E-02 
477	 2.22199992618115E-02 
478	 2.22748945188717E-02 
479	 2.22126376913221E-02 
480	 2.21696681600458E-02 
481	 2.23110828868067E-02 
482	 2.22766051391835E-02 
483	 2.22472962826033E-02 
484	 2.22852053976814E-02 
485	 2.22728572246915E-02 
486	 2.22942602387518E-02 
487	 2.23101252381498E-02 
488	 2.22716965829789E-02 
489	 2.21731741872048E-02 
490	 2.21538260791569E-02 
491	 2.21960217497806E-02 
492	 2.21902290501546E-02 
493	 0.022131634467359 
494	 2.21414013927612E-02 
495	 2.22334541465969E-02 
496	 0.022220991090245 
497	 2.21909376672817E-02 
498	 2.21962171557256E-02 
499	 2.22514877430306E-02 
500	 2.22417458560096E-02 
501	 2.22288519026088E-02 
502	 2.22131139284776E-02 
503	 2.21412140329568E-02 
504	 2.21302291201608E-02 
505	 0.022142088187968 
506	 2.21366187910546E-02 
507	 2.21496792179362E-02 
508	 2.20843304095885E-02 
509	 2.20215638290206E-02 
510	 2.20894035359517E-02 
511	 2.21403762351743E-02 
512	 2.21559727650089E-02 
513	 2.21430212533295E-02 
514	 0.022124163027554 
515	 2.21143536908671E-02 
516	 2.20881468979313E-02 
517	 0.022029427077293 
518	 2.19904533411767E-02 
519	 0.021972823693277 
520	 2.19845324416689E-02 
521	 2.20309422282853E-02 
522	 2.20312423137404E-02 
523	 2.20333731618996E-02 
524	 2.20509261611359E-02 
525	 2.19841376446026E-02 
526	 2.19407809530295E-02 
527	 0.021955327972467 
528	 2.20137327341999E-02 
529	 2.20026802741025E-02 
530	 2.19782474785925E-02 
531	 0.021971878825942 
532	 0.021975764401154 
533	 2.19530980395052E-02 
534	 2.19318504763668E-02 
535	 2.19331169204454E-02 
536	 0.021910585017452 
537	 2.19200845846718E-02 
538	 2.19426601474477E-02 
539	 0.021923569455066 
540	 2.18900121035634E-02 
541	 2.19018828674978E-02 
542	 2.19547941113756E-02 
543	 2.19352117922513E-02 
544	 2.19347114960104E-02 
545	 2.19484383520355E-02 
546	 2.19489635657549E-02 
547	 2.19479977043921E-02 
548	 2.19285591558458E-02 
549	 2.18995330258119E-02 
550	 2.18902025027608E-02 
551	 0.021834975011208 
552	 2.17984937285162E-02 
553	 2.18107583107702E-02 
554	 2.17482725028087E-02 
555	 2.17153425442408E-02 
556	 2.17092096689441E-02 
557	 2.16812774217127E-02 
558	 2.16440626328027E-02 
559	 2.16442609188117E-02 
560	 2.16742127320715E-02 
561	 2.16483505590471E-02 
562	 2.15987495446747E-02 
563	 0.021572525821586 
564	 2.16007000492703E-02 
565	 0.021640655048666 
566	 0.021647137760238 
567	 2.16242829379453E-02 
568	 0.021613842835521 
569	 2.16183002948542E-02 
570	 2.16110978749398E-02 
571	 2.15784006723094E-02 
572	 2.15402083109535E-02 
573	 2.15269263114515E-02 
574	 2.15210386460742E-02 
575	 2.15007298629068E-02 
576	 2.15519986321638E-02 
577	 2.15793194175676E-02 
578	 2.15715907468418E-02 
579	 0.021624725706391 
580	 2.16527007937654E-02 
581	 2.16587582048316E-02 
582	 2.16629798739579E-02 
583	 2.16722387591137E-02 
584	 2.16625177251112E-02 
585	 2.16496436505067E-02 
586	 2.16658812340864E-02 
587	 2.16546860504174E-02 
588	 2.16573932662233E-02 
589	 2.16830819896351E-02 
590	 2.16699427706154E-02 
591	 2.16514380813726E-02 
592	 0.021634782143819 
593	 2.16141821516058E-02 
594	 2.15551726983912E-02 
595	 2.15283460585717E-02 
596	 2.15318950817034E-02 
597	 2.15014821902098E-02 
598	 2.14878060302589E-02 
599	 2.14856486277956E-02 
600	 0.021488389120632 
601	 0.021514041253135 
602	 2.15201743204507E-02 
603	 2.15086305758292E-02 
604	 2.15022683704419E-02 
605	 2.15156974709432E-02 
606	 2.15220436267381E-02 
607	 2.15157085486594E-02 
608	 2.15216387238911E-02 
609	 2.15094209779236E-02 
610	 2.15038504797021E-02 
611	 2.15289828916852E-02 
612	 2.15670880791974E-02 
613	 2.15612372830128E-02 
614	 2.15272611178974E-02 
615	 2.15246251142358E-02 
616	 2.15231767875063E-02 
617	 0.021521317378594 
618	 2.15244234975695E-02 
619	 2.15461246674811E-02 
620	 2.15551586101292E-02 
621	 2.15478370021487E-02 
622	 2.15318344480915E-02 
623	 2.15116628223438E-02 
624	 2.15269305668988E-02 
625	 2.15605364503734E-02 
626	 0.021546534005811 
627	 2.15530235059722E-02 
628	 2.15655911897522E-02 
629	 2.15704790338982E-02 
630	 2.15982109564769E-02 
631	 2.16012801226603E-02 
632	 2.15966192359053E-02 
633	 2.16212129290242E-02 
634	 2.16330517710655E-02 
635	 2.16252598065482E-02 
636	 2.16190153816122E-02 
637	 2.16649898183784E-02 
638	 2.16694752681284E-02 
639	 2.16626468621389E-02 
640	 2.16803827988403E-02 
641	 2.16664544073591E-02 
642	 2.16801690499472E-02 
643	 2.17133148635148E-02 
644	 2.17200919468668E-02 
645	 2.17291451214658E-02 
646	 2.17503879153806E-02 
647	 2.17824417797003E-02 
648	 2.18098814661213E-02 
649	 0.021831598557819 
650	 2.18364344013893E-02 
651	 2.18230970742628E-02 
652	 2.18385616307354E-02 
653	 2.18617332159347E-02 
654	 2.18846058712462E-02 
655	 2.19115802733918E-02 
656	 2.19435637511594E-02 
657	 2.19721445202882E-02 
658	 2.19959562528974E-02 
659	 2.20328781749715E-02 
660	 2.20592027585466E-02 
661	 2.20783474846306E-02 
662	 2.21023445845931E-02 
663	 2.21300159789219E-02 
664	 2.21508998836263E-02 
665	 2.21743485904168E-02 
666	 2.22272893756552E-02 
667	 2.22537786824197E-02 
668	 0.022284818249412 
669	 2.23378774755522E-02 
670	 2.23457686517497E-02 
671	 2.23781110324496E-02 
672	 2.24281159963541E-02 
673	 2.24614592706997E-02 
674	 2.25190865436057E-02 
675	 2.25546152875457E-02 
676	 2.25703007232108E-02 
677	 2.26332551007997E-02 
678	 0.022671137099061 
679	 2.27013811147894E-02 
680	 0.022751038913048 
681	 2.28122638239485E-02 
682	 2.28627067219585E-02 
683	 2.29017609315884E-02 
684	 2.29407404312435E-02 
685	 2.29726443293731E-02 
686	 2.30142928174185E-02 
687	 2.30733028989283E-02 
688	 2.31420673064219E-02 
689	 2.31923444726657E-02 
690	 2.32328444261749E-02 
691	 2.32819947409143E-02 
692	 0.023353067261375 
693	 2.34160396970885E-02 
694	 2.34702362209929E-02 
695	 2.35319667376047E-02 
696	 2.35842425570582E-02 
697	 2.36321099928777E-02 
698	 2.36877055460983E-02 
699	 2.37707003562949E-02 
700	 2.38381014020987E-02 
701	 2.38963724779263E-02 
702	 0.02396106989479 
703	 2.40174985523371E-02 
704	 2.41107879405237E-02 
705	 2.42112573838824E-02 
706	 2.42501397830047E-02 
707	 2.43299943642129E-02 
708	 2.44183131469164E-02 
709	 2.44930758492355E-02 
710	 2.45806268406484E-02 
711	 2.46607410476752E-02 
712	 2.47368505165141E-02 
713	 2.48170262693329E-02 
714	 2.48959270565827E-02 
715	 2.49956298797489E-02 
716	 2.50971454736891E-02 
717	 2.51613821461688E-02 
718	 2.52760007363487E-02 
719	 2.53877623098401E-02 
720	 2.54646744449613E-02 
721	 2.55418014834175E-02 
722	 2.56364100846771E-02 
723	 2.57443872187263E-02 
724	 2.58525092861616E-02 
725	 2.59467966797005E-02 
726	 2.60453670553781E-02 
727	 2.61554858550154E-02 
728	 2.62734136693413E-02 
729	 2.63734741775969E-02 
730	 2.64763896036808E-02 
731	 2.65945607736389E-02 
732	 2.67165090845841E-02 
733	 2.68371684894892E-02 
734	 2.69551596032579E-02 
735	 2.70697234958061E-02 
736	 2.71716690510037E-02 
737	 2.72979810121875E-02 
738	 2.74305210355722E-02 
739	 2.75250247552703E-02 
740	 0.027666195933114 
741	 2.77999673458386E-02 
742	 2.79061055080671E-02 
743	 2.80397946349863E-02 
744	 2.81746060471659E-02 
745	 2.83118244308798E-02 
746	 2.84556032653043E-02 
747	 2.85997922768552E-02 
748	 2.87206392639515E-02 
749	 2.88321628024725E-02 
750	 2.89674336235385E-02 
751	 2.91156914691155E-02 
752	 2.92814980992364E-02 
753	 2.94504989462884E-02 
754	 2.95843769968392E-02 
755	 2.97333313531881E-02 
756	 2.98833465914247E-02 
757	 3.00208045871687E-02 
758	 3.01783212878086E-02 
759	 3.03306024755156E-02 
760	 3.04753374494261E-02 
761	 3.06240925472764E-02 
762	 3.08014142881606E-02 
763	 3.09692926132616E-02 
764	 3.11257157935597E-02 
765	 3.13093250999789E-02 
766	 3.14666971168683E-02 
767	 3.16216368013623E-02 
768	 3.17985030789267E-02 
769	 3.19895413822796E-02 
770	 3.21752013561618E-02 
771	 3.23527873658247E-02 
772	 3.25280436233364E-02 
773	 3.27090838318272E-02 
774	 3.28900943711884E-02 
775	 3.30680826715611E-02 
776	 3.32441279899227E-02 
777	 3.34259888482395E-02 
778	 3.36293022731864E-02 
779	 3.38455085546233E-02 
780	 3.40251194564768E-02 
781	 3.41936650509578E-02 
782	 3.43758593649672E-02 
783	 3.45843208724371E-02 
784	 3.47891232773597E-02 
785	 0.035003509074511 
786	 3.52200925048749E-02 
787	 3.54211160289992E-02 
788	 3.56044302736983E-02 
789	 3.58105398725378E-02 
790	 3.60413419574772E-02 
791	 3.62508864197717E-02 
792	 3.64721172359061E-02 
793	 3.66902224345053E-02 
794	 3.68934793143217E-02 
795	 3.70966390370975E-02 
796	 3.73356614961975E-02 
797	 3.75846949881937E-02 
798	 3.78016017008829E-02 
799	 3.79917912975593E-02 
800	 3.82164528510369E-02 
801	 3.84617784039565E-02 
802	 3.86634807568374E-02 
803	 3.88980581752799E-02 
804	 3.91369462586549E-02 
805	 3.93664048867633E-02 
806	 0.03961569654149 
807	 3.98638333805082E-02 
808	 4.01075742691333E-02 
809	 4.03502666850195E-02 
810	 4.05995007422175E-02 
811	 0.040861350321727 
812	 4.11155023035236E-02 
813	 4.13412226734764E-02 
814	 4.15833926705328E-02 
815	 4.18437927120846E-02 
816	 4.21061318009988E-02 
817	 4.23460114990914E-02 
818	 4.26166446233397E-02 
819	 4.28848803156531E-02 
820	 4.31323925888477E-02 
821	 4.33865693907164E-02 
822	 4.36557942912047E-02 
823	 4.39357799303484E-02 
824	 4.42179125222068E-02 
825	 4.44963102279598E-02 
826	 4.47693460878293E-02 
827	 4.50396619281652E-02 
828	 4.53127620356253E-02 
829	 4.55941766633195E-02 
830	 4.58867241479741E-02 
831	 4.61711518224066E-02 
832	 4.64183032470456E-02 
833	 4.67052068827956E-02 
834	 4.70108097734531E-02 
835	 4.73146658557223E-02 
836	 4.76221753814889E-02 
837	 0.04790144333175 
838	 0.048176179063357 
839	 4.84724540288007E-02 
840	 4.87847772634846E-02 
841	 4.90810441789432E-02 
842	 4.93673930840548E-02 
843	 4.96622503173333E-02 
844	 4.99483935534417E-02 
845	 5.02630116262933E-02 
846	 5.05814745099223E-02 
847	 5.08481136887603E-02 
848	 5.11700006936439E-02 
849	 5.14723153443508E-02 
850	 5.17444109673556E-02 
851	 5.20762021293704E-02 
852	 5.24085527219078E-02 
853	 5.27327345036122E-02 
854	 5.30530028356353E-02 
855	 5.33798858914546E-02 
856	 5.36924093234952E-02 
857	 5.39845778670666E-02 
858	 5.42718042469513E-02 
859	 5.46278842829649E-02 
860	 5.49575033907672E-02 
861	 5.52749101053288E-02 
862	 5.56329360189067E-02 
863	 0.055941388795049 
864	 5.62557579059524E-02 
865	 5.65981784148644E-02 
866	 0.056949784564339 
867	 5.72655796729587E-02 
868	 5.76015938981725E-02 
869	 5.79676979928635E-02 
870	 5.82946612971432E-02 
871	 5.86534486251549E-02 
872	 0.059001874108235 
873	 5.93191230828491E-02 
874	 5.96860325172263E-02 
875	 6.00411217732667E-02 
876	 6.03755741438757E-02 
877	 6.07095763230598E-02 
878	 6.10990657986631E-02 
879	 6.14934494827311E-02 
880	 0.061851620584691 
881	 6.21607606200199E-02 
882	 6.25162660437465E-02 
883	 6.28519119046805E-02 
884	 6.31862139229505E-02 
885	 6.35930354311579E-02 
886	 6.39818235208122E-02 
887	 6.43260905104818E-02 
888	 6.46566147192705E-02 
889	 6.50494530695138E-02 
890	 0.06539965066865 
891	 6.57559267899386E-02 
892	 6.61370234317959E-02 
893	 0.066464778977934 
894	 6.68773204720626E-02 
895	 6.72881132389447E-02 
896	 0.06761876600641 
897	 6.79594624601923E-02 
898	 6.83451937199755E-02 
899	 6.87292400315085E-02 
900	 6.90694231855854E-02 
901	 6.94650067042114E-02 
902	 6.98471493142218E-02 
903	 7.02271334147819E-02 
904	 7.06353020838859E-02 
905	 7.09684364726317E-02 
906	 0.07133265841046 
907	 7.17459182175796E-02 
908	 0.072147924126073 
909	 7.24764627857797E-02 
910	 7.28375261363927E-02 
911	 7.32651388130938E-02 
912	 7.36986474169973E-02 
913	 7.40801375555681E-02 
914	 7.44566197730298E-02 
915	 7.48589562260089E-02 
916	 7.52695328631375E-02 
917	 7.56356693665217E-02 
918	 7.60362077253201E-02 
919	 7.64970101772774E-02 
920	 0.076899654765971 
921	 7.72893927893449E-02 
922	 7.76652663216343E-02 
923	 7.80395838470602E-02 
924	 7.84819386522032E-02 
925	 7.89478168130492E-02 
926	 7.94004217136996E-02 
927	 7.98295977415149E-02 
928	 8.03114677313305E-02 
929	 8.07018452920647E-02 
930	 8.10585603691272E-02 
931	 0.081494987894635 
932	 8.19635821540991E-02 
933	 8.23736804136421E-02 
934	 8.27782115148957E-02 
935	 8.32601845686197E-02 
936	 8.35895165946075E-02 
937	 8.40296773197044E-02 
938	 8.45490331226853E-02 
939	 8.49365694551745E-02 
940	 8.53828961442425E-02 
941	 8.58379047680726E-02 
942	 8.62827456694867E-02 
943	 8.67387498175243E-02 
944	 8.71802066281239E-02 
945	 0.087602148795951 
946	 8.80344784196662E-02 
947	 8.85231178385938E-02 
948	 8.89184262981556E-02 
949	 0.08930705729698 
950	 8.97500215001703E-02 
951	 9.02223527702478E-02 
952	 9.06086397982697E-02 
953	 9.10048106952747E-02 
954	 9.14719434139269E-02 
955	 0.091956719093733 
956	 9.23411046578045E-02 
957	 9.27710914026875E-02 
958	 9.32994295515037E-02 
959	 9.37284809654305E-02 
960	 9.41612303125177E-02 
961	 9.45924349678378E-02 
962	 9.50178013885323E-02 
963	 9.54804122572794E-02 
964	 9.58657517159129E-02 
965	 9.62625909608626E-02 
966	 9.67478509471841E-02 
967	 9.72503734797017E-02 
968	 9.77060152352719E-02 
969	 9.81133114731532E-02 
970	 9.85136914193537E-02 
971	 9.89941788345417E-02 
972	 9.94333506253351E-02 
973	 9.98589877459444E-02 
974	 0.100319511250107 
975	 0.100786718396413 
976	 0.101230449566179 
977	 0.101700172139852 
978	 0.102210609199576 
979	 0.102585551868552 
980	 0.103039303081956 
981	 0.103531519170111 
982	 0.103956276942985 
983	 0.10427369939552 
984	 0.104877861861056 
985	 0.105561212026045 
986	 0.106026613066499 
987	 0.106460114212245 
988	 0.106917383692596 
989	 0.107407315427721 
990	 0.107879509252139 
991	 0.108157472638367 
992	 0.108677555978041 
993	 0.109284107086766 
994	 0.109716389873971 
995	 0.11016154882976 
996	 0.110703583440276 
997	 0.111185269852889 
998	 0.11150537630491 
999	 0.112050693532116 
1000	 0.112600149397267 
1001	 0.115674827667702 
1002	 0.116187525169669 
1003	 0.116602816376924 
1004	 0.117072872828332 
1005	 0.117556896113208 
1006	 0.118021254756385 
1007	 0.118475430345174 
1008	 0.118957351207838 
1009	 0.119416862052745 
1010	 0.119911750659674 
1011	 0.120472212025716 
1012	 0.120975541863441 
1013	 0.121457983355009 
1014	 0.12195088951066 
1015	 0.122408506253202 
1016	 0.122892267546326 
1017	 0.123432040007175 
1018	 0.123925594208498 
1019	 0.124453303224658 
1020	 0.124992198670708 
1021	 0.125496663008031 
1022	 0.125991295998972 
1023	 0.12648796552497 
1024	 0.12694220594785 
1025	 0.127436540836436 
1026	 0.127949706643435 
1027	 0.128467414258524 
1028	 0.129004199778787 
1029	 0.12955564733032 
1030	 0.130078043639968 
1031	 0.130596020083763 
1032	 0.131104270934865 
1033	 0.131567208739994 
1034	 0.132069911138934 
1035	 0.132573945356434 
1036	 0.133085875673032 
1037	 0.133636167277026 
1038	 0.134158552083138 
1039	 0.134668524951909 
1040	 0.13517230726048 
1041	 0.135651635171866 
1042	 0.136160152168102 
1043	 0.136691385250365 
1044	 0.137186622483196 
1045	 0.137694532263841 
1046	 0.138227612229138 
1047	 0.138730566413193 
1048	 0.139248081484872 
1049	 0.139756725085617 
1050	 0.140229796082843 
1051	 0.140739996049113 
1052	 0.141254897226024 
1053	 0.141779431543308 
1054	 0.142369335923963 
1055	 0.142889707642206 
1056	 0.143351026262758 
1057	 0.143867194033119 
1058	 0.144382479505016 
1059	 0.144891919580805 
1060	 0.145478964800975 
1061	 0.146025217311382 
1062	 0.146553973860799 
1063	 0.147111886520134 
1064	 0.14761776555347 
1065	 0.148142082345142 
1066	 0.148672427167935 
1067	 0.149193330305502 
1068	 0.14974998005336 
1069	 0.150282885694847 
1070	 0.150825086806593 
1071	 0.151377251836868 
1072	 0.151924865441208 
1073	 0.152454077706817 
1074	 0.153023361213759 
1075	 0.15354911368362 
1076	 0.154066468107003 
1077	 0.154639678514788 
1078	 0.155176377787278 
1079	 0.155744129597165 
1080	 0.15634247885448 
1081	 0.156873438776832 
1082	 0.157398413189948 
1083	 0.157923173938839 
1084	 0.158448755212622 
1085	 0.159001707424154 
1086	 0.159546487206023 
1087	 0.160090689142768 
1088	 0.160668175874158 
1089	 0.161233274423816 
1090	 0.161728535378068 
1091	 0.162243765853191 
1092	 0.162755060559606 
1093	 0.163255089735595 
1094	 0.163803082061678 
1095	 0.164345690806879 
1096	 0.164885696531681 
1097	 0.165424335903423 
1098	 0.165909529782552 
1099	 0.166415440685433 
1100	 0.166941616559512 
1101	 0.167426573408434 
1102	 0.167951057544513 
1103	 0.168483186934748 
1104	 0.169033152987306 
1105	 0.169553038335851 
1106	 0.170106786435124 
1107	 0.17063909982758 
1108	 0.171132597889423 
1109	 0.17163416472739 
1110	 0.172128365852448 
1111	 0.172637205676748 
1112	 0.173169249531047 
1113	 0.173708538170147 
1114	 0.174231766306053 
1115	 0.174707346591041 
1116	 0.175202551601082 
1117	 0.175693876315839 
1118	 0.17618554819777 
1119	 0.176701887696388 
1120	 0.177198962276423 
1121	 0.17768345119473 
1122	 0.178158792062066 
1123	 0.178645838774638 
1124	 0.17909948177437 
1125	 0.179585386474776 
1126	 0.180078258373293 
1127	 0.180548510671587 
1128	 0.181025920318469 
1129	 0.181469930136819 
1130	 0.181909763784557 
1131	 0.182366848289746 
1132	 0.182802777426512 
1133	 0.183262855390874 
1134	 0.183712770946613 
1135	 0.184152971356376 
1136	 0.184588531824571 
1137	 0.185024131280579 
1138	 0.185448994839604 
1139	 0.185880415436074 
1140	 0.186323859723413 
1141	 0.186727312132337 
1142	 0.187147013350713 
1143	 0.187549147469574 
1144	 0.187950854199206 
1145	 0.188387914558662 
1146	 0.188791758114289 
1147	 0.189211682641266 
1148	 0.189646758286259 
1149	 0.190048180456095 
1150	 0.190470110708358 
1151	 0.190885407509293 
1152	 0.19130488080545 
1153	 0.191726067911425 
1154	 0.192142166962877 
1155	 0.192570882181557 
1156	 0.192981204063549 
1157	 0.193360568862046 
1158	 0.19374785263752 
1159	 0.194134412454325 
1160	 0.194521482285442 
1161	 0.194908647891242 
1162	 0.195320591422215 
1163	 0.19569161971719 
1164	 0.196053851347285 
1165	 0.196427280862906 
1166	 0.196772873352745 
1167	 0.197135214961045 
1168	 0.197497597290008 
1169	 0.19785566235252 
1170	 0.198213080533256 
1171	 0.198558956172365 
1172	 0.198898839539157 
1173	 0.199240581288737 
1174	 0.199568591607722 
1175	 0.19989209860465 
1176	 0.200218522995394 
1177	 0.200542417092583 
1178	 0.200845723393552 
1179	 0.201180745109479 
1180	 0.201506161555342 
1181	 0.201831463498795 
1182	 0.202165351835903 
1183	 0.202477263625313 
1184	 0.202817838848429 
1185	 0.203169586382999 
1186	 0.203527563209016 
1187	 0.203907064290802 
1188	 0.204274874474975 
1189	 0.204631364283218 
1190	 0.205017024335862 
1191	 0.20539757018266 
1192	 0.205809468223785 
1193	 0.206254675994816 
1194	 0.206702557456489 
1195	 0.20717243571665 
1196	 0.207647563159355 
1197	 0.208123859589795 
1198	 0.208625075325893 
1199	 0.209157110411847 
1200	 0.209653280430976 
1201	 0.210146246175418 
1202	 0.210642784131904 
1203	 0.21112951687179 
1204	 0.211649424863441 
1205	 0.212170603295802 
1206	 0.212713574037744 
1207	 0.21326214356645 
1208	 0.213810296149743 
1209	 0.214370533566274 
1210	 0.214946758077652 
1211	 0.215533549309806 
1212	 0.216125199794039 
1213	 0.216736216984577 
1214	 0.217360117963626 
1215	 0.218009697628267 
1216	 0.218688009325131 
1217	 0.219360012932729 
1218	 0.220051074533011 
1219	 0.220743130742512 
1220	 0.221429913272257 
1221	 0.222141963908784 
1222	 0.222842461590474 
1223	 0.223561732129299 
1224	 0.224265467192188 
1225	 0.224962941817133 
1226	 0.225644942703315 
1227	 0.226322092633388 
1228	 0.226989594348111 
1229	 0.227646525350862 
1230	 0.228293308149735 
1231	 0.228931407593912 
1232	 0.229567218195632 
1233	 0.230187343085485 
1234	 0.230802924439032 
1235	 0.231415524089394 
1236	 0.232025409550203 
1237	 0.232635472598364 
1238	 0.233231730032616 
1239	 0.233813911862317 
1240	 0.234399784012046 
1241	 0.235012145306134 
1242	 0.235577363239018 
1243	 0.236133494235195 
1244	 0.236688459272523 
1245	 0.237230975706968 
1246	 0.237733951545858 
1247	 0.238265011156111 
1248	 0.238805119694121 
1249	 0.239356607853678 
1250	 0.23991992814868 
1251	 0.240465103005765 
1252	 0.241026240387618 
1253	 0.241565555203692 
1254	 0.24207950366596 
1255	 0.242599966589572 
1256	 0.243112959437382 
1257	 0.243635825691145 
1258	 0.244170924784457 
1259	 0.244685079033903 
1260	 0.245198911920912 
1261	 0.245704519889255 
1262	 0.246181856652071 
1263	 0.24667611824328 
1264	 0.247156330819494 
1265	 0.247628490394949 
1266	 0.248120993600606 
1267	 0.248613833545102 
1268	 0.249106211737964 
1269	 0.249618486404212 
1270	 0.250112468135519 
1271	 0.250596229688954 
1272	 0.251073328474222 
1273	 0.251540645379208 
1274	 0.252015041454125 
1275	 0.252479821085912 
1276	 0.252947111767321 
1277	 0.253420590287307 
1278	 0.253891287689981 
1279	 0.254355909518095 
1280	 0.254822245627378 
1281	 0.255278648621373 
1282	 0.255754477605984 
1283	 0.256243325225925 
1284	 0.2567238362857 
1285	 0.257206700248939 
1286	 0.257703105658991 
1287	 0.258187446424223 
1288	 0.258654429875307 
1289	 0.25914406334709 
1290	 0.259646806061246 
1291	 0.260139063308798 
1292	 0.260639683916544 
1293	 0.261121718018984 
1294	 0.26158117010533 
1295	 0.262063572588257 
1296	 0.262554011567128 
1297	 0.263032039268775 
1298	 0.263507501558201 
1299	 0.263994616975999 
1300	 0.264473019638829 
1301	 0.264959860554197 
1302	 0.265476032863974 
1303	 0.265969298842285 
1304	 0.266447252397099 
1305	 0.266926261517926 
1306	 0.26739509826005 
1307	 0.267867920619087 
1308	 0.268325642295652 
1309	 0.268818617990066 
1310	 0.269278808930983 
1311	 0.269732649453386 
1312	 0.270186488135355 
1313	 0.270625958583823 
1314	 0.2710774649198 
1315	 0.271535824964608 
1316	 0.271990534853134 
1317	 0.272453986447691 
1318	 0.272894805933132 
1319	 0.273330479091463 
1320	 0.273753521233732 
1321	 0.274150266634822 
1322	 0.2745604197384 
1323	 0.274969175674062 
1324	 0.275378789386901 
1325	 0.275795490576185 
1326	 0.276203129444683 
1327	 0.276608846705173 
1328	 0.277007231151632 
1329	 0.277401240581385 
1330	 0.277786296352457 
1331	 0.278164489443723 
1332	 0.278536341176869 
1333	 0.278900886764824 
1334	 0.279263466796116 
1335	 0.279599569868012 
1336	 0.279920459178519 
1337	 0.280240766419244 
1338	 0.280542484650671 
1339	 0.280846998394816 
1340	 0.281152302312742 
1341	 0.281452960031442 
1342	 0.281755725419333 
1343	 0.282030691345836 
1344	 0.28230573952893 
1345	 0.282550472160682 
1346	 0.282760539347486 
1347	 0.282970204543538 
1348	 0.283171990921029 
1349	 0.283354895062401 
1350	 0.283523700665918 
1351	 0.283681728185133 
1352	 0.283813948533276 
1353	 0.283955821920009 
1354	 0.284082466129061 
1355	 0.284226586772622 
1356	 0.28437704673402 
1357	 0.28453616600327 
1358	 0.284718845232254 
1359	 0.284887783070198 
1360	 0.285045612994885 
1361	 0.285222735387625 
1362	 0.285390936544107 
1363	 0.285542577801738 
1364	 0.285701200214202 
1365	 0.285869103644565 
1366	 0.286009531638361 
1367	 0.286139918927617 
1368	 0.286259994068134 
1369	 0.28636196725547 
1370	 0.286463495851581 
1371	 0.286552173741981 
1372	 0.286652778388929 
1373	 0.28675563457128 
1374	 0.286851975731455 
1375	 0.286959456304924 
1376	 0.287047181604588 
1377	 0.287116756795545 
1378	 0.287191835710221 
1379	 0.287261605763107 
1380	 0.28733175129256 
1381	 0.287402908763205 
1382	 0.287469619100273 
1383	 0.287518622686182 
1384	 0.287591897132283 
1385	 0.287677496926788 
1386	 0.287762072941535 
1387	 0.287844078225502 
1388	 0.2879539117192 
1389	 0.288074948300355 
1390	 0.288204485013653 
1391	 0.288364337624736 
1392	 0.288530890616757 
1393	 0.288671729562221 
1394	 0.288819226228873 
1395	 0.288963479368094 
1396	 0.289117691522083 
1397	 0.289225970610048 
1398	 0.289338545748018 
1399	 0.289381150273549 
1400	 0.289373669339998 
1401	 0.289344321552404 
1402	 0.289290462536216 
1403	 0.289173030441441 
1404	 0.289016458488856 
1405	 0.288815564216248 
1406	 0.288538765584472 
1407	 0.2882706376475 
1408	 0.287966470571169 
1409	 0.287669838387631 
1410	 0.287342425136674 
1411	 0.287052690273862 
1412	 0.286747572664244 
1413	 0.286507020598286 
1414	 0.286288291949619 
1415	 0.286130980067588 
1416	 0.286030267120612 
1417	 0.285964066776836 
1418	 0.285952352878983 
1419	 0.285967213587008 
1420	 0.286022104884365 
1421	 0.286100454859572 
1422	 0.286224316550914 
1423	 0.286350205938659 
1424	 0.286491017584004 
1425	 0.286656350794567 
1426	 0.28680813366048 
1427	 0.286972891543215 
1428	 0.287173246812471 
1429	 0.287367253783168 
1430	 0.287580315215452 
1431	 0.287812021707031 
1432	 0.288061987675127 
1433	 0.288317221822804 
1434	 0.288602870171489 
1435	 0.288918542032908 
1436	 0.289244914024227 
1437	 0.289590962562992 
1438	 0.289941691507787 
1439	 0.290298900668329 
1440	 0.290690793370564 
1441	 0.291110007668315 
1442	 0.291523829394775 
1443	 0.291964405287102 
1444	 0.292403041781409 
1445	 0.292826734956099 
1446	 0.293275467267552 
1447	 0.293748597318456 
1448	 0.294222624659841 
1449	 0.294708144545667 
1450	 0.295196750198973 
1451	 0.295698903235424 
1452	 0.296194125791511 
1453	 0.29669151043166 
1454	 0.29718141879661 
1455	 0.297677623676621 
1456	 0.298153795424637 
1457	 0.298611138195866 
1458	 0.299074970003349 
1459	 0.299524304885519 
1460	 0.299980330693789 
1461	 0.300448917769352 
1462	 0.300907158289848 
1463	 0.301350994030126 
1464	 0.301808209437897 
1465	 0.302258679613351 
1466	 0.302732783449754 
1467	 0.303200712732904 
1468	 0.303678177759081 
1469	 0.304181258197596 
1470	 0.304651939687084 
1471	 0.305134688262348 
1472	 0.305627768171841 
1473	 0.30611151625346 
1474	 0.306588782965799 
1475	 0.307060870764669 
1476	 0.307527520717745 
1477	 0.308005539523752 
1478	 0.308482866979962 
1479	 0.308950692205308 
1480	 0.309434650893176 
1481	 0.309886906516967 
1482	 0.310316703770513 
1483	 0.310742333333689 
1484	 0.311150624775074 
1485	 0.31156730851296 
1486	 0.311976856694797 
1487	 0.31238470272767 
1488	 0.312795261586267 
1489	 0.313202400084116 
1490	 0.313598781427204 
1491	 0.314006316495581 
1492	 0.314409073089046 
1493	 0.314834797892095 
1494	 0.315281042585148 
1495	 0.315715755575632 
1496	 0.316160915712797 
1497	 0.316604657939321 
1498	 0.317042630644935 
1499	 0.317481462629743 
1500	 0.317918616856737 
1501	 0.318369196282979 
1502	 0.318824447694173 
1503	 0.319276693432446 
1504	 0.319741727772899 
1505	 0.320202898286611 
1506	 0.320659901227054 
1507	 0.321113531323067 
1508	 0.321562908213143 
1509	 0.322021322987258 
1510	 0.322479323921843 
1511	 0.322935298208509 
1512	 0.323405487421241 
1513	 0.32386463930545 
1514	 0.324320120765735 
1515	 0.324763558530809 
1516	 0.325191695045433 
1517	 0.325624714990917 
1518	 0.326047237195539 
1519	 0.326471500492006 
1520	 0.326903060388289 
1521	 0.32733221632954 
1522	 0.327737947495038 
1523	 0.328167095970814 
1524	 0.328580283345624 
1525	 0.328986272553958 
1526	 0.329397922671693 
1527	 0.329810518934017 
1528	 0.33021757868135 
1529	 0.330621065629016 
1530	 0.331033039008788 
1531	 0.331443843202383 
1532	 0.331860424671023 
1533	 0.332284730683186 
1534	 0.33271040458954 
1535	 0.333137677806142 
1536	 0.333563060899474 
1537	 0.333997695333725 
1538	 0.334417608271388 
1539	 0.334834913579298 
1540	 0.335235650368402 
1541	 0.335623459554422 
1542	 0.336010451063636 
1543	 0.336388048850529 
1544	 0.336757120537461 
1545	 0.337117135509127 
1546	 0.337484264471143 
1547	 0.337841185999035 
1548	 0.338206805106771 
1549	 0.338592332807787 
1550	 0.338950733997637 
1551	 0.339303407867169 
1552	 0.339636561637705 
1553	 0.339947796416824 
1554	 0.340260919502785 
1555	 0.340554796893672 
1556	 0.34086389344831 
1557	 0.34116724521002 
1558	 0.341493160590879 
1559	 0.341839914586347 
1560	 0.342175661320676 
1561	 0.34252415207136 
1562	 0.342862396364457 
1563	 0.343178497034887 
1564	 0.343522469373017 
1565	 0.343886875792383 
1566	 0.344237282524248 
1567	 0.344588996306982 
1568	 0.344949782906622 
1569	 0.345306351485726 
1570	 0.345668063622297 
1571	 0.346053813706882 
1572	 0.346416746027527 
1573	 0.346762499617512 
1574	 0.347114716104938 
1575	 0.347458715773136 
1576	 0.347811496685779 
1577	 0.348178351668098 
1578	 0.34852822467872 
1579	 0.348872801470975 
1580	 0.349214432691654 
1581	 0.34953945422638 
1582	 0.349875254743459 
1583	 0.35021836188922 
1584	 0.35055816272838 
1585	 0.350900440499779 
1586	 0.351238844570006 
1587	 0.35157928654016 
1588	 0.351908342156022 
1589	 0.35222922751292 
1590	 0.352549853424565 
1591	 0.3528529898887 
1592	 0.353174959641331 
1593	 0.35350788816535 
1594	 0.353839309106473 
1595	 0.354188810871298 
1596	 0.354518468289552 
1597	 0.354837061213652 
1598	 0.355154468297904 
1599	 0.355464969860993 
1600	 0.355769348583836 
1601	 0.356069551585688 
1602	 0.356366305838365 
1603	 0.356647305834719 
1604	 0.356938499143045 
1605	 0.357241261381245 
1606	 0.357531299495641 
1607	 0.357825377629364 
1608	 0.358104996891969 
1609	 0.358369724086669 
1610	 0.358629030226273 
1611	 0.358885423049926 
1612	 0.359125245848227 
1613	 0.35934008936795 
1614	 0.359568429862301 
1615	 0.359792499712509 
1616	 0.360014919619905 
1617	 0.360257969566044 
1618	 0.360474734936145 
1619	 0.360671778140993 
1620	 0.360865215046334 
1621	 0.361053285463166 
1622	 0.361219893404166 
1623	 0.361377385573287 
1624	 0.361515625493158 
1625	 0.361617464971849 
1626	 0.361732674371996 
1627	 0.36182868375143 
1628	 0.361946592237408 
1629	 0.362075638119059 
1630	 0.362213090238339 
1631	 0.362377755169161 
1632	 0.362527519397472 
1633	 0.362668189789886 
1634	 0.362820472114057 
1635	 0.362961018947857 
1636	 0.363124888608219 
1637	 0.363320527303676 
1638	 0.363503159747832 
1639	 0.363699766371812 
1640	 0.363876801105134 
1641	 0.364044978976654 
1642	 0.364201659404225 
1643	 0.364354558063029 
1644	 0.364481110063277 
1645	 0.364588609079061 
1646	 0.364680165409637 
1647	 0.364753600253776 
1648	 0.364807273217963 
1649	 0.364853874597721 
1650	 0.364859393351997 
1651	 0.364838049441419 
1652	 0.364781347541868 
1653	 0.364694713743022 
1654	 0.364567912114941 
1655	 0.364402489131628 
1656	 0.364202678183589 
1657	 0.363969019384306 
1658	 0.36368709941493 
1659	 0.363372236438367 
1660	 0.363002222714157 
1661	 0.36259394172283 
1662	 0.362110023984448 
1663	 0.361573066945755 
1664	 0.360955214630871 
1665	 0.360276249615452 
1666	 0.359489088677693 
1667	 0.35861804700721 
1668	 0.357664030591636 
1669	 0.356607358643326 
1670	 0.355472031757073 
1671	 0.354256711421633 
1672	 0.352940876695707 
1673	 0.351524808376825 
1674	 0.350026286083975 
1675	 0.348420476620329 
1676	 0.346796336222357 
1677	 0.345112329661008 
1678	 0.343358044291301 
1679	 0.341522172387845 
1680	 0.339660432749709 
1681	 0.337719462272371 
1682	 0.335766793186042 
1683	 0.333802862870319 
1684	 0.331833211506683 
1685	 0.329810875258797 
1686	 0.327810490616711 
1687	 0.325777695879955 
1688	 0.323799491401865 
1689	 0.32182811326578 
1690	 0.319911210765103 
1691	 0.318042211353767 
1692	 0.316261491322361 
1693	 0.314524647886264 
1694	 0.312863591521109 
1695	 0.311287917510628 
1696	 0.309743245244833 
1697	 0.30825935859642 
1698	 0.306798475607914 
1699	 0.305387337936991 
1700	 0.30404558881776 
1701	 0.302733622372522 
1702	 0.301504955771095 
1703	 0.300334539832852 
1704	 0.299257112641484 
1705	 0.298251558927277 
1706	 0.29729550334914 
1707	 0.29649640062951 
1708	 0.295762101884055 
1709	 0.295095002440451 
1710	 0.294510950024001 
1711	 0.293941637779077 
1712	 0.293391954611215 
1713	 0.29284972583621 
1714	 0.292315377404997 
1715	 0.291797986670612 
1716	 0.291264767797902 
1717	 0.290755371516176 
1718	 0.290276801532499 
1719	 0.289839769066555 
1720	 0.2894553319171 
1721	 0.289141105475248 
1722	 0.288931893744968 
1723	 0.288854198261624 
1724	 0.28892754831717 
1725	 0.289153567374879 
1726	 0.289559945313247 
1727	 0.290124070406801 
1728	 0.290840529819981 
1729	 0.291735014445446 
1730	 0.292764694792852 
1731	 0.293870385198326 
1732	 0.295094526151025 
1733	 0.296342227870705 
1734	 0.297628801214014 
1735	 0.298974254806556 
1736	 0.300242465602604 
1737	 0.301478247924564 
1738	 0.302616710755567 
1739	 0.303623444611407 
1740	 0.304558375058021 
1741	 0.305359468817148 
1742	 0.306009463339687 
1743	 0.306594883180395 
1744	 0.307060996430925 
1745	 0.307479739507404 
1746	 0.307791131712554 
1747	 0.308093920867415 
1748	 0.308315840548525 
1749	 0.308570240548821 
1750	 0.308809835180862 
1751	 0.309083828688466 
1752	 0.309350965245484 
1753	 0.30969803355597 
1754	 0.310070480021591 
1755	 0.310499486302784 
1756	 0.31096017124268 
1757	 0.311530016237746 
1758	 0.31223024829468 
1759	 0.312991600247384 
1760	 0.313894297544975 
1761	 0.314875528939869 
1762	 0.315837389802192 
1763	 0.316945630222754 
1764	 0.318145503318563 
1765	 0.31942109650976 
1766	 0.320852362435066 
1767	 0.322308960931389 
1768	 0.323828771263261 
1769	 0.325372583207883 
1770	 0.326832359444893 
1771	 0.328302200077239 
1772	 0.329718550150843 
1773	 0.331103920225704 
1774	 0.332523519617702 
1775	 0.333862075459578 
1776	 0.335171554982703 
1777	 0.336406071332512 
1778	 0.33750328647965 
1779	 0.338591690868359 
1780	 0.339621514776566 
1781	 0.340575992244754 
1782	 0.341532771947091 
1783	 0.342382875435927 
1784	 0.343166502945655 
1785	 0.343879988346968 
1786	 0.344543922170299 
1787	 0.345175438181025 
1788	 0.345755084845276 
1789	 0.346266634173737 
1790	 0.346759018012451 
1791	 0.347209341822132 
1792	 0.347656177044055 
1793	 0.348063389879673 
1794	 0.34845639974227 
1795	 0.348814786017864 
1796	 0.349127327939508 
1797	 0.349484191538838 
1798	 0.349832197277173 
1799	 0.350183135493793 
1800	 0.350583279964434 
1801	 0.341377856688305 
1802	 0.341731255204646 
1803	 0.342060299349565 
1804	 0.342356434325733 
1805	 0.342689509263698 
1806	 0.343000903678765 
1807	 0.343308674570111 
1808	 0.343605455688787 
1809	 0.343892629817041 
1810	 0.3441823941764 
1811	 0.3444598936815 
1812	 0.344744882103587 
1813	 0.34503822347314 
1814	 0.345339807798945 
1815	 0.345603358731397 
1816	 0.3458909461243 
1817	 0.3461921439195 
1818	 0.346496112341121 
1819	 0.346805227241932 
1820	 0.347138584656648 
1821	 0.347465071965856 
1822	 0.347776573459748 
1823	 0.348121135953771 
1824	 0.348460820747852 
1825	 0.348795606383308 
1826	 0.349134354598058 
1827	 0.349463412382921 
1828	 0.349805855617902 
1829	 0.350156581004072 
1830	 0.350517423949134 
1831	 0.350890141660043 
1832	 0.351265421770651 
1833	 0.351634957962671 
1834	 0.352004592408571 
1835	 0.352361665054894 
1836	 0.352718668245419 
1837	 0.353087385859097 
1838	 0.353449156261723 
1839	 0.353836254991779 
1840	 0.354242322373653 
1841	 0.354652369508469 
1842	 0.355079638203969 
1843	 0.355509787723045 
1844	 0.355931975382429 
1845	 0.356352440878188 
1846	 0.356783732490504 
1847	 0.357203756166683 
1848	 0.357607219294914 
1849	 0.358016117932969 
1850	 0.35839043754306 
1851	 0.358734132670511 
1852	 0.359080352675248 
1853	 0.359412327484495 
1854	 0.359703486199796 
1855	 0.359992633386156 
1856	 0.360260929606443 
1857	 0.360504480927656 
1858	 0.3607441694937 
1859	 0.360947718315358 
1860	 0.361135851367476 
1861	 0.361278006995505 
1862	 0.361387603375813 
1863	 0.36146225991484 
1864	 0.361506841903992 
1865	 0.36151343599607 
1866	 0.361495823230724 
1867	 0.361450430944747 
1868	 0.361377203077298 
1869	 0.361266691661525 
1870	 0.361106491965357 
1871	 0.360917307062503 
1872	 0.360672472086752 
1873	 0.360376746563395 
1874	 0.360037745052844 
1875	 0.359659943063318 
1876	 0.359192698841379 
1877	 0.358688345012279 
1878	 0.358097772750353 
1879	 0.357420309055056 
1880	 0.356693976319304 
1881	 0.355843388149382 
1882	 0.354889508911118 
1883	 0.353853542257433 
1884	 0.352668948568178 
1885	 0.351298035249287 
1886	 0.349861510474588 
1887	 0.348262636424508 
1888	 0.346496398993504 
1889	 0.34478385309701 
1890	 0.342934014568373 
1891	 0.341048156637179 
1892	 0.33919937405387 
1893	 0.337295332078411 
1894	 0.335298067196491 
1895	 0.333394651244484 
1896	 0.331497223521373 
1897	 0.329639515914438 
1898	 0.327969219122853 
1899	 0.32629811256472 
1900	 0.32468534753028 
1901	 0.323157714863484 
1902	 0.321584698162111 
1903	 0.320115953190836 
1904	 0.318712621650138 
1905	 0.31735685080364 
1906	 0.316065616100933 
1907	 0.314948145324011 
1908	 0.313865540420337 
1909	 0.312870337562019 
1910	 0.311984223607156 
1911	 0.311070359137535 
1912	 0.310235249016743 
1913	 0.30946471425194 
1914	 0.308715097759119 
1915	 0.308033284030259 
1916	 0.307439247189854 
1917	 0.30684359462169 
1918	 0.306292530401385 
1919	 0.305799017640007 
1920	 0.305310935622891 
1921	 0.304910695199888 
1922	 0.30452861462459 
1923	 0.304167167079666 
1924	 0.303887583997726 
1925	 0.303618482562434 
1926	 0.303380953092993 
1927	 0.303187061793207 
1928	 0.303014094540585 
1929	 0.302856752398848 
1930	 0.302740096227095 
1931	 0.302664462794524 
1932	 0.302613195185939 
1933	 0.302620332939115 
1934	 0.302678041851832 
1935	 0.302755186206901 
1936	 0.302893904468994 
1937	 0.303069261677274 
1938	 0.30328327199786 
1939	 0.303517223716348 
1940	 0.303789223791118 
1941	 0.304105315855193 
1942	 0.304431540188942 
1943	 0.304798872148869 
1944	 0.30519203151836 
1945	 0.305600556425205 
1946	 0.306044239171952 
1947	 0.306495423731922 
1948	 0.306975402754044 
1949	 0.307479521433518 
1950	 0.307966989850566 
1951	 0.308444605290561 
1952	 0.30893968604938 
1953	 0.309437403710579 
1954	 0.309931417962076 
1955	 0.310485539515453 
1956	 0.31102756378533 
1957	 0.311574398158323 
1958	 0.312148263017358 
1959	 0.312668042667589 
1960	 0.313191014806562 
1961	 0.313712135055149 
1962	 0.31421678002479 
1963	 0.314740269938356 
1964	 0.315278249031123 
1965	 0.315793985817222 
1966	 0.316314446327318 
1967	 0.316834678379154 
1968	 0.317296194156957 
1969	 0.31778530225338 
1970	 0.318287352616728 
1971	 0.318765741564783 
1972	 0.319292400204679 
1973	 0.319825688266025 
1974	 0.32034330982773 
1975	 0.32087403662417 
1976	 0.321381544024485 
1977	 0.321865526149234 
1978	 0.322352990121836 
1979	 0.322835208993961 
1980	 0.323303127380658 
1981	 0.323783359687717 
1982	 0.324248728148697 
1983	 0.324711823673045 
1984	 0.325175703933306 
1985	 0.325604863767347 
1986	 0.326031884645566 
1987	 0.326447482568192 
1988	 0.326838185181476 
1989	 0.32723733996609 
1990	 0.327649241946978 
1991	 0.328028531584494 
1992	 0.328399838703099 
1993	 0.328756202845089 
1994	 0.329061789437715 
1995	 0.329342983243305 
1996	 0.329621989137766 
1997	 0.329884898990142 
1998	 0.330130712062294 
1999	 0.330371622200155 
2000	 0.330589204744209 
2001	 0.330783406409482 
2002	 0.330955478891033 
2003	 0.331129349978107 
2004	 0.331255005442728 
2005	 0.331328186542391 
2006	 0.331400779537321 
2007	 0.331455165327539 
2008	 0.331470198274933 
2009	 0.331493922269512 
2010	 0.331500074098095 
2011	 0.331461903277706 
2012	 0.331423185912818 
2013	 0.331348845693502 
2014	 0.331262030883735 
2015	 0.331114075560685 
2016	 0.33092411490278 
2017	 0.33070537797706 
2018	 0.330430508925571 
2019	 0.330135256635978 
2020	 0.329822704139735 
2021	 0.329475304298216 
2022	 0.329073853013934 
2023	 0.328650521817921 
2024	 0.328193236700409 
2025	 0.327712392801928 
2026	 0.327182970863749 
2027	 0.326589705858947 
2028	 0.326025489203361 
2029	 0.325429406849908 
2030	 0.324830157535135 
2031	 0.3242538650626 
2032	 0.32364410861481 
2033	 0.322959800227344 
2034	 0.322348751654886 
2035	 0.32175093628927 
2036	 0.321160398749334 
2037	 0.320655473934699 
2038	 0.320185273811269 
2039	 0.319755205722787 
2040	 0.319372636435446 
2041	 0.319025189334707 
2042	 0.318711825427305 
2043	 0.318449899933643 
2044	 0.318231757774793 
2045	 0.318053301287048 
2046	 0.317939992106189 
2047	 0.317832939221664 
2048	 0.317762142296722 
2049	 0.317707573781617 
2050	 0.317668782983666 
2051	 0.317653645623047 
2052	 0.317681146925388 
2053	 0.317732570742027 
2054	 0.317799794972406 
2055	 0.31790263451374 
2056	 0.318005276963528 
2057	 0.318116670246687 
2058	 0.318250766854214 
2059	 0.318407912529148 
2060	 0.31856630757498 
2061	 0.318753375117741 
2062	 0.318919288533524 
2063	 0.319077172874485 
2064	 0.319243522448091 
2065	 0.319403086832626 
2066	 0.319567682444992 
2067	 0.319756514913608 
2068	 0.319945152667286 
2069	 0.320130842311108 
2070	 0.320331401980205 
2071	 0.320502709818974 
2072	 0.320663727764737 
2073	 0.320814988661846 
2074	 0.320948567893857 
2075	 0.321081595120879 
2076	 0.321197740673134 
2077	 0.321322280534501 
2078	 0.321448313405681 
2079	 0.321572000551212 
2080	 0.321721883801415 
2081	 0.321832227423826 
2082	 0.321919124955198 
2083	 0.321988787166422 
2084	 0.322055011274614 
2085	 0.322114249139504 
2086	 0.322178941142585 
2087	 0.322258963718164 
2088	 0.322323343389519 
2089	 0.322381167033868 
2090	 0.322427339725917 
2091	 0.322478649554183 
2092	 0.322500439334269 
2093	 0.322494279955753 
2094	 0.322488263205518 
2095	 0.322467296844222 
2096	 0.322440990347077 
2097	 0.322412700154698 
2098	 0.322371167770196 
2099	 0.322320061472119 
2100	 0.322241411260868 
2101	 0.322147785250344 
2102	 0.32203049585967 
2103	 0.321914041799112 
2104	 0.321781746261672 
2105	 0.321644402862771 
2106	 0.321516881998607 
2107	 0.321346580922529 
2108	 0.321156538593505 
2109	 0.320941772974196 
2110	 0.320687558637151 
2111	 0.320431900309128 
2112	 0.320140295038267 
2113	 0.319867037973926 
2114	 0.319603279212667 
2115	 0.319322400261284 
2116	 0.31903316004563 
2117	 0.318761456195108 
2118	 0.318460632361695 
2119	 0.318133422730433 
2120	 0.317824846809324 
2121	 0.317500640373578 
2122	 0.317211275942471 
2123	 0.316946428265699 
2124	 0.316666264987588 
2125	 0.316411196226731 
2126	 0.316127303837157 
2127	 0.315821214317145 
2128	 0.315518561917842 
2129	 0.315209734894899 
2130	 0.314896286000487 
2131	 0.314579336003172 
2132	 0.314255403235634 
2133	 0.313928081141712 
2134	 0.313593911845766 
2135	 0.313235417674327 
2136	 0.312881470624413 
2137	 0.312507349708969 
2138	 0.312101429681968 
2139	 0.31172280926684 
2140	 0.311339752995208 
2141	 0.310976294727078 
2142	 0.31061870390073 
2143	 0.310292655134063 
2144	 0.309976350995876 
2145	 0.309692089064803 
2146	 0.30943935061746 
2147	 0.309206941681019 
2148	 0.309020753405743 
2149	 0.308815765281004 
2150	 0.308632083085366 
2151	 0.308433596969324 
2152	 0.308209400654885 
2153	 0.308010265203869 
2154	 0.307803512923143 
2155	 0.307601808439535 
2156	 0.307388414658758 
2157	 0.307176671944475 
2158	 0.306940032255856 
2159	 0.306685135036009 
2160	 0.306435500118337 
2161	 0.306172121161286 
2162	 0.305914401240808 
2163	 0.30564959639242 
2164	 0.305403696071354 
2165	 0.305138205959357 
2166	 0.304929214998923 
2167	 0.304764949256501 
2168	 0.304598236900557 
2169	 0.304449827929146 
2170	 0.304329136202993 
2171	 0.304211181915356 
2172	 0.304128767205151 
2173	 0.304083895295635 
2174	 0.304065432095245 
2175	 0.304071875833603 
2176	 0.304101491707584 
2177	 0.304137475836196 
2178	 0.30418763890888 
2179	 0.304280281626793 
2180	 0.304407457845027 
2181	 0.304511880876745 
2182	 0.304649690894088 
2183	 0.304769288365605 
2184	 0.304842498763165 
2185	 0.304977587064923 
2186	 0.305158299655055 
2187	 0.305325639194513 
2188	 0.305538586982657 
2189	 0.305694282695905 
2190	 0.305829216613424 
2191	 0.305947276038567 
2192	 0.30601256581686 
2193	 0.306100202739394 
2194	 0.306195597774251 
2195	 0.306277079958672 
2196	 0.30634570445574 
2197	 0.306436181038296 
2198	 0.306504698124475 
2199	 0.306549385824066 
2200	 0.306579453404519 
2201	 0.306606467298292 
2202	 0.306583378683335 
2203	 0.306518239888019 
2204	 0.306463886191368 
2205	 0.30639286457543 
2206	 0.30629322544395 
2207	 0.306187702172359 
2208	 0.306055624880172 
2209	 0.305888648899765 
2210	 0.30569941337084 
2211	 0.305511459548816 
2212	 0.305267885930627 
2213	 0.304967308595695 
2214	 0.304656486646188 
2215	 0.304336510971615 
2216	 0.303953227684109 
2217	 0.303551457703184 
2218	 0.303077852504213 
2219	 0.302562285157397 
2220	 0.301953686621525 
2221	 0.301254528654015 
2222	 0.300503903793756 
2223	 0.29972026986614 
2224	 0.298817281209161 
2225	 0.297917369996409 
2226	 0.296950501160166 
2227	 0.295810247112651 
2228	 0.294561657587445 
2229	 0.293189932665557 
2230	 0.291631596837581 
2231	 0.290056784087717 
2232	 0.288414960772618 
2233	 0.286641766303295 
2234	 0.284849258235668 
2235	 0.282789290774984 
2236	 0.280541517598104 
2237	 0.278167393421427 
2238	 0.275511577272923 
2239	 0.272883077764734 
2240	 0.270214799634663 
2241	 0.267373604280237 
2242	 0.264515544394126 
2243	 0.261400040853675 
2244	 0.25801186394969 
2245	 0.254595787530424 
2246	 0.250891772687309 
2247	 0.247295209299718 
2248	 0.243734861434323 
2249	 0.240077719115276 
2250	 0.236388140659638 
2251	 0.232741221505386 
2252	 0.228766174099975 
2253	 0.22490424545877 
2254	 0.221018178022684 
2255	 0.21706290828017 
2256	 0.213462761119465 
2257	 0.20985192736307 
2258	 0.206347414802461 
2259	 0.203013955067397 
2260	 0.199628808802797 
2261	 0.196209807545346 
2262	 0.193009605146562 
2263	 0.189803308445194 
2264	 0.186914219417469 
2265	 0.184315599842923 
2266	 0.181712598634346 
2267	 0.179336763123114 
2268	 0.176928365609754 
2269	 0.174500702933329 
2270	 0.172255933937345 
2271	 0.170079960847093 
2272	 0.168062348026268 
2273	 0.16625966283456 
2274	 0.164450056890662 
2275	 0.16280550625992 
2276	 0.161094438443138 
2277	 0.159379766907042 
2278	 0.157700438841213 
2279	 0.15599631891605 
2280	 0.154351177772752 
2281	 0.152823694795265 
2282	 0.151200890594551 
2283	 0.149589171735538 
2284	 0.147941603384906 
2285	 0.146089574184584 
2286	 0.144262061451152 
2287	 0.142366316902658 
2288	 0.140387788848071 
2289	 0.138563678618689 
2290	 0.136635071041177 
2291	 0.134683791734203 
2292	 0.132754907186192 
2293	 0.130653506569176 
2294	 0.128644190991589 
2295	 0.126676977008296 
2296	 0.124747017537512 
2297	 0.123062363117247 
2298	 0.121539378332932 
2299	 0.120146803700834 
2300	 0.118938877259725 
2301	 0.117872341294511 
2302	 0.116877800628836 
2303	 0.116244365903868 
2304	 0.115815881710598 
2305	 0.11572345310377 
2306	 0.115981149509791 
2307	 0.116442740321068 
2308	 0.117189199543818 
2309	 0.118190234078285 
2310	 0.119502973331067 
2311	 0.120966428172951 
2312	 0.122812199565314 
2313	 0.124599689300416 
2314	 0.126562174388575 
2315	 0.128492995275695 
2316	 0.130494041652617 
2317	 0.132410142299683 
2318	 0.134420613671775 
2319	 0.136182810550415 
2320	 0.137874915181209 
2321	 0.139351707458837 
2322	 0.140602990689088 
2323	 0.141746654723703 
2324	 0.142697284359389 
2325	 0.143533573555162 
2326	 0.144293292964752 
2327	 0.14479648480907 
2328	 0.145106127271207 
2329	 0.145256435849107 
2330	 0.145187338768065 
2331	 0.144884025455847 
2332	 0.144542664665015 
2333	 0.144018714661714 
2334	 0.143281909980815 
2335	 0.142469660778226 
2336	 0.141465845231417 
2337	 0.140326491009952 
2338	 0.139224163090674 
2339	 0.138048514842299 
2340	 0.136871467661943 
2341	 0.135723013415736 
2342	 0.134545956864123 
2343	 0.133489349972356 
2344	 0.132619518755441 
2345	 0.132031128539961 
2346	 0.131776855659674 
2347	 0.13180573589284 
2348	 0.132083118973734 
2349	 0.132695496506973 
2350	 0.133555818930233 
2351	 0.134648628809493 
2352	 0.13599065509276 
2353	 0.137431926594697 
2354	 0.138845339527405 
2355	 0.140302662578904 
2356	 0.141706049888559 
2357	 0.142986045106637 
2358	 0.144270666553368 
2359	 0.14541778064887 
2360	 0.146432701666789 
2361	 0.147354988752558 
2362	 0.148078682574246 
2363	 0.148676898193835 
2364	 0.149248294698564 
2365	 0.149740157189036 
2366	 0.150183369720964 
2367	 0.150624094123524 
2368	 0.151035730740933 
2369	 0.151442532931081 
2370	 0.151869547551835 
2371	 0.152291932998643 
2372	 0.152638140158901 
2373	 0.152916915343606 
2374	 0.153177444409655 
2375	 0.153390636259697 
2376	 0.153624183683981 
2377	 0.15385123867106 
2378	 0.154017172200341 
2379	 0.154194379467838 
2380	 0.15433579243532 
2381	 0.154462030473391 
2382	 0.154611824037052 
2383	 0.154799877662246 
2384	 0.154915361286697 
2385	 0.155010024133214 
2386	 0.155089237025138 
2387	 0.155087148208364 
2388	 0.155159324618672 
2389	 0.155290506939296 
2390	 0.155346755171059 
2391	 0.155402870348256 
2392	 0.155467136273079 
2393	 0.155492145626741 
2394	 0.155461674330965 
2395	 0.155386529680094 
2396	 0.155366645444592 
2397	 0.155317201164552 
2398	 0.155355430565165 
2399	 0.155505695740594 
2400	 0.155566919667772 
2401	 0.155561118703869 
2402	 0.155554591098619 
2403	 0.155744197715425 
2404	 0.155942479489257 
2405	 0.156032676384601 
2406	 0.156187631206511 
2407	 0.156365920840591 
2408	 0.156537641235875 
2409	 0.15681062349138 
2410	 0.157136234394997 
2411	 0.157472586936887 
2412	 0.157777839870407 
2413	 0.158008017387256 
2414	 0.158208392920667 
2415	 0.158301356921447 
2416	 0.158412047339159 
2417	 0.158625985377948 
2418	 0.158832775094216 
2419	 0.159089143896167 
2420	 0.159326774019784 
2421	 0.159494163094695 
2422	 0.159628488697308 
2423	 0.159704289971996 
2424	 0.15975271785453 
2425	 0.159804141738796 
2426	 0.159927200099549 
2427	 0.160055168002993 
2428	 0.160153640256246 
2429	 0.160288553719522 
2430	 0.160389542038083 
2431	 0.160495466890783 
2432	 0.160636461712436 
2433	 0.160735624428899 
2434	 0.160745180229673 
2435	 0.160752106856766 
2436	 0.16070267471315 
2437	 0.160600321155264 
2438	 0.16052979043618 
2439	 0.16033964098447 
2440	 0.160109476310489 
2441	 0.159840442165509 
2442	 0.159574238567769 
2443	 0.159333102332067 
2444	 0.159022055896113 
2445	 0.158729789428619 
2446	 0.158337749340775 
2447	 0.15788344915586 
2448	 0.157484928745822 
2449	 0.157031044209566 
2450	 0.156627469044547 
2451	 0.156278640568277 
2452	 0.155807274579468 
2453	 0.155359281733051 
2454	 0.154934946877706 
2455	 0.154446806804487 
2456	 0.153992859212402 
2457	 0.153533131950307 
2458	 0.15304079868877 
2459	 0.152658961524029 
2460	 0.152475419030677 
2461	 0.152282485791283 
2462	 0.152135817487574 
2463	 0.152064009718326 
2464	 0.1518678448812 
2465	 0.151825743381693 
2466	 0.151990779609572 
2467	 0.15205164967015 
2468	 0.152205969578636 
2469	 0.152461257672008 
2470	 0.152567494288458 
2471	 0.152831029018054 
2472	 0.153191596563951 
2473	 0.153518045120215 
2474	 0.153935826862292 
2475	 0.15431202649864 
2476	 0.154607568144359 
2477	 0.154889980913404 
2478	 0.155303400402233 
2479	 0.155690965861434 
2480	 0.155977927209263 
2481	 0.156370038002717 
2482	 0.15674239525761 
2483	 0.157308279508368 
2484	 0.157530199926808 
2485	 0.157824251325015 
2486	 0.158139645704282 
2487	 0.158395530666862 
2488	 0.158925857277371 
2489	 0.159300000428779 
2490	 0.159559384889294 
2491	 0.160023192910282 
2492	 0.160528740502375 
2493	 0.161003512540319 
2494	 0.161379031805632 
2495	 0.161602590116455 
2496	 0.161851171593649 
2497	 0.16209964329163 
2498	 0.162468430658972 
2499	 0.1628271983054 
2500	 0.16301861988652 
