Wavelength	spectrum00002.asd
350	 2.91971235381685E-02 
351	 2.90246765206068E-02 
352	 0.028809207583203 
353	 2.85069880358872E-02 
354	 2.93036303693703E-02 
355	 2.79350785118529E-02 
356	 0.026230787261387 
357	 2.58787133512241E-02 
358	 2.46302702408594E-02 
359	 2.31481666880224E-02 
360	 2.25294879150417E-02 
361	 2.35936714160939E-02 
362	 2.35709432594072E-02 
363	 2.28695887852253E-02 
364	 2.19687711491867E-02 
365	 2.09504559196341E-02 
366	 2.12226836826399E-02 
367	 2.15740585902594E-02 
368	 2.09514041031987E-02 
369	 2.10030231946325E-02 
370	 2.08126747857471E-02 
371	 2.08024480112416E-02 
372	 2.17500290879659E-02 
373	 2.03197571660226E-02 
374	 1.98285770173114E-02 
375	 2.13481246585185E-02 
376	 2.18256895552678E-02 
377	 2.15116218735283E-02 
378	 2.06465289634757E-02 
379	 1.97939255316389E-02 
380	 2.04042502256985E-02 
381	 0.020305153450582 
382	 1.92122228953502E-02 
383	 1.82438252842371E-02 
384	 1.95305373228751E-02 
385	 2.04910148494544E-02 
386	 1.98352661563673E-02 
387	 1.89765129277024E-02 
388	 1.88688682655487E-02 
389	 1.91561619545364E-02 
390	 1.91610302659548E-02 
391	 1.86444731617731E-02 
392	 1.85124210704047E-02 
393	 0.018753348982741 
394	 1.87691705713592E-02 
395	 1.88711751656497E-02 
396	 1.90153927796646E-02 
397	 1.90570922832186E-02 
398	 1.87190463148631E-02 
399	 1.87448249308501E-02 
400	 1.88755597330329E-02 
401	 1.86904668884167E-02 
402	 1.83586531242043E-02 
403	 1.85540104968341E-02 
404	 1.88960763218447E-02 
405	 1.83523298204481E-02 
406	 0.01827243597532 
407	 1.83747344527034E-02 
408	 1.83603917588784E-02 
409	 1.84200824605005E-02 
410	 1.80249434676397E-02 
411	 0.017813202644853 
412	 0.018451253261542 
413	 1.88507503268884E-02 
414	 1.86069183153066E-02 
415	 1.80635734563501E-02 
416	 1.81296588475482E-02 
417	 1.81882912012022E-02 
418	 1.83661084266558E-02 
419	 1.87184374405128E-02 
420	 1.88805036705275E-02 
421	 1.86762704752262E-02 
422	 1.85400547105564E-02 
423	 1.89605581962267E-02 
424	 1.90082235600675E-02 
425	 1.89771661458313E-02 
426	 1.90684049056525E-02 
427	 1.92605602578478E-02 
428	 1.91890619720905E-02 
429	 1.91701526113293E-02 
430	 1.94464981955283E-02 
431	 1.95546996026021E-02 
432	 0.019764983977649 
433	 1.99586513869453E-02 
434	 0.019889783688871 
435	 2.03025147430762E-02 
436	 2.06143006297447E-02 
437	 2.05683478961471E-02 
438	 2.06244471188658E-02 
439	 2.09381288369133E-02 
440	 2.12860294234265E-02 
441	 2.14242549865911E-02 
442	 0.021566380864272 
443	 2.18458586980221E-02 
444	 2.21331070141325E-02 
445	 2.21305312906148E-02 
446	 2.22837335461972E-02 
447	 2.25038305118259E-02 
448	 2.26706853220138E-02 
449	 2.27959823986604E-02 
450	 2.28816605130921E-02 
451	 2.29474398308775E-02 
452	 2.30127449820896E-02 
453	 2.30263933176762E-02 
454	 2.31833224976512E-02 
455	 2.34212493295044E-02 
456	 2.33898475844698E-02 
457	 2.34619440089953E-02 
458	 2.34353424545902E-02 
459	 2.32357864722834E-02 
460	 2.35806597491975E-02 
461	 0.023779998863553 
462	 2.37137270700209E-02 
463	 2.36077664420828E-02 
464	 2.35950199511288E-02 
465	 2.37686200609215E-02 
466	 0.023999037486332 
467	 2.38251009478806E-02 
468	 2.38235340339732E-02 
469	 2.39848530013658E-02 
470	 0.02412053182955 
471	 2.40913150514342E-02 
472	 2.40354244034574E-02 
473	 2.40611066422982E-02 
474	 2.42237778811688E-02 
475	 2.43025275073848E-02 
476	 2.43992182124472E-02 
477	 2.45668112088887E-02 
478	 2.46283065046886E-02 
479	 0.024653841539024 
480	 2.47175522164332E-02 
481	 2.48705370137294E-02 
482	 2.49923137637715E-02 
483	 2.50999890778215E-02 
484	 2.52153708134914E-02 
485	 2.53527682625347E-02 
486	 2.55597160659129E-02 
487	 2.57677911593297E-02 
488	 2.59158554753392E-02 
489	 2.60418100644338E-02 
490	 2.62346697250136E-02 
491	 2.64843310916435E-02 
492	 2.67275815230521E-02 
493	 2.70351715812478E-02 
494	 2.73117158207059E-02 
495	 0.027549316711722 
496	 2.79222874277873E-02 
497	 2.82066703863634E-02 
498	 0.028451427224375 
499	 2.87564438228407E-02 
500	 0.0290320575434 
501	 2.93368499063122E-02 
502	 2.96792786119103E-02 
503	 3.00228599791777E-02 
504	 3.04434722203126E-02 
505	 3.08929092784851E-02 
506	 3.13180553187432E-02 
507	 3.17071545784613E-02 
508	 3.20837211125191E-02 
509	 3.25058704120892E-02 
510	 3.30183484089508E-02 
511	 3.34672985246815E-02 
512	 0.033925423900041 
513	 3.44605899366156E-02 
514	 3.51126472477633E-02 
515	 3.55913040276358E-02 
516	 3.60128512338331E-02 
517	 3.65489343409601E-02 
518	 0.037158237549665 
519	 3.77637649950963E-02 
520	 3.83719158188933E-02 
521	 3.90378881037709E-02 
522	 3.96472550882401E-02 
523	 4.02441719246475E-02 
524	 4.08864474144467E-02 
525	 4.16277612593017E-02 
526	 4.22910953382443E-02 
527	 4.29621624529845E-02 
528	 4.37697236713356E-02 
529	 4.45056184267118E-02 
530	 4.52187882564502E-02 
531	 4.59861115771594E-02 
532	 4.68886829336902E-02 
533	 4.77138124516939E-02 
534	 4.85210825943888E-02 
535	 4.93785116657699E-02 
536	 0.050191119252527 
537	 0.051035703941302 
538	 5.19332342280347E-02 
539	 5.28636167251024E-02 
540	 5.37490714717188E-02 
541	 0.054634917287936 
542	 5.55517558773478E-02 
543	 5.64842622420288E-02 
544	 5.74012242790896E-02 
545	 5.83012236588981E-02 
546	 5.91992805698492E-02 
547	 6.01360269089281E-02 
548	 6.10523633910359E-02 
549	 0.061934310187235 
550	 6.28119574183425E-02 
551	 6.37102224441882E-02 
552	 6.46209045179851E-02 
553	 6.55267597936809E-02 
554	 6.64010372863577E-02 
555	 6.72857903287582E-02 
556	 6.81872531122005E-02 
557	 6.90933138827725E-02 
558	 7.00094846294426E-02 
559	 7.08901198295461E-02 
560	 7.17238627499581E-02 
561	 7.25540072639404E-02 
562	 7.33238707877908E-02 
563	 7.40755215204728E-02 
564	 7.48528277680632E-02 
565	 7.56001757123625E-02 
566	 7.63413311366893E-02 
567	 7.70701593434746E-02 
568	 7.77656283048861E-02 
569	 7.85425768907904E-02 
570	 7.92533014304396E-02 
571	 7.98447747457514E-02 
572	 8.05535867839853E-02 
573	 8.12343838087731E-02 
574	 8.18699868353761E-02 
575	 8.24889667244371E-02 
576	 8.31028289139865E-02 
577	 8.36779073793457E-02 
578	 8.42196516992972E-02 
579	 8.47792285944868E-02 
580	 8.53417328338535E-02 
581	 8.58870989065299E-02 
582	 8.64129034442662E-02 
583	 8.69761112299304E-02 
584	 8.75364579111061E-02 
585	 8.80771184480669E-02 
586	 8.86015210238707E-02 
587	 8.91460743599919E-02 
588	 8.97067459516716E-02 
589	 9.02576009442611E-02 
590	 9.07475262666572E-02 
591	 9.11991237412562E-02 
592	 9.16532953086423E-02 
593	 9.21309080251234E-02 
594	 9.25443377880551E-02 
595	 9.29157901309981E-02 
596	 9.32802604238423E-02 
597	 9.36756705038731E-02 
598	 9.40722062033268E-02 
599	 9.44807489486625E-02 
600	 9.49065244298277E-02 
601	 9.53238083425791E-02 
602	 9.57234531471925E-02 
603	 9.61142253229118E-02 
604	 9.65121228650444E-02 
605	 9.69178852458128E-02 
606	 9.73284773100605E-02 
607	 9.77467975491233E-02 
608	 9.81826071972122E-02 
609	 9.85501016653262E-02 
610	 9.88988518845842E-02 
611	 9.92851433234639E-02 
612	 0.099664235620661 
613	 0.100023059775592 
614	 0.100373463742932 
615	 0.100740560180805 
616	 0.101090777459263 
617	 0.101441186501901 
618	 0.101806627293171 
619	 0.102190988214482 
620	 0.10253403793686 
621	 0.102860907833248 
622	 0.103215363063028 
623	 0.103569628460854 
624	 0.10395358750025 
625	 0.104342014973854 
626	 0.104664173298213 
627	 0.105014970333455 
628	 0.105378005831664 
629	 0.105734756541347 
630	 0.106117552771427 
631	 0.106489002293718 
632	 0.106866831519121 
633	 0.107279078395648 
634	 0.107646441022396 
635	 0.108008307125895 
636	 0.108391681780943 
637	 0.10879270802535 
638	 0.109187035495865 
639	 0.109578478474168 
640	 0.109977423949529 
641	 0.110392914864712 
642	 0.110773468986176 
643	 0.111146586108319 
644	 0.111580893522528 
645	 0.112024505370122 
646	 0.112451977035962 
647	 0.112868439738818 
648	 0.113325075909847 
649	 0.113757745900481 
650	 0.114182959839431 
651	 0.114631113051628 
652	 0.115081074345786 
653	 0.115521584408794 
654	 0.115964947319032 
655	 0.116437878751736 
656	 0.116901958882471 
657	 0.117374413950062 
658	 0.11786458527558 
659	 0.118348177228892 
660	 0.118817744377895 
661	 0.119305446734411 
662	 0.11984256084786 
663	 0.120374834424804 
664	 0.120856673079403 
665	 0.121323097031734 
666	 0.121881062837623 
667	 0.12242525284653 
668	 0.122957218441611 
669	 0.123491177478215 
670	 0.124013663083863 
671	 0.124575856126509 
672	 0.125147472430889 
673	 0.125681871042572 
674	 0.126300914113026 
675	 0.126885370632133 
676	 0.127420690607824 
677	 0.128040083761999 
678	 0.128641310400322 
679	 0.129232193729486 
680	 0.129836776701895 
681	 0.13044570477348 
682	 0.131086431525373 
683	 0.131744999413692 
684	 0.132386215838471 
685	 0.133004908805768 
686	 0.133639150964516 
687	 0.134307575483027 
688	 0.134997601957729 
689	 0.135662029170845 
690	 0.136310521290607 
691	 0.136974098919102 
692	 0.137693254439655 
693	 0.138410917073724 
694	 0.139110104728588 
695	 0.139803537877875 
696	 0.140524353597235 
697	 0.141264273756121 
698	 0.142007326530969 
699	 0.142734093857283 
700	 0.143455869372133 
701	 0.144188331040897 
702	 0.144944630633749 
703	 0.145719806388612 
704	 0.146512759668901 
705	 0.147303990893397 
706	 0.148069031350892 
707	 0.148865999725601 
708	 0.149664785171713 
709	 0.150445119147565 
710	 0.151221835677091 
711	 0.15201806476215 
712	 0.152836570702039 
713	 0.153666943863616 
714	 0.154480333761569 
715	 0.155300977516129 
716	 0.156128489862745 
717	 0.156945294208928 
718	 0.157780604177884 
719	 0.158604012040159 
720	 0.159407708855552 
721	 0.160232580394605 
722	 0.161054630625026 
723	 0.161880477697368 
724	 0.162716097523984 
725	 0.163530392991962 
726	 0.164354639356191 
727	 0.16520502164378 
728	 0.166075982670225 
729	 0.166859429599436 
730	 0.167633538132441 
731	 0.168451105222731 
732	 0.169281365577379 
733	 0.170096921242551 
734	 0.170893262566228 
735	 0.171680224972018 
736	 0.172478685462451 
737	 0.173279840417075 
738	 0.174062310915472 
739	 0.174804050682553 
740	 0.175563906077502 
741	 0.176319972986753 
742	 0.17706820468691 
743	 0.177848840458851 
744	 0.178585251120718 
745	 0.179287075743593 
746	 0.179989049409689 
747	 0.180726670962171 
748	 0.18142992260377 
749	 0.182089005026895 
750	 0.182732958249917 
751	 0.183377426999495 
752	 0.184034854220401 
753	 0.184691850829052 
754	 0.185304845578756 
755	 0.185915520533274 
756	 0.186523497972456 
757	 0.187112732193672 
758	 0.18764857583572 
759	 0.188161582110135 
760	 0.188680542409771 
761	 0.189220075702774 
762	 0.189719663829925 
763	 0.190193688227708 
764	 0.190658478642307 
765	 0.191126337604153 
766	 0.191599527707077 
767	 0.192057311526874 
768	 0.192490148814056 
769	 0.192930293957722 
770	 0.193299143605473 
771	 0.193618841921022 
772	 0.193946118369529 
773	 0.194296538827716 
774	 0.194650457246 
775	 0.194970789074244 
776	 0.195221361030551 
777	 0.195509785074061 
778	 0.195810026922984 
779	 0.196084160548259 
780	 0.196310834839453 
781	 0.196490585424872 
782	 0.196680153821526 
783	 0.196914195302371 
784	 0.197093724108001 
785	 0.19726891325815 
786	 0.197434977902276 
787	 0.197558344421959 
788	 0.197642592051628 
789	 0.197736478578868 
790	 0.197856520301984 
791	 0.197975214192631 
792	 0.198065173931878 
793	 0.198119243503786 
794	 0.198144119813452 
795	 0.198157911901358 
796	 0.198220311402937 
797	 0.198288171808089 
798	 0.198289960534954 
799	 0.198232543380816 
800	 0.198169321343741 
801	 0.198112557622593 
802	 0.1980429359935 
803	 0.197991565032134 
804	 0.197940774347249 
805	 0.197880258618189 
806	 0.197820847087226 
807	 0.197722041376963 
808	 0.197606091862308 
809	 0.197506750782891 
810	 0.197446146490627 
811	 0.197346259629029 
812	 0.197197018447449 
813	 0.19702683286245 
814	 0.196870002935999 
815	 0.196724371870049 
816	 0.196574084297817 
817	 0.196400852661097 
818	 0.196282147161318 
819	 0.196140862919316 
820	 0.195943266830148 
821	 0.195763804089442 
822	 0.19559393754204 
823	 0.195430761005793 
824	 0.195267853684735 
825	 0.195096978339976 
826	 0.194856282957417 
827	 0.194612664309251 
828	 0.194462881158936 
829	 0.194305605275725 
830	 0.194110369801542 
831	 0.193885245639563 
832	 0.193668890431492 
833	 0.193474373121307 
834	 0.193285859595877 
835	 0.193086429393093 
836	 0.192866019507102 
837	 0.192668817105553 
838	 0.192455434731008 
839	 0.1922080599354 
840	 0.192031948490147 
841	 0.191825632213962 
842	 0.191605117547034 
843	 0.191415259215951 
844	 0.1911922638455 
845	 0.190965423150012 
846	 0.190743634763427 
847	 0.19052146792672 
848	 0.19033571194202 
849	 0.190131321036694 
850	 0.189894638956815 
851	 0.189675997838132 
852	 0.189456258502345 
853	 0.189240130662087 
854	 0.189034918284544 
855	 0.188846184837637 
856	 0.188645689761296 
857	 0.188437706728798 
858	 0.188239954141784 
859	 0.188072993248897 
860	 0.187918697679222 
861	 0.187750208226147 
862	 0.187551193921328 
863	 0.187380046409908 
864	 0.187243781606775 
865	 0.187116904860112 
866	 0.186954393100851 
867	 0.186772392954316 
868	 0.18663268404156 
869	 0.186522316860809 
870	 0.186326735442382 
871	 0.186235080769246 
872	 0.18612092624755 
873	 0.185911801640529 
874	 0.185804757478701 
875	 0.185728057227874 
876	 0.185643879394451 
877	 0.185538666207691 
878	 0.185456558282582 
879	 0.185366325667803 
880	 0.185272746010259 
881	 0.185195320274741 
882	 0.185130677693253 
883	 0.185049724910849 
884	 0.184972344416284 
885	 0.184939642374073 
886	 0.184832173669838 
887	 0.184732275918589 
888	 0.184691666264678 
889	 0.184693842494709 
890	 0.184672005268883 
891	 0.184629420894681 
892	 0.184587127780448 
893	 0.184569136480294 
894	 0.184562183804568 
895	 0.184563238410133 
896	 0.184564651387281 
897	 0.184540004053674 
898	 0.184528444760404 
899	 0.184523278829374 
900	 0.18451041222132 
901	 0.184511064904777 
902	 0.184527636046036 
903	 0.184552650644962 
904	 0.184573387174012 
905	 0.184578624833225 
906	 0.184599116203589 
907	 0.184639866127292 
908	 0.184685459473161 
909	 0.184736395469993 
910	 0.184787308480824 
911	 0.184841416462711 
912	 0.184910166916689 
913	 0.184998880562515 
914	 0.18506252454234 
915	 0.185106982513926 
916	 0.185211227462335 
917	 0.185302990034305 
918	 0.185416832732131 
919	 0.185568066479558 
920	 0.185699564642666 
921	 0.185810926400063 
922	 0.185901091957813 
923	 0.185986745888701 
924	 0.18612032311528 
925	 0.186291276681698 
926	 0.186472398112383 
927	 0.186645221573952 
928	 0.186844623226396 
929	 0.187042443228873 
930	 0.187206144717971 
931	 0.187331245142536 
932	 0.18752898862665 
933	 0.187720616316852 
934	 0.187900901253752 
935	 0.188096333607836 
936	 0.188240209815376 
937	 0.18849826198304 
938	 0.188799848271694 
939	 0.188954526077745 
940	 0.189190545846436 
941	 0.189471045499822 
942	 0.18974844591473 
943	 0.189993130671564 
944	 0.190234067911734 
945	 0.190460533618928 
946	 0.190710949203359 
947	 0.191052597057318 
948	 0.191246387628949 
949	 0.191496414086464 
950	 0.191839063625072 
951	 0.192040525795807 
952	 0.192297642937422 
953	 0.192606469775162 
954	 0.192910798492528 
955	 0.193140674500764 
956	 0.193399510682828 
957	 0.193712662356237 
958	 0.194054414847954 
959	 0.194348221487558 
960	 0.194635026796367 
961	 0.194915658749207 
962	 0.195203129299547 
963	 0.195548851235089 
964	 0.195827830557096 
965	 0.196100364448996 
966	 0.196440139637577 
967	 0.196836485262378 
968	 0.197162913075074 
969	 0.197459030173732 
970	 0.197783559449291 
971	 0.198107597498275 
972	 0.198415597645273 
973	 0.198756904837284 
974	 0.199147697659316 
975	 0.199451967576761 
976	 0.199853046523906 
977	 0.200331619927522 
978	 0.200795036065511 
979	 0.201156582740466 
980	 0.201480821558021 
981	 0.201825143736134 
982	 0.202235990219287 
983	 0.202742165319134 
984	 0.203201452666447 
985	 0.203623358619824 
986	 0.204045475828434 
987	 0.204385575704935 
988	 0.20478831640108 
989	 0.205255589480993 
990	 0.205718345851887 
991	 0.20606863235016 
992	 0.206533163586858 
993	 0.206978642398531 
994	 0.20729629549266 
995	 0.207931544484624 
996	 0.208470323164954 
997	 0.208921324427592 
998	 0.209428913553513 
999	 0.21003213920384 
1000	 0.210558785045933 
1001	 0.216738555017223 
1002	 0.21725091663642 
1003	 0.217785533471693 
1004	 0.218320328369835 
1005	 0.218872914568389 
1006	 0.219416035699203 
1007	 0.219956362273904 
1008	 0.220501182947296 
1009	 0.221025408896083 
1010	 0.221596768984181 
1011	 0.22219340388466 
1012	 0.222784927763958 
1013	 0.223412112718609 
1014	 0.224028731450843 
1015	 0.224634084499928 
1016	 0.22523341003376 
1017	 0.225888949920113 
1018	 0.22649994841771 
1019	 0.227104005998448 
1020	 0.227709239447205 
1021	 0.228305405345519 
1022	 0.228877581611152 
1023	 0.229478021556427 
1024	 0.230080885492517 
1025	 0.230707340532172 
1026	 0.231326280096228 
1027	 0.231969257019553 
1028	 0.232630465047736 
1029	 0.23335482529737 
1030	 0.234009687161116 
1031	 0.234699303315428 
1032	 0.235354284578252 
1033	 0.235915723456307 
1034	 0.236565357079857 
1035	 0.23724865069539 
1036	 0.237934483507419 
1037	 0.238690052225386 
1038	 0.23938433369931 
1039	 0.240038982890953 
1040	 0.240724867552559 
1041	 0.241369999447732 
1042	 0.242087269636017 
1043	 0.242854841447662 
1044	 0.243631164412902 
1045	 0.244436025994917 
1046	 0.245217685605094 
1047	 0.245922659744518 
1048	 0.24665433770643 
1049	 0.247372553389277 
1050	 0.24812938837071 
1051	 0.248987649481305 
1052	 0.249785579525726 
1053	 0.250618075773648 
1054	 0.25151944050233 
1055	 0.25235254188465 
1056	 0.253144704968815 
1057	 0.253986477514848 
1058	 0.254825963352993 
1059	 0.255613663741128 
1060	 0.256521703443707 
1061	 0.257411119869558 
1062	 0.258311445783119 
1063	 0.259259563139676 
1064	 0.260101390794015 
1065	 0.260938274524225 
1066	 0.261790667020432 
1067	 0.262658374533218 
1068	 0.263600154869212 
1069	 0.264506500267491 
1070	 0.265415479752168 
1071	 0.266326699885238 
1072	 0.267221873654324 
1073	 0.268089922713754 
1074	 0.269023613000664 
1075	 0.269945185398903 
1076	 0.270865521665986 
1077	 0.271830723573109 
1078	 0.272751162283758 
1079	 0.273702228196597 
1080	 0.274670626304952 
1081	 0.27555133490162 
1082	 0.276458381657073 
1083	 0.277378389706828 
1084	 0.278246653638033 
1085	 0.279167850258166 
1086	 0.280103176579131 
1087	 0.281058930274499 
1088	 0.282014093330132 
1089	 0.282986477494727 
1090	 0.28390801894073 
1091	 0.284836426757823 
1092	 0.285760094839286 
1093	 0.286687155809875 
1094	 0.287670704073476 
1095	 0.288602241283742 
1096	 0.289551080522646 
1097	 0.290512572791717 
1098	 0.291392856891434 
1099	 0.292308640649244 
1100	 0.293206494812292 
1101	 0.294100154703834 
1102	 0.295063085321719 
1103	 0.296003394465389 
1104	 0.296942524103609 
1105	 0.297931045455431 
1106	 0.298911777023712 
1107	 0.299824518518052 
1108	 0.300787602857491 
1109	 0.301705014232115 
1110	 0.3026089929063 
1111	 0.303551176517844 
1112	 0.304436263885708 
1113	 0.305367333394198 
1114	 0.306328024231745 
1115	 0.307234486179894 
1116	 0.308167383387679 
1117	 0.309084978460907 
1118	 0.310002959687514 
1119	 0.310911988011062 
1120	 0.311821218108828 
1121	 0.312732738565059 
1122	 0.313645215247034 
1123	 0.314558474580578 
1124	 0.31540902014763 
1125	 0.316286154267259 
1126	 0.317167409050096 
1127	 0.318020258900924 
1128	 0.318918509717157 
1129	 0.319791657490046 
1130	 0.320659417548683 
1131	 0.321535816969284 
1132	 0.322333458595972 
1133	 0.323145925590191 
1134	 0.323953032100627 
1135	 0.324746718707505 
1136	 0.325522776576054 
1137	 0.326317285241001 
1138	 0.327111300005848 
1139	 0.327906936771993 
1140	 0.328723213358614 
1141	 0.329489364590969 
1142	 0.330268800042528 
1143	 0.331016181317273 
1144	 0.331725979856465 
1145	 0.332476279468801 
1146	 0.333205087594479 
1147	 0.333934606544354 
1148	 0.334692815441693 
1149	 0.335410359640242 
1150	 0.336103451148876 
1151	 0.336774073016302 
1152	 0.337459613725228 
1153	 0.338144778387603 
1154	 0.338817707250079 
1155	 0.339497928692116 
1156	 0.340169661456545 
1157	 0.340814458135496 
1158	 0.341454426341216 
1159	 0.342103320141988 
1160	 0.342737683941126 
1161	 0.343343970182718 
1162	 0.343965387265689 
1163	 0.344555836583769 
1164	 0.345157713989735 
1165	 0.345754694112397 
1166	 0.346299761068485 
1167	 0.346862652637226 
1168	 0.347419987605263 
1169	 0.347982204191788 
1170	 0.348564646115923 
1171	 0.349114262874643 
1172	 0.349645955794766 
1173	 0.350184159243665 
1174	 0.350705449728001 
1175	 0.351219611761684 
1176	 0.351742342954983 
1177	 0.352247688369006 
1178	 0.352721049474767 
1179	 0.353225594442413 
1180	 0.353706669870448 
1181	 0.354189984000465 
1182	 0.354686763172565 
1183	 0.35514465990584 
1184	 0.355614583521499 
1185	 0.356093662101684 
1186	 0.356561893468302 
1187	 0.357016973444305 
1188	 0.357489495513562 
1189	 0.357964130220108 
1190	 0.358448527257577 
1191	 0.358943351791923 
1192	 0.359434378670568 
1193	 0.359921725283108 
1194	 0.360423442098662 
1195	 0.360945077373062 
1196	 0.361457494022523 
1197	 0.36195579102092 
1198	 0.362488250174654 
1199	 0.363050230196871 
1200	 0.363577124210054 
1201	 0.364149763159285 
1202	 0.364721405043971 
1203	 0.36528078652213 
1204	 0.36588890589021 
1205	 0.366494623706673 
1206	 0.367112970309919 
1207	 0.367768154439392 
1208	 0.368431541030408 
1209	 0.369119505270229 
1210	 0.369842317604583 
1211	 0.370588370923344 
1212	 0.371352522497477 
1213	 0.372153126465177 
1214	 0.372996296593353 
1215	 0.373850938704015 
1216	 0.374740855180986 
1217	 0.375616319002606 
1218	 0.376508942351288 
1219	 0.377397981614259 
1220	 0.378265944337972 
1221	 0.379181061985813 
1222	 0.380050903033596 
1223	 0.380941615268752 
1224	 0.381816718806225 
1225	 0.382678688042449 
1226	 0.383521644262131 
1227	 0.384370409997111 
1228	 0.385183065871956 
1229	 0.385971420201725 
1230	 0.386746715860671 
1231	 0.387504233921309 
1232	 0.388242178584392 
1233	 0.388962471245151 
1234	 0.389649713088868 
1235	 0.390297400288136 
1236	 0.390951802715394 
1237	 0.391590066643655 
1238	 0.392219952675235 
1239	 0.392841672870484 
1240	 0.393467099697319 
1241	 0.394093707743907 
1242	 0.394653199540608 
1243	 0.395212361541294 
1244	 0.395757897874116 
1245	 0.39628995896738 
1246	 0.396792983873071 
1247	 0.397300237970311 
1248	 0.39780578948881 
1249	 0.398298228250754 
1250	 0.398775364480641 
1251	 0.399249157923237 
1252	 0.399723349497605 
1253	 0.400179232867611 
1254	 0.400628230637795 
1255	 0.401061225063851 
1256	 0.401467186582871 
1257	 0.401882399156095 
1258	 0.40229728243038 
1259	 0.402698437460227 
1260	 0.403087274431923 
1261	 0.403485170599084 
1262	 0.403876288799321 
1263	 0.40426829662654 
1264	 0.404660602755297 
1265	 0.405061895381767 
1266	 0.405463620604438 
1267	 0.40586404942483 
1268	 0.406255777433919 
1269	 0.406649330537632 
1270	 0.407042711710906 
1271	 0.40742844255526 
1272	 0.407809208199765 
1273	 0.408184187966783 
1274	 0.408576113847054 
1275	 0.408966405344002 
1276	 0.409354519003927 
1277	 0.409756632752429 
1278	 0.410155575036097 
1279	 0.410542531144132 
1280	 0.410934212509931 
1281	 0.411322596218622 
1282	 0.411729942357924 
1283	 0.412149647889922 
1284	 0.412560856575418 
1285	 0.412975305661642 
1286	 0.413407258455512 
1287	 0.413823372035333 
1288	 0.414234249758854 
1289	 0.414622322136919 
1290	 0.414997081274109 
1291	 0.415381460210413 
1292	 0.415747051931574 
1293	 0.416118568583759 
1294	 0.416508765194005 
1295	 0.416878685046048 
1296	 0.417232230195435 
1297	 0.417582637782665 
1298	 0.417925721737993 
1299	 0.418271192813578 
1300	 0.418606190542294 
1301	 0.41894560226742 
1302	 0.419304007091645 
1303	 0.41963576299186 
1304	 0.41996188175254 
1305	 0.420267959759408 
1306	 0.420530111243721 
1307	 0.420818194569671 
1308	 0.421102645182816 
1309	 0.421400525436532 
1310	 0.421687945745422 
1311	 0.42199038030246 
1312	 0.422274030666965 
1313	 0.422544071785441 
1314	 0.422809669732862 
1315	 0.423078487858956 
1316	 0.423326528455213 
1317	 0.423560683233752 
1318	 0.423783092997736 
1319	 0.423984012090277 
1320	 0.424197095514931 
1321	 0.424399596688981 
1322	 0.424610769067241 
1323	 0.424845067311151 
1324	 0.425048841200897 
1325	 0.425235044218175 
1326	 0.425425416897535 
1327	 0.425607740354392 
1328	 0.425780804973005 
1329	 0.425964254888269 
1330	 0.426122731894638 
1331	 0.426248176330233 
1332	 0.426383170181807 
1333	 0.426520857286225 
1334	 0.426642734537469 
1335	 0.426750727797616 
1336	 0.426857223911388 
1337	 0.426946918109112 
1338	 0.427011056189838 
1339	 0.427082693177413 
1340	 0.42715467758602 
1341	 0.427215575255091 
1342	 0.427264783002658 
1343	 0.427319526437991 
1344	 0.427382560379247 
1345	 0.427417861762382 
1346	 0.427454383058847 
1347	 0.427457774366018 
1348	 0.427427302168448 
1349	 0.427396468992749 
1350	 0.42734448279931 
1351	 0.427295645374705 
1352	 0.427240731710285 
1353	 0.427182629348704 
1354	 0.427114580987983 
1355	 0.427055451411998 
1356	 0.426997994087988 
1357	 0.426939782766475 
1358	 0.426895102227424 
1359	 0.426834791776264 
1360	 0.426764412566011 
1361	 0.426691238706171 
1362	 0.426617644859025 
1363	 0.426534161990236 
1364	 0.426433767402435 
1365	 0.426333434479104 
1366	 0.426199791645973 
1367	 0.426034923796633 
1368	 0.425877220696592 
1369	 0.425708392972455 
1370	 0.42552961823192 
1371	 0.425350995407131 
1372	 0.425151163936479 
1373	 0.424938733242669 
1374	 0.424703825074788 
1375	 0.424448615321722 
1376	 0.424184194693567 
1377	 0.423899950405237 
1378	 0.423603673540294 
1379	 0.423294798090639 
1380	 0.42297813943224 
1381	 0.422652374038945 
1382	 0.422306139034156 
1383	 0.421929168089065 
1384	 0.421574092248437 
1385	 0.421208793292992 
1386	 0.420854267129733 
1387	 0.42051758198351 
1388	 0.420188368200432 
1389	 0.419854923780571 
1390	 0.41953537483224 
1391	 0.419251415587032 
1392	 0.418945173864733 
1393	 0.418632026421631 
1394	 0.418303677475632 
1395	 0.417930621392 
1396	 0.417527668423794 
1397	 0.41709508489318 
1398	 0.41664528339298 
1399	 0.416126049194368 
1400	 0.41557077982179 
1401	 0.414952597650746 
1402	 0.414270201632908 
1403	 0.413545720655051 
1404	 0.412761904769512 
1405	 0.411969656363381 
1406	 0.411115293017456 
1407	 0.41028634214385 
1408	 0.40942398510749 
1409	 0.408610867974621 
1410	 0.407789832483005 
1411	 0.407033699856042 
1412	 0.406302017367656 
1413	 0.405649505794775 
1414	 0.405046316537229 
1415	 0.404509812733652 
1416	 0.404047463095511 
1417	 0.403629494895901 
1418	 0.403281213913454 
1419	 0.402957410556144 
1420	 0.402688002125409 
1421	 0.402439667715529 
1422	 0.402228046533892 
1423	 0.402029219000668 
1424	 0.40185199742359 
1425	 0.401695065479258 
1426	 0.401570803501864 
1427	 0.401459094308311 
1428	 0.401378936713551 
1429	 0.401332871080284 
1430	 0.401312938777368 
1431	 0.401308713732438 
1432	 0.401358064262534 
1433	 0.40146280815779 
1434	 0.401557002082516 
1435	 0.401686261172249 
1436	 0.401804368310579 
1437	 0.401917002364674 
1438	 0.402047395971726 
1439	 0.402195329116228 
1440	 0.402340987568431 
1441	 0.402484119195046 
1442	 0.402652564489318 
1443	 0.402824165294269 
1444	 0.403025172240546 
1445	 0.403257165835976 
1446	 0.403492525172347 
1447	 0.403743675910129 
1448	 0.404004932630098 
1449	 0.404278146436536 
1450	 0.40456202413504 
1451	 0.404871511554167 
1452	 0.405167900506237 
1453	 0.405470825798038 
1454	 0.40576308962799 
1455	 0.406052160691395 
1456	 0.406328349104574 
1457	 0.406604125922452 
1458	 0.406861118195898 
1459	 0.407085838780711 
1460	 0.407326994284066 
1461	 0.407555089066699 
1462	 0.407796808408193 
1463	 0.408059073498243 
1464	 0.408315824789273 
1465	 0.408563100856754 
1466	 0.408837646846016 
1467	 0.409107403159899 
1468	 0.409355818659016 
1469	 0.409611840423303 
1470	 0.40986343950584 
1471	 0.410100315619084 
1472	 0.41032382852987 
1473	 0.410555902486609 
1474	 0.410780621490533 
1475	 0.411007302089016 
1476	 0.411237480765307 
1477	 0.41146713003052 
1478	 0.411690744487357 
1479	 0.411921137018679 
1480	 0.412164027225185 
1481	 0.412389578292135 
1482	 0.412608435366357 
1483	 0.412826370813318 
1484	 0.413040751880384 
1485	 0.41324475533155 
1486	 0.413447128598254 
1487	 0.413637370203373 
1488	 0.413809279710545 
1489	 0.413986649785424 
1490	 0.414158249847417 
1491	 0.414335201377795 
1492	 0.414509775667995 
1493	 0.414690985108307 
1494	 0.41487192720066 
1495	 0.415064745630233 
1496	 0.41527018689453 
1497	 0.415471428761277 
1498	 0.415674623370162 
1499	 0.415886690764921 
1500	 0.416098705317856 
1501	 0.416317810034155 
1502	 0.416551539567037 
1503	 0.416782111969589 
1504	 0.417014287058035 
1505	 0.417246498256212 
1506	 0.417483956230499 
1507	 0.417716299368954 
1508	 0.417936912580851 
1509	 0.41817157335873 
1510	 0.418415222661181 
1511	 0.418653751001623 
1512	 0.418901432626737 
1513	 0.4191438759527 
1514	 0.419379934507065 
1515	 0.419614635240216 
1516	 0.419851801148234 
1517	 0.420082243376574 
1518	 0.420294204413878 
1519	 0.420521526984477 
1520	 0.42075009929168 
1521	 0.420991024039376 
1522	 0.421231335653681 
1523	 0.421482522932588 
1524	 0.421709579163361 
1525	 0.421922355380418 
1526	 0.422142822297711 
1527	 0.422347510659941 
1528	 0.422585598352389 
1529	 0.422840138184138 
1530	 0.423092225794207 
1531	 0.423362816833122 
1532	 0.423618437563386 
1533	 0.423864844090584 
1534	 0.424123513188504 
1535	 0.424384323863383 
1536	 0.424649258789273 
1537	 0.424930560082752 
1538	 0.425183279832815 
1539	 0.425429031322914 
1540	 0.42566585215061 
1541	 0.425885959911445 
1542	 0.426101930816431 
1543	 0.426322009127192 
1544	 0.426511376145294 
1545	 0.426669040177869 
1546	 0.426846829750411 
1547	 0.427021394483554 
1548	 0.4271833934274 
1549	 0.427351000802796 
1550	 0.42750521284161 
1551	 0.427638330444417 
1552	 0.427773159850297 
1553	 0.427907293532319 
1554	 0.428038976707251 
1555	 0.428159237971854 
1556	 0.428284379505217 
1557	 0.428415090952045 
1558	 0.428540595035402 
1559	 0.428652775207851 
1560	 0.428785124035203 
1561	 0.428928851978324 
1562	 0.429068817849375 
1563	 0.429213060285762 
1564	 0.429366483685236 
1565	 0.429522422978998 
1566	 0.429680292458459 
1567	 0.429856447572869 
1568	 0.430017291384373 
1569	 0.430157696166453 
1570	 0.430321906884258 
1571	 0.430501882999234 
1572	 0.430667642216251 
1573	 0.430834668037884 
1574	 0.431007823474794 
1575	 0.431168043282666 
1576	 0.431343287748179 
1577	 0.431548924029741 
1578	 0.431728375942537 
1579	 0.431899259379087 
1580	 0.432064498585812 
1581	 0.432206289375759 
1582	 0.432367747804333 
1583	 0.43254351027724 
1584	 0.432704747525622 
1585	 0.432871271884185 
1586	 0.433026626239483 
1587	 0.433161693829722 
1588	 0.433305106549864 
1589	 0.43343664043736 
1590	 0.4335939040535 
1591	 0.433771823062116 
1592	 0.4339392838976 
1593	 0.434126399804946 
1594	 0.434296380838868 
1595	 0.434455112647059 
1596	 0.434603529747942 
1597	 0.434742715341954 
1598	 0.434879046885591 
1599	 0.435000189809488 
1600	 0.435123759534883 
1601	 0.435234485518123 
1602	 0.435367328112711 
1603	 0.435516138039306 
1604	 0.435655891484177 
1605	 0.435818416903685 
1606	 0.435956239531135 
1607	 0.436075649702159 
1608	 0.436188517089048 
1609	 0.436276177325673 
1610	 0.436384670505422 
1611	 0.436499199694078 
1612	 0.43660662163681 
1613	 0.436739149530748 
1614	 0.436838385872112 
1615	 0.436905998168821 
1616	 0.436980917361659 
1617	 0.437045822646245 
1618	 0.437106552935487 
1619	 0.437168913723095 
1620	 0.437223932356282 
1621	 0.43726401648908 
1622	 0.437306354932998 
1623	 0.437344384029675 
1624	 0.437386077074901 
1625	 0.437436085712847 
1626	 0.43747467874452 
1627	 0.43751095010153 
1628	 0.437543118014819 
1629	 0.437567297496931 
1630	 0.437584526422575 
1631	 0.437590720476245 
1632	 0.437604627380057 
1633	 0.43761338356513 
1634	 0.437625586234329 
1635	 0.437649712903045 
1636	 0.437668500038406 
1637	 0.437690001715565 
1638	 0.437696765949896 
1639	 0.437699462264334 
1640	 0.437691864571576 
1641	 0.437669528543408 
1642	 0.437642599832161 
1643	 0.437607835821972 
1644	 0.437567621874492 
1645	 0.437525748676377 
1646	 0.437468071982021 
1647	 0.43739572595554 
1648	 0.437322817662411 
1649	 0.437242115260972 
1650	 0.437152141098532 
1651	 0.437060479830116 
1652	 0.436956908087411 
1653	 0.436853948251355 
1654	 0.436714454383763 
1655	 0.436565480045644 
1656	 0.436376311409837 
1657	 0.43613878820587 
1658	 0.435887741912389 
1659	 0.435617731582337 
1660	 0.435319875003614 
1661	 0.434997643735341 
1662	 0.434652343856377 
1663	 0.434292650548503 
1664	 0.433874122144103 
1665	 0.433427664171175 
1666	 0.432923267833843 
1667	 0.432358322309118 
1668	 0.431756362395158 
1669	 0.431124440633401 
1670	 0.430424573015907 
1671	 0.429651609001815 
1672	 0.428850740553647 
1673	 0.428011420263814 
1674	 0.427099713785526 
1675	 0.426136842528809 
1676	 0.42514713574583 
1677	 0.424102126088982 
1678	 0.423006968924129 
1679	 0.421867563728143 
1680	 0.420684796972577 
1681	 0.41943375189568 
1682	 0.41815446091004 
1683	 0.41685935902646 
1684	 0.415524653718187 
1685	 0.414143187908496 
1686	 0.412715867089978 
1687	 0.411229854162812 
1688	 0.40972592724842 
1689	 0.408180753292749 
1690	 0.406604246048685 
1691	 0.405009547562005 
1692	 0.40340493068984 
1693	 0.401781976083993 
1694	 0.400100878781543 
1695	 0.398379063244374 
1696	 0.396629398006945 
1697	 0.394817064058626 
1698	 0.392988198980738 
1699	 0.391143263719359 
1700	 0.389335300169054 
1701	 0.387461303008421 
1702	 0.385720509681228 
1703	 0.384008852085838 
1704	 0.382431512994403 
1705	 0.380940365884319 
1706	 0.379532990136478 
1707	 0.378319101027915 
1708	 0.377185244786632 
1709	 0.376141605731694 
1710	 0.375199831755712 
1711	 0.374257712822351 
1712	 0.373374723384146 
1713	 0.372514888275487 
1714	 0.371640930798275 
1715	 0.370841576234658 
1716	 0.370043313576733 
1717	 0.369254207398372 
1718	 0.368506483834614 
1719	 0.36777142987871 
1720	 0.367089662014226 
1721	 0.366498756371663 
1722	 0.366023801087514 
1723	 0.365688965931694 
1724	 0.365469282608214 
1725	 0.36539798725143 
1726	 0.365540749381921 
1727	 0.365833316770695 
1728	 0.366281283636868 
1729	 0.366902694025983 
1730	 0.367625744274919 
1731	 0.368434977090263 
1732	 0.369374153857751 
1733	 0.370303957497565 
1734	 0.371236314304439 
1735	 0.37217697342359 
1736	 0.372993122776474 
1737	 0.37373855073033 
1738	 0.374353297372687 
1739	 0.374831640600689 
1740	 0.375182087287379 
1741	 0.375440547944931 
1742	 0.375538677445769 
1743	 0.375626053046285 
1744	 0.37563071792567 
1745	 0.375618567502555 
1746	 0.375536344712581 
1747	 0.375480257775674 
1748	 0.375377460127748 
1749	 0.375344258839486 
1750	 0.375316553344242 
1751	 0.375385313349693 
1752	 0.37550522058788 
1753	 0.375716545543829 
1754	 0.376007682716229 
1755	 0.376385010157475 
1756	 0.376837880577937 
1757	 0.377384755380512 
1758	 0.378044149045131 
1759	 0.378796824082394 
1760	 0.379659108914218 
1761	 0.380613373169831 
1762	 0.381594303945535 
1763	 0.382684515717968 
1764	 0.383825736542105 
1765	 0.385019118615294 
1766	 0.386337374182389 
1767	 0.38761169783486 
1768	 0.38887063289275 
1769	 0.39012858162431 
1770	 0.391275758801363 
1771	 0.392411763305304 
1772	 0.393523871322752 
1773	 0.39453849905782 
1774	 0.395504094710783 
1775	 0.396368337990506 
1776	 0.397183100731891 
1777	 0.397948466791525 
1778	 0.398622636047378 
1779	 0.399274455543431 
1780	 0.399825979799531 
1781	 0.400301062394675 
1782	 0.400769293239437 
1783	 0.401175143529482 
1784	 0.401538499926403 
1785	 0.401822865161992 
1786	 0.402107038596441 
1787	 0.402359193114544 
1788	 0.402591064143507 
1789	 0.402804918065318 
1790	 0.403015227836198 
1791	 0.403190926106716 
1792	 0.403384552351324 
1793	 0.403589739853659 
1794	 0.403755963298517 
1795	 0.403934058333902 
1796	 0.404106212363052 
1797	 0.40428989377079 
1798	 0.404484378216554 
1799	 0.404656892630284 
1800	 0.404812569863318 
1801	 0.403816441666921 
1802	 0.404052207931251 
1803	 0.404277888666074 
1804	 0.404500183185655 
1805	 0.404750068102587 
1806	 0.404963882314485 
1807	 0.405147908377775 
1808	 0.405359338212935 
1809	 0.405564308628061 
1810	 0.405778200476511 
1811	 0.406007376806793 
1812	 0.406237994099177 
1813	 0.406459906325317 
1814	 0.406711833056941 
1815	 0.406971715344672 
1816	 0.407222369287513 
1817	 0.407480002927233 
1818	 0.407740756894803 
1819	 0.408006546350323 
1820	 0.408279719534364 
1821	 0.40854843348841 
1822	 0.408807273333518 
1823	 0.409091701714711 
1824	 0.409387849453671 
1825	 0.40968112287055 
1826	 0.40995822856079 
1827	 0.410244435385375 
1828	 0.410507625378595 
1829	 0.410744444656996 
1830	 0.410985425635697 
1831	 0.411219602617567 
1832	 0.411463736245586 
1833	 0.411688527011208 
1834	 0.411914113994634 
1835	 0.412155549711077 
1836	 0.412385848139603 
1837	 0.412622643087877 
1838	 0.412864975900202 
1839	 0.413102079069749 
1840	 0.413346816800884 
1841	 0.413577388943138 
1842	 0.413794807975831 
1843	 0.414016837189172 
1844	 0.414257184791242 
1845	 0.41447316360909 
1846	 0.414683711560044 
1847	 0.414889283857931 
1848	 0.415077029677768 
1849	 0.415252311318936 
1850	 0.415403024289328 
1851	 0.415542503159764 
1852	 0.415658111011281 
1853	 0.415756271267113 
1854	 0.415811711059415 
1855	 0.415863769754156 
1856	 0.415923604833386 
1857	 0.415957563005211 
1858	 0.415975679184624 
1859	 0.415956353206377 
1860	 0.415916486276949 
1861	 0.415832997455837 
1862	 0.415712392544505 
1863	 0.415569318354015 
1864	 0.415368329959828 
1865	 0.415146005558043 
1866	 0.414903533488762 
1867	 0.414594008613926 
1868	 0.414266896581508 
1869	 0.413899866921634 
1870	 0.413474077278623 
1871	 0.412996758962423 
1872	 0.412481255013805 
1873	 0.411922288096184 
1874	 0.411325102819775 
1875	 0.410682334377682 
1876	 0.409924052210863 
1877	 0.409138967164277 
1878	 0.408243292984316 
1879	 0.407219681488371 
1880	 0.406185571855734 
1881	 0.405012686841573 
1882	 0.403717690721208 
1883	 0.40233825640533 
1884	 0.400852830278962 
1885	 0.399136414792829 
1886	 0.397340027825742 
1887	 0.395357596331595 
1888	 0.393167517685464 
1889	 0.391024441137052 
1890	 0.388719084438441 
1891	 0.386373413755873 
1892	 0.384011203883867 
1893	 0.381540318283182 
1894	 0.378919541592283 
1895	 0.376374857138436 
1896	 0.373773696243538 
1897	 0.371170692153413 
1898	 0.368799309933883 
1899	 0.366387025754551 
1900	 0.36404763653865 
1901	 0.361845440563896 
1902	 0.359536173663604 
1903	 0.357344914223327 
1904	 0.355248515343561 
1905	 0.353202918760136 
1906	 0.351236625802237 
1907	 0.349517402649654 
1908	 0.347844771471259 
1909	 0.346265486377524 
1910	 0.344802402501525 
1911	 0.34331630828556 
1912	 0.341970699604555 
1913	 0.340704073146337 
1914	 0.339473375692716 
1915	 0.338356677719393 
1916	 0.337373138860672 
1917	 0.336386784118277 
1918	 0.335471052333719 
1919	 0.334650166435756 
1920	 0.333819522007271 
1921	 0.333090264720639 
1922	 0.332430819190937 
1923	 0.331825354143776 
1924	 0.331328739386173 
1925	 0.330858089556104 
1926	 0.330419371126283 
1927	 0.330018947288878 
1928	 0.329661753191641 
1929	 0.329335026482376 
1930	 0.329061744949208 
1931	 0.328841647869362 
1932	 0.328649622559499 
1933	 0.328494046687198 
1934	 0.328386542704755 
1935	 0.328308617605868 
1936	 0.328292169468086 
1937	 0.328328050758581 
1938	 0.328420829968595 
1939	 0.328543838912626 
1940	 0.328723615330459 
1941	 0.328928585360776 
1942	 0.329140726551253 
1943	 0.329415166324835 
1944	 0.329703239356122 
1945	 0.330020302447542 
1946	 0.330409961881359 
1947	 0.330807605379377 
1948	 0.331244083640018 
1949	 0.331744513390997 
1950	 0.332241301603514 
1951	 0.332758371323994 
1952	 0.333291486466297 
1953	 0.333846515770027 
1954	 0.334402281002828 
1955	 0.334988941194369 
1956	 0.335571878200949 
1957	 0.336167444458904 
1958	 0.336748800547317 
1959	 0.33727991239906 
1960	 0.337821348768838 
1961	 0.33834955019912 
1962	 0.338845806623765 
1963	 0.339358432532302 
1964	 0.339876976005829 
1965	 0.340385214628819 
1966	 0.340892249200649 
1967	 0.341410025097528 
1968	 0.341882063448668 
1969	 0.342339004896126 
1970	 0.342790069679638 
1971	 0.343245583385979 
1972	 0.343745014506521 
1973	 0.344251197006987 
1974	 0.344739415443971 
1975	 0.345238030893475 
1976	 0.345712506050044 
1977	 0.346159302381386 
1978	 0.346618700871402 
1979	 0.347075143394174 
1980	 0.347526235743557 
1981	 0.348002298727144 
1982	 0.348445622869287 
1983	 0.348902202774837 
1984	 0.349360205361057 
1985	 0.349771079081105 
1986	 0.350202536971712 
1987	 0.350630358568709 
1988	 0.351043933541237 
1989	 0.351473354369799 
1990	 0.351922626495756 
1991	 0.352351860951431 
1992	 0.352783448193594 
1993	 0.353207997445078 
1994	 0.353600935885866 
1995	 0.353991528424907 
1996	 0.354364095293728 
1997	 0.354728645575775 
1998	 0.355102579112197 
1999	 0.35547571766768 
2000	 0.355844266618394 
2001	 0.356231673407259 
2002	 0.356582273520075 
2003	 0.356916836806905 
2004	 0.35724346948447 
2005	 0.357545831740243 
2006	 0.357840101058286 
2007	 0.358143248592916 
2008	 0.358408835532593 
2009	 0.358624356862477 
2010	 0.358842691383008 
2011	 0.359033551433182 
2012	 0.359189508426502 
2013	 0.359315496167087 
2014	 0.359431330392047 
2015	 0.359495830542904 
2016	 0.359509292025771 
2017	 0.359501847471296 
2018	 0.359470441219759 
2019	 0.359396255522478 
2020	 0.359292473995556 
2021	 0.359135868784742 
2022	 0.358949747217711 
2023	 0.358732862951203 
2024	 0.358454237896162 
2025	 0.358150177498116 
2026	 0.357796969347334 
2027	 0.357367539681629 
2028	 0.35695610921314 
2029	 0.356495371699107 
2030	 0.356070889618978 
2031	 0.355667057859219 
2032	 0.355240966799452 
2033	 0.354793938607513 
2034	 0.35438369543562 
2035	 0.353957518113482 
2036	 0.353553665226366 
2037	 0.353240139677091 
2038	 0.352954570978328 
2039	 0.352722433777334 
2040	 0.35254678975844 
2041	 0.352411908010724 
2042	 0.35231526186803 
2043	 0.352276620681918 
2044	 0.352309886941259 
2045	 0.352346206121486 
2046	 0.352439218044486 
2047	 0.352531674421629 
2048	 0.352615756777812 
2049	 0.352751182921858 
2050	 0.352927048592432 
2051	 0.353114562678431 
2052	 0.353345418232286 
2053	 0.353600936562161 
2054	 0.353846235689237 
2055	 0.354098558009536 
2056	 0.354362142643798 
2057	 0.354621804061774 
2058	 0.354912951424238 
2059	 0.3552327548395 
2060	 0.355545087179223 
2061	 0.355891080598615 
2062	 0.356205955817114 
2063	 0.356505233613599 
2064	 0.356803639013377 
2065	 0.357089398999611 
2066	 0.357366862592485 
2067	 0.357664413349366 
2068	 0.357972707087588 
2069	 0.358265929795827 
2070	 0.35857693957104 
2071	 0.35884491855157 
2072	 0.359087315053092 
2073	 0.359321683486898 
2074	 0.359538379348654 
2075	 0.359739064921615 
2076	 0.359911645690086 
2077	 0.360096668997333 
2078	 0.360283697188192 
2079	 0.360449280126324 
2080	 0.360622446481216 
2081	 0.360768091435495 
2082	 0.360894397682598 
2083	 0.360984391219976 
2084	 0.36105951316166 
2085	 0.361126052618493 
2086	 0.361174196706175 
2087	 0.361196401852002 
2088	 0.361216282713805 
2089	 0.361226885718228 
2090	 0.361225549825087 
2091	 0.361218482860204 
2092	 0.361187348866849 
2093	 0.36114229989953 
2094	 0.361076603029634 
2095	 0.360972344140873 
2096	 0.360882070681716 
2097	 0.360790057660077 
2098	 0.360685863685651 
2099	 0.360583436527954 
2100	 0.36045593797848 
2101	 0.36030744416784 
2102	 0.360125443495357 
2103	 0.359956257120589 
2104	 0.359784237871465 
2105	 0.359587316204201 
2106	 0.359389961424729 
2107	 0.359158129413013 
2108	 0.358903553557407 
2109	 0.358618688454833 
2110	 0.358301685674091 
2111	 0.357974389957451 
2112	 0.357607705785738 
2113	 0.357244178354727 
2114	 0.356881706205626 
2115	 0.356495227645982 
2116	 0.356096574452083 
2117	 0.355679254212612 
2118	 0.3552482112999 
2119	 0.354788402803866 
2120	 0.354355371079939 
2121	 0.353914609217482 
2122	 0.353486242453637 
2123	 0.353082697370817 
2124	 0.352648359982258 
2125	 0.352220597478444 
2126	 0.351753477769993 
2127	 0.351231384115682 
2128	 0.350755145121514 
2129	 0.350258949839535 
2130	 0.349797313456692 
2131	 0.349395220871374 
2132	 0.34896307154744 
2133	 0.348526659093258 
2134	 0.348094592000921 
2135	 0.347631600531645 
2136	 0.347200291880328 
2137	 0.346759352718223 
2138	 0.346305184933709 
2139	 0.345888028812601 
2140	 0.3454930965892 
2141	 0.345087307385467 
2142	 0.344689647281274 
2143	 0.344313253973058 
2144	 0.34394013588668 
2145	 0.343578546311251 
2146	 0.343240845024054 
2147	 0.342910057522791 
2148	 0.342578418683297 
2149	 0.342259805910926 
2150	 0.341975673377496 
2151	 0.341675879533949 
2152	 0.3413585218133 
2153	 0.341068745384758 
2154	 0.340780222248992 
2155	 0.340488682613739 
2156	 0.340213058541377 
2157	 0.339964129107989 
2158	 0.339678178439337 
2159	 0.339384865787858 
2160	 0.339089315265195 
2161	 0.338770165540543 
2162	 0.338469835850912 
2163	 0.338161930025162 
2164	 0.337886502380471 
2165	 0.337623776795368 
2166	 0.337377053112352 
2167	 0.337158829039365 
2168	 0.336949120988967 
2169	 0.336747813222323 
2170	 0.336560670151962 
2171	 0.336394541327782 
2172	 0.336234013033952 
2173	 0.336075758612803 
2174	 0.335931086799829 
2175	 0.335836008357806 
2176	 0.335746916387042 
2177	 0.335689374118169 
2178	 0.335677752154117 
2179	 0.33565252149756 
2180	 0.335634106527956 
2181	 0.335633787360825 
2182	 0.335637431243821 
2183	 0.335675832494439 
2184	 0.335745699887367 
2185	 0.335812441709853 
2186	 0.335912140724864 
2187	 0.335989392464603 
2188	 0.336062778116011 
2189	 0.336132722482253 
2190	 0.336182029422557 
2191	 0.336258742212544 
2192	 0.336365152851897 
2193	 0.336438474851727 
2194	 0.336510078654327 
2195	 0.336579183148647 
2196	 0.336616374311274 
2197	 0.336667137838013 
2198	 0.33674334014239 
2199	 0.336802522831302 
2200	 0.33684264229567 
2201	 0.336870395049342 
2202	 0.33689430208476 
2203	 0.336903861508479 
2204	 0.33690410768012 
2205	 0.336890471172377 
2206	 0.336883446954586 
2207	 0.336869296233179 
2208	 0.336850883544162 
2209	 0.336846744348505 
2210	 0.336816753329604 
2211	 0.3367790043587 
2212	 0.336709086038372 
2213	 0.336616237756316 
2214	 0.336511001488715 
2215	 0.336373465457326 
2216	 0.336228958724633 
2217	 0.33609183328127 
2218	 0.335913983652713 
2219	 0.335713002553993 
2220	 0.335482344699455 
2221	 0.335226487153093 
2222	 0.334925796968672 
2223	 0.334600298010136 
2224	 0.334272201309905 
2225	 0.333906049114446 
2226	 0.33347496656703 
2227	 0.332956316829886 
2228	 0.332369106100601 
2229	 0.331715151407481 
2230	 0.330958966710466 
2231	 0.330191503399052 
2232	 0.32942082161864 
2233	 0.328490633475355 
2234	 0.327512651889601 
2235	 0.326359734137684 
2236	 0.325044755177501 
2237	 0.323645757585381 
2238	 0.322083328404235 
2239	 0.320491320071443 
2240	 0.318822735875109 
2241	 0.317050387450389 
2242	 0.315269919053501 
2243	 0.313279205846342 
2244	 0.311074680435774 
2245	 0.3088587627536 
2246	 0.306449086619558 
2247	 0.304062998601836 
2248	 0.301688387861535 
2249	 0.299226471856266 
2250	 0.29670548323023 
2251	 0.294169744461996 
2252	 0.291407659676568 
2253	 0.288715033464782 
2254	 0.285960761462055 
2255	 0.283164723470444 
2256	 0.280613135134726 
2257	 0.27801830359468 
2258	 0.27549322083152 
2259	 0.273087032434254 
2260	 0.270591030585339 
2261	 0.268063152019433 
2262	 0.265607553559882 
2263	 0.263086705733744 
2264	 0.260740071022204 
2265	 0.258538943612454 
2266	 0.256283032597651 
2267	 0.254136057839964 
2268	 0.251907081042554 
2269	 0.249605562155451 
2270	 0.247390809913939 
2271	 0.24514352964773 
2272	 0.243001403750549 
2273	 0.2409617130733 
2274	 0.238895545792189 
2275	 0.23695815926341 
2276	 0.234898389755153 
2277	 0.232768777156353 
2278	 0.230657262265242 
2279	 0.22841476600158 
2280	 0.226284504874277 
2281	 0.224277714777993 
2282	 0.222179779323416 
2283	 0.22007567464081 
2284	 0.218025163220519 
2285	 0.215771030686562 
2286	 0.213571299272983 
2287	 0.211332207523187 
2288	 0.209018346565453 
2289	 0.206887557572527 
2290	 0.204684786398423 
2291	 0.202508298385874 
2292	 0.200438304515457 
2293	 0.1982759074709 
2294	 0.196221977560324 
2295	 0.19435966346173 
2296	 0.192664852555965 
2297	 0.191241979284459 
2298	 0.190054059480397 
2299	 0.189115245321897 
2300	 0.188417982735512 
2301	 0.188006007094642 
2302	 0.187859290785284 
2303	 0.188015792498592 
2304	 0.188487838319979 
2305	 0.189207864017876 
2306	 0.190277412834173 
2307	 0.191510871990999 
2308	 0.192992792475564 
2309	 0.194698443386018 
2310	 0.196704057796293 
2311	 0.198777686987533 
2312	 0.201252950970875 
2313	 0.203468534527679 
2314	 0.205750823275557 
2315	 0.207850055678864 
2316	 0.209827916120151 
2317	 0.21164152278555 
2318	 0.213428205372411 
2319	 0.214864401358438 
2320	 0.216072272520688 
2321	 0.21702770062492 
2322	 0.217633916634859 
2323	 0.218094624012653 
2324	 0.218335266018978 
2325	 0.218373346554221 
2326	 0.218189046006795 
2327	 0.217825627738677 
2328	 0.217178201796127 
2329	 0.216444439593211 
2330	 0.215576441447369 
2331	 0.214486652452358 
2332	 0.213286386306762 
2333	 0.211929684986769 
2334	 0.210309874472306 
2335	 0.208668509675746 
2336	 0.20696666330927 
2337	 0.205215838339973 
2338	 0.203547233611469 
2339	 0.201836747664243 
2340	 0.200227454427523 
2341	 0.198723710668808 
2342	 0.197344813112142 
2343	 0.196293337663084 
2344	 0.195492676180165 
2345	 0.19504085943931 
2346	 0.194984142977219 
2347	 0.195294011683369 
2348	 0.19587752549227 
2349	 0.196830734577464 
2350	 0.198127370569917 
2351	 0.199604146894715 
2352	 0.201226654477361 
2353	 0.202926177809482 
2354	 0.204498499529177 
2355	 0.20595615620303 
2356	 0.207317870160988 
2357	 0.20846496718301 
2358	 0.209479297687064 
2359	 0.21027600193456 
2360	 0.210887904930651 
2361	 0.211342204782959 
2362	 0.211652132059974 
2363	 0.211840982638073 
2364	 0.211930444352449 
2365	 0.212001774971329 
2366	 0.212011156633937 
2367	 0.211988066588298 
2368	 0.212018943988763 
2369	 0.212046729528685 
2370	 0.212049634510288 
2371	 0.212070687554919 
2372	 0.212083851370123 
2373	 0.21206377595018 
2374	 0.212070246095568 
2375	 0.212152728235468 
2376	 0.212223815180757 
2377	 0.212335315206868 
2378	 0.212516757268521 
2379	 0.212651195838757 
2380	 0.21277665675469 
2381	 0.212918551515186 
2382	 0.213087086827154 
2383	 0.213280756915483 
2384	 0.213409000900896 
2385	 0.213555721118879 
2386	 0.213678929297574 
2387	 0.213699111945789 
2388	 0.213813368930314 
2389	 0.214005886019185 
2390	 0.214122271966366 
2391	 0.214203600673018 
2392	 0.214270996593591 
2393	 0.214338828220968 
2394	 0.214404745618012 
2395	 0.214428840964462 
2396	 0.214526220341589 
2397	 0.214656020782517 
2398	 0.214734750141804 
2399	 0.214850055535506 
2400	 0.214945546420727 
2401	 0.214982281934543 
2402	 0.215049842743867 
2403	 0.215110020406953 
2404	 0.21505116734125 
2405	 0.215035556900922 
2406	 0.21511413950192 
2407	 0.215142973121951 
2408	 0.21519170164442 
2409	 0.215242690623127 
2410	 0.215139631823015 
2411	 0.215043674856219 
2412	 0.2150398499562 
2413	 0.21505030636441 
2414	 0.21504044710791 
2415	 0.215010433771611 
2416	 0.215079294901492 
2417	 0.215188319420928 
2418	 0.215212360728663 
2419	 0.215221282998488 
2420	 0.215158685219963 
2421	 0.215038140275776 
2422	 0.215063509302107 
2423	 0.21518210841645 
2424	 0.215268629979927 
2425	 0.215345693898779 
2426	 0.215285085703205 
2427	 0.215156480109252 
2428	 0.215153578481732 
2429	 0.21503792774632 
2430	 0.214933113492321 
2431	 0.215016093563595 
2432	 0.21495699311217 
2433	 0.214821314308765 
2434	 0.214625975924932 
2435	 0.214316863357612 
2436	 0.214110025097623 
2437	 0.213921650500189 
2438	 0.213766726019714 
2439	 0.213632213997977 
2440	 0.213274960125802 
2441	 0.212857800507174 
2442	 0.212532654170635 
2443	 0.212149215435109 
2444	 0.21179044232433 
2445	 0.211438096255406 
2446	 0.210998206216331 
2447	 0.210507021178151 
2448	 0.20988453086544 
2449	 0.209325838459719 
2450	 0.208886562671986 
2451	 0.208386196255899 
2452	 0.20796055392018 
2453	 0.207551044045115 
2454	 0.206907393903848 
2455	 0.206196358050857 
2456	 0.205599427589699 
2457	 0.205037478614838 
2458	 0.2045590817813 
2459	 0.204176238041904 
2460	 0.203692780216502 
2461	 0.203079689294672 
2462	 0.202495807378642 
2463	 0.20199555132234 
2464	 0.201641618227186 
2465	 0.201251081033639 
2466	 0.200760482270834 
2467	 0.200327667787833 
2468	 0.199868927686335 
2469	 0.199534250683767 
2470	 0.199324248065135 
2471	 0.198981128602394 
2472	 0.198552456943706 
2473	 0.198298827711007 
2474	 0.19804292908125 
2475	 0.197618632204203 
2476	 0.197478540090164 
2477	 0.197307277476372 
2478	 0.196939544722491 
2479	 0.196997704287955 
2480	 0.196849624775 
2481	 0.196767450307942 
2482	 0.196869035993396 
2483	 0.196683253977044 
2484	 0.196754083424201 
2485	 0.196926005178552 
2486	 0.197012759558133 
2487	 0.197081079059201 
2488	 0.196940560239682 
2489	 0.196785769657919 
2490	 0.196871219759463 
2491	 0.19718618843523 
2492	 0.197624055228285 
2493	 0.198021665166243 
2494	 0.198296254453614 
2495	 0.198482948792268 
2496	 0.198824810741866 
2497	 0.199089971488517 
2498	 0.199302125677328 
2499	 0.199704926913162 
2500	 0.19998977655222 
