Wavelength	spectrum00015.asd
350	 3.37215253004078E-02 
351	 3.32399912467524E-02 
352	 0.032879799758153 
353	 0.033350847443335 
354	 3.31025780397103E-02 
355	 3.16735469367617E-02 
356	 3.05206365717659E-02 
357	 3.04533201646822E-02 
358	 2.89198587207651E-02 
359	 2.85477173600544E-02 
360	 0.029133719691013 
361	 2.90063411411159E-02 
362	 2.75831188307521E-02 
363	 0.027270161932085 
364	 2.80954252375989E-02 
365	 2.66557348373529E-02 
366	 2.75047549065717E-02 
367	 2.83351426042121E-02 
368	 2.69844494646088E-02 
369	 2.71918053001864E-02 
370	 2.77459753434195E-02 
371	 2.80838284108257E-02 
372	 2.80436388012871E-02 
373	 2.73324098492929E-02 
374	 2.73362236414578E-02 
375	 0.028271839409972 
376	 2.85302663306439E-02 
377	 2.73333065169533E-02 
378	 2.66806457697904E-02 
379	 2.79571601616764E-02 
380	 2.78240919609431E-02 
381	 2.76651922089934E-02 
382	 2.75895899406362E-02 
383	 0.027022112961775 
384	 2.69315005589305E-02 
385	 2.70548253541237E-02 
386	 2.70625985964156E-02 
387	 2.67578379978149E-02 
388	 2.64730774080517E-02 
389	 2.61350736011511E-02 
390	 2.58134064183861E-02 
391	 2.66004060403493E-02 
392	 2.69383891109521E-02 
393	 2.67140315171773E-02 
394	 2.67911874820063E-02 
395	 2.71542897306327E-02 
396	 2.70819711395186E-02 
397	 2.65506261773152E-02 
398	 2.68507911994838E-02 
399	 2.66847457612772E-02 
400	 2.64066835734282E-02 
401	 2.66190812589056E-02 
402	 2.69026742055234E-02 
403	 0.02701731350979 
404	 2.68465423994465E-02 
405	 0.026417967001687 
406	 2.63599527517614E-02 
407	 2.65016970515567E-02 
408	 2.66047968651463E-02 
409	 2.65709856842398E-02 
410	 2.62932361876951E-02 
411	 2.61027997846877E-02 
412	 2.63035732718997E-02 
413	 2.63136385946021E-02 
414	 2.63029020735627E-02 
415	 2.63206829562104E-02 
416	 2.62833382257004E-02 
417	 2.65020736590293E-02 
418	 2.65888224861424E-02 
419	 2.63639045405044E-02 
420	 2.64039705986454E-02 
421	 2.64359266322585E-02 
422	 2.64773636891975E-02 
423	 2.66162442464816E-02 
424	 2.66079730710223E-02 
425	 2.66871883559203E-02 
426	 2.68279358226267E-02 
427	 2.66749501285625E-02 
428	 2.65802805534035E-02 
429	 0.026644992329236 
430	 2.68496858872722E-02 
431	 2.70199870168346E-02 
432	 2.71943462256839E-02 
433	 2.73420051560131E-02 
434	 2.74107031203373E-02 
435	 2.75048842158834E-02 
436	 2.76127386135194E-02 
437	 2.76974005773319E-02 
438	 2.76936731959195E-02 
439	 2.78775775153241E-02 
440	 2.81605080206367E-02 
441	 0.028343322965927 
442	 2.82383296058422E-02 
443	 2.83556111851033E-02 
444	 2.86899988414678E-02 
445	 2.88172516402852E-02 
446	 2.87830401333693E-02 
447	 2.87611714361279E-02 
448	 2.88394408790077E-02 
449	 2.88512173042375E-02 
450	 2.89876022193466E-02 
451	 2.91631694304389E-02 
452	 2.92175163649896E-02 
453	 2.92528006651115E-02 
454	 2.92307164280254E-02 
455	 2.91815836898453E-02 
456	 2.92177473201587E-02 
457	 2.93664920890435E-02 
458	 2.93969730113978E-02 
459	 2.92046219092676E-02 
460	 2.92220086006473E-02 
461	 2.92713469586886E-02 
462	 2.92533192632325E-02 
463	 2.91442119671258E-02 
464	 2.91789288564145E-02 
465	 2.92868361804633E-02 
466	 0.029347731282237 
467	 2.92144988270138E-02 
468	 2.92372690569512E-02 
469	 2.93337129245525E-02 
470	 2.93464808733752E-02 
471	 2.93933925148828E-02 
472	 2.94629731168721E-02 
473	 2.95030887059864E-02 
474	 2.94450754449383E-02 
475	 2.94246198208793E-02 
476	 2.94865478486931E-02 
477	 2.96098448374129E-02 
478	 2.96765823113708E-02 
479	 2.96840158887111E-02 
480	 2.97047806315722E-02 
481	 2.98076094209808E-02 
482	 2.97947213487477E-02 
483	 2.98955148357611E-02 
484	 3.01197071287373E-02 
485	 3.01981156868197E-02 
486	 3.03013631259709E-02 
487	 3.04064085095889E-02 
488	 3.04827001430848E-02 
489	 3.06089699910524E-02 
490	 3.07537323978275E-02 
491	 3.08934809701173E-02 
492	 3.10160111188111E-02 
493	 3.11682089366969E-02 
494	 0.031314907082604 
495	 3.14742463917033E-02 
496	 3.17826442241431E-02 
497	 0.0319320120254 
498	 3.20218215642227E-02 
499	 3.22258943916647E-02 
500	 3.24212386426981E-02 
501	 3.25807330058216E-02 
502	 3.27295757434536E-02 
503	 3.29343268604302E-02 
504	 3.32171278556707E-02 
505	 3.34532147332867E-02 
506	 3.36019058420057E-02 
507	 3.39005186219001E-02 
508	 3.41008333042915E-02 
509	 3.42582983993516E-02 
510	 3.45377936906467E-02 
511	 0.034844625444804 
512	 3.51219449999309E-02 
513	 3.53776580616913E-02 
514	 3.57002158588106E-02 
515	 3.59165604492076E-02 
516	 3.61312671161444E-02 
517	 3.64648034606226E-02 
518	 3.68399604202793E-02 
519	 0.037159128453353 
520	 3.74355007274999E-02 
521	 3.77553770605612E-02 
522	 3.80727140056805E-02 
523	 3.84111926227815E-02 
524	 3.87850709673886E-02 
525	 3.91790025379174E-02 
526	 0.039540039527659 
527	 3.99257376821519E-02 
528	 4.03998854222166E-02 
529	 4.08155297301268E-02 
530	 4.12402302844429E-02 
531	 4.17103243803199E-02 
532	 4.22127860784896E-02 
533	 4.26965165756402E-02 
534	 4.32068102462444E-02 
535	 4.37655294323555E-02 
536	 4.42561136435304E-02 
537	 4.48139175090315E-02 
538	 4.54390973405864E-02 
539	 4.60558307952462E-02 
540	 4.66503240669655E-02 
541	 4.72888262179477E-02 
542	 4.79885837988985E-02 
543	 4.86736901507047E-02 
544	 4.93824678570133E-02 
545	 5.00899765488226E-02 
546	 5.07790698232571E-02 
547	 5.15493165795945E-02 
548	 5.23465434386272E-02 
549	 5.31513912689794E-02 
550	 5.39790022031415E-02 
551	 5.47866743292023E-02 
552	 5.56525476421109E-02 
553	 0.056615108093404 
554	 5.75558970096582E-02 
555	 5.85195085003653E-02 
556	 5.95237064880024E-02 
557	 6.05724598217929E-02 
558	 6.16621568562674E-02 
559	 6.27503296968195E-02 
560	 6.38260351519253E-02 
561	 6.49269826882842E-02 
562	 6.60586516629889E-02 
563	 6.72323049255813E-02 
564	 6.84422105896412E-02 
565	 6.96265786059706E-02 
566	 7.08033864034227E-02 
567	 7.19911272188817E-02 
568	 7.32069384766513E-02 
569	 7.44558016234849E-02 
570	 7.56948707101721E-02 
571	 0.076906920634798 
572	 7.81405604537648E-02 
573	 7.93832687026359E-02 
574	 0.080624229593222 
575	 8.18553361479869E-02 
576	 8.30936529243787E-02 
577	 8.42834019729738E-02 
578	 8.54360454464521E-02 
579	 0.086639904351234 
580	 8.78540060248243E-02 
581	 8.90494220377846E-02 
582	 9.02167887243225E-02 
583	 9.13996724197979E-02 
584	 9.25525237262199E-02 
585	 9.36784072062404E-02 
586	 9.48085602577766E-02 
587	 0.095924351284504 
588	 9.70147298596908E-02 
589	 9.80742084425324E-02 
590	 0.099106829768371 
591	 0.100078639163724 
592	 0.101025788447574 
593	 0.101978294351697 
594	 0.102844187295597 
595	 0.103675204730813 
596	 0.104485787368086 
597	 0.105251410839845 
598	 0.105988000908735 
599	 0.10671789846864 
600	 0.107446774003849 
601	 0.108133107897515 
602	 0.108800406536315 
603	 0.109437601048287 
604	 0.110022205694517 
605	 0.110563496869588 
606	 0.111112220455803 
607	 0.111658167445515 
608	 0.112112087963274 
609	 0.112523393624697 
610	 0.112944374529341 
611	 0.113394450843974 
612	 0.113782314349465 
613	 0.114130882025722 
614	 0.114464611392656 
615	 0.114803710496071 
616	 0.115099514425803 
617	 0.115396074145621 
618	 0.115707377725662 
619	 0.11597335362783 
620	 0.116231294029058 
621	 0.116468849960636 
622	 0.116675513710045 
623	 0.116923367281238 
624	 0.117174688902175 
625	 0.11740907500648 
626	 0.117626982224809 
627	 0.117804858720352 
628	 0.117990582483526 
629	 0.118215755129522 
630	 0.118446369684933 
631	 0.118613892971393 
632	 0.118777533361519 
633	 0.119026806691362 
634	 0.119212595049164 
635	 0.119391444867004 
636	 0.119595936780533 
637	 0.119805788439081 
638	 0.119980176037944 
639	 0.120158659475038 
640	 0.120377085744492 
641	 0.120593407825521 
642	 0.120776478594629 
643	 0.120946569139802 
644	 0.121155868901565 
645	 0.121422876612761 
646	 0.121660932385432 
647	 0.121845464306526 
648	 0.122073159264822 
649	 0.122316768630661 
650	 0.122570874010029 
651	 0.122829873823143 
652	 0.123067680625341 
653	 0.12332571948195 
654	 0.123607051756731 
655	 0.123882524051445 
656	 0.124160712265009 
657	 0.124450822313021 
658	 0.124758699158823 
659	 0.125082731561025 
660	 0.125431757705469 
661	 0.12576785610236 
662	 0.126061292047249 
663	 0.126428185213109 
664	 0.126781757104882 
665	 0.127101783358871 
666	 0.127447138619537 
667	 0.127861558431058 
668	 0.128280699235823 
669	 0.128663897988222 
670	 0.129096509992499 
671	 0.129500445173721 
672	 0.129898869153854 
673	 0.130351347038304 
674	 0.130824866807046 
675	 0.131267576112214 
676	 0.131696738265516 
677	 0.132211981248741 
678	 0.132714465028183 
679	 0.133193055350894 
680	 0.133671291803364 
681	 0.134210920619612 
682	 0.134757906833783 
683	 0.135302457953679 
684	 0.135860770646621 
685	 0.136443544703455 
686	 0.137022831223468 
687	 0.137592441286545 
688	 0.138183711472873 
689	 0.138762038857738 
690	 0.139348158727529 
691	 0.139972317346482 
692	 0.140646240876612 
693	 0.141312098269747 
694	 0.141969988526226 
695	 0.142652059081263 
696	 0.143320623031953 
697	 0.144002683164623 
698	 0.144707411796529 
699	 0.145403784020543 
700	 0.146099733527039 
701	 0.146801765254599 
702	 0.147528134993431 
703	 0.148339978576511 
704	 0.149156595901989 
705	 0.149926887870154 
706	 0.15064133193858 
707	 0.151449458332849 
708	 0.152280489119227 
709	 0.153078796874152 
710	 0.153863654069754 
711	 0.154696601674697 
712	 0.155531484333358 
713	 0.156326981966229 
714	 0.157208636600465 
715	 0.158053600882887 
716	 0.158868887285362 
717	 0.159747783713664 
718	 0.160622796572478 
719	 0.161461201468088 
720	 0.162275949821356 
721	 0.163146043364453 
722	 0.163996420259624 
723	 0.164839547464105 
724	 0.165704268759281 
725	 0.166584594768018 
726	 0.167408575249166 
727	 0.168206567337076 
728	 0.169071122327001 
729	 0.169914792989309 
730	 0.170718088409175 
731	 0.171494665064117 
732	 0.172296138582392 
733	 0.173063171360567 
734	 0.173830122772341 
735	 0.174626623221665 
736	 0.17535276073559 
737	 0.17608068129103 
738	 0.176790351431576 
739	 0.177417878795288 
740	 0.17811855459133 
741	 0.178820232230455 
742	 0.17946456872947 
743	 0.180058292376192 
744	 0.180664426490649 
745	 0.181271821272557 
746	 0.181853017538938 
747	 0.182405301603328 
748	 0.182932490895741 
749	 0.183417949740438 
750	 0.183845084513488 
751	 0.184285416305283 
752	 0.184733662144018 
753	 0.185161170672605 
754	 0.185522567251136 
755	 0.185833587648565 
756	 0.186141148200823 
757	 0.186457866843704 
758	 0.186671139204127 
759	 0.186899353513544 
760	 0.18713360784493 
761	 0.187310570019771 
762	 0.187439687453999 
763	 0.187579581150139 
764	 0.187728437341863 
765	 0.187819967379243 
766	 0.187900881740138 
767	 0.187939291921147 
768	 0.187924550664099 
769	 0.187930247003067 
770	 0.187887524441233 
771	 0.187806154695271 
772	 0.187721808897628 
773	 0.187645800000312 
774	 0.187544577891457 
775	 0.187395536454443 
776	 0.187196010928927 
777	 0.187033299827033 
778	 0.186863002428916 
779	 0.186650967865625 
780	 0.186416583695108 
781	 0.186132710862603 
782	 0.18581824273529 
783	 0.185506604064299 
784	 0.185236338751814 
785	 0.184929963697096 
786	 0.184577530117976 
787	 0.184208624873311 
788	 0.183806482606992 
789	 0.183425864558437 
790	 0.183068682446158 
791	 0.182669966170658 
792	 0.182268966072762 
793	 0.181827000168801 
794	 0.181332166458801 
795	 0.180868699408531 
796	 0.180428528526593 
797	 0.180000895742006 
798	 0.179559546269409 
799	 0.179029710724933 
800	 0.1784960077865 
801	 0.177986697656087 
802	 0.17748098501926 
803	 0.176990055836516 
804	 0.176486048482571 
805	 0.175957933295887 
806	 0.17542561860828 
807	 0.174936905328328 
808	 0.174414138028273 
809	 0.17381634898296 
810	 0.173304527492327 
811	 0.172815681055972 
812	 0.172287916865845 
813	 0.171688442449654 
814	 0.171146861017509 
815	 0.170610334808359 
816	 0.170057954079497 
817	 0.169508021190443 
818	 0.168963608458453 
819	 0.16843696133094 
820	 0.167913503859018 
821	 0.167334405365731 
822	 0.166782847319319 
823	 0.166259614344755 
824	 0.165746313049392 
825	 0.165246159926832 
826	 0.164707746454272 
827	 0.164152160251171 
828	 0.163629468429119 
829	 0.163135850238042 
830	 0.162644008136109 
831	 0.162134184721824 
832	 0.161604068944703 
833	 0.161139195696658 
834	 0.160658871888903 
835	 0.16012975121978 
836	 0.159627106213772 
837	 0.159173628723543 
838	 0.158710004274299 
839	 0.158203689862639 
840	 0.157759454242464 
841	 0.157305381140118 
842	 0.156852297298741 
843	 0.156429274876239 
844	 0.155990025856068 
845	 0.155530759551733 
846	 0.15509366655393 
847	 0.154730813094139 
848	 0.154292844883558 
849	 0.153837141580688 
850	 0.15341674349395 
851	 0.153044490778899 
852	 0.152675314216046 
853	 0.152281786027392 
854	 0.151871551805801 
855	 0.151515444840107 
856	 0.151157194538068 
857	 0.150786456529567 
858	 0.150418898092406 
859	 0.150106405463683 
860	 0.14978316002081 
861	 0.149453811964149 
862	 0.14915265181099 
863	 0.148846002438911 
864	 0.14852976468882 
865	 0.148220908032283 
866	 0.147945224013174 
867	 0.147652117694219 
868	 0.147361904465501 
869	 0.147077887557446 
870	 0.14677032377035 
871	 0.146576788524801 
872	 0.146398561947568 
873	 0.146145254012908 
874	 0.145858547459864 
875	 0.145653899949799 
876	 0.145482747930455 
877	 0.145276959368795 
878	 0.145114522828034 
879	 0.14494454763154 
880	 0.1447471129262 
881	 0.14453446942334 
882	 0.144394580470681 
883	 0.144215248100137 
884	 0.144026871243401 
885	 0.143950140609453 
886	 0.143834149549492 
887	 0.143692972717958 
888	 0.143554809471561 
889	 0.143440538106522 
890	 0.143357152308415 
891	 0.143233895182182 
892	 0.143078791033232 
893	 0.143050385162195 
894	 0.143001405591384 
895	 0.142933685950907 
896	 0.142876894990858 
897	 0.142831390946578 
898	 0.142780280647929 
899	 0.142705499097405 
900	 0.142612071346599 
901	 0.142583112962803 
902	 0.142570470000955 
903	 0.142572966887529 
904	 0.142595038713783 
905	 0.142534019342621 
906	 0.142509546118835 
907	 0.142552809512474 
908	 0.142610969636754 
909	 0.142600206204757 
910	 0.142623630298149 
911	 0.142702214189641 
912	 0.142758265738407 
913	 0.142809500138408 
914	 0.142874323842319 
915	 0.142942954931455 
916	 0.142972232549197 
917	 0.143077070932186 
918	 0.143207773199225 
919	 0.143316778860394 
920	 0.143428501840492 
921	 0.143481936450999 
922	 0.143556253635397 
923	 0.143719334952768 
924	 0.143925710688936 
925	 0.144034840143537 
926	 0.14413679663143 
927	 0.144339805551167 
928	 0.144533445152835 
929	 0.144699808508343 
930	 0.144822422075365 
931	 0.144921721280713 
932	 0.145143392841136 
933	 0.145371454246071 
934	 0.145602044033589 
935	 0.145865694492886 
936	 0.145995132818111 
937	 0.146196482213007 
938	 0.146441376435802 
939	 0.146572423479457 
940	 0.146828085107562 
941	 0.147127657937203 
942	 0.147421347520348 
943	 0.147709966020842 
944	 0.147970362216736 
945	 0.148201748380521 
946	 0.148442086752434 
947	 0.148749553484975 
948	 0.14900303901037 
949	 0.149246036582614 
950	 0.149511011283328 
951	 0.149785639655332 
952	 0.150095042707379 
953	 0.150416342566979 
954	 0.150718509265866 
955	 0.150977941496365 
956	 0.151265475353285 
957	 0.151635735679077 
958	 0.152048809447784 
959	 0.15232698678784 
960	 0.152677514516895 
961	 0.153028271451189 
962	 0.153323983924896 
963	 0.15367356206097 
964	 0.153949546516273 
965	 0.15426358947095 
966	 0.154674434100332 
967	 0.154983319115193 
968	 0.155400044311222 
969	 0.155848306715837 
970	 0.156226517448581 
971	 0.156584818374188 
972	 0.156958327924872 
973	 0.157319418855339 
974	 0.157650623590249 
975	 0.158021762943317 
976	 0.15838845444786 
977	 0.158830814286647 
978	 0.159362500142689 
979	 0.159680039242724 
980	 0.160096384397267 
981	 0.160606473410449 
982	 0.161107034702105 
983	 0.16156348181174 
984	 0.162021386712872 
985	 0.162503312419007 
986	 0.163003103078077 
987	 0.163457950491354 
988	 0.16388301385114 
989	 0.164346208941063 
990	 0.164872049444242 
991	 0.165283927202011 
992	 0.165670856740168 
993	 0.166155916330009 
994	 0.166791927298745 
995	 0.16739435759208 
996	 0.167802803202552 
997	 0.168165655831008 
998	 0.168681287665188 
999	 0.169293224601928 
1000	 0.16985861361077 
1001	 0.173370375171334 
1002	 0.173900766568754 
1003	 0.174458739192213 
1004	 0.175002416868887 
1005	 0.175515716879158 
1006	 0.176063618906728 
1007	 0.176630986223925 
1008	 0.17721399315859 
1009	 0.177802959171693 
1010	 0.178395706763938 
1011	 0.179036720815052 
1012	 0.179622631715632 
1013	 0.180154589679993 
1014	 0.180745482255923 
1015	 0.181332835571706 
1016	 0.18192720933153 
1017	 0.182641668598683 
1018	 0.183286913629838 
1019	 0.18395007524495 
1020	 0.184648046441121 
1021	 0.185292482023679 
1022	 0.185886737241587 
1023	 0.186533286439681 
1024	 0.18717228259227 
1025	 0.187835431201338 
1026	 0.188530225698238 
1027	 0.189215958192307 
1028	 0.189915572404089 
1029	 0.190616902104034 
1030	 0.191272695094185 
1031	 0.191957969539933 
1032	 0.192633022490304 
1033	 0.193285519409778 
1034	 0.194005383814254 
1035	 0.19471715724464 
1036	 0.195449759717688 
1037	 0.196230756153218 
1038	 0.196976521476416 
1039	 0.197714434017468 
1040	 0.198459924913838 
1041	 0.199182636675454 
1042	 0.199941001736918 
1043	 0.200733257715294 
1044	 0.201489259201272 
1045	 0.202273792455449 
1046	 0.203056073543612 
1047	 0.203788546699882 
1048	 0.204601694762083 
1049	 0.205436667044943 
1050	 0.206266092426858 
1051	 0.207132595449696 
1052	 0.207970589123232 
1053	 0.208829272549492 
1054	 0.209713831140217 
1055	 0.210575196293293 
1056	 0.211415521951759 
1057	 0.212289026587578 
1058	 0.213161799428926 
1059	 0.214022862931199 
1060	 0.214966964357749 
1061	 0.215906829401671 
1062	 0.216870224970023 
1063	 0.217886809424266 
1064	 0.218814793334271 
1065	 0.219764500352676 
1066	 0.220711836204578 
1067	 0.221625487222472 
1068	 0.222655490329277 
1069	 0.223662467791633 
1070	 0.224669299158531 
1071	 0.225688911137502 
1072	 0.22674216785541 
1073	 0.227724837440406 
1074	 0.228759793104502 
1075	 0.229808322298286 
1076	 0.230841076441308 
1077	 0.231931664649182 
1078	 0.232979949321215 
1079	 0.234076365908073 
1080	 0.235216280303931 
1081	 0.236259117933333 
1082	 0.237346992731345 
1083	 0.238448826452336 
1084	 0.239520874704268 
1085	 0.240670442308129 
1086	 0.241816390045161 
1087	 0.242977551733355 
1088	 0.244169763738847 
1089	 0.245363570169431 
1090	 0.246472006700928 
1091	 0.247592908785916 
1092	 0.248691656351565 
1093	 0.249812983749091 
1094	 0.251024673847608 
1095	 0.252218127462493 
1096	 0.253456756042874 
1097	 0.254677415010851 
1098	 0.255809597041859 
1099	 0.257002602783165 
1100	 0.258180748877024 
1101	 0.259349038464517 
1102	 0.260606404005569 
1103	 0.261832270371494 
1104	 0.263055957945451 
1105	 0.264292827088438 
1106	 0.265547864036635 
1107	 0.266737927682367 
1108	 0.267964241545474 
1109	 0.269172322948663 
1110	 0.270373247158155 
1111	 0.271653888148079 
1112	 0.272904633909727 
1113	 0.274189892889192 
1114	 0.275484990610987 
1115	 0.276690655444365 
1116	 0.277943754561227 
1117	 0.279188613667426 
1118	 0.280443380801151 
1119	 0.281727083538895 
1120	 0.283011571910157 
1121	 0.284289228591258 
1122	 0.285584903758469 
1123	 0.286896312652409 
1124	 0.28812016459621 
1125	 0.289375832238369 
1126	 0.290604954528626 
1127	 0.291822400158914 
1128	 0.293125974842725 
1129	 0.294363052214965 
1130	 0.29560237014295 
1131	 0.296880582614734 
1132	 0.298047319755247 
1133	 0.299233168287487 
1134	 0.30043223999454 
1135	 0.301628040783154 
1136	 0.302826780973306 
1137	 0.304027385175352 
1138	 0.305222718029316 
1139	 0.306432931887519 
1140	 0.307679739632002 
1141	 0.308813303703955 
1142	 0.309989116084588 
1143	 0.311167867562821 
1144	 0.312291429672192 
1145	 0.313485599079225 
1146	 0.314624276588584 
1147	 0.315756083875171 
1148	 0.316932092518895 
1149	 0.31802998407405 
1150	 0.319171191190526 
1151	 0.320329072881935 
1152	 0.321451509944522 
1153	 0.322552406846753 
1154	 0.3236515278704 
1155	 0.324731285750128 
1156	 0.32581835806319 
1157	 0.326906528386755 
1158	 0.32796015655745 
1159	 0.329010679615072 
1160	 0.330033147616772 
1161	 0.331039073836602 
1162	 0.332081839148094 
1163	 0.333072687082654 
1164	 0.334099299352606 
1165	 0.335118529282818 
1166	 0.336036636827824 
1167	 0.336992275539057 
1168	 0.337902549655585 
1169	 0.338797709423565 
1170	 0.339659811950814 
1171	 0.340541271655032 
1172	 0.341408343391423 
1173	 0.342284964814935 
1174	 0.343175610877298 
1175	 0.344022797471466 
1176	 0.344851929147914 
1177	 0.345680705209588 
1178	 0.346471367230538 
1179	 0.347296955827828 
1180	 0.348112420230051 
1181	 0.348952339999084 
1182	 0.349821630217611 
1183	 0.350639047138316 
1184	 0.35147799133371 
1185	 0.352330765328078 
1186	 0.353202988785247 
1187	 0.354078502702041 
1188	 0.354990013476834 
1189	 0.355935140737688 
1190	 0.356887236936143 
1191	 0.357857838382641 
1192	 0.358823759804518 
1193	 0.359813186070889 
1194	 0.360786800959335 
1195	 0.361755820349089 
1196	 0.362734123710313 
1197	 0.363701416977329 
1198	 0.364697993289523 
1199	 0.365716297283358 
1200	 0.36666976731793 
1201	 0.367643177701008 
1202	 0.36860748796416 
1203	 0.369571680681716 
1204	 0.370616705758498 
1205	 0.371637987469874 
1206	 0.372686647692068 
1207	 0.373731469281919 
1208	 0.374758507603102 
1209	 0.375807902406151 
1210	 0.376872481084476 
1211	 0.377955413261802 
1212	 0.37905664017638 
1213	 0.380181275219786 
1214	 0.381330082237495 
1215	 0.382489917449731 
1216	 0.383677688596012 
1217	 0.384848286555454 
1218	 0.386032452375162 
1219	 0.387202211501104 
1220	 0.388356315059542 
1221	 0.389562555804689 
1222	 0.390730282917226 
1223	 0.391913704017107 
1224	 0.393065521498063 
1225	 0.394200396178076 
1226	 0.395300574373579 
1227	 0.396392872543803 
1228	 0.397434241249127 
1229	 0.398438714326153 
1230	 0.399418281029568 
1231	 0.400358102726775 
1232	 0.401281575823605 
1233	 0.402169470089236 
1234	 0.403041233860214 
1235	 0.403882822219602 
1236	 0.404724379954666 
1237	 0.405555572558238 
1238	 0.406374596620787 
1239	 0.407189012231259 
1240	 0.407989862266736 
1241	 0.408769256403955 
1242	 0.409485886509194 
1243	 0.410195745139879 
1244	 0.410862273024855 
1245	 0.411550007564536 
1246	 0.412229850593029 
1247	 0.412904385150923 
1248	 0.41358097420064 
1249	 0.414247286424772 
1250	 0.414919999688707 
1251	 0.415544658854156 
1252	 0.416148752406639 
1253	 0.41674032425822 
1254	 0.41728789503801 
1255	 0.417843078454599 
1256	 0.418395737159787 
1257	 0.418947497986176 
1258	 0.419518176908869 
1259	 0.420035056869193 
1260	 0.42051603286326 
1261	 0.421003469009767 
1262	 0.421456751865746 
1263	 0.421906564958349 
1264	 0.422347377270203 
1265	 0.422795194277183 
1266	 0.423241832625443 
1267	 0.42366635810028 
1268	 0.424098274588187 
1269	 0.424555909313394 
1270	 0.424978018508412 
1271	 0.42537837802788 
1272	 0.425771145888543 
1273	 0.426155060973949 
1274	 0.42652402194794 
1275	 0.426865224215635 
1276	 0.427213781113736 
1277	 0.427556959205816 
1278	 0.427894415661176 
1279	 0.42821532536288 
1280	 0.428556818055277 
1281	 0.428897170401827 
1282	 0.429246522702016 
1283	 0.429626997096031 
1284	 0.429986223825421 
1285	 0.430337833211389 
1286	 0.430684320483129 
1287	 0.431022233517 
1288	 0.431351633698832 
1289	 0.431668426347021 
1290	 0.431971077553916 
1291	 0.432280203460185 
1292	 0.432579871056054 
1293	 0.432879101429138 
1294	 0.433181059346686 
1295	 0.433480363815212 
1296	 0.433776744134916 
1297	 0.434063191931411 
1298	 0.434347411373122 
1299	 0.434627797516647 
1300	 0.43488978560181 
1301	 0.435163485199047 
1302	 0.435455040247671 
1303	 0.435724660662459 
1304	 0.435994846666598 
1305	 0.436245535870999 
1306	 0.436459575366889 
1307	 0.436692301783261 
1308	 0.436921867788509 
1309	 0.437162389997068 
1310	 0.437378771153631 
1311	 0.437593545877085 
1312	 0.437810964899129 
1313	 0.438012866282273 
1314	 0.438218288855532 
1315	 0.438447535355834 
1316	 0.438635042911186 
1317	 0.43880397658618 
1318	 0.438951877327192 
1319	 0.439067712558305 
1320	 0.43919763582834 
1321	 0.439318168207681 
1322	 0.439431180821387 
1323	 0.439549887682376 
1324	 0.439654636086268 
1325	 0.43973009959358 
1326	 0.439825484832875 
1327	 0.439935316373219 
1328	 0.440029831998898 
1329	 0.440155268892558 
1330	 0.440222698017027 
1331	 0.440255410546609 
1332	 0.440270664597321 
1333	 0.440247241711749 
1334	 0.440206652334523 
1335	 0.44015880076975 
1336	 0.440104519244309 
1337	 0.44002385660274 
1338	 0.439930225909647 
1339	 0.4398026492287 
1340	 0.439646534611618 
1341	 0.439484526660953 
1342	 0.43930588144464 
1343	 0.439097894168386 
1344	 0.438885643494374 
1345	 0.438626725520426 
1346	 0.438320615048456 
1347	 0.438011128237726 
1348	 0.437678674145311 
1349	 0.43732987662344 
1350	 0.436952797910882 
1351	 0.436582890523371 
1352	 0.436190516910696 
1353	 0.435811581875677 
1354	 0.435428922208504 
1355	 0.435066765460952 
1356	 0.434717642182736 
1357	 0.43437092146536 
1358	 0.434045900996638 
1359	 0.433711303981843 
1360	 0.433376853577213 
1361	 0.433034816380546 
1362	 0.432681218895934 
1363	 0.432348407334231 
1364	 0.432005642328829 
1365	 0.431674370940811 
1366	 0.431299033298433 
1367	 0.430914275428301 
1368	 0.43050346761198 
1369	 0.430055717917613 
1370	 0.429607280976827 
1371	 0.429155021973723 
1372	 0.428681552130672 
1373	 0.428189956113052 
1374	 0.427682614058071 
1375	 0.427144220630383 
1376	 0.42661792791504 
1377	 0.426101252500341 
1378	 0.425536916382344 
1379	 0.42496145470425 
1380	 0.424361891389463 
1381	 0.423722123580657 
1382	 0.423066023601023 
1383	 0.422395500174966 
1384	 0.421708921464669 
1385	 0.420987473257912 
1386	 0.420270149879866 
1387	 0.419547764765919 
1388	 0.418828443875751 
1389	 0.418107906609443 
1390	 0.417380160903131 
1391	 0.416669845207291 
1392	 0.415909995960665 
1393	 0.415174716138359 
1394	 0.41441149948071 
1395	 0.413656379529102 
1396	 0.412913843848603 
1397	 0.412130919001785 
1398	 0.411344327083124 
1399	 0.41050655367539 
1400	 0.409639979548188 
1401	 0.408721662950625 
1402	 0.407770954366024 
1403	 0.40675988067963 
1404	 0.405689827301605 
1405	 0.404603203500295 
1406	 0.403491354918225 
1407	 0.402308860708049 
1408	 0.401046725936276 
1409	 0.399814503940596 
1410	 0.398482589306697 
1411	 0.397269551104835 
1412	 0.396025387090039 
1413	 0.394997306290666 
1414	 0.394009474931285 
1415	 0.39326410948846 
1416	 0.392755180318924 
1417	 0.39233935277888 
1418	 0.392157132571705 
1419	 0.391970968598413 
1420	 0.391932731973175 
1421	 0.391843124102564 
1422	 0.39179449001885 
1423	 0.391698833337737 
1424	 0.391571226914295 
1425	 0.391425539937583 
1426	 0.391270419615479 
1427	 0.391104504238427 
1428	 0.390942084105812 
1429	 0.390802784644875 
1430	 0.390689350029978 
1431	 0.390577454057955 
1432	 0.390523931472651 
1433	 0.390516324004242 
1434	 0.390517509911138 
1435	 0.39055261931192 
1436	 0.390598916920249 
1437	 0.390648820126735 
1438	 0.390750678995315 
1439	 0.390891550578501 
1440	 0.391044074000534 
1441	 0.39122779350675 
1442	 0.391434474759068 
1443	 0.3916574260066 
1444	 0.3919070960182 
1445	 0.392203460308964 
1446	 0.392487926826157 
1447	 0.392777227482191 
1448	 0.393082737817282 
1449	 0.39340428628411 
1450	 0.393725329222046 
1451	 0.394056138768992 
1452	 0.39439523865651 
1453	 0.394738152298964 
1454	 0.395083973288486 
1455	 0.395450256982646 
1456	 0.395802493880228 
1457	 0.396154053778916 
1458	 0.396493986356743 
1459	 0.396821521671622 
1460	 0.397151883820162 
1461	 0.397461648012189 
1462	 0.397791390122718 
1463	 0.398131859487906 
1464	 0.398476248150544 
1465	 0.398826926238255 
1466	 0.399199742119047 
1467	 0.399540429829164 
1468	 0.399904639504798 
1469	 0.400279512484762 
1470	 0.400626500561801 
1471	 0.400994911820274 
1472	 0.401374769293501 
1473	 0.401754400275582 
1474	 0.402140739174134 
1475	 0.402516356283546 
1476	 0.402896298860366 
1477	 0.403264735550647 
1478	 0.403622305274248 
1479	 0.403975337289023 
1480	 0.404326109729112 
1481	 0.404666107375585 
1482	 0.405002781756444 
1483	 0.40531741459681 
1484	 0.405614668787137 
1485	 0.405914059816975 
1486	 0.4061968194474 
1487	 0.406479052421882 
1488	 0.40675416705916 
1489	 0.407043474546806 
1490	 0.407335802661918 
1491	 0.407621910499868 
1492	 0.407917235968779 
1493	 0.408208079531944 
1494	 0.408485743269538 
1495	 0.408768230477255 
1496	 0.409063072601015 
1497	 0.40934637655691 
1498	 0.409624284645821 
1499	 0.409895091346993 
1500	 0.41015069211982 
1501	 0.410420648913193 
1502	 0.410687081418157 
1503	 0.410960360428161 
1504	 0.41125065423426 
1505	 0.411533310873227 
1506	 0.411824832022585 
1507	 0.412097242349995 
1508	 0.412354475596686 
1509	 0.412615588486015 
1510	 0.412866734489494 
1511	 0.41311359904228 
1512	 0.413377575192442 
1513	 0.413613387457652 
1514	 0.413823455530224 
1515	 0.414032780168894 
1516	 0.414223104602408 
1517	 0.414413841013626 
1518	 0.414600638156515 
1519	 0.414787767866998 
1520	 0.414975078435276 
1521	 0.415154183268319 
1522	 0.415332333537485 
1523	 0.415521255872043 
1524	 0.415699572776206 
1525	 0.415875690681046 
1526	 0.416044316749534 
1527	 0.416210128944789 
1528	 0.416364565286252 
1529	 0.416512021965786 
1530	 0.416648522707833 
1531	 0.416764582999248 
1532	 0.416909728310292 
1533	 0.41705456076491 
1534	 0.41721216480432 
1535	 0.417399305200027 
1536	 0.41755426577863 
1537	 0.417701015937388 
1538	 0.41784136007245 
1539	 0.417976390424611 
1540	 0.418091277925554 
1541	 0.418187107669156 
1542	 0.418295174183275 
1543	 0.418389860205505 
1544	 0.418491749051044 
1545	 0.418613863148327 
1546	 0.418707622290052 
1547	 0.418782771776944 
1548	 0.418862241291088 
1549	 0.418936133846993 
1550	 0.419002573087709 
1551	 0.419068130590895 
1552	 0.419121851007126 
1553	 0.419160080455215 
1554	 0.419202554365603 
1555	 0.419236702056415 
1556	 0.419279504807678 
1557	 0.419312766888974 
1558	 0.419374954108864 
1559	 0.419460913546574 
1560	 0.419534678957638 
1561	 0.419630449179757 
1562	 0.419701774533855 
1563	 0.419750031623049 
1564	 0.419809496651347 
1565	 0.41985897276984 
1566	 0.419926441457883 
1567	 0.420004849448688 
1568	 0.420083457206949 
1569	 0.420166160461259 
1570	 0.420261336476778 
1571	 0.420375923722329 
1572	 0.420467384556465 
1573	 0.420557420128219 
1574	 0.420647985939079 
1575	 0.420716971521022 
1576	 0.420800746689113 
1577	 0.420897116346391 
1578	 0.420995009515377 
1579	 0.421100991420864 
1580	 0.421194598112765 
1581	 0.421294477686915 
1582	 0.421380365834335 
1583	 0.42144390858858 
1584	 0.421517530788101 
1585	 0.421595307254409 
1586	 0.421664623262196 
1587	 0.421729006707827 
1588	 0.42179555585607 
1589	 0.421860835798925 
1590	 0.421919490674049 
1591	 0.421981813521875 
1592	 0.422033832609192 
1593	 0.422077921133011 
1594	 0.422111609964062 
1595	 0.422133184086417 
1596	 0.422154863959281 
1597	 0.422158671827731 
1598	 0.422177447058282 
1599	 0.422205545803358 
1600	 0.422232498405184 
1601	 0.42227144486616 
1602	 0.42229846938155 
1603	 0.422314826035046 
1604	 0.422336470031913 
1605	 0.422365663681599 
1606	 0.422375368688237 
1607	 0.422387052753835 
1608	 0.422379843818441 
1609	 0.422348297860289 
1610	 0.422311487255185 
1611	 0.422273794332005 
1612	 0.422210055692211 
1613	 0.422119155294973 
1614	 0.422030469782827 
1615	 0.421913736497326 
1616	 0.421813920504082 
1617	 0.421726350930974 
1618	 0.42163286050492 
1619	 0.421547259344947 
1620	 0.421451618968444 
1621	 0.421364491037714 
1622	 0.42124474661888 
1623	 0.421091028367057 
1624	 0.420950446171316 
1625	 0.420793220846559 
1626	 0.420638602320021 
1627	 0.420482674246068 
1628	 0.420345644466145 
1629	 0.420204386798524 
1630	 0.420082855223491 
1631	 0.420006216096147 
1632	 0.419901977693391 
1633	 0.419793148858122 
1634	 0.419677302946595 
1635	 0.419547612316563 
1636	 0.41941663361324 
1637	 0.419275688692284 
1638	 0.419145240916106 
1639	 0.419019002301808 
1640	 0.418887656458656 
1641	 0.418768802456153 
1642	 0.418630588658884 
1643	 0.41848406563235 
1644	 0.418322721637936 
1645	 0.418162105402676 
1646	 0.417966284202503 
1647	 0.417744725395177 
1648	 0.41750170576933 
1649	 0.417233703357864 
1650	 0.416937564450245 
1651	 0.41662805175251 
1652	 0.41627703881563 
1653	 0.415908775441262 
1654	 0.415473666933969 
1655	 0.4149821609562 
1656	 0.414450820146378 
1657	 0.413885922524316 
1658	 0.413230114307565 
1659	 0.412519897298422 
1660	 0.411747378815706 
1661	 0.410891480119414 
1662	 0.409970344013405 
1663	 0.409012710399225 
1664	 0.407933277851077 
1665	 0.406766836060256 
1666	 0.405480926789106 
1667	 0.404102719598536 
1668	 0.402602862755789 
1669	 0.400992044197535 
1670	 0.399253782176962 
1671	 0.397351427526915 
1672	 0.395387415921152 
1673	 0.393294646638368 
1674	 0.391159611894865 
1675	 0.388938984883585 
1676	 0.386735692211056 
1677	 0.384475786488306 
1678	 0.382218046693615 
1679	 0.379927229410141 
1680	 0.377655082949255 
1681	 0.375358853298321 
1682	 0.373096248781073 
1683	 0.370870315525121 
1684	 0.368678435781066 
1685	 0.366508174240262 
1686	 0.364349729046013 
1687	 0.362164419407757 
1688	 0.360088071116501 
1689	 0.358044437456715 
1690	 0.356088284880209 
1691	 0.354248785905062 
1692	 0.352476870154658 
1693	 0.350760466757585 
1694	 0.349126157638114 
1695	 0.347584138249515 
1696	 0.346076606851211 
1697	 0.344641213527847 
1698	 0.343214183610614 
1699	 0.341847795242123 
1700	 0.340517117633995 
1701	 0.339207345233254 
1702	 0.337947973864772 
1703	 0.336709566548193 
1704	 0.335563879136883 
1705	 0.334467164109419 
1706	 0.3334231529678 
1707	 0.332542006608382 
1708	 0.331674090491237 
1709	 0.330857309788046 
1710	 0.330126605363673 
1711	 0.329381236708681 
1712	 0.328701097478003 
1713	 0.328061849658739 
1714	 0.327431167718136 
1715	 0.326879802495134 
1716	 0.326336587337006 
1717	 0.325819184378663 
1718	 0.325350720407322 
1719	 0.324886923831944 
1720	 0.324481261494175 
1721	 0.324144170406415 
1722	 0.323874496088422 
1723	 0.323721514262405 
1724	 0.323676980099022 
1725	 0.323734649428893 
1726	 0.323949548760588 
1727	 0.324291734844546 
1728	 0.324715840425882 
1729	 0.325300999824336 
1730	 0.326016919028601 
1731	 0.3267790122524 
1732	 0.327671016633768 
1733	 0.328563247575377 
1734	 0.329447839091347 
1735	 0.330380335786508 
1736	 0.33122178521054 
1737	 0.332014673038545 
1738	 0.332644487095572 
1739	 0.333211023760683 
1740	 0.333685096004339 
1741	 0.334119769081762 
1742	 0.334501639762557 
1743	 0.334829856624687 
1744	 0.335075353564251 
1745	 0.335321418488321 
1746	 0.335491141744128 
1747	 0.335706584549965 
1748	 0.335906245309382 
1749	 0.336157978826472 
1750	 0.336435375553969 
1751	 0.33677205536556 
1752	 0.337146514148062 
1753	 0.337599007419963 
1754	 0.338094649270926 
1755	 0.33867708280432 
1756	 0.33932950233967 
1757	 0.340065490096225 
1758	 0.340910493325135 
1759	 0.341786506216776 
1760	 0.342815836671944 
1761	 0.343981625652556 
1762	 0.345163406886486 
1763	 0.346476252556334 
1764	 0.347797849995756 
1765	 0.349134305792546 
1766	 0.350591414888006 
1767	 0.352001671980606 
1768	 0.353446824336765 
1769	 0.354893123463919 
1770	 0.356185182673726 
1771	 0.357476114776898 
1772	 0.358729229902333 
1773	 0.359895516853866 
1774	 0.361032987293799 
1775	 0.362077617887189 
1776	 0.36306858969752 
1777	 0.363967699069732 
1778	 0.364740161395573 
1779	 0.365458518543421 
1780	 0.366076628460687 
1781	 0.366584475654571 
1782	 0.367116496928852 
1783	 0.367631469753531 
1784	 0.368090775153882 
1785	 0.368531656083556 
1786	 0.368902005930878 
1787	 0.369207959510785 
1788	 0.369474804665138 
1789	 0.369678099979685 
1790	 0.369892073373931 
1791	 0.370051979172778 
1792	 0.370235017327647 
1793	 0.370441368896628 
1794	 0.370606913198641 
1795	 0.370761360892441 
1796	 0.370941869335822 
1797	 0.371130488341543 
1798	 0.371320924164574 
1799	 0.37152688049959 
1800	 0.371721770390821 
1801	 0.368142949855128 
1802	 0.368352084558731 
1803	 0.368541018446076 
1804	 0.368716461105084 
1805	 0.368901078873786 
1806	 0.369064237336352 
1807	 0.369190562222362 
1808	 0.369355300603153 
1809	 0.369528622846549 
1810	 0.369704818120263 
1811	 0.369912417872684 
1812	 0.370097848123006 
1813	 0.370268140263731 
1814	 0.370441273129946 
1815	 0.370615409886207 
1816	 0.370805484533703 
1817	 0.371012685627601 
1818	 0.371243366537387 
1819	 0.371465201097414 
1820	 0.371687349266786 
1821	 0.371930468307726 
1822	 0.372185980289361 
1823	 0.372450821390537 
1824	 0.37271342268293 
1825	 0.372975999496816 
1826	 0.373227340074296 
1827	 0.373455468921757 
1828	 0.373705867266029 
1829	 0.373967468040755 
1830	 0.374216026079628 
1831	 0.374457680074402 
1832	 0.37471770653531 
1833	 0.374961445895603 
1834	 0.375226700288134 
1835	 0.375491809469519 
1836	 0.375730167017221 
1837	 0.375990294547567 
1838	 0.376247138335093 
1839	 0.376512079357191 
1840	 0.376802121735539 
1841	 0.377076336862285 
1842	 0.377342229957227 
1843	 0.377614610489206 
1844	 0.377884842767103 
1845	 0.378114210357129 
1846	 0.378352719088965 
1847	 0.378595850487521 
1848	 0.378825928195301 
1849	 0.379068140490108 
1850	 0.379272921191049 
1851	 0.379469974357265 
1852	 0.379626236382401 
1853	 0.379747699017081 
1854	 0.379838620963321 
1855	 0.379928614594995 
1856	 0.380014401145879 
1857	 0.380067536671235 
1858	 0.380111177341194 
1859	 0.380119066678367 
1860	 0.380099215937 
1861	 0.380038537153494 
1862	 0.379947995099788 
1863	 0.379827937649453 
1864	 0.379673503160714 
1865	 0.379468061709523 
1866	 0.379235183544015 
1867	 0.378956860556891 
1868	 0.378609575105381 
1869	 0.378230382141465 
1870	 0.377806347030987 
1871	 0.377346816279345 
1872	 0.376823112367238 
1873	 0.376264449074615 
1874	 0.37563818485233 
1875	 0.374950194495749 
1876	 0.374168102529661 
1877	 0.373352212236087 
1878	 0.372426082319651 
1879	 0.371353901636982 
1880	 0.370234770468977 
1881	 0.368973936546051 
1882	 0.36757993923813 
1883	 0.366088671574075 
1884	 0.364466076306146 
1885	 0.362586315119589 
1886	 0.360615207335485 
1887	 0.358429663866241 
1888	 0.356007543599535 
1889	 0.353633067423351 
1890	 0.351036458730424 
1891	 0.348366364711551 
1892	 0.34568080954863 
1893	 0.342870485979779 
1894	 0.339884491618816 
1895	 0.336982339915223 
1896	 0.33401457480212 
1897	 0.331009435658046 
1898	 0.328242873288023 
1899	 0.325440512289503 
1900	 0.322745309436434 
1901	 0.320227813807208 
1902	 0.317613992575827 
1903	 0.315186893636771 
1904	 0.312890487888529 
1905	 0.310678728804432 
1906	 0.308578321201742 
1907	 0.306793456801467 
1908	 0.305089576450466 
1909	 0.303519823465342 
1910	 0.302130195228786 
1911	 0.300772861396811 
1912	 0.299590106380831 
1913	 0.298518215902237 
1914	 0.297512247504949 
1915	 0.296640143933371 
1916	 0.295924760716992 
1917	 0.295241296424923 
1918	 0.294631667328232 
1919	 0.294136298109358 
1920	 0.293656873151317 
1921	 0.293250685056503 
1922	 0.292920057678551 
1923	 0.292634353789151 
1924	 0.292431523159083 
1925	 0.29227174241171 
1926	 0.292139571455556 
1927	 0.292052954242117 
1928	 0.291989614912728 
1929	 0.291961204550322 
1930	 0.291942814222321 
1931	 0.291974025720543 
1932	 0.292048035014333 
1933	 0.29215107601164 
1934	 0.292312043447908 
1935	 0.292497479085889 
1936	 0.292725688314223 
1937	 0.293008669303557 
1938	 0.293348921586365 
1939	 0.293709099012376 
1940	 0.294117317147971 
1941	 0.294558251301439 
1942	 0.294992664103124 
1943	 0.295472803763086 
1944	 0.295972865384341 
1945	 0.296475613238441 
1946	 0.297034653491411 
1947	 0.297593820907428 
1948	 0.298164522697472 
1949	 0.298777349399293 
1950	 0.299372680103079 
1951	 0.299960158605703 
1952	 0.300568249534053 
1953	 0.301192258057798 
1954	 0.301795474286756 
1955	 0.302438759085816 
1956	 0.30307054386629 
1957	 0.303716452352684 
1958	 0.304385301570307 
1959	 0.305006601619759 
1960	 0.305642422099619 
1961	 0.306271605147122 
1962	 0.306873000898236 
1963	 0.307500006173743 
1964	 0.308159825474509 
1965	 0.308781102072284 
1966	 0.309399831981244 
1967	 0.310009555639673 
1968	 0.310572469576488 
1969	 0.311134875431573 
1970	 0.311696199657065 
1971	 0.312267539202494 
1972	 0.312880335236545 
1973	 0.313489676807203 
1974	 0.314099176609597 
1975	 0.314745895978404 
1976	 0.315347703828786 
1977	 0.315916758786354 
1978	 0.316498276459167 
1979	 0.317073782409917 
1980	 0.317631184482265 
1981	 0.318216055675534 
1982	 0.318766978878137 
1983	 0.319305772572569 
1984	 0.319840765764094 
1985	 0.320327905405993 
1986	 0.320834524129988 
1987	 0.321324126890104 
1988	 0.321795703421165 
1989	 0.322266725142029 
1990	 0.322742887683485 
1991	 0.323188499926981 
1992	 0.323622489415098 
1993	 0.324052439935262 
1994	 0.324423486907653 
1995	 0.324772057303162 
1996	 0.325105605664765 
1997	 0.325402803305607 
1998	 0.325704867044244 
1999	 0.32600638154614 
2000	 0.326277409060558 
2001	 0.326544562128207 
2002	 0.32676831267653 
2003	 0.326957640649343 
2004	 0.327129074837008 
2005	 0.327266758628757 
2006	 0.327385199570701 
2007	 0.327490311522113 
2008	 0.327560943843623 
2009	 0.327595374080364 
2010	 0.32761622017859 
2011	 0.327591857775359 
2012	 0.327532227342116 
2013	 0.327445984407473 
2014	 0.327331951487175 
2015	 0.327180256384665 
2016	 0.326999665388397 
2017	 0.326781417060338 
2018	 0.326513334335238 
2019	 0.326228904360284 
2020	 0.325928350230544 
2021	 0.325577791984015 
2022	 0.325185327324087 
2023	 0.324764926205558 
2024	 0.324283328619501 
2025	 0.323781134563541 
2026	 0.323234658405609 
2027	 0.322626044666443 
2028	 0.322041787863462 
2029	 0.32142113794427 
2030	 0.32080682445367 
2031	 0.320220204721598 
2032	 0.319602213981091 
2033	 0.318931762058011 
2034	 0.318306369561182 
2035	 0.31768701534059 
2036	 0.317052936650338 
2037	 0.316501474088855 
2038	 0.315974411021321 
2039	 0.315472038507825 
2040	 0.315012752760752 
2041	 0.314562178776659 
2042	 0.314115400393199 
2043	 0.313730439047767 
2044	 0.313369655510551 
2045	 0.313063193981268 
2046	 0.312832293806269 
2047	 0.312594644446423 
2048	 0.312393324128684 
2049	 0.312206396264333 
2050	 0.312031736746405 
2051	 0.311873554644013 
2052	 0.31174789630866 
2053	 0.311640436415593 
2054	 0.311546841837935 
2055	 0.311474195654621 
2056	 0.311409525989038 
2057	 0.311355420480897 
2058	 0.311323377209486 
2059	 0.311313759291464 
2060	 0.31130835511338 
2061	 0.311321424465651 
2062	 0.311340531102945 
2063	 0.311375089956516 
2064	 0.31140452466419 
2065	 0.311452312689135 
2066	 0.311476247859575 
2067	 0.311505038773426 
2068	 0.311529278193545 
2069	 0.31155378026004 
2070	 0.3115836310445 
2071	 0.311602191615674 
2072	 0.311606350677354 
2073	 0.311625663457173 
2074	 0.311656604749343 
2075	 0.311666497592184 
2076	 0.311672598960174 
2077	 0.311676916560143 
2078	 0.311660562369108 
2079	 0.311653476941724 
2080	 0.311670184604252 
2081	 0.311661488992203 
2082	 0.311646933264228 
2083	 0.311606668409616 
2084	 0.311557940468638 
2085	 0.31151064746918 
2086	 0.311460604332925 
2087	 0.31140730437677 
2088	 0.311355139385572 
2089	 0.311301453757332 
2090	 0.311243362172716 
2091	 0.311199631053647 
2092	 0.311124699432462 
2093	 0.311033270396465 
2094	 0.310934439088142 
2095	 0.310805844331853 
2096	 0.310683798273345 
2097	 0.310566435076117 
2098	 0.310435280363784 
2099	 0.310299516801604 
2100	 0.310161694628474 
2101	 0.309993244404489 
2102	 0.309806968023827 
2103	 0.309609533770575 
2104	 0.309391051786975 
2105	 0.309159445287726 
2106	 0.308912764139525 
2107	 0.308659386108075 
2108	 0.308408301151138 
2109	 0.308109087693009 
2110	 0.3077894924717 
2111	 0.307444570827304 
2112	 0.307020558084588 
2113	 0.3066403545132 
2114	 0.306286445380525 
2115	 0.305903951803035 
2116	 0.305517858616221 
2117	 0.305135991907536 
2118	 0.304727144164847 
2119	 0.30427509096763 
2120	 0.30386868438423 
2121	 0.30346137530066 
2122	 0.303080778433087 
2123	 0.302727248528691 
2124	 0.302368311594641 
2125	 0.302037530239627 
2126	 0.301675996039807 
2127	 0.301297096193448 
2128	 0.300935109485064 
2129	 0.300551559176153 
2130	 0.300194975313028 
2131	 0.299885041891868 
2132	 0.299540641968597 
2133	 0.299182007873117 
2134	 0.298836808299957 
2135	 0.298464957212201 
2136	 0.298089941897806 
2137	 0.297730273528043 
2138	 0.29737315321255 
2139	 0.297033605117454 
2140	 0.296701888042099 
2141	 0.296385389856134 
2142	 0.29608650434507 
2143	 0.29579217267867 
2144	 0.295521465633971 
2145	 0.295234857839773 
2146	 0.294936870968075 
2147	 0.294660982303213 
2148	 0.294391009564389 
2149	 0.294119722301801 
2150	 0.293871950216763 
2151	 0.293613724759083 
2152	 0.293336472327384 
2153	 0.293073896661304 
2154	 0.292830014956711 
2155	 0.292586697500969 
2156	 0.292343365224726 
2157	 0.292112102056006 
2158	 0.291868472150404 
2159	 0.291618540760635 
2160	 0.291366742714229 
2161	 0.291102422518794 
2162	 0.290864847813725 
2163	 0.290632430041264 
2164	 0.290407313486959 
2165	 0.290192837363786 
2166	 0.289999276138838 
2167	 0.289806933097914 
2168	 0.289637601663275 
2169	 0.28950639580805 
2170	 0.289370159434965 
2171	 0.289234232378996 
2172	 0.289120157585873 
2173	 0.289022421508539 
2174	 0.288925683127691 
2175	 0.288865972174691 
2176	 0.288819573539253 
2177	 0.288765073160558 
2178	 0.288721808177452 
2179	 0.28867824845878 
2180	 0.28863113567266 
2181	 0.288585247400434 
2182	 0.288565767917005 
2183	 0.288499239200096 
2184	 0.288417435945106 
2185	 0.288312272473207 
2186	 0.288168744417447 
2187	 0.288029489316272 
2188	 0.287874295221278 
2189	 0.287717806542692 
2190	 0.287557029214827 
2191	 0.287387345264724 
2192	 0.287208265739055 
2193	 0.287025049458613 
2194	 0.286838181782216 
2195	 0.286641736203568 
2196	 0.286450309517331 
2197	 0.286235524266573 
2198	 0.285986899946807 
2199	 0.285715179849781 
2200	 0.285402068986281 
2201	 0.285059361649928 
2202	 0.284651831144111 
2203	 0.284173405460573 
2204	 0.283723086230862 
2205	 0.283183015749557 
2206	 0.282763271081666 
2207	 0.282371726546468 
2208	 0.282066762962814 
2209	 0.281807821237886 
2210	 0.281661755719438 
2211	 0.281634950182185 
2212	 0.281625648160154 
2213	 0.281772113244604 
2214	 0.28180902673388 
2215	 0.281875917192171 
2216	 0.281843975247267 
2217	 0.28180173027975 
2218	 0.281602817289221 
2219	 0.281316503758087 
2220	 0.280905896383803 
2221	 0.280352722993755 
2222	 0.279682203974297 
2223	 0.278962484808304 
2224	 0.278101525726224 
2225	 0.277169250130922 
2226	 0.27614903868476 
2227	 0.274951100067596 
2228	 0.273616166492873 
2229	 0.272175779001604 
2230	 0.270535173024125 
2231	 0.268899386808056 
2232	 0.26721418218569 
2233	 0.26538667387988 
2234	 0.26353745764379 
2235	 0.261437805254648 
2236	 0.259137854389846 
2237	 0.256745832921208 
2238	 0.254087880305033 
2239	 0.251494869450679 
2240	 0.248867228982367 
2241	 0.246137481308442 
2242	 0.243455757270796 
2243	 0.240531771080189 
2244	 0.237380838178014 
2245	 0.234227603696431 
2246	 0.230797760278857 
2247	 0.227526383927852 
2248	 0.224326779365915 
2249	 0.22109264738252 
2250	 0.217877240235697 
2251	 0.214749507064861 
2252	 0.211391299161538 
2253	 0.208141803524656 
2254	 0.204921962719215 
2255	 0.201713944418801 
2256	 0.198822078488076 
2257	 0.195981026851825 
2258	 0.193260661298446 
2259	 0.19070567579623 
2260	 0.188188552036838 
2261	 0.185716032742968 
2262	 0.183436330043933 
2263	 0.181242657209539 
2264	 0.179257260250295 
2265	 0.177505514108325 
2266	 0.175765318211622 
2267	 0.174212459855748 
2268	 0.172632284639638 
2269	 0.171090103715204 
2270	 0.169607193735109 
2271	 0.16816277382866 
2272	 0.166775400934681 
2273	 0.165501473704566 
2274	 0.164160654762726 
2275	 0.162896231933621 
2276	 0.161517185742186 
2277	 0.160073071293352 
2278	 0.158590621471151 
2279	 0.156988807028505 
2280	 0.155436366161579 
2281	 0.153908108230671 
2282	 0.152307534897157 
2283	 0.150692565408992 
2284	 0.149064498709742 
2285	 0.147274162738739 
2286	 0.145524747850534 
2287	 0.14379146695833 
2288	 0.14203925948641 
2289	 0.140422349678351 
2290	 0.138806967790701 
2291	 0.137264040774872 
2292	 0.135792738017653 
2293	 0.134275190743221 
2294	 0.132878159176727 
2295	 0.131567564768142 
2296	 0.130373402997054 
2297	 0.129430172782176 
2298	 0.128695602322223 
2299	 0.128139365938627 
2300	 0.127795273841141 
2301	 0.127639262024992 
2302	 0.127674886458695 
2303	 0.127930823522385 
2304	 0.128417369428958 
2305	 0.129079959246917 
2306	 0.129996049179419 
2307	 0.131021652315474 
2308	 0.132221620166331 
2309	 0.133591385186783 
2310	 0.135167827348805 
2311	 0.136808720982686 
2312	 0.138751205241424 
2313	 0.140499574508824 
2314	 0.14231393830388 
2315	 0.143973091347021 
2316	 0.145504342572131 
2317	 0.146977150643429 
2318	 0.148432978321981 
2319	 0.149670441051894 
2320	 0.150834007149856 
2321	 0.151753807624777 
2322	 0.152385550751898 
2323	 0.152951388722299 
2324	 0.153338292538821 
2325	 0.153615903908208 
2326	 0.153809561189491 
2327	 0.153815090422322 
2328	 0.153585825828096 
2329	 0.153322686468241 
2330	 0.152950541297464 
2331	 0.152410991788333 
2332	 0.151884406908464 
2333	 0.151248615467149 
2334	 0.150412509015529 
2335	 0.149588947671695 
2336	 0.148647871563393 
2337	 0.147646612796511 
2338	 0.146745070765691 
2339	 0.145826386062759 
2340	 0.144941280408107 
2341	 0.14414148685136 
2342	 0.143413457206808 
2343	 0.142801427926013 
2344	 0.142365835617029 
2345	 0.142166843178792 
2346	 0.142239857381895 
2347	 0.142547870751211 
2348	 0.142996207202472 
2349	 0.14372088825322 
2350	 0.144575069777113 
2351	 0.145528208648175 
2352	 0.146692058271897 
2353	 0.147878127724604 
2354	 0.148948705491186 
2355	 0.149993180484172 
2356	 0.150951320834935 
2357	 0.151765575291479 
2358	 0.15254418932214 
2359	 0.153116565724281 
2360	 0.153529410437177 
2361	 0.153849861544953 
2362	 0.154077469911979 
2363	 0.154299513344218 
2364	 0.154491714602324 
2365	 0.154676400995569 
2366	 0.154815274210438 
2367	 0.154893724934846 
2368	 0.154937760944545 
2369	 0.154906250292662 
2370	 0.154896410616189 
2371	 0.15490049836034 
2372	 0.154845445879166 
2373	 0.154825056031253 
2374	 0.15479210591467 
2375	 0.154694188577989 
2376	 0.154624687107228 
2377	 0.154599429406085 
2378	 0.154576603180838 
2379	 0.154504479202046 
2380	 0.15440097553496 
2381	 0.154352327754663 
2382	 0.154316365064807 
2383	 0.154278839665423 
2384	 0.154235262971801 
2385	 0.154224428673898 
2386	 0.154181039694489 
2387	 0.154098291697428 
2388	 0.15404913867748 
2389	 0.154033019985904 
2390	 0.154016386906369 
2391	 0.153987120142705 
2392	 0.153926306249279 
2393	 0.153882134611386 
2394	 0.153829706738416 
2395	 0.153727969892034 
2396	 0.153660962999067 
2397	 0.153623986054078 
2398	 0.153582851850306 
2399	 0.153508463064996 
2400	 0.153515050194603 
2401	 0.153589718203389 
2402	 0.153610316990724 
2403	 0.153667130730778 
2404	 0.153618956122068 
2405	 0.153571256514823 
2406	 0.153551371524766 
2407	 0.153586766809005 
2408	 0.153756140613387 
2409	 0.153884748845312 
2410	 0.153963170559643 
2411	 0.153961621829208 
2412	 0.153925421968755 
2413	 0.153950826278932 
2414	 0.153970738983078 
2415	 0.154028416670638 
2416	 0.153995851531073 
2417	 0.153830903971516 
2418	 0.153742440802022 
2419	 0.153644528827906 
2420	 0.153484110713937 
2421	 0.153484955844054 
2422	 0.153488206845119 
2423	 0.153436792384616 
2424	 0.15345575010169 
2425	 0.153303963751745 
2426	 0.153158401816042 
2427	 0.153110034081744 
2428	 0.153015146307759 
2429	 0.15299700933811 
2430	 0.152871310679441 
2431	 0.152618939895742 
2432	 0.152492391102421 
2433	 0.152375144860417 
2434	 0.152163532347949 
2435	 0.151965801940875 
2436	 0.151650209711883 
2437	 0.151281654968636 
2438	 0.151055264289485 
2439	 0.150815002731997 
2440	 0.150538851138551 
2441	 0.150287075631227 
2442	 0.149980638036749 
2443	 0.149627945226432 
2444	 0.14927149345253 
2445	 0.148870387237726 
2446	 0.148493693024816 
2447	 0.148210736394225 
2448	 0.147990797443695 
2449	 0.147627544616013 
2450	 0.147138635943274 
2451	 0.146851654804646 
2452	 0.14653522101164 
2453	 0.146171131868294 
2454	 0.145818021488577 
2455	 0.14523300910609 
2456	 0.144651982765726 
2457	 0.144277061522106 
2458	 0.144140622515668 
2459	 0.143974139794853 
2460	 0.143696470384565 
2461	 0.14352937125881 
2462	 0.143259939254478 
2463	 0.142954782003905 
2464	 0.142891822105417 
2465	 0.142882840956403 
2466	 0.14283246495309 
2467	 0.142833376301128 
2468	 0.142725314716156 
2469	 0.142453248498465 
2470	 0.142311468136402 
2471	 0.142382225740386 
2472	 0.142361717502114 
2473	 0.142344308083505 
2474	 0.142365306101561 
2475	 0.14232450150618 
2476	 0.142485725984228 
2477	 0.142656525713027 
2478	 0.142694000824403 
2479	 0.142759476470664 
2480	 0.142772174619002 
2481	 0.142831778982655 
2482	 0.142929457331083 
2483	 0.14305099925763 
2484	 0.143108974122211 
2485	 0.14319555064916 
2486	 0.143184404083751 
2487	 0.143094657605925 
2488	 0.143178352909648 
2489	 0.143321314506714 
2490	 0.143642306782926 
2491	 0.144068086711091 
2492	 0.144399944068422 
2493	 0.144671281329962 
2494	 0.14455601855534 
2495	 0.144508797089074 
2496	 0.144790284369658 
2497	 0.144846805708234 
2498	 0.145282105954987 
2499	 0.146003954194598 
2500	 0.146268724449427 
