Wavelength	spectrum00022.asd
350	 3.38258533355509E-02 
351	 3.12012736750503E-02 
352	 0.029941942348218 
353	 3.14241675278549E-02 
354	 3.39022996915892E-02 
355	 3.32855302973871E-02 
356	 3.22125074460421E-02 
357	 3.27496751704966E-02 
358	 3.01464522263189E-02 
359	 2.89111134204374E-02 
360	 2.92534904342427E-02 
361	 2.92612425997299E-02 
362	 3.01317195204223E-02 
363	 0.03030945395739 
364	 2.92486839970356E-02 
365	 0.027961867339043 
366	 2.84550198955173E-02 
367	 2.91052156568741E-02 
368	 2.85650077723007E-02 
369	 2.95321836667442E-02 
370	 0.030303126161838 
371	 3.00175330165456E-02 
372	 2.87232830692853E-02 
373	 2.94082530368314E-02 
374	 2.98456877683752E-02 
375	 0.029272089527915 
376	 2.98263586977357E-02 
377	 2.96857189987353E-02 
378	 2.91151493980111E-02 
379	 0.028895968071768 
380	 2.96914199936792E-02 
381	 3.01268490625193E-02 
382	 2.96161302744462E-02 
383	 2.83831237019098E-02 
384	 2.86981093776451E-02 
385	 2.98375592080305E-02 
386	 0.030296027807442 
387	 2.78925613013991E-02 
388	 0.027586597465354 
389	 2.87124349722219E-02 
390	 2.92617475301732E-02 
391	 2.86285154041287E-02 
392	 2.83929378656867E-02 
393	 2.88413659985647E-02 
394	 2.92837131642259E-02 
395	 2.88749186885342E-02 
396	 0.028731843475849 
397	 2.92108522659675E-02 
398	 0.029022479500155 
399	 0.028491151432697 
400	 2.82041632260269E-02 
401	 2.85222716105964E-02 
402	 2.84957973600213E-02 
403	 2.87151167099526E-02 
404	 0.028935329825872 
405	 2.83958954922088E-02 
406	 2.86695284208755E-02 
407	 2.88591925560445E-02 
408	 2.85315848968709E-02 
409	 2.89121084206106E-02 
410	 2.87086413390401E-02 
411	 2.83668438928732E-02 
412	 0.028597822699178 
413	 2.84211245584674E-02 
414	 2.82761583187072E-02 
415	 2.83404969295023E-02 
416	 2.84805351340505E-02 
417	 2.84229214948373E-02 
418	 2.83649228691255E-02 
419	 2.84321428154454E-02 
420	 2.83998984111722E-02 
421	 2.81028342612549E-02 
422	 2.79973021812099E-02 
423	 2.85262889710591E-02 
424	 2.83058043303963E-02 
425	 2.80146269148921E-02 
426	 2.80237901611146E-02 
427	 2.81599313194389E-02 
428	 2.81610852743076E-02 
429	 2.80613703475082E-02 
430	 0.027964421041854 
431	 2.79191799252456E-02 
432	 2.80283634276211E-02 
433	 2.81208269483533E-02 
434	 2.79368135838673E-02 
435	 2.79134169582178E-02 
436	 2.79428179899761E-02 
437	 2.79017684195661E-02 
438	 2.77312023599429E-02 
439	 2.77428168623711E-02 
440	 2.78355054633983E-02 
441	 0.027838175012262 
442	 2.78526793640376E-02 
443	 2.78886629612508E-02 
444	 2.79531881288029E-02 
445	 2.80413772915574E-02 
446	 2.79785476067123E-02 
447	 0.027879908747994 
448	 2.78313899994417E-02 
449	 2.77221752495299E-02 
450	 2.78353104431926E-02 
451	 2.79822625374623E-02 
452	 2.78721934242697E-02 
453	 2.78090656499411E-02 
454	 2.78697447078819E-02 
455	 2.79684723788492E-02 
456	 2.78681493397776E-02 
457	 2.78841365487095E-02 
458	 2.78587542995494E-02 
459	 2.76960326275914E-02 
460	 2.78158928782497E-02 
461	 2.78810422486978E-02 
462	 2.78318268915013E-02 
463	 2.77787037344214E-02 
464	 2.78173342588289E-02 
465	 2.79439269628144E-02 
466	 2.80502285270467E-02 
467	 2.78834182232852E-02 
468	 2.78156851371732E-02 
469	 2.78553541340397E-02 
470	 2.79159837153749E-02 
471	 2.80450382330075E-02 
472	 2.79829954522642E-02 
473	 2.77931090237854E-02 
474	 2.77862942371168E-02 
475	 2.78207566602662E-02 
476	 2.78424682133885E-02 
477	 0.027832598671964 
478	 2.78206203300166E-02 
479	 2.78034599750396E-02 
480	 2.77867846062659E-02 
481	 2.77795888943199E-02 
482	 2.77858763331228E-02 
483	 2.78606254423328E-02 
484	 2.79385677822191E-02 
485	 2.78221325918885E-02 
486	 2.78865479145351E-02 
487	 2.79548966065081E-02 
488	 2.78441354141008E-02 
489	 2.77369704274978E-02 
490	 2.78249923598246E-02 
491	 0.028014770080186 
492	 2.80530633257391E-02 
493	 2.79643397918568E-02 
494	 2.78969595942816E-02 
495	 2.79303957150146E-02 
496	 2.80158973666708E-02 
497	 2.79613724692702E-02 
498	 2.79117736985602E-02 
499	 2.80277363994209E-02 
500	 2.80156759492315E-02 
501	 2.79603981576518E-02 
502	 2.79142694591529E-02 
503	 0.027886993113933 
504	 2.79070325276011E-02 
505	 2.79213416548984E-02 
506	 2.79076699103845E-02 
507	 2.79649057357786E-02 
508	 0.027940078134153 
509	 0.027893941506855 
510	 2.79544504214999E-02 
511	 2.79944022886112E-02 
512	 2.79780254787769E-02 
513	 0.027938882829848 
514	 2.79881769839217E-02 
515	 2.79527189504275E-02 
516	 2.78898688807505E-02 
517	 2.78854771561757E-02 
518	 2.79090591834809E-02 
519	 2.78941766102306E-02 
520	 2.78635700580624E-02 
521	 2.78943725907737E-02 
522	 2.79141770078678E-02 
523	 2.79199443748369E-02 
524	 2.79215491830153E-02 
525	 2.79398841061221E-02 
526	 2.78866963607244E-02 
527	 2.78619319572007E-02 
528	 2.79723164095816E-02 
529	 0.027960934870536 
530	 2.79404063787157E-02 
531	 2.79472164229109E-02 
532	 2.79145653896324E-02 
533	 2.79532718949424E-02 
534	 2.80050094803443E-02 
535	 2.80069401671811E-02 
536	 2.79904953889309E-02 
537	 2.79881260116622E-02 
538	 0.028006306658417 
539	 2.80310665421035E-02 
540	 0.028014299125311 
541	 2.80405942626988E-02 
542	 2.81152973922919E-02 
543	 2.80898968621241E-02 
544	 2.81017565694126E-02 
545	 2.81032758915025E-02 
546	 2.80372211419319E-02 
547	 2.80664353522092E-02 
548	 2.80936695425098E-02 
549	 2.80926270619209E-02 
550	 2.81062100903798E-02 
551	 2.80583891099857E-02 
552	 2.80234698118175E-02 
553	 0.028038878704015 
554	 2.79715912724944E-02 
555	 2.79469085058798E-02 
556	 2.79492340384269E-02 
557	 2.79116066919737E-02 
558	 2.79248971534449E-02 
559	 2.79305578147087E-02 
560	 2.79079110571108E-02 
561	 2.79070692563282E-02 
562	 2.79051444192013E-02 
563	 2.79343353656022E-02 
564	 0.028011849049661 
565	 0.028051198336155 
566	 2.80608114076357E-02 
567	 2.80657264508176E-02 
568	 2.80967038678016E-02 
569	 2.80983037772742E-02 
570	 2.80673361670659E-02 
571	 2.80256373664846E-02 
572	 2.80311054765649E-02 
573	 2.80297738710604E-02 
574	 2.80350345684923E-02 
575	 0.028080705453725 
576	 2.81647114309414E-02 
577	 2.82250243278891E-02 
578	 2.82568924224986E-02 
579	 0.028323325372918 
580	 2.83602980256617E-02 
581	 2.83812951609615E-02 
582	 2.84096250547167E-02 
583	 2.84418572215256E-02 
584	 2.84630396196785E-02 
585	 2.84882536099242E-02 
586	 0.028544794562622 
587	 2.85934748476021E-02 
588	 2.86450058593696E-02 
589	 2.86905581995053E-02 
590	 2.86777126985028E-02 
591	 2.86775450235411E-02 
592	 2.87041510435089E-02 
593	 2.87394957423559E-02 
594	 2.87103810913232E-02 
595	 2.86980913561095E-02 
596	 2.87154270140856E-02 
597	 2.87128366077432E-02 
598	 2.87262037085153E-02 
599	 0.028752409502244 
600	 2.87886705347095E-02 
601	 2.88541730096526E-02 
602	 2.88991564470826E-02 
603	 2.89274975275287E-02 
604	 2.89643843447401E-02 
605	 2.89946762018356E-02 
606	 2.90486582035979E-02 
607	 2.91209534301057E-02 
608	 2.91590961003932E-02 
609	 2.91617781359416E-02 
610	 2.91872940695529E-02 
611	 2.92763423613766E-02 
612	 2.93696544857654E-02 
613	 2.93951406848561E-02 
614	 2.93858103861844E-02 
615	 2.94353877419684E-02 
616	 0.029483128556762 
617	 2.95359387560762E-02 
618	 2.96001827508792E-02 
619	 2.96687619598244E-02 
620	 2.97127544712063E-02 
621	 2.97567619745582E-02 
622	 2.98260720231113E-02 
623	 2.98493279330905E-02 
624	 2.98991184686104E-02 
625	 0.02998306368475 
626	 3.00437716904351E-02 
627	 3.00834295798989E-02 
628	 3.01326433065328E-02 
629	 0.030206891930889 
630	 3.02696370989014E-02 
631	 3.03262040467976E-02 
632	 3.03983092597513E-02 
633	 3.05004563257853E-02 
634	 3.05406088515921E-02 
635	 3.05806004173112E-02 
636	 3.06582645912149E-02 
637	 3.07638624882006E-02 
638	 0.03083885401867 
639	 3.08996354435128E-02 
640	 3.09682575355871E-02 
641	 3.10117737566842E-02 
642	 3.10748084709646E-02 
643	 3.11700016417596E-02 
644	 3.12830756466016E-02 
645	 3.13573633411027E-02 
646	 3.14416194140447E-02 
647	 3.15494223106677E-02 
648	 3.16126376529912E-02 
649	 3.17205533230703E-02 
650	 3.18298489588823E-02 
651	 0.031886281233372 
652	 3.19703186889519E-02 
653	 3.20635274296935E-02 
654	 3.21647516053039E-02 
655	 3.22854332964922E-02 
656	 3.23850857770098E-02 
657	 3.24816542359852E-02 
658	 3.25841890964709E-02 
659	 3.26564039528025E-02 
660	 3.27744989520818E-02 
661	 3.29105325286458E-02 
662	 3.30132629232467E-02 
663	 3.31444475118615E-02 
664	 3.32488454669508E-02 
665	 0.033333362365539 
666	 3.34692754639016E-02 
667	 3.35855576550447E-02 
668	 3.36946207983209E-02 
669	 3.38140025095759E-02 
670	 3.39290900303146E-02 
671	 3.40634126600671E-02 
672	 3.41987344498343E-02 
673	 0.034308077230568 
674	 3.44452743965018E-02 
675	 3.45791475902756E-02 
676	 3.47027974076933E-02 
677	 0.034846692219735 
678	 3.49857577495737E-02 
679	 3.51238636318845E-02 
680	 3.52675371074799E-02 
681	 3.54088045254871E-02 
682	 3.55659503844831E-02 
683	 3.57271680874674E-02 
684	 3.58679735443737E-02 
685	 3.60053359605792E-02 
686	 3.61602280357673E-02 
687	 3.63277854356964E-02 
688	 3.64677865047417E-02 
689	 3.66090468314147E-02 
690	 3.67647885341702E-02 
691	 3.69357696710128E-02 
692	 3.70960712180494E-02 
693	 3.72479694094223E-02 
694	 3.74023102375097E-02 
695	 3.75727509934636E-02 
696	 0.03775045092423 
697	 3.79155211872757E-02 
698	 3.80683534875025E-02 
699	 3.82414816436214E-02 
700	 3.84313239378803E-02 
701	 3.86299199021224E-02 
702	 0.038822530696457 
703	 3.89725787746806E-02 
704	 0.039156799017751 
705	 3.93701425951943E-02 
706	 3.95543335885237E-02 
707	 3.97475959348242E-02 
708	 3.99480585899149E-02 
709	 0.040142107793666 
710	 4.03026828616275E-02 
711	 4.05057951029108E-02 
712	 0.040727825714019 
713	 4.09271091167844E-02 
714	 4.11207988301461E-02 
715	 4.13322544103567E-02 
716	 4.15520165844618E-02 
717	 4.17515216058671E-02 
718	 0.041976817167612 
719	 4.21984066250045E-02 
720	 4.24032837459244E-02 
721	 4.26228650618924E-02 
722	 4.28403188824069E-02 
723	 4.30606372269483E-02 
724	 4.32901542270739E-02 
725	 4.35167754917859E-02 
726	 4.37382594121766E-02 
727	 4.39696289607763E-02 
728	 4.42310728609829E-02 
729	 4.44620498637714E-02 
730	 4.46975508138909E-02 
731	 4.49484172623554E-02 
732	 4.51632161423641E-02 
733	 4.54129894336789E-02 
734	 4.56799345980918E-02 
735	 4.59288803519762E-02 
736	 0.046160643709526 
737	 4.64116867645612E-02 
738	 4.66740020073489E-02 
739	 4.69150137580021E-02 
740	 0.047180669378291 
741	 0.047442825311264 
742	 4.76912737753419E-02 
743	 4.79562631580235E-02 
744	 4.82113849965383E-02 
745	 4.84913175572754E-02 
746	 4.88121698074114E-02 
747	 4.90741968348346E-02 
748	 4.93476839594889E-02 
749	 4.96321616680418E-02 
750	 4.98923418282563E-02 
751	 5.01667287172577E-02 
752	 5.04651784208738E-02 
753	 5.07683863240747E-02 
754	 5.10258925247846E-02 
755	 5.13136281609674E-02 
756	 5.16196685934175E-02 
757	 5.19163092925261E-02 
758	 5.21899531422957E-02 
759	 5.24859174428143E-02 
760	 5.27970063453593E-02 
761	 5.30951407110326E-02 
762	 5.33990210149244E-02 
763	 5.37043533599299E-02 
764	 5.40126414672439E-02 
765	 5.43323191296146E-02 
766	 5.46294290302965E-02 
767	 5.49402914050781E-02 
768	 5.52846390537946E-02 
769	 5.56150238956538E-02 
770	 5.59239895199548E-02 
771	 5.62342906101446E-02 
772	 5.65690892297348E-02 
773	 5.68863102113099E-02 
774	 5.72037996156116E-02 
775	 5.75253448939099E-02 
776	 5.78440710961957E-02 
777	 5.81875934938047E-02 
778	 5.85475604676208E-02 
779	 5.89023344433639E-02 
780	 5.92173110525717E-02 
781	 5.95390553976965E-02 
782	 5.98754124757203E-02 
783	 6.02229681762375E-02 
784	 6.05816941347838E-02 
785	 6.09471699670164E-02 
786	 6.13006278227546E-02 
787	 0.061625564040152 
788	 6.19819610501026E-02 
789	 6.23500955732825E-02 
790	 6.27111170423282E-02 
791	 6.30587536780663E-02 
792	 0.063427450978929 
793	 0.063796722960096 
794	 6.41530764336605E-02 
795	 6.45291437938273E-02 
796	 6.49077634354636E-02 
797	 6.52866922442477E-02 
798	 6.56637124848739E-02 
799	 6.60096917145292E-02 
800	 6.63807749029975E-02 
801	 0.066775681889549 
802	 6.71483888991551E-02 
803	 6.75158866989691E-02 
804	 6.78895209049866E-02 
805	 6.82768299971019E-02 
806	 6.86804629574705E-02 
807	 6.90855248960457E-02 
808	 6.94795001892539E-02 
809	 6.98599378407481E-02 
810	 7.02457649906476E-02 
811	 7.06557535115024E-02 
812	 7.10748240726909E-02 
813	 7.14740895207484E-02 
814	 7.18442583589266E-02 
815	 7.22407987089696E-02 
816	 7.26672248939484E-02 
817	 7.30794458977915E-02 
818	 7.34997554379312E-02 
819	 7.38992366925762E-02 
820	 7.42823263335504E-02 
821	 7.47180286862368E-02 
822	 7.51287755369554E-02 
823	 7.55482355222454E-02 
824	 7.60056050608445E-02 
825	 7.64263364071947E-02 
826	 7.68120793450984E-02 
827	 7.72106695696616E-02 
828	 7.76711910311126E-02 
829	 7.81164993164268E-02 
830	 0.078547076597692 
831	 7.89668072790889E-02 
832	 7.93806765827557E-02 
833	 0.07981417428817 
834	 8.02588139982013E-02 
835	 8.07055753782938E-02 
836	 8.11546818972858E-02 
837	 8.16060839673417E-02 
838	 8.20475277288478E-02 
839	 8.24770281619553E-02 
840	 8.29318393444409E-02 
841	 0.083375432504673 
842	 8.38094290778985E-02 
843	 8.42498219235603E-02 
844	 0.0846945613397 
845	 8.51425714713926E-02 
846	 8.55929827699218E-02 
847	 8.60448910878148E-02 
848	 8.64945383378469E-02 
849	 8.69513699124468E-02 
850	 8.74179259553445E-02 
851	 0.087885040049532 
852	 8.83561699006493E-02 
853	 8.88176396044913E-02 
854	 8.92722208171025E-02 
855	 8.97652408830962E-02 
856	 9.02206856706867E-02 
857	 9.06735743878701E-02 
858	 9.11623721647019E-02 
859	 9.16033520056159E-02 
860	 9.20683800873825E-02 
861	 0.092565993261893 
862	 9.30659158428229E-02 
863	 0.093537673878909 
864	 9.40113456074112E-02 
865	 9.44935566206745E-02 
866	 9.49672907505523E-02 
867	 9.54168406557885E-02 
868	 9.59006900037806E-02 
869	 9.64260473728445E-02 
870	 9.69195838854198E-02 
871	 9.74248409875704E-02 
872	 9.79126040664325E-02 
873	 9.83696544946605E-02 
874	 9.88480652739628E-02 
875	 9.93544324391526E-02 
876	 9.98711292387438E-02 
877	 0.100371317769781 
878	 0.10082426911958 
879	 0.101313224539371 
880	 0.101835605485237 
881	 0.102348217886898 
882	 0.102854176257427 
883	 0.103346833630116 
884	 0.103829731065649 
885	 0.104316792585636 
886	 0.104822957642534 
887	 0.105351411755682 
888	 0.105876963212882 
889	 0.106351505076712 
890	 0.106871029885151 
891	 0.107379006352155 
892	 0.107855674502656 
893	 0.108388853249616 
894	 0.108906917761472 
895	 0.109407637977288 
896	 0.109901532600442 
897	 0.110379281432255 
898	 0.110910701382604 
899	 0.111453209246012 
900	 0.111956287599119 
901	 0.112501461617635 
902	 0.113022209973669 
903	 0.113535838480066 
904	 0.114078370760297 
905	 0.114536970762653 
906	 0.115046054035964 
907	 0.11561321308512 
908	 0.116148773737708 
909	 0.116654391313697 
910	 0.117184549126076 
911	 0.117744272178191 
912	 0.118285287238444 
913	 0.118811974929951 
914	 0.119352847547775 
915	 0.119904488624478 
916	 0.120418308175005 
917	 0.120916109933755 
918	 0.121458007538997 
919	 0.122053200820445 
920	 0.12260798265017 
921	 0.123128032837606 
922	 0.123628969212575 
923	 0.124141192951995 
924	 0.124719461834301 
925	 0.125285161994794 
926	 0.12586725787512 
927	 0.126486574658417 
928	 0.127014284307388 
929	 0.127537715560242 
930	 0.128085933765633 
931	 0.128650438956453 
932	 0.129181173774275 
933	 0.12974754286252 
934	 0.130344434617694 
935	 0.130926795524903 
936	 0.131483137312287 
937	 0.132084566931547 
938	 0.13268371282564 
939	 0.133182352453602 
940	 0.133740000500706 
941	 0.134308997089905 
942	 0.134884910237329 
943	 0.135504199654526 
944	 0.136098075563787 
945	 0.136616859746613 
946	 0.13711271844628 
947	 0.137715912958221 
948	 0.138264542794545 
949	 0.138806270126663 
950	 0.13938025711242 
951	 0.139973593253033 
952	 0.140550298643215 
953	 0.141161449956498 
954	 0.141789173711954 
955	 0.142303161058619 
956	 0.142792335053204 
957	 0.14334423193481 
958	 0.143979895705935 
959	 0.144610207853149 
960	 0.145162580213608 
961	 0.145671507003467 
962	 0.146208939581281 
963	 0.146854678011898 
964	 0.147346387854039 
965	 0.147819653250357 
966	 0.148413415885298 
967	 0.14902363657248 
968	 0.14965794607942 
969	 0.150294318962985 
970	 0.150912676559276 
971	 0.151514214398605 
972	 0.152107902980921 
973	 0.152651504901965 
974	 0.153137403985983 
975	 0.153690844098049 
976	 0.15423910825453 
977	 0.154868393949839 
978	 0.155592221035465 
979	 0.156052248750295 
980	 0.156677992307347 
981	 0.157372851051991 
982	 0.157950481257811 
983	 0.158552216480819 
984	 0.159172267869584 
985	 0.159789682842126 
986	 0.160382118492994 
987	 0.160951596763721 
988	 0.161528350878218 
989	 0.162117672741195 
990	 0.162706795018657 
991	 0.163254831835446 
992	 0.163891639389369 
993	 0.16451061848851 
994	 0.165019488697548 
995	 0.165673039683564 
996	 0.166389325710318 
997	 0.167007118508513 
998	 0.167462889628287 
999	 0.168088096250223 
1000	 0.168787627137636 
1001	 0.171718506741282 
1002	 0.172262047151492 
1003	 0.172843671665963 
1004	 0.173419575637146 
1005	 0.173934522226375 
1006	 0.174507476386358 
1007	 0.17514008652065 
1008	 0.175740272202678 
1009	 0.176308394806427 
1010	 0.176916571926459 
1011	 0.177577067529226 
1012	 0.178182785264472 
1013	 0.178767695205755 
1014	 0.179361517487902 
1015	 0.179929212568887 
1016	 0.18049553088641 
1017	 0.181118440610069 
1018	 0.181732654026838 
1019	 0.182366622528777 
1020	 0.18302311574379 
1021	 0.183644568413717 
1022	 0.184259448107625 
1023	 0.184884307518579 
1024	 0.185466163924996 
1025	 0.186094143506355 
1026	 0.186754402397712 
1027	 0.18740385327244 
1028	 0.188068615129177 
1029	 0.188755676839905 
1030	 0.18937994856159 
1031	 0.190038505523911 
1032	 0.190633725366887 
1033	 0.191222999031058 
1034	 0.191899477590946 
1035	 0.192504272072089 
1036	 0.193146085695494 
1037	 0.193854343643862 
1038	 0.194490818127153 
1039	 0.195076285121205 
1040	 0.195708601523238 
1041	 0.196332047619449 
1042	 0.196974124423769 
1043	 0.197650327117369 
1044	 0.198310711661383 
1045	 0.198979827875019 
1046	 0.199597610743009 
1047	 0.200172920332491 
1048	 0.200784174135392 
1049	 0.20142368687735 
1050	 0.20205578780355 
1051	 0.202694529942893 
1052	 0.20331819544371 
1053	 0.203942483610841 
1054	 0.204548577919216 
1055	 0.205142632014787 
1056	 0.205728185619896 
1057	 0.206343925983411 
1058	 0.206955078401807 
1059	 0.207534028725581 
1060	 0.208185455185567 
1061	 0.208837533046521 
1062	 0.209449411591352 
1063	 0.210053599938644 
1064	 0.210648658670572 
1065	 0.211237320527169 
1066	 0.211836856519359 
1067	 0.212462861480343 
1068	 0.213094841291822 
1069	 0.213692100114278 
1070	 0.214287622172169 
1071	 0.214863493213071 
1072	 0.215452089065689 
1073	 0.216051235905183 
1074	 0.216673781341382 
1075	 0.217285049376592 
1076	 0.217895357504405 
1077	 0.218520936427858 
1078	 0.219111243623586 
1079	 0.219729764993021 
1080	 0.220364913510327 
1081	 0.22096449716514 
1082	 0.221589776529654 
1083	 0.222199156407944 
1084	 0.222783605085703 
1085	 0.223384320975512 
1086	 0.223981448489268 
1087	 0.224566837313383 
1088	 0.225180232321572 
1089	 0.225796797389114 
1090	 0.226369468895473 
1091	 0.226957568668974 
1092	 0.227549590119211 
1093	 0.22815173890863 
1094	 0.228799563945204 
1095	 0.229419419051527 
1096	 0.230040746135071 
1097	 0.230679388218992 
1098	 0.231261303953959 
1099	 0.231873959956966 
1100	 0.232510795195109 
1101	 0.23311618608243 
1102	 0.233747798523867 
1103	 0.23436367930526 
1104	 0.234968577069564 
1105	 0.235584453821856 
1106	 0.236233854957654 
1107	 0.23683706112986 
1108	 0.237449567188224 
1109	 0.238047416885053 
1110	 0.238617220904749 
1111	 0.239232178183902 
1112	 0.23984673317197 
1113	 0.240454250583045 
1114	 0.241060710996086 
1115	 0.241635332902139 
1116	 0.242242126046367 
1117	 0.242858464937133 
1118	 0.24345044071664 
1119	 0.244039312229518 
1120	 0.244621156182006 
1121	 0.245178934065268 
1122	 0.245742488025044 
1123	 0.246354971057987 
1124	 0.246929542754804 
1125	 0.247535681991003 
1126	 0.248155795288706 
1127	 0.248750050626341 
1128	 0.249361908415514 
1129	 0.249947402806179 
1130	 0.250534493842122 
1131	 0.251116983902369 
1132	 0.251669534628051 
1133	 0.252236355857534 
1134	 0.252778514049557 
1135	 0.253326751626543 
1136	 0.253879220237784 
1137	 0.254425120588123 
1138	 0.254952869615523 
1139	 0.255502411041335 
1140	 0.256072014346252 
1141	 0.256595921346555 
1142	 0.257134324630682 
1143	 0.257687151057001 
1144	 0.258191231250941 
1145	 0.258701059179924 
1146	 0.259202855361522 
1147	 0.259719196959594 
1148	 0.260259975123832 
1149	 0.260763082761866 
1150	 0.261277667311177 
1151	 0.261780036775839 
1152	 0.262287832479426 
1153	 0.262795825828134 
1154	 0.263306294042191 
1155	 0.263825235157304 
1156	 0.264338585655158 
1157	 0.264843360792285 
1158	 0.265335041756127 
1159	 0.265828628321948 
1160	 0.266308449197682 
1161	 0.266761029643659 
1162	 0.267251047405035 
1163	 0.267714748874389 
1164	 0.268178850125657 
1165	 0.268681170760118 
1166	 0.269153807610962 
1167	 0.269631077288911 
1168	 0.270089978929676 
1169	 0.270546797463842 
1170	 0.270985467607289 
1171	 0.271431310746426 
1172	 0.271884601402931 
1173	 0.272328942642883 
1174	 0.272756497708288 
1175	 0.273180847710622 
1176	 0.273606863668347 
1177	 0.274027280931136 
1178	 0.274433280582973 
1179	 0.274861279838772 
1180	 0.27526670994786 
1181	 0.275669989062434 
1182	 0.276095235872449 
1183	 0.27647919459907 
1184	 0.276852323098248 
1185	 0.277244170751106 
1186	 0.277634532909016 
1187	 0.278007749655904 
1188	 0.278406953526714 
1189	 0.278824566724822 
1190	 0.279247701798915 
1191	 0.279672177003859 
1192	 0.280107407455844 
1193	 0.280560001701432 
1194	 0.281014260298263 
1195	 0.281470486438924 
1196	 0.281946297140362 
1197	 0.282427857850604 
1198	 0.282931566568914 
1199	 0.283474737517853 
1200	 0.283985585871805 
1201	 0.284512002951028 
1202	 0.285045288940769 
1203	 0.285556227683068 
1204	 0.286106147284298 
1205	 0.286655577135098 
1206	 0.287220384015332 
1207	 0.287788548357694 
1208	 0.288352576661579 
1209	 0.288942056396747 
1210	 0.289537589601502 
1211	 0.290165015818866 
1212	 0.290826830078783 
1213	 0.291499327684991 
1214	 0.292189934415974 
1215	 0.292903210978534 
1216	 0.293640966895394 
1217	 0.294373656450745 
1218	 0.295119125202405 
1219	 0.295884388414572 
1220	 0.29663162591431 
1221	 0.297421663048345 
1222	 0.29819552894049 
1223	 0.298979539772819 
1224	 0.299757125888479 
1225	 0.300526971884747 
1226	 0.301292091061644 
1227	 0.302071356376394 
1228	 0.302813812240731 
1229	 0.30354135749612 
1230	 0.304259417279023 
1231	 0.304948677804822 
1232	 0.305645018123475 
1233	 0.306341917165321 
1234	 0.307015716070494 
1235	 0.307672977185151 
1236	 0.308333799349783 
1237	 0.308985976434857 
1238	 0.309629629369502 
1239	 0.310272998655367 
1240	 0.310906446848996 
1241	 0.311538320493876 
1242	 0.312137203291495 
1243	 0.312740407205966 
1244	 0.313337023606717 
1245	 0.313933342656566 
1246	 0.314514826909276 
1247	 0.315114657401165 
1248	 0.315724082724123 
1249	 0.31633126477063 
1250	 0.316943822796421 
1251	 0.317553912469887 
1252	 0.3181690479837 
1253	 0.318774439715999 
1254	 0.319386238251521 
1255	 0.319983126511278 
1256	 0.320560948193706 
1257	 0.321148063611427 
1258	 0.32173039540107 
1259	 0.322312193057659 
1260	 0.32290631213397 
1261	 0.323488046145423 
1262	 0.324043672886496 
1263	 0.324632953479912 
1264	 0.325203702106899 
1265	 0.325765603878176 
1266	 0.326335753257362 
1267	 0.326916198478217 
1268	 0.327471551815151 
1269	 0.328013494850278 
1270	 0.328563548559855 
1271	 0.329110265877242 
1272	 0.329642314409638 
1273	 0.330177729664255 
1274	 0.330697586703875 
1275	 0.331191948760359 
1276	 0.331685017010441 
1277	 0.332166070930699 
1278	 0.332655941835732 
1279	 0.333134184164427 
1280	 0.333622369574398 
1281	 0.334124184895254 
1282	 0.334620644300072 
1283	 0.335113084809374 
1284	 0.335606237085251 
1285	 0.336099097568177 
1286	 0.336592738748795 
1287	 0.337081413858875 
1288	 0.337570377745464 
1289	 0.338049933835822 
1290	 0.338518223071851 
1291	 0.338995563441035 
1292	 0.339468156159376 
1293	 0.339946404157479 
1294	 0.340428637886063 
1295	 0.340913226654333 
1296	 0.341403894687145 
1297	 0.341885152861205 
1298	 0.342362434605754 
1299	 0.342844121111446 
1300	 0.343325523656243 
1301	 0.343799321434217 
1302	 0.344268564823399 
1303	 0.344745000856336 
1304	 0.345210519344 
1305	 0.34568756824516 
1306	 0.346180069199788 
1307	 0.346670123004097 
1308	 0.347157401561423 
1309	 0.347657368961922 
1310	 0.348139994693129 
1311	 0.348623251348619 
1312	 0.349091764437979 
1313	 0.34953244680285 
1314	 0.350015345725342 
1315	 0.350511414201939 
1316	 0.350999880616497 
1317	 0.351518872808227 
1318	 0.352001744534946 
1319	 0.352454274636567 
1320	 0.352922890730081 
1321	 0.353386761317144 
1322	 0.353853900892275 
1323	 0.354324635713923 
1324	 0.354794763944925 
1325	 0.355269116697837 
1326	 0.355735223527197 
1327	 0.356195700395618 
1328	 0.356659288179235 
1329	 0.357130320923601 
1330	 0.357581091092118 
1331	 0.358022332431178 
1332	 0.358462508139814 
1333	 0.3588813595039 
1334	 0.359312067578151 
1335	 0.359728792266741 
1336	 0.360152419743835 
1337	 0.360551189430495 
1338	 0.360925355020717 
1339	 0.36131466987656 
1340	 0.361700285001467 
1341	 0.362085403789538 
1342	 0.362481796769549 
1343	 0.36285671107579 
1344	 0.363222596730816 
1345	 0.36357855896273 
1346	 0.36393005267415 
1347	 0.364258682232005 
1348	 0.364573593077881 
1349	 0.364876647819452 
1350	 0.365158818178997 
1351	 0.365437958963237 
1352	 0.365706469090524 
1353	 0.365973243036996 
1354	 0.366228224483209 
1355	 0.366486617719599 
1356	 0.366742126131477 
1357	 0.367002109921973 
1358	 0.367270101293467 
1359	 0.367529772924072 
1360	 0.367788428758256 
1361	 0.368041428373386 
1362	 0.368302423377829 
1363	 0.36855593042509 
1364	 0.368807978817606 
1365	 0.369069393951058 
1366	 0.369307261862359 
1367	 0.369532232418372 
1368	 0.36974863629652 
1369	 0.369951809893949 
1370	 0.370155313428406 
1371	 0.370355859163861 
1372	 0.370540463905426 
1373	 0.370723626256483 
1374	 0.370885249193603 
1375	 0.371027058368617 
1376	 0.3711646866666 
1377	 0.371299510150426 
1378	 0.371408936471948 
1379	 0.37149286231486 
1380	 0.371583833418698 
1381	 0.37165974839681 
1382	 0.371736059960241 
1383	 0.371811012913966 
1384	 0.371890629146145 
1385	 0.371953468189514 
1386	 0.372037588343666 
1387	 0.372142289844228 
1388	 0.372244498343023 
1389	 0.37235172806883 
1390	 0.372465085357878 
1391	 0.372579252387859 
1392	 0.372700746275479 
1393	 0.372838342788668 
1394	 0.372981520706373 
1395	 0.373120872237339 
1396	 0.37328006625492 
1397	 0.373390274271033 
1398	 0.373497525848732 
1399	 0.373547459762088 
1400	 0.373566153429811 
1401	 0.373535351323262 
1402	 0.37346359196844 
1403	 0.37334980967636 
1404	 0.373181021961833 
1405	 0.372999559977448 
1406	 0.372775335440445 
1407	 0.372549888653692 
1408	 0.372284515804874 
1409	 0.372050665058888 
1410	 0.371791131157035 
1411	 0.371590975786166 
1412	 0.371405894590195 
1413	 0.371282558914451 
1414	 0.371200407174671 
1415	 0.371167256831433 
1416	 0.37119400763223 
1417	 0.371246701191372 
1418	 0.371352335585472 
1419	 0.371471154415258 
1420	 0.371631837155341 
1421	 0.37178984831052 
1422	 0.37196466894957 
1423	 0.37214259049776 
1424	 0.372320199628551 
1425	 0.372514210971895 
1426	 0.372699540278726 
1427	 0.372919233888009 
1428	 0.373148677070693 
1429	 0.373359839921835 
1430	 0.373600810911254 
1431	 0.373849748723824 
1432	 0.3741280654507 
1433	 0.374427938684642 
1434	 0.374743279922793 
1435	 0.375084503137436 
1436	 0.37543190517109 
1437	 0.375792966918229 
1438	 0.376160931662671 
1439	 0.376539921678941 
1440	 0.376932464357597 
1441	 0.377338881246266 
1442	 0.377750161260261 
1443	 0.378179560919475 
1444	 0.378604276541042 
1445	 0.379033615420543 
1446	 0.379456137758003 
1447	 0.3798710346092 
1448	 0.380302491744784 
1449	 0.380738896793284 
1450	 0.38117861076123 
1451	 0.381637036551945 
1452	 0.382084547624255 
1453	 0.382521020376375 
1454	 0.38296615146887 
1455	 0.383414335519989 
1456	 0.383863975370126 
1457	 0.384337057468433 
1458	 0.384779740799844 
1459	 0.385202514131793 
1460	 0.385629827576841 
1461	 0.386033724123115 
1462	 0.386445920322263 
1463	 0.386867312541979 
1464	 0.38728776512103 
1465	 0.38768853118696 
1466	 0.388126594088098 
1467	 0.388559090570161 
1468	 0.389004728271558 
1469	 0.389483785454772 
1470	 0.389929132126494 
1471	 0.390364163763774 
1472	 0.390785111112353 
1473	 0.391226624286301 
1474	 0.391660778675288 
1475	 0.392092132268757 
1476	 0.392546886701444 
1477	 0.392969282511332 
1478	 0.39336194095046 
1479	 0.393761844320263 
1480	 0.394160153048094 
1481	 0.39455332178277 
1482	 0.394943758511228 
1483	 0.39531995993565 
1484	 0.395688930580649 
1485	 0.39605279964559 
1486	 0.396394683466026 
1487	 0.396752202911268 
1488	 0.3971069654305 
1489	 0.397478861008874 
1490	 0.397866589159557 
1491	 0.398247782854275 
1492	 0.398637055699169 
1493	 0.39902734070668 
1494	 0.399410082201838 
1495	 0.399802289999354 
1496	 0.400205127558022 
1497	 0.400607045894427 
1498	 0.401009146449975 
1499	 0.40141875824146 
1500	 0.401819748420475 
1501	 0.402251819568 
1502	 0.402705181050031 
1503	 0.403159323498597 
1504	 0.403635451648705 
1505	 0.40411171194181 
1506	 0.4046020151887 
1507	 0.405074197273351 
1508	 0.405543081383975 
1509	 0.406011253045079 
1510	 0.406463430822105 
1511	 0.406916486159156 
1512	 0.407365933738182 
1513	 0.407828103595177 
1514	 0.408291250037251 
1515	 0.408758518474765 
1516	 0.409245425525295 
1517	 0.409723968459849 
1518	 0.410200761736777 
1519	 0.410669529797852 
1520	 0.41113385274959 
1521	 0.411593250783165 
1522	 0.412035736625048 
1523	 0.41249977107025 
1524	 0.412966872848943 
1525	 0.413439390200417 
1526	 0.413918138702836 
1527	 0.414412671412835 
1528	 0.414884358712547 
1529	 0.415347160172514 
1530	 0.415824144490404 
1531	 0.416296406831078 
1532	 0.416774847765956 
1533	 0.417262887985514 
1534	 0.417758101965398 
1535	 0.418257688076535 
1536	 0.418745729329063 
1537	 0.419251490771077 
1538	 0.419723885101195 
1539	 0.420168776513381 
1540	 0.420620629489912 
1541	 0.421065686703957 
1542	 0.421505424891333 
1543	 0.421942086115523 
1544	 0.422367056492273 
1545	 0.422775864365352 
1546	 0.423198036101831 
1547	 0.423626842994114 
1548	 0.424034240047235 
1549	 0.424446117226289 
1550	 0.424834353723427 
1551	 0.425195958558659 
1552	 0.425555962364703 
1553	 0.425900698034388 
1554	 0.426254858702296 
1555	 0.426601582825345 
1556	 0.42695310573101 
1557	 0.427310795206274 
1558	 0.427669320130136 
1559	 0.428031932904197 
1560	 0.428383275404218 
1561	 0.428726544332164 
1562	 0.429084235514099 
1563	 0.429433825854582 
1564	 0.42979892799504 
1565	 0.430178886880318 
1566	 0.430569009588204 
1567	 0.430967165728458 
1568	 0.43137091269939 
1569	 0.431800198838896 
1570	 0.432210266287258 
1571	 0.432622458065897 
1572	 0.433014535019938 
1573	 0.433388826046823 
1574	 0.433765169084079 
1575	 0.434124640000459 
1576	 0.434493286172949 
1577	 0.434858216654381 
1578	 0.435238734382241 
1579	 0.4356357606028 
1580	 0.436018352375521 
1581	 0.436405562493585 
1582	 0.436789481224475 
1583	 0.43716145680943 
1584	 0.437536367657286 
1585	 0.437912527154552 
1586	 0.438294261930397 
1587	 0.438676926069904 
1588	 0.439055750137583 
1589	 0.439435606709327 
1590	 0.439823299820456 
1591	 0.440221864866335 
1592	 0.440599105334689 
1593	 0.44097074150549 
1594	 0.441344253328044 
1595	 0.441700085493633 
1596	 0.442058812953128 
1597	 0.442425182758711 
1598	 0.442790709940203 
1599	 0.443146994537898 
1600	 0.443509886036755 
1601	 0.443886202223294 
1602	 0.444252100063069 
1603	 0.444614988364539 
1604	 0.444969988679643 
1605	 0.445320650469867 
1606	 0.445664613124192 
1607	 0.445997207057977 
1608	 0.446331659687109 
1609	 0.446656682471151 
1610	 0.446991228694621 
1611	 0.447351352440593 
1612	 0.447672322321863 
1613	 0.447965245069141 
1614	 0.448273724650727 
1615	 0.448568089378977 
1616	 0.448859577637089 
1617	 0.449171609290455 
1618	 0.449464052837595 
1619	 0.449727109669599 
1620	 0.449997668103651 
1621	 0.450273045119122 
1622	 0.450537773698278 
1623	 0.450793351566175 
1624	 0.45105211786264 
1625	 0.451305743691189 
1626	 0.451558956620293 
1627	 0.451824307827459 
1628	 0.452066334822133 
1629	 0.452293765720502 
1630	 0.45251707146364 
1631	 0.452722863179464 
1632	 0.452930912253432 
1633	 0.453143185736074 
1634	 0.453343708490186 
1635	 0.453520236985746 
1636	 0.453717968838199 
1637	 0.453921065204012 
1638	 0.454123523731753 
1639	 0.454353704849355 
1640	 0.454558472121743 
1641	 0.454747271970032 
1642	 0.454929394132952 
1643	 0.455106409980122 
1644	 0.455261848867111 
1645	 0.455396466274591 
1646	 0.455533135212637 
1647	 0.455664912256068 
1648	 0.455775252226847 
1649	 0.455881265224665 
1650	 0.455967466236752 
1651	 0.456026543303743 
1652	 0.456074269073298 
1653	 0.456118724833999 
1654	 0.456132656752305 
1655	 0.456126195040043 
1656	 0.45609242643203 
1657	 0.456031317646621 
1658	 0.455949551929939 
1659	 0.45585977620834 
1660	 0.455711151774941 
1661	 0.455524544966146 
1662	 0.455302055909673 
1663	 0.455030621556079 
1664	 0.454721770761813 
1665	 0.454385830323403 
1666	 0.453996294136049 
1667	 0.453556791351503 
1668	 0.453072039341659 
1669	 0.452555494987746 
1670	 0.451968449904658 
1671	 0.451321016866285 
1672	 0.450616568703853 
1673	 0.449839103527361 
1674	 0.449022141025051 
1675	 0.448164303363267 
1676	 0.447250330089913 
1677	 0.446309687794357 
1678	 0.44526320042046 
1679	 0.444113133233036 
1680	 0.44293185028884 
1681	 0.441667251176856 
1682	 0.440364910595611 
1683	 0.439048561397563 
1684	 0.437653466122189 
1685	 0.43617634336221 
1686	 0.434661714495244 
1687	 0.433059870819508 
1688	 0.431462772357991 
1689	 0.429817204540369 
1690	 0.428181761385378 
1691	 0.426544841388229 
1692	 0.424928624370413 
1693	 0.423318045527569 
1694	 0.421699668920574 
1695	 0.420082183231607 
1696	 0.418442615287073 
1697	 0.41678686154103 
1698	 0.415119488164299 
1699	 0.41343784243268 
1700	 0.411805520343022 
1701	 0.410137879143263 
1702	 0.408598267639936 
1703	 0.407093675370238 
1704	 0.405716190307128 
1705	 0.404424783974556 
1706	 0.403228840766647 
1707	 0.402233832596813 
1708	 0.401312744712154 
1709	 0.400466753649417 
1710	 0.399680392598785 
1711	 0.398863013724313 
1712	 0.398095451199401 
1713	 0.39733556132054 
1714	 0.396541176624625 
1715	 0.395803337384534 
1716	 0.395016404253698 
1717	 0.394222824366629 
1718	 0.393469359263585 
1719	 0.392725749867638 
1720	 0.392092247137437 
1721	 0.391575220394256 
1722	 0.391196501090621 
1723	 0.391001188422513 
1724	 0.390943783882052 
1725	 0.391044423499506 
1726	 0.391377965154803 
1727	 0.391928594727994 
1728	 0.392679744725496 
1729	 0.393654369196205 
1730	 0.394807222863037 
1731	 0.396030212679126 
1732	 0.397395212805385 
1733	 0.39879370387024 
1734	 0.400194267162213 
1735	 0.401620387922347 
1736	 0.402923658023261 
1737	 0.404162885614957 
1738	 0.405261396366505 
1739	 0.406230903697214 
1740	 0.407097280092896 
1741	 0.407839328746572 
1742	 0.40845238227036 
1743	 0.408968452547224 
1744	 0.409353598039002 
1745	 0.409650879299907 
1746	 0.409810237930597 
1747	 0.409948160178582 
1748	 0.409948649897866 
1749	 0.41003804305426 
1750	 0.41011088143539 
1751	 0.410233056228703 
1752	 0.410406367006656 
1753	 0.410608685594015 
1754	 0.410805110392557 
1755	 0.411100240988761 
1756	 0.411433074046184 
1757	 0.411876161563952 
1758	 0.412434472211621 
1759	 0.413070352918617 
1760	 0.413858660636963 
1761	 0.414780212896757 
1762	 0.415766114172871 
1763	 0.416869545133823 
1764	 0.418042805807331 
1765	 0.419289736001348 
1766	 0.420647653254121 
1767	 0.422027882010032 
1768	 0.423465115951678 
1769	 0.424935594066989 
1770	 0.42632074662879 
1771	 0.427681998520267 
1772	 0.428998596435436 
1773	 0.430244618025676 
1774	 0.431487866076323 
1775	 0.432684757683991 
1776	 0.433880423470633 
1777	 0.435025636697685 
1778	 0.436065060482966 
1779	 0.437082814899265 
1780	 0.437996969989311 
1781	 0.438827462800261 
1782	 0.43966480996761 
1783	 0.440424945128794 
1784	 0.441124232324898 
1785	 0.441740549635337 
1786	 0.442343978969144 
1787	 0.442933948416305 
1788	 0.4434640431016 
1789	 0.443941591019711 
1790	 0.444407643958546 
1791	 0.444817914820274 
1792	 0.445244365520544 
1793	 0.445677419016176 
1794	 0.446041689897693 
1795	 0.446389772577204 
1796	 0.446697681182486 
1797	 0.447006717011563 
1798	 0.447355694753387 
1799	 0.447687282619871 
1800	 0.448020021131415 
1801	 0.435142759592176 
1802	 0.435483901192211 
1803	 0.435815356161149 
1804	 0.436105990071111 
1805	 0.436427230455483 
1806	 0.436738548509054 
1807	 0.43707745348301 
1808	 0.437370248934338 
1809	 0.437625202343097 
1810	 0.437905313037822 
1811	 0.438155591639591 
1812	 0.438444766748156 
1813	 0.438752744539481 
1814	 0.439102432938736 
1815	 0.439430551846347 
1816	 0.439779680303745 
1817	 0.440119668142277 
1818	 0.440449935717693 
1819	 0.440788272591683 
1820	 0.441128769097223 
1821	 0.441479605851052 
1822	 0.44182644443616 
1823	 0.442209736689988 
1824	 0.442572174618298 
1825	 0.442948371755644 
1826	 0.443330355755111 
1827	 0.44372019164579 
1828	 0.444089222863094 
1829	 0.444458263298309 
1830	 0.444829725959699 
1831	 0.445179931867867 
1832	 0.445557089299449 
1833	 0.445934857212682 
1834	 0.446328406756301 
1835	 0.446724521296043 
1836	 0.447092086153019 
1837	 0.447495195100933 
1838	 0.447921736320899 
1839	 0.448337505764077 
1840	 0.448778587042572 
1841	 0.44920070582187 
1842	 0.44960710249977 
1843	 0.450005228982369 
1844	 0.450458103578541 
1845	 0.450879250035261 
1846	 0.451304946140344 
1847	 0.451736600313462 
1848	 0.452113996711694 
1849	 0.45243965414935 
1850	 0.452768933628944 
1851	 0.453076604366396 
1852	 0.45337168099478 
1853	 0.45367554371109 
1854	 0.453945938584252 
1855	 0.454203994043422 
1856	 0.454442565797145 
1857	 0.454642650656129 
1858	 0.454841477464195 
1859	 0.455023427011079 
1860	 0.45522025333753 
1861	 0.455337646996851 
1862	 0.455423549604129 
1863	 0.455467363014002 
1864	 0.455446560037889 
1865	 0.455389865662764 
1866	 0.455323211888547 
1867	 0.455216192263935 
1868	 0.45506525277113 
1869	 0.454869901993196 
1870	 0.454640201605571 
1871	 0.454385154492023 
1872	 0.454070684848535 
1873	 0.453712080245925 
1874	 0.453319904219122 
1875	 0.452876394931406 
1876	 0.452331566880044 
1877	 0.451762887553759 
1878	 0.451107494913363 
1879	 0.450346311842856 
1880	 0.449558059133342 
1881	 0.448663099567231 
1882	 0.447673608601777 
1883	 0.44661641591768 
1884	 0.445446243679087 
1885	 0.444082183456221 
1886	 0.442650106664788 
1887	 0.441067993550464 
1888	 0.439334206284628 
1889	 0.43764888345252 
1890	 0.435811979688527 
1891	 0.433939935833573 
1892	 0.432090445614261 
1893	 0.430160766688859 
1894	 0.428122287790912 
1895	 0.426170023851974 
1896	 0.424180055369766 
1897	 0.422165138617208 
1898	 0.420313297837386 
1899	 0.418434457699826 
1900	 0.416620970393813 
1901	 0.414882824272636 
1902	 0.413071316926161 
1903	 0.411384119497761 
1904	 0.409762623150073 
1905	 0.408174629779436 
1906	 0.406670187867442 
1907	 0.405367777537657 
1908	 0.404067983518489 
1909	 0.402831635132331 
1910	 0.401683434049662 
1911	 0.400513272885074 
1912	 0.399436094246093 
1913	 0.398400599444435 
1914	 0.397385070716318 
1915	 0.396449998216847 
1916	 0.395593707518899 
1917	 0.394745574473611 
1918	 0.393965707883503 
1919	 0.393237507895837 
1920	 0.392502763604726 
1921	 0.391837571545221 
1922	 0.39120471443883 
1923	 0.390615824505284 
1924	 0.390124623215963 
1925	 0.389665235938611 
1926	 0.389232223762017 
1927	 0.388841459930646 
1928	 0.388485444827175 
1929	 0.388154673369094 
1930	 0.387860906324571 
1931	 0.387620129621168 
1932	 0.387449509920508 
1933	 0.387327023488347 
1934	 0.38723859448287 
1935	 0.387178271453949 
1936	 0.387154567221504 
1937	 0.387203917381903 
1938	 0.38731170371962 
1939	 0.387450488457765 
1940	 0.387647597932058 
1941	 0.387900468832514 
1942	 0.388148335872804 
1943	 0.388437411199558 
1944	 0.388762613810776 
1945	 0.389101064383975 
1946	 0.389492655327342 
1947	 0.38988782771836 
1948	 0.390314600859405 
1949	 0.390798049236638 
1950	 0.391271132993421 
1951	 0.391752405724797 
1952	 0.392252578849227 
1953	 0.39277211807552 
1954	 0.39328592701309 
1955	 0.393831383409718 
1956	 0.394362479203207 
1957	 0.394908202566609 
1958	 0.395455434271609 
1959	 0.395981262868472 
1960	 0.396536971195708 
1961	 0.397082847316458 
1962	 0.397622432082323 
1963	 0.398178010615195 
1964	 0.398746346232398 
1965	 0.399293531551894 
1966	 0.399850305348839 
1967	 0.400401176315724 
1968	 0.400887011689255 
1969	 0.401388568381922 
1970	 0.401888100091203 
1971	 0.402359100713602 
1972	 0.40289085117196 
1973	 0.403442557769096 
1974	 0.403971875578995 
1975	 0.404524555892719 
1976	 0.405047204293341 
1977	 0.405530923432959 
1978	 0.406029101145461 
1979	 0.406522576861505 
1980	 0.40701744889501 
1981	 0.407537155851197 
1982	 0.408025766502586 
1983	 0.40852216113126 
1984	 0.40902013041575 
1985	 0.409451816592324 
1986	 0.409909918519197 
1987	 0.410372815848026 
1988	 0.410822556248371 
1989	 0.411285830146462 
1990	 0.411794723975506 
1991	 0.412253496068681 
1992	 0.412697066303775 
1993	 0.413131200943118 
1994	 0.413519980385932 
1995	 0.413884201733078 
1996	 0.414267369582835 
1997	 0.414639466597173 
1998	 0.415011643147747 
1999	 0.415398335080151 
2000	 0.415758319706307 
2001	 0.416113581609074 
2002	 0.416441106365744 
2003	 0.416751898909522 
2004	 0.417042684253752 
2005	 0.417295401839716 
2006	 0.417551074278256 
2007	 0.417799776819295 
2008	 0.418035987607427 
2009	 0.418258771492619 
2010	 0.418474507823933 
2011	 0.41865651531562 
2012	 0.418816336424867 
2013	 0.418944079225701 
2014	 0.419053537573159 
2015	 0.41911487674129 
2016	 0.419147789884128 
2017	 0.419130470655468 
2018	 0.419067356990518 
2019	 0.418962431039148 
2020	 0.418815247931328 
2021	 0.418618915343129 
2022	 0.418386075235974 
2023	 0.418118454131595 
2024	 0.417793168695556 
2025	 0.41744376667121 
2026	 0.417051076888418 
2027	 0.416594046171614 
2028	 0.4161487995776 
2029	 0.415665360341781 
2030	 0.41518401898583 
2031	 0.414692811567497 
2032	 0.414210481525892 
2033	 0.413689156657241 
2034	 0.413231472522979 
2035	 0.412803369959843 
2036	 0.412372037383921 
2037	 0.412023211415149 
2038	 0.41172346822936 
2039	 0.411475250444125 
2040	 0.411282957321304 
2041	 0.411143366762189 
2042	 0.411054642300115 
2043	 0.411018711303258 
2044	 0.411052456686724 
2045	 0.411106140141029 
2046	 0.411208749826951 
2047	 0.411340101930935 
2048	 0.411507041875615 
2049	 0.411700787300839 
2050	 0.41194448194303 
2051	 0.412188853692844 
2052	 0.41245567746685 
2053	 0.412762655060705 
2054	 0.413068831758925 
2055	 0.413393224212928 
2056	 0.413727608297628 
2057	 0.414064517467898 
2058	 0.414431310903468 
2059	 0.414828444995049 
2060	 0.415219314958931 
2061	 0.415643674354164 
2062	 0.41604648853401 
2063	 0.416444694771366 
2064	 0.416831174523725 
2065	 0.417218229111074 
2066	 0.41757740655709 
2067	 0.417942459668813 
2068	 0.418288239761586 
2069	 0.418622355943468 
2070	 0.418953864413244 
2071	 0.419262118756615 
2072	 0.419543032230466 
2073	 0.41982795207211 
2074	 0.420098609781785 
2075	 0.420365984460389 
2076	 0.42063902957067 
2077	 0.420885842241372 
2078	 0.421129591985335 
2079	 0.421345294979031 
2080	 0.421531877437433 
2081	 0.421704174535723 
2082	 0.421858462537059 
2083	 0.421984611743241 
2084	 0.422101526414992 
2085	 0.422222380440246 
2086	 0.422336801719055 
2087	 0.422455770347143 
2088	 0.422543587609967 
2089	 0.422622643119414 
2090	 0.422680442208786 
2091	 0.422702681597108 
2092	 0.422732830773553 
2093	 0.422772890778595 
2094	 0.422772218243546 
2095	 0.422739657730116 
2096	 0.422714627064934 
2097	 0.422678640406425 
2098	 0.422608011282906 
2099	 0.422558526850453 
2100	 0.422519839471199 
2101	 0.422452508955232 
2102	 0.422367894190139 
2103	 0.422277796842307 
2104	 0.422180387893115 
2105	 0.4220584433844 
2106	 0.421934386170321 
2107	 0.421767707832009 
2108	 0.421572120214426 
2109	 0.42135426857707 
2110	 0.421092138632171 
2111	 0.420830932762341 
2112	 0.420542906191597 
2113	 0.420260786055215 
2114	 0.419977440829147 
2115	 0.419681943584138 
2116	 0.419376972155774 
2117	 0.419076567313003 
2118	 0.418759747458832 
2119	 0.418430598648463 
2120	 0.418096087409135 
2121	 0.417752228789357 
2122	 0.417407124098074 
2123	 0.417052832816206 
2124	 0.416695841736033 
2125	 0.416341603749687 
2126	 0.415970971041457 
2127	 0.415580370589166 
2128	 0.415203787387998 
2129	 0.414832867492763 
2130	 0.41444533160703 
2131	 0.414060106568427 
2132	 0.413664022919584 
2133	 0.41326143556163 
2134	 0.412840163310168 
2135	 0.412386355421348 
2136	 0.411930631001835 
2137	 0.41144437688691 
2138	 0.410896722186167 
2139	 0.410411912782955 
2140	 0.409941378892205 
2141	 0.409462220648025 
2142	 0.408995904361214 
2143	 0.408542302191566 
2144	 0.408083455392142 
2145	 0.407641000309444 
2146	 0.407239347622538 
2147	 0.406806373685894 
2148	 0.406347638716405 
2149	 0.405910057646428 
2150	 0.405469268860015 
2151	 0.405042969661665 
2152	 0.404620502018831 
2153	 0.404237915024498 
2154	 0.403836521121772 
2155	 0.403423048251151 
2156	 0.40302124471521 
2157	 0.402627290115524 
2158	 0.402206264218446 
2159	 0.401788491355307 
2160	 0.401348698870786 
2161	 0.400866417840622 
2162	 0.400421035833074 
2163	 0.39996892705213 
2164	 0.39954488739735 
2165	 0.399135851866619 
2166	 0.39875249103386 
2167	 0.398383523460222 
2168	 0.398045963343469 
2169	 0.397730079853656 
2170	 0.397449857047974 
2171	 0.397193405349781 
2172	 0.39697948232355 
2173	 0.39680850072975 
2174	 0.396654693697117 
2175	 0.396576443911122 
2176	 0.396536540589665 
2177	 0.396506013256478 
2178	 0.39652211311352 
2179	 0.396543581910224 
2180	 0.396566535018104 
2181	 0.39663225303069 
2182	 0.396745003985614 
2183	 0.396850228935825 
2184	 0.396974072691112 
2185	 0.397104934978383 
2186	 0.397243753052556 
2187	 0.397391912579695 
2188	 0.397558335888008 
2189	 0.397726798362683 
2190	 0.39790541124761 
2191	 0.39808354691009 
2192	 0.39828161524509 
2193	 0.398452215474333 
2194	 0.398606044006496 
2195	 0.398763517977414 
2196	 0.398914468710162 
2197	 0.399051383268126 
2198	 0.399182853888588 
2199	 0.399335784993551 
2200	 0.399470403247879 
2201	 0.399599576736064 
2202	 0.399707721105177 
2203	 0.399808898626398 
2204	 0.399894580977959 
2205	 0.399950955123577 
2206	 0.400017751420713 
2207	 0.400080704153002 
2208	 0.400146293437077 
2209	 0.400229835638946 
2210	 0.400268885338033 
2211	 0.40030288219784 
2212	 0.400296638756132 
2213	 0.400238759559643 
2214	 0.400180284688928 
2215	 0.400110779455184 
2216	 0.400016995859815 
2217	 0.399922164643336 
2218	 0.399774579222629 
2219	 0.399601703754533 
2220	 0.399375649667643 
2221	 0.399092142008331 
2222	 0.398776034928152 
2223	 0.398457468336509 
2224	 0.398058882305638 
2225	 0.397603524066431 
2226	 0.397119349170443 
2227	 0.396524285957307 
2228	 0.395831507882686 
2229	 0.39509245629617 
2230	 0.394293877786132 
2231	 0.39338520817275 
2232	 0.392412864378536 
2233	 0.391312036909635 
2234	 0.390122581612651 
2235	 0.388771860248774 
2236	 0.387289441968853 
2237	 0.385692883706293 
2238	 0.383904269824255 
2239	 0.382081914024768 
2240	 0.38020424548376 
2241	 0.378171638137107 
2242	 0.376095221074714 
2243	 0.373786417885541 
2244	 0.37126391292974 
2245	 0.368647665595678 
2246	 0.36574524547903 
2247	 0.362899353513403 
2248	 0.36004970230718 
2249	 0.357059042426501 
2250	 0.354002521236233 
2251	 0.350929861902123 
2252	 0.347499591190527 
2253	 0.344094704828349 
2254	 0.340593797593229 
2255	 0.336999793221393 
2256	 0.333662151174596 
2257	 0.330227796769741 
2258	 0.326860699948793 
2259	 0.323597942416378 
2260	 0.320243065556426 
2261	 0.316827334817812 
2262	 0.313509933772612 
2263	 0.31012320755662 
2264	 0.306929715680779 
2265	 0.303878647526136 
2266	 0.300814026925465 
2267	 0.297889193509292 
2268	 0.294902564260597 
2269	 0.291841301107843 
2270	 0.288947498554089 
2271	 0.286038551750129 
2272	 0.283333250487483 
2273	 0.280812347678827 
2274	 0.278345477650918 
2275	 0.276067664698843 
2276	 0.273770297048718 
2277	 0.271531147286461 
2278	 0.26933999779758 
2279	 0.267146183841301 
2280	 0.265042101243247 
2281	 0.263070244203812 
2282	 0.261053728985597 
2283	 0.259094587342284 
2284	 0.257141587126983 
2285	 0.25501712432156 
2286	 0.252915583402646 
2287	 0.250681272725827 
2288	 0.248357714945096 
2289	 0.246144745154114 
2290	 0.243741151224568 
2291	 0.241298376381486 
2292	 0.238838920286855 
2293	 0.236164843363578 
2294	 0.233526213694525 
2295	 0.230872197206977 
2296	 0.228193645743428 
2297	 0.225805846766452 
2298	 0.223524286567618 
2299	 0.221487343914673 
2300	 0.219685876198187 
2301	 0.218106844602578 
2302	 0.216656354463604 
2303	 0.21564628804349 
2304	 0.214903930292429 
2305	 0.214592924054459 
2306	 0.214720015709456 
2307	 0.215138398320999 
2308	 0.215898334729573 
2309	 0.21709721284073 
2310	 0.218782484950425 
2311	 0.220633866994957 
2312	 0.223079899684614 
2313	 0.225357642068344 
2314	 0.227805500269831 
2315	 0.230189387375764 
2316	 0.232647967706381 
2317	 0.234954077444315 
2318	 0.237314285884604 
2319	 0.239379675861714 
2320	 0.241329813808098 
2321	 0.242998739089424 
2322	 0.244396055225936 
2323	 0.245600034481439 
2324	 0.246564736191139 
2325	 0.247303166912346 
2326	 0.247812883884802 
2327	 0.248092187663311 
2328	 0.248087760486049 
2329	 0.247900193040023 
2330	 0.247483346014626 
2331	 0.2468488833773 
2332	 0.246015397062355 
2333	 0.244972164130404 
2334	 0.243700151034725 
2335	 0.242240842444988 
2336	 0.240532557841527 
2337	 0.238654006882126 
2338	 0.236817273372306 
2339	 0.234859357012722 
2340	 0.232957992393879 
2341	 0.231239550605441 
2342	 0.229433521808632 
2343	 0.227807173054649 
2344	 0.226521892251508 
2345	 0.225535263248171 
2346	 0.224992599031443 
2347	 0.224910262824772 
2348	 0.225145040349389 
2349	 0.225824432835455 
2350	 0.226904289302665 
2351	 0.228337530195223 
2352	 0.230040740749459 
2353	 0.231929935689658 
2354	 0.233825968054328 
2355	 0.235684891815173 
2356	 0.237489446050153 
2357	 0.239124439704043 
2358	 0.240784179897451 
2359	 0.242239173980838 
2360	 0.24341612121602 
2361	 0.244475106615619 
2362	 0.245271349370082 
2363	 0.245884419101212 
2364	 0.246479522919689 
2365	 0.246994372927061 
2366	 0.247474177732035 
2367	 0.247872274600941 
2368	 0.24824563519897 
2369	 0.248704946849105 
2370	 0.249044918651561 
2371	 0.24933398424006 
2372	 0.249653464898153 
2373	 0.249879306843927 
2374	 0.250145959392135 
2375	 0.250499806063287 
2376	 0.250811470618759 
2377	 0.251143901212908 
2378	 0.251484548624572 
2379	 0.251764063430918 
2380	 0.252089830074521 
2381	 0.252457008362406 
2382	 0.252780352357723 
2383	 0.2530917824427 
2384	 0.253368662135515 
2385	 0.253622082023268 
2386	 0.253853900374846 
2387	 0.254027167530991 
2388	 0.254273416191217 
2389	 0.254543962107035 
2390	 0.254774897175609 
2391	 0.25505732599072 
2392	 0.255205747608148 
2393	 0.255251345142311 
2394	 0.255334674357262 
2395	 0.255336545121703 
2396	 0.255445383699789 
2397	 0.255637151468038 
2398	 0.255749928901668 
2399	 0.255844233663061 
2400	 0.255969926292484 
2401	 0.256078518645974 
2402	 0.256183360307747 
2403	 0.256345692903899 
2404	 0.256522117528152 
2405	 0.256692712701832 
2406	 0.256951586419939 
2407	 0.257272754562474 
2408	 0.257619440297616 
2409	 0.25796514482784 
2410	 0.258260372149931 
2411	 0.258474301804767 
2412	 0.258582051786725 
2413	 0.25866932360911 
2414	 0.258887837293449 
2415	 0.259159575835809 
2416	 0.259418099685291 
2417	 0.259739259858566 
2418	 0.259952966960266 
2419	 0.26016124706151 
2420	 0.260453797102932 
2421	 0.260615890248044 
2422	 0.26074886665484 
2423	 0.260860690937701 
2424	 0.260976291819927 
2425	 0.261171060824522 
2426	 0.261403557342021 
2427	 0.261650439194556 
2428	 0.261761060061289 
2429	 0.26180126717342 
2430	 0.261855549619639 
2431	 0.261902261071737 
2432	 0.262023264584017 
2433	 0.262082524027079 
2434	 0.261998871336076 
2435	 0.261927679729126 
2436	 0.261820862774361 
2437	 0.261681322049295 
2438	 0.261664292983712 
2439	 0.261545110157926 
2440	 0.26123151455452 
2441	 0.260980836114899 
2442	 0.260631897823769 
2443	 0.260181764692087 
2444	 0.25980783989436 
2445	 0.259372834897196 
2446	 0.258939084672773 
2447	 0.258562561033338 
2448	 0.258166342111522 
2449	 0.257609074482986 
2450	 0.256889211789436 
2451	 0.2561628385124 
2452	 0.255448957350359 
2453	 0.254796330080189 
2454	 0.254243178003393 
2455	 0.253644495960598 
2456	 0.252918204511927 
2457	 0.252278158933626 
2458	 0.251806984835757 
2459	 0.251373841014668 
2460	 0.251066637610237 
2461	 0.250832280411967 
2462	 0.250503197869576 
2463	 0.250293852709684 
2464	 0.25021469159457 
2465	 0.25007031977795 
2466	 0.249990824128142 
2467	 0.249858875642275 
2468	 0.249689385423392 
2469	 0.249802601970191 
2470	 0.249932619160621 
2471	 0.249976252696695 
2472	 0.250157019024607 
2473	 0.250290408943873 
2474	 0.25026018224215 
2475	 0.250634673899193 
2476	 0.251153641056168 
2477	 0.251375676701407 
2478	 0.25181793429106 
2479	 0.252107602044106 
2480	 0.252421171824334 
2481	 0.252634325630335 
2482	 0.25276018612203 
2483	 0.252946980548013 
2484	 0.252901604453745 
2485	 0.253176515786706 
2486	 0.253625422532034 
2487	 0.253791510720471 
2488	 0.2540580137914 
2489	 0.254372933731095 
2490	 0.254513752533843 
2491	 0.254855833449629 
2492	 0.255266212048663 
2493	 0.255501915897841 
2494	 0.25576761855818 
2495	 0.256217500142736 
2496	 0.256622442074888 
2497	 0.256784783987102 
2498	 0.257222848654554 
2499	 0.257807881927328 
2500	 0.258414070235513 
