Wavelength	spectrum00024.asd
350	 4.07356914726399E-02 
351	 4.18521270051334E-02 
352	 4.19071216788141E-02 
353	 4.01585779344505E-02 
354	 4.02223270990854E-02 
355	 0.040773018622091 
356	 4.10894053507922E-02 
357	 4.07121564624302E-02 
358	 3.94432532640436E-02 
359	 3.86507420892053E-02 
360	 3.90693904862997E-02 
361	 4.05876415059021E-02 
362	 3.99087443111831E-02 
363	 0.038676661164464 
364	 3.81992692333752E-02 
365	 3.86500010033938E-02 
366	 3.98442912989816E-02 
367	 4.00559432688437E-02 
368	 3.85052963692454E-02 
369	 3.83759809834084E-02 
370	 3.88212349580716E-02 
371	 3.93662002666725E-02 
372	 3.97405519512195E-02 
373	 3.95054690013237E-02 
374	 3.94307710461563E-02 
375	 3.97623526924733E-02 
376	 3.98184935677405E-02 
377	 4.02392856284215E-02 
378	 0.040324207744919 
379	 3.95993458326218E-02 
380	 3.94566344608648E-02 
381	 3.98966594433565E-02 
382	 4.01000327645974E-02 
383	 3.90855227822343E-02 
384	 3.91159083491529E-02 
385	 3.95200394246555E-02 
386	 3.97617686385696E-02 
387	 0.040081026256009 
388	 3.99606589686313E-02 
389	 3.96897698776111E-02 
390	 3.96308270746436E-02 
391	 3.94797173254458E-02 
392	 0.039724540157099 
393	 4.01762757840053E-02 
394	 4.02494995965296E-02 
395	 4.03060965501387E-02 
396	 4.02082313985293E-02 
397	 4.00511065347488E-02 
398	 4.04702769873304E-02 
399	 0.040088014590552 
400	 3.94689753528313E-02 
401	 3.94843543195607E-02 
402	 3.97105520198008E-02 
403	 4.01550718441676E-02 
404	 4.03066918047377E-02 
405	 3.94561870136837E-02 
406	 3.96160427342852E-02 
407	 3.99388229688697E-02 
408	 0.03986755627824 
409	 4.03297969044446E-02 
410	 4.00800303163839E-02 
411	 3.95252443481648E-02 
412	 3.95127232123157E-02 
413	 4.02427656849036E-02 
414	 4.02090687686578E-02 
415	 0.039529352937354 
416	 3.97529884121118E-02 
417	 3.97374131086692E-02 
418	 3.97773112276512E-02 
419	 4.00610127760539E-02 
420	 3.99184979688342E-02 
421	 4.00083714212344E-02 
422	 4.01773734030516E-02 
423	 4.00416192117414E-02 
424	 4.00500025383614E-02 
425	 4.01272678882878E-02 
426	 4.01345215470475E-02 
427	 3.99147943152368E-02 
428	 3.98765360746615E-02 
429	 4.00570533082215E-02 
430	 4.02946701388701E-02 
431	 4.00889793323161E-02 
432	 4.01485494002723E-02 
433	 4.03596522533817E-02 
434	 4.02133084013814E-02 
435	 4.02326746596834E-02 
436	 4.02873760448054E-02 
437	 4.02707759912882E-02 
438	 4.02214262721595E-02 
439	 4.02835602482058E-02 
440	 4.04269814008203E-02 
441	 4.05426603332162E-02 
442	 4.04380120246252E-02 
443	 4.04092224131646E-02 
444	 0.040512520357753 
445	 4.05927760557159E-02 
446	 4.05538386160123E-02 
447	 4.04817901381928E-02 
448	 4.04587973286061E-02 
449	 4.04834482064554E-02 
450	 4.05690901041975E-02 
451	 4.06374703952002E-02 
452	 4.06054464152287E-02 
453	 4.05793489517672E-02 
454	 4.06489180458455E-02 
455	 4.07552193436529E-02 
456	 4.06864131210458E-02 
457	 4.07062669530803E-02 
458	 4.07507007252915E-02 
459	 4.07454105295479E-02 
460	 4.08194224078558E-02 
461	 0.04087407600226 
462	 0.040842021805087 
463	 4.07099450786681E-02 
464	 4.07274301197866E-02 
465	 4.08730969912334E-02 
466	 4.10276011855909E-02 
467	 4.09769939883821E-02 
468	 4.08603502513894E-02 
469	 0.040820250909649 
470	 4.09405753001596E-02 
471	 4.10813347273883E-02 
472	 4.11288153937908E-02 
473	 4.10817262083713E-02 
474	 4.10305593487807E-02 
475	 0.040990209145085 
476	 4.10327118822936E-02 
477	 4.11458911823828E-02 
478	 4.11190591950211E-02 
479	 4.10823116012164E-02 
480	 4.10834720026224E-02 
481	 4.11299802264647E-02 
482	 4.11817981592494E-02 
483	 4.11888246979311E-02 
484	 4.11629945516632E-02 
485	 4.11851099328802E-02 
486	 4.12763204888207E-02 
487	 4.13460704578668E-02 
488	 4.13306758527477E-02 
489	 0.041328754761461 
490	 4.13424925711363E-02 
491	 0.04138291110792 
492	 4.14524389655372E-02 
493	 4.14416918086857E-02 
494	 4.14175950693737E-02 
495	 4.14354485655316E-02 
496	 4.15017494613322E-02 
497	 4.14734704841012E-02 
498	 4.14291323041802E-02 
499	 4.14840647471298E-02 
500	 4.15865761758054E-02 
501	 4.15731760818277E-02 
502	 4.14927309150243E-02 
503	 4.15690201270506E-02 
504	 4.16114268993551E-02 
505	 4.15784255823635E-02 
506	 4.15227970175894E-02 
507	 4.16766347637838E-02 
508	 0.041708866326681 
509	 4.16492960789304E-02 
510	 4.16703305355005E-02 
511	 0.041687165610647 
512	 4.17270967273827E-02 
513	 4.17904659362313E-02 
514	 4.18341365168048E-02 
515	 4.18125107977044E-02 
516	 0.041782561116479 
517	 0.041803190732273 
518	 4.18403767027249E-02 
519	 4.18554965169241E-02 
520	 4.18766413517632E-02 
521	 4.19627143076186E-02 
522	 4.19446052135292E-02 
523	 4.19031090402234E-02 
524	 4.19114477894416E-02 
525	 0.041961040355034 
526	 4.19885520858716E-02 
527	 4.20016201659853E-02 
528	 0.042028203189577 
529	 4.20424536762493E-02 
530	 0.042058496574057 
531	 4.20910667114647E-02 
532	 0.042151086038848 
533	 4.21480060084753E-02 
534	 4.21400133745968E-02 
535	 4.21856648949159E-02 
536	 0.042253727355076 
537	 4.22690133077901E-02 
538	 4.22571362555287E-02 
539	 4.22951416712226E-02 
540	 4.23571201896292E-02 
541	 4.23866755364582E-02 
542	 4.23817504031048E-02 
543	 4.24329506722435E-02 
544	 4.24845734713841E-02 
545	 0.042507988577818 
546	 4.24993110393681E-02 
547	 4.25269678754535E-02 
548	 4.25514490176546E-02 
549	 4.25631771407481E-02 
550	 4.25801891856175E-02 
551	 4.25361723501388E-02 
552	 4.24792393462442E-02 
553	 4.24563674577433E-02 
554	 4.24608318301388E-02 
555	 4.24428580977913E-02 
556	 4.24145794107117E-02 
557	 4.24129250783392E-02 
558	 4.24092024010127E-02 
559	 4.23928538918823E-02 
560	 4.23785018512097E-02 
561	 4.24134888623195E-02 
562	 4.24051252068087E-02 
563	 4.24258664648931E-02 
564	 4.25371497839209E-02 
565	 4.25816110152647E-02 
566	 4.26227614815211E-02 
567	 4.26806877277448E-02 
568	 0.042737154789183 
569	 4.27603890436588E-02 
570	 0.042762846902375 
571	 4.27580803442135E-02 
572	 4.27395369692779E-02 
573	 4.27672231763358E-02 
574	 4.28003707736959E-02 
575	 0.042785298211041 
576	 4.28487312267371E-02 
577	 0.042935619019589 
578	 0.0430139514406 
579	 4.30923297557968E-02 
580	 4.31684439879424E-02 
581	 4.32169784664697E-02 
582	 4.32307863898328E-02 
583	 4.32764482271658E-02 
584	 4.32836862030357E-02 
585	 4.32732405230096E-02 
586	 4.33128944630269E-02 
587	 4.33598343720293E-02 
588	 4.34145175349208E-02 
589	 4.34587871780858E-02 
590	 4.34332410067209E-02 
591	 4.34454089807976E-02 
592	 4.34815039958289E-02 
593	 4.34934657965985E-02 
594	 0.043457829715719 
595	 4.34759571595603E-02 
596	 4.35301116692586E-02 
597	 4.35035713222404E-02 
598	 4.35135045015507E-02 
599	 4.35621874669712E-02 
600	 4.36156165693856E-02 
601	 4.35955252684387E-02 
602	 4.36308185555696E-02 
603	 4.36918161133845E-02 
604	 4.36961612579392E-02 
605	 4.37244734273093E-02 
606	 4.37469669611969E-02 
607	 4.37575242381964E-02 
608	 4.37896128072017E-02 
609	 4.38078149048374E-02 
610	 4.38308000386065E-02 
611	 4.38766923008615E-02 
612	 4.39205078947544E-02 
613	 4.39339416074526E-02 
614	 4.39335616800165E-02 
615	 4.39615091336258E-02 
616	 4.39921501356682E-02 
617	 4.40201417571748E-02 
618	 4.40494561599108E-02 
619	 4.40982996312313E-02 
620	 4.41259613065092E-02 
621	 0.044136983474152 
622	 4.41505994763235E-02 
623	 4.41718030450715E-02 
624	 4.41995895727339E-02 
625	 4.42354827835769E-02 
626	 4.42821542847975E-02 
627	 4.43101042055406E-02 
628	 4.43322041340423E-02 
629	 0.04436013259911 
630	 4.43785464002639E-02 
631	 4.44153202976553E-02 
632	 4.44614925827451E-02 
633	 4.44929942131887E-02 
634	 0.044509649945163 
635	 4.45305775663189E-02 
636	 4.45692062263905E-02 
637	 4.46290248141653E-02 
638	 4.46809642101359E-02 
639	 4.47055623934294E-02 
640	 4.47041849712208E-02 
641	 4.47306508483844E-02 
642	 4.47598904258845E-02 
643	 4.47970582794482E-02 
644	 4.48592424533543E-02 
645	 4.48929273899089E-02 
646	 0.044917911680438 
647	 0.044952271640545 
648	 4.49959034827395E-02 
649	 0.045039536377733 
650	 0.045072551842097 
651	 4.50928493862428E-02 
652	 4.51350516466596E-02 
653	 4.51621011785595E-02 
654	 4.51718437199639E-02 
655	 4.51931920066231E-02 
656	 4.52508711529602E-02 
657	 4.53150076525704E-02 
658	 4.53570959826307E-02 
659	 4.53669654065623E-02 
660	 4.54023461698406E-02 
661	 4.54484355194242E-02 
662	 4.54739122550978E-02 
663	 4.55261044206998E-02 
664	 4.55692507658232E-02 
665	 4.55975980653753E-02 
666	 4.56390333483688E-02 
667	 4.56676257112405E-02 
668	 4.57111412489229E-02 
669	 4.57819570190655E-02 
670	 4.58283809379227E-02 
671	 4.58652350824505E-02 
672	 4.58912205076229E-02 
673	 4.59091802895223E-02 
674	 4.59922552447725E-02 
675	 4.60590437799912E-02 
676	 4.60909858384332E-02 
677	 4.61595707020383E-02 
678	 4.61866772931834E-02 
679	 0.046197320905808 
680	 4.62298039192477E-02 
681	 4.62866480803219E-02 
682	 4.63522111590352E-02 
683	 4.64026488222978E-02 
684	 4.64201765033288E-02 
685	 4.64665235864377E-02 
686	 4.65143782533035E-02 
687	 4.65592460641355E-02 
688	 4.66429037393065E-02 
689	 4.66759526711635E-02 
690	 4.66867878268325E-02 
691	 4.67276607580928E-02 
692	 4.68189308744765E-02 
693	 4.68847981051064E-02 
694	 4.69261649707852E-02 
695	 4.69893593100218E-02 
696	 4.70399762025008E-02 
697	 4.70877488980292E-02 
698	 4.71413182636946E-02 
699	 4.71996180462373E-02 
700	 4.72594439585847E-02 
701	 4.73112679204404E-02 
702	 4.73525293382396E-02 
703	 4.74105812286391E-02 
704	 4.74804008445365E-02 
705	 4.75437546875553E-02 
706	 4.75801872093921E-02 
707	 4.76393097153972E-02 
708	 4.77058287013383E-02 
709	 4.77640402748825E-02 
710	 0.047811595370945 
711	 4.78812715502175E-02 
712	 4.79490290441727E-02 
713	 4.79921299440177E-02 
714	 4.80656029096206E-02 
715	 4.81465850493626E-02 
716	 4.82159701945026E-02 
717	 0.048264013299308 
718	 4.83365466176043E-02 
719	 4.84076565976423E-02 
720	 4.84632159408622E-02 
721	 4.85258977877654E-02 
722	 4.85849354658463E-02 
723	 4.86505810510028E-02 
724	 4.87316187710864E-02 
725	 4.88082649367077E-02 
726	 4.88830812717215E-02 
727	 4.89608386716524E-02 
728	 4.90450437970606E-02 
729	 4.91101463325865E-02 
730	 4.91763477194476E-02 
731	 0.049256610103155 
732	 4.93425900200789E-02 
733	 4.94144823589669E-02 
734	 4.94805259565202E-02 
735	 4.95552190685509E-02 
736	 4.96393340668073E-02 
737	 4.97320946547045E-02 
738	 4.98144370114266E-02 
739	 4.98643580958398E-02 
740	 4.99464420100606E-02 
741	 5.00368333270543E-02 
742	 5.01170884557517E-02 
743	 5.01939582834686E-02 
744	 5.02771860743222E-02 
745	 0.050370486513326 
746	 5.04693186608473E-02 
747	 5.05481891243717E-02 
748	 5.06423371984722E-02 
749	 0.050740571541885 
750	 0.050811836870846 
751	 5.08966658170047E-02 
752	 5.10006952910856E-02 
753	 5.11103284336647E-02 
754	 5.11935965415015E-02 
755	 5.12896714839087E-02 
756	 5.13919646854299E-02 
757	 5.14877372576533E-02 
758	 5.15767312601494E-02 
759	 5.16824951022738E-02 
760	 5.17828605486167E-02 
761	 5.18499549047204E-02 
762	 5.19695758387491E-02 
763	 5.20806680190615E-02 
764	 5.21683159606729E-02 
765	 5.22771020378215E-02 
766	 5.23824855591843E-02 
767	 5.24894253171269E-02 
768	 0.052606873124082 
769	 5.27445733544632E-02 
770	 0.052855830645466 
771	 5.29469553024708E-02 
772	 5.30443502345712E-02 
773	 0.053160398114625 
774	 5.32751198304036E-02 
775	 5.33813382090897E-02 
776	 5.34841830374965E-02 
777	 5.35780982377819E-02 
778	 5.37066775460555E-02 
779	 5.38680688213233E-02 
780	 5.39747449258229E-02 
781	 5.40704126192462E-02 
782	 5.41744799366994E-02 
783	 0.054296498161801 
784	 5.44355418587356E-02 
785	 5.45617539980026E-02 
786	 5.46705102809323E-02 
787	 5.47750873205169E-02 
788	 5.48918441181251E-02 
789	 0.055031285988348 
790	 5.51786389319126E-02 
791	 5.52939305621933E-02 
792	 5.54201606396137E-02 
793	 5.55577163657681E-02 
794	 5.56931528787292E-02 
795	 5.57986917031253E-02 
796	 5.59282711443956E-02 
797	 5.60779581978836E-02 
798	 5.62195698746829E-02 
799	 5.63256022227494E-02 
800	 5.64518612714798E-02 
801	 5.65984897524005E-02 
802	 5.67245016732252E-02 
803	 0.056872561386494 
804	 5.70138585399678E-02 
805	 5.71409305264023E-02 
806	 5.72912986071412E-02 
807	 5.74553730321044E-02 
808	 5.76007995537046E-02 
809	 5.77167316157222E-02 
810	 5.78720675852986E-02 
811	 5.80248052375993E-02 
812	 5.81673434551608E-02 
813	 5.83086732535243E-02 
814	 5.84561215682281E-02 
815	 5.86148405435363E-02 
816	 5.87760887380557E-02 
817	 5.89224944207046E-02 
818	 0.059086561030103 
819	 0.059241369860896 
820	 5.93776657507264E-02 
821	 5.95289591937678E-02 
822	 5.96918042107097E-02 
823	 5.98662606557457E-02 
824	 6.00447063294351E-02 
825	 6.01972964669169E-02 
826	 6.03442772623656E-02 
827	 6.05001210108947E-02 
828	 6.06741091633257E-02 
829	 6.08650407290475E-02 
830	 6.10508845515677E-02 
831	 6.12135036935286E-02 
832	 6.13468801164426E-02 
833	 6.15164841462421E-02 
834	 6.17043675465018E-02 
835	 6.18894648477115E-02 
836	 6.20679598492376E-02 
837	 6.22304180864244E-02 
838	 0.062392749236795 
839	 0.062571696637513 
840	 6.27716297827473E-02 
841	 6.29491707123019E-02 
842	 6.31019994878416E-02 
843	 6.32519239471462E-02 
844	 6.34337169762968E-02 
845	 6.36311081771957E-02 
846	 6.38318172599734E-02 
847	 0.06402817049619 
848	 6.42107110469866E-02 
849	 0.064378361925555 
850	 6.45457770357799E-02 
851	 6.47419185176715E-02 
852	 6.49310587360968E-02 
853	 6.51267930573711E-02 
854	 6.53369917723707E-02 
855	 6.55361682063622E-02 
856	 6.57311893258567E-02 
857	 6.59195772982944E-02 
858	 6.60998479083608E-02 
859	 6.62798328902316E-02 
860	 6.64848984674378E-02 
861	 6.67065928240511E-02 
862	 6.69203755809778E-02 
863	 6.71283765864406E-02 
864	 6.73383013039372E-02 
865	 6.75571208417557E-02 
866	 6.77852368924286E-02 
867	 6.79624329851009E-02 
868	 6.81648924417353E-02 
869	 6.84048842658294E-02 
870	 6.85864383155969E-02 
871	 0.068799787776929 
872	 6.90212311849816E-02 
873	 6.92235508534729E-02 
874	 6.94253558175709E-02 
875	 6.96585321796723E-02 
876	 6.99054968976872E-02 
877	 7.01392476436542E-02 
878	 7.03650776383243E-02 
879	 7.05674349710589E-02 
880	 7.07774577141351E-02 
881	 7.10298214509671E-02 
882	 7.12530104397589E-02 
883	 7.14576285178896E-02 
884	 7.16735341940736E-02 
885	 0.071930039795249 
886	 7.21543419736471E-02 
887	 7.23655685034721E-02 
888	 7.25867110073259E-02 
889	 7.28290863587756E-02 
890	 7.30726300518728E-02 
891	 7.33076634649723E-02 
892	 7.35295562343178E-02 
893	 7.37381067282904E-02 
894	 7.39925423068596E-02 
895	 7.42558754401564E-02 
896	 7.44907987536149E-02 
897	 7.47265745219386E-02 
898	 0.074976810573311 
899	 7.52085384422934E-02 
900	 7.54046916719581E-02 
901	 7.56701629253067E-02 
902	 7.59347419685235E-02 
903	 7.61762086954868E-02 
904	 7.64030317108263E-02 
905	 7.66308200316404E-02 
906	 0.076892107519795 
907	 7.71773381755041E-02 
908	 7.74468738614794E-02 
909	 7.76886696545272E-02 
910	 7.79398712291811E-02 
911	 7.82125630214524E-02 
912	 7.84868418297451E-02 
913	 0.078746886922521 
914	 7.90003263076429E-02 
915	 7.92560747755611E-02 
916	 7.95191269903975E-02 
917	 7.98122568837531E-02 
918	 8.00890709362893E-02 
919	 8.03416959676773E-02 
920	 8.06575275774849E-02 
921	 8.09101312946438E-02 
922	 8.11376607157635E-02 
923	 0.081404169998539 
924	 8.17259292357047E-02 
925	 8.20190466281598E-02 
926	 8.22890907152211E-02 
927	 8.25746289915057E-02 
928	 8.29154067917701E-02 
929	 8.32006057319149E-02 
930	 8.34561765402688E-02 
931	 8.37523366029982E-02 
932	 8.40698983754631E-02 
933	 8.43788570207838E-02 
934	 0.084664285989721 
935	 8.49260050902421E-02 
936	 8.51664110268499E-02 
937	 8.55159603978066E-02 
938	 0.085893616632255 
939	 8.61229926463329E-02 
940	 0.086462566365596 
941	 8.67877907927985E-02 
942	 8.70640018921835E-02 
943	 0.087361860235772 
944	 8.77065898178773E-02 
945	 8.79926781571587E-02 
946	 8.82301769348859E-02 
947	 8.85505712586386E-02 
948	 8.88632132680436E-02 
949	 8.91525675237682E-02 
950	 8.94482870727546E-02 
951	 8.98109423502472E-02 
952	 9.01039426940434E-02 
953	 9.03972374296799E-02 
954	 9.07226562286759E-02 
955	 9.10042687470007E-02 
956	 9.12924394584262E-02 
957	 9.16039229692961E-02 
958	 9.19330984116315E-02 
959	 9.22498244644492E-02 
960	 9.25867289156317E-02 
961	 9.29365692354437E-02 
962	 9.32869824073104E-02 
963	 9.36378085017091E-02 
964	 9.38428467697099E-02 
965	 9.40731591828014E-02 
966	 9.44532346084114E-02 
967	 9.48108799351731E-02 
968	 9.51627214752793E-02 
969	 9.55225634875516E-02 
970	 9.58710544147413E-02 
971	 9.60969163038166E-02 
972	 9.63813819430927E-02 
973	 9.67047135916629E-02 
974	 9.70259934884184E-02 
975	 9.74399962698391E-02 
976	 9.77801459081696E-02 
977	 9.81058112642947E-02 
978	 9.84800271749348E-02 
979	 9.87277783756795E-02 
980	 9.91024279939165E-02 
981	 0.099511506697018 
982	 9.98129401197191E-02 
983	 0.100096201990927 
984	 0.100547655229575 
985	 0.101009075834379 
986	 0.101309568591553 
987	 0.101680816262114 
988	 0.102038274199397 
989	 0.10236661969031 
990	 0.102677439824099 
991	 0.102985832856648 
992	 0.103321740154451 
993	 0.103713533744326 
994	 0.104139818297407 
995	 0.104428709019089 
996	 0.104789944997337 
997	 0.105206370462487 
998	 0.1055926742771 
999	 0.105936823076165 
1000	 0.106383053454817 
1001	 0.109053863202699 
1002	 0.109445467443902 
1003	 0.109829428269656 
1004	 0.110198677393427 
1005	 0.110514718506736 
1006	 0.110901227810176 
1007	 0.111329964401424 
1008	 0.111715866644734 
1009	 0.112109986171336 
1010	 0.112497333650869 
1011	 0.112848931577994 
1012	 0.113226393236445 
1013	 0.113636609636467 
1014	 0.114021371801927 
1015	 0.114386812469887 
1016	 0.114759314524279 
1017	 0.115146230721228 
1018	 0.115540237197141 
1019	 0.115966505384995 
1020	 0.116385452439998 
1021	 0.116775692261638 
1022	 0.117133953138026 
1023	 0.117531091448435 
1024	 0.117914314726269 
1025	 0.118324235027142 
1026	 0.118783219320111 
1027	 0.119212134528319 
1028	 0.119632373996178 
1029	 0.120065488724409 
1030	 0.120464396558974 
1031	 0.120867033313214 
1032	 0.121258234878689 
1033	 0.12163520871345 
1034	 0.122063568697547 
1035	 0.122478014299734 
1036	 0.122887060200416 
1037	 0.123314026884816 
1038	 0.123723050559336 
1039	 0.124105864033575 
1040	 0.124509559376886 
1041	 0.124909106494749 
1042	 0.125324359594177 
1043	 0.125760206085952 
1044	 0.126177175700982 
1045	 0.126607845806484 
1046	 0.127056728584979 
1047	 0.127436433443419 
1048	 0.127838768469067 
1049	 0.128275516707274 
1050	 0.128690613820238 
1051	 0.129137784275999 
1052	 0.12959672987063 
1053	 0.130038297388147 
1054	 0.130460656581261 
1055	 0.130882966344417 
1056	 0.131306389276228 
1057	 0.131722851596398 
1058	 0.13211032866689 
1059	 0.132534149084725 
1060	 0.133001345726286 
1061	 0.133456396247616 
1062	 0.133948458949905 
1063	 0.134425943673509 
1064	 0.134830332709649 
1065	 0.135275770415702 
1066	 0.135742161293823 
1067	 0.136165157135096 
1068	 0.136635830079072 
1069	 0.137109852248714 
1070	 0.137565861147249 
1071	 0.137993629187365 
1072	 0.138465628314145 
1073	 0.138933420836822 
1074	 0.139388767433994 
1075	 0.139855916230686 
1076	 0.140329250011971 
1077	 0.140788017741288 
1078	 0.141227976322307 
1079	 0.141706679487184 
1080	 0.142176672555625 
1081	 0.142630313867001 
1082	 0.143129267079531 
1083	 0.143609889009896 
1084	 0.144086836858799 
1085	 0.144581750055788 
1086	 0.145052026215186 
1087	 0.145502892090757 
1088	 0.14595483023419 
1089	 0.146410108032093 
1090	 0.146862479110879 
1091	 0.147343428718342 
1092	 0.147821284652933 
1093	 0.148307427876242 
1094	 0.148827322832811 
1095	 0.149315644406123 
1096	 0.149780538498602 
1097	 0.150235982580367 
1098	 0.150646027681868 
1099	 0.15106866020569 
1100	 0.15149963438096 
1101	 0.151930417861903 
1102	 0.152423687078496 
1103	 0.152902536489111 
1104	 0.153393976227411 
1105	 0.153875675939092 
1106	 0.154361038549385 
1107	 0.154795893788108 
1108	 0.155235288867312 
1109	 0.155693057572867 
1110	 0.156148061214173 
1111	 0.15662144817048 
1112	 0.157072559958603 
1113	 0.157547968999993 
1114	 0.158041336432186 
1115	 0.158483008993481 
1116	 0.158939168189347 
1117	 0.159379280884691 
1118	 0.159822424147301 
1119	 0.160262881973971 
1120	 0.1607123692163 
1121	 0.16116409116075 
1122	 0.161619468599646 
1123	 0.16207203475017 
1124	 0.162497749078988 
1125	 0.16295787190125 
1126	 0.163419967074632 
1127	 0.163862286163975 
1128	 0.164320423589395 
1129	 0.164759542606995 
1130	 0.165205836342518 
1131	 0.165664170363105 
1132	 0.166089137685439 
1133	 0.166530640214536 
1134	 0.166959825342126 
1135	 0.167379199356824 
1136	 0.167791953157316 
1137	 0.168218265470462 
1138	 0.16863714158748 
1139	 0.169064238694267 
1140	 0.169513236905529 
1141	 0.169924861120978 
1142	 0.170345527651915 
1143	 0.170765714516609 
1144	 0.171172956458403 
1145	 0.171621386800203 
1146	 0.172071290119468 
1147	 0.172515640646508 
1148	 0.172968344920291 
1149	 0.173385315250123 
1150	 0.173799628031901 
1151	 0.174219833197008 
1152	 0.17465247926176 
1153	 0.175101955353811 
1154	 0.175542929767264 
1155	 0.175990429824272 
1156	 0.176432246128589 
1157	 0.176868883650299 
1158	 0.177291122609994 
1159	 0.177712594843307 
1160	 0.178126801298567 
1161	 0.178526615734643 
1162	 0.178953839420947 
1163	 0.179362861093177 
1164	 0.179783314246378 
1165	 0.180197421578946 
1166	 0.180572040729103 
1167	 0.180995082129524 
1168	 0.181416238287421 
1169	 0.18184154465331 
1170	 0.182291197576947 
1171	 0.182723486472413 
1172	 0.183144873429051 
1173	 0.183574602269302 
1174	 0.183998801245226 
1175	 0.184419261325638 
1176	 0.184839759721248 
1177	 0.185261509176202 
1178	 0.185670378651434 
1179	 0.186116329682511 
1180	 0.186533106832864 
1181	 0.186959171833654 
1182	 0.18739342437764 
1183	 0.187791351763039 
1184	 0.188209408913671 
1185	 0.188619647846871 
1186	 0.189040318619791 
1187	 0.189469465868273 
1188	 0.189892467277451 
1189	 0.190314952096798 
1190	 0.190748390441226 
1191	 0.191159191506941 
1192	 0.191603492022185 
1193	 0.192074430176712 
1194	 0.192552455821209 
1195	 0.193064826618291 
1196	 0.193566134494121 
1197	 0.194065665483452 
1198	 0.194571070664804 
1199	 0.195106621689952 
1200	 0.195589270396145 
1201	 0.196091064126735 
1202	 0.196608216698634 
1203	 0.19710373632317 
1204	 0.197637475139512 
1205	 0.198160995138927 
1206	 0.198703630854633 
1207	 0.199226474807568 
1208	 0.199732773427381 
1209	 0.200252321832777 
1210	 0.200775682327444 
1211	 0.201294576309704 
1212	 0.201821645573634 
1213	 0.202345268093673 
1214	 0.202849333242133 
1215	 0.203381625844419 
1216	 0.203928657728308 
1217	 0.204474890279243 
1218	 0.205036195942413 
1219	 0.205596955672387 
1220	 0.206155825892354 
1221	 0.20674821779264 
1222	 0.207320778524628 
1223	 0.207891551300087 
1224	 0.208460757856705 
1225	 0.209018518092211 
1226	 0.209575394960785 
1227	 0.210131177770443 
1228	 0.210693572744051 
1229	 0.211255892607902 
1230	 0.211815896640479 
1231	 0.212383791209664 
1232	 0.21294744224467 
1233	 0.213503632862097 
1234	 0.214053513390407 
1235	 0.214599724213091 
1236	 0.215152103688574 
1237	 0.215699259262306 
1238	 0.216249740847116 
1239	 0.216806027770581 
1240	 0.217366983693873 
1241	 0.21793187435477 
1242	 0.218457421505739 
1243	 0.218993879958151 
1244	 0.21952102151058 
1245	 0.220061797985004 
1246	 0.22061329835397 
1247	 0.221142487797877 
1248	 0.221665650138687 
1249	 0.222194562423344 
1250	 0.222705901952315 
1251	 0.223228577523047 
1252	 0.223765519976643 
1253	 0.224302670873927 
1254	 0.224849839519316 
1255	 0.225378315731774 
1256	 0.225902705082977 
1257	 0.226429706904507 
1258	 0.226952998817658 
1259	 0.227458379526888 
1260	 0.227957551117778 
1261	 0.228459643950532 
1262	 0.228929961286285 
1263	 0.229427610105637 
1264	 0.229923621236771 
1265	 0.230433494075833 
1266	 0.230939999599054 
1267	 0.231445740318707 
1268	 0.231951498410454 
1269	 0.232464531212284 
1270	 0.232970136000925 
1271	 0.233477257661439 
1272	 0.233969408528971 
1273	 0.23444215250889 
1274	 0.23493505930963 
1275	 0.235425875857244 
1276	 0.235915796857538 
1277	 0.236407220452279 
1278	 0.236914458732462 
1279	 0.237424122864438 
1280	 0.237935239115198 
1281	 0.238465967889107 
1282	 0.238990928299661 
1283	 0.239501348753304 
1284	 0.240019540201177 
1285	 0.240541709888345 
1286	 0.241072293025203 
1287	 0.241596079431535 
1288	 0.242118770142767 
1289	 0.242641663901318 
1290	 0.243158446341405 
1291	 0.243686794435023 
1292	 0.244218944885201 
1293	 0.244750929971651 
1294	 0.24529003588212 
1295	 0.245824108728167 
1296	 0.246351030616103 
1297	 0.246887060342176 
1298	 0.24742024804983 
1299	 0.247966566218453 
1300	 0.248540605470748 
1301	 0.249081970734192 
1302	 0.249610768191337 
1303	 0.250143304196141 
1304	 0.250661887379418 
1305	 0.251175075398519 
1306	 0.251685046444643 
1307	 0.252201805310171 
1308	 0.252703683758 
1309	 0.253221885620083 
1310	 0.253727353071511 
1311	 0.254238730467673 
1312	 0.254751371276363 
1313	 0.255258110554414 
1314	 0.255759715034107 
1315	 0.256263863287185 
1316	 0.256773280869321 
1317	 0.257287631846863 
1318	 0.257772702308052 
1319	 0.258254742813122 
1320	 0.258731767982091 
1321	 0.259173343856323 
1322	 0.259633897101687 
1323	 0.260112321681357 
1324	 0.260580151139531 
1325	 0.261035153273361 
1326	 0.261500106100468 
1327	 0.261978101006406 
1328	 0.262442225970046 
1329	 0.262906998826119 
1330	 0.263360423567583 
1331	 0.263806682349448 
1332	 0.2642401349203 
1333	 0.264653996729837 
1334	 0.265080209597792 
1335	 0.265483803762985 
1336	 0.26587067591442 
1337	 0.266263355256026 
1338	 0.266650508275232 
1339	 0.267032581011407 
1340	 0.267412369109597 
1341	 0.267788249224907 
1342	 0.268157947305187 
1343	 0.268526617361888 
1344	 0.268893977454544 
1345	 0.269259086807111 
1346	 0.269631552937624 
1347	 0.26997633701191 
1348	 0.270311184658033 
1349	 0.27063660109743 
1350	 0.270940616521897 
1351	 0.271244219473304 
1352	 0.271540469240879 
1353	 0.271839148303183 
1354	 0.272127741195293 
1355	 0.272421694379153 
1356	 0.272722123191278 
1357	 0.273021190553439 
1358	 0.273321430064181 
1359	 0.273619957261658 
1360	 0.273908323546076 
1361	 0.274208066350742 
1362	 0.274544195195709 
1363	 0.274865635238029 
1364	 0.275191163602655 
1365	 0.275533565135171 
1366	 0.275869086955573 
1367	 0.276197925345354 
1368	 0.276519188437822 
1369	 0.276848159621173 
1370	 0.277163991731954 
1371	 0.277461150261018 
1372	 0.277757877669897 
1373	 0.278057751899566 
1374	 0.278349497506837 
1375	 0.278635603539755 
1376	 0.278910235193298 
1377	 0.279192208170043 
1378	 0.279444228224224 
1379	 0.279674688287659 
1380	 0.279893612404078 
1381	 0.280099438811077 
1382	 0.280286215130772 
1383	 0.28044881884689 
1384	 0.280610151085909 
1385	 0.280747646781936 
1386	 0.280893091846393 
1387	 0.28104805740222 
1388	 0.281186336852568 
1389	 0.281317341357056 
1390	 0.281441748291991 
1391	 0.28154508756089 
1392	 0.281659886639111 
1393	 0.281772053483774 
1394	 0.281885248701317 
1395	 0.281998711219748 
1396	 0.282112376508688 
1397	 0.282229309092937 
1398	 0.282353778593686 
1399	 0.28245983106895 
1400	 0.282576066767438 
1401	 0.282650722187731 
1402	 0.282705802885036 
1403	 0.282733782796702 
1404	 0.28273189757679 
1405	 0.282717338997314 
1406	 0.28267949091562 
1407	 0.282630171769766 
1408	 0.282554584489913 
1409	 0.282487616321018 
1410	 0.282398540943924 
1411	 0.282333729786264 
1412	 0.282254017589476 
1413	 0.282231096878389 
1414	 0.28221720669279 
1415	 0.282266569829955 
1416	 0.282374696451148 
1417	 0.282509803700451 
1418	 0.282697962036581 
1419	 0.282901571117881 
1420	 0.283152716545178 
1421	 0.283394236560734 
1422	 0.283668452377791 
1423	 0.283916646704949 
1424	 0.284135279034195 
1425	 0.284380041300034 
1426	 0.284616802498521 
1427	 0.284846335917656 
1428	 0.285103283865478 
1429	 0.285348616434911 
1430	 0.285602914251015 
1431	 0.285854113320754 
1432	 0.286125017496083 
1433	 0.286408945048757 
1434	 0.286695127543432 
1435	 0.286984607651389 
1436	 0.287296397501913 
1437	 0.287619811859662 
1438	 0.287946583156157 
1439	 0.288298106455791 
1440	 0.28863952821606 
1441	 0.288977888620003 
1442	 0.289319102599286 
1443	 0.289667106753871 
1444	 0.290009769749659 
1445	 0.290347559464826 
1446	 0.290687930865128 
1447	 0.291034370382869 
1448	 0.291370586669358 
1449	 0.291697008025026 
1450	 0.292034769321234 
1451	 0.292374124532869 
1452	 0.292709859221911 
1453	 0.293060514186197 
1454	 0.293391994743012 
1455	 0.29371269701052 
1456	 0.294023932104049 
1457	 0.294324953014644 
1458	 0.294619511925241 
1459	 0.29489744582022 
1460	 0.295181197218679 
1461	 0.295456597323071 
1462	 0.295738841267596 
1463	 0.296018030944567 
1464	 0.296312426541038 
1465	 0.296600947104759 
1466	 0.296926015119629 
1467	 0.297270134103663 
1468	 0.297612767157705 
1469	 0.297993272263036 
1470	 0.298370195392877 
1471	 0.29873630585998 
1472	 0.299108241925101 
1473	 0.299465490723674 
1474	 0.299809823423891 
1475	 0.300150375511185 
1476	 0.300489188886612 
1477	 0.300816546180961 
1478	 0.3011365045457 
1479	 0.301436172474226 
1480	 0.301723214164989 
1481	 0.302000894103891 
1482	 0.302263470228953 
1483	 0.302515374905752 
1484	 0.302751266828342 
1485	 0.30299500508465 
1486	 0.303218471797465 
1487	 0.303464070712458 
1488	 0.303727126574745 
1489	 0.303984572529766 
1490	 0.304241199927249 
1491	 0.304510381407508 
1492	 0.304770060553323 
1493	 0.305067683184266 
1494	 0.305386322008196 
1495	 0.305721288278275 
1496	 0.306076688878031 
1497	 0.306456339110439 
1498	 0.306859968491468 
1499	 0.307275728080059 
1500	 0.307709619995884 
1501	 0.308170027934677 
1502	 0.308661052876092 
1503	 0.309143563798543 
1504	 0.309645396824301 
1505	 0.310150886815053 
1506	 0.310641079055939 
1507	 0.311158746722852 
1508	 0.311711464817579 
1509	 0.312254330865315 
1510	 0.312801243301692 
1511	 0.31335211756544 
1512	 0.313903798414469 
1513	 0.314457349019701 
1514	 0.315022297793919 
1515	 0.315581974942948 
1516	 0.316129609232494 
1517	 0.316691206567157 
1518	 0.317256523952927 
1519	 0.317825849785563 
1520	 0.318400298293207 
1521	 0.318985098803818 
1522	 0.319572143638413 
1523	 0.32020022960123 
1524	 0.320816628540679 
1525	 0.321453169480729 
1526	 0.322078358872001 
1527	 0.322698371268099 
1528	 0.323322799933236 
1529	 0.323947705310329 
1530	 0.324584439409816 
1531	 0.325227071765312 
1532	 0.325869333239007 
1533	 0.32651722466086 
1534	 0.327176751087127 
1535	 0.327840055713193 
1536	 0.328500041305546 
1537	 0.32918062867385 
1538	 0.32983233751614 
1539	 0.330470790013151 
1540	 0.331099141656115 
1541	 0.33171626527499 
1542	 0.332325621069908 
1543	 0.332926778704331 
1544	 0.333508004076388 
1545	 0.334077329019164 
1546	 0.334635003678748 
1547	 0.335177092233296 
1548	 0.335702880699878 
1549	 0.33622744735202 
1550	 0.336713042518305 
1551	 0.337163600227049 
1552	 0.337610479463198 
1553	 0.338028067705258 
1554	 0.338452080017117 
1555	 0.338869080112209 
1556	 0.339285289375045 
1557	 0.339680483040712 
1558	 0.340112169076787 
1559	 0.34056162101442 
1560	 0.34100864767525 
1561	 0.341475154935894 
1562	 0.341940894171253 
1563	 0.342402443397302 
1564	 0.342870099693073 
1565	 0.343345645298827 
1566	 0.343830475966678 
1567	 0.344317943483167 
1568	 0.344810842947007 
1569	 0.345315194223256 
1570	 0.345825838891844 
1571	 0.346344064781468 
1572	 0.346856339428195 
1573	 0.347381576224596 
1574	 0.347893474526811 
1575	 0.348391226137912 
1576	 0.348893096649027 
1577	 0.349394559539561 
1578	 0.349894361093077 
1579	 0.35039055640041 
1580	 0.350887424335035 
1581	 0.35138190816139 
1582	 0.351879946496834 
1583	 0.352388978838534 
1584	 0.352881704558928 
1585	 0.353357911386687 
1586	 0.353851435594981 
1587	 0.354339483028726 
1588	 0.354836157272067 
1589	 0.355341064268616 
1590	 0.355863780942945 
1591	 0.356399882196229 
1592	 0.356933925393653 
1593	 0.357494014043288 
1594	 0.358036229288616 
1595	 0.358566135768161 
1596	 0.359092974117625 
1597	 0.359612916089885 
1598	 0.360134076289189 
1599	 0.360653115031571 
1600	 0.361167402508041 
1601	 0.361672036755273 
1602	 0.362192252412304 
1603	 0.362716429568804 
1604	 0.363237814008614 
1605	 0.36377182378075 
1606	 0.364299912861665 
1607	 0.364832567401925 
1608	 0.365344601533275 
1609	 0.365839737886542 
1610	 0.36634482019446 
1611	 0.366841773284554 
1612	 0.367329710931382 
1613	 0.367820019422477 
1614	 0.368309801758787 
1615	 0.368793830506661 
1616	 0.369268778676018 
1617	 0.369741043549498 
1618	 0.370216901230022 
1619	 0.370684111884964 
1620	 0.371141031112759 
1621	 0.371602066444598 
1622	 0.372058731223942 
1623	 0.372507688940078 
1624	 0.372944251940662 
1625	 0.373370267466285 
1626	 0.3738014650406 
1627	 0.374227266210228 
1628	 0.374640847082065 
1629	 0.375055789305475 
1630	 0.375464969000083 
1631	 0.375855958172903 
1632	 0.376247337391161 
1633	 0.376644582416003 
1634	 0.377035342175764 
1635	 0.377407313498867 
1636	 0.377789469307411 
1637	 0.378175021026611 
1638	 0.378561978190362 
1639	 0.378973065867022 
1640	 0.37935083472843 
1641	 0.379707013407052 
1642	 0.380067095155359 
1643	 0.38041808895781 
1644	 0.380746728021815 
1645	 0.381075886685948 
1646	 0.381383346037151 
1647	 0.381657607493852 
1648	 0.381929457533919 
1649	 0.382188972941014 
1650	 0.382447688935389 
1651	 0.382708216923873 
1652	 0.382937682346007 
1653	 0.383169272713807 
1654	 0.383356246359382 
1655	 0.38349933204298 
1656	 0.38363011018918 
1657	 0.383745735799297 
1658	 0.383817239440387 
1659	 0.383866404301627 
1660	 0.383868294506533 
1661	 0.38382620898072 
1662	 0.383747203169721 
1663	 0.383638645551896 
1664	 0.38346742150576 
1665	 0.383251838708366 
1666	 0.382971767545561 
1667	 0.382624311773353 
1668	 0.382234106161558 
1669	 0.381803766653505 
1670	 0.381294965902129 
1671	 0.380708988557452 
1672	 0.38009167957696 
1673	 0.379414397791942 
1674	 0.378677884792612 
1675	 0.377919901714813 
1676	 0.377079209137288 
1677	 0.37613579133637 
1678	 0.375182513316667 
1679	 0.374161404713469 
1680	 0.373128671275985 
1681	 0.372072885580684 
1682	 0.370985513808608 
1683	 0.369858046435112 
1684	 0.368750896016714 
1685	 0.367611270779996 
1686	 0.366499834850853 
1687	 0.365360965956654 
1688	 0.364309414544128 
1689	 0.363276809257252 
1690	 0.362333971386953 
1691	 0.361492094398349 
1692	 0.360691803639367 
1693	 0.359952165587283 
1694	 0.359254345992496 
1695	 0.358613878646956 
1696	 0.357991089112678 
1697	 0.357419582372975 
1698	 0.356847080614935 
1699	 0.356307940253671 
1700	 0.355774852938129 
1701	 0.355235248014051 
1702	 0.354751734486517 
1703	 0.35427575584661 
1704	 0.353887058027171 
1705	 0.353555061651951 
1706	 0.35328445401431 
1707	 0.353094765665607 
1708	 0.35290953165225 
1709	 0.352746719939028 
1710	 0.352562558059723 
1711	 0.352307591748279 
1712	 0.35201909222712 
1713	 0.351648423836991 
1714	 0.351161532175747 
1715	 0.350634610773713 
1716	 0.350019386896799 
1717	 0.349343621011441 
1718	 0.348635720468531 
1719	 0.347915533601261 
1720	 0.347254717392448 
1721	 0.346642731768155 
1722	 0.346132894104603 
1723	 0.345762432105445 
1724	 0.345470068316497 
1725	 0.345314737654084 
1726	 0.345342258276217 
1727	 0.345504514255175 
1728	 0.345823490581207 
1729	 0.346294325382439 
1730	 0.346921886756056 
1731	 0.347656468026544 
1732	 0.348514042384902 
1733	 0.349455268884262 
1734	 0.350446189152664 
1735	 0.351489786055228 
1736	 0.352531916546293 
1737	 0.353635365036371 
1738	 0.354724414452803 
1739	 0.35575014662222 
1740	 0.356771515600494 
1741	 0.357726656605116 
1742	 0.358650159880629 
1743	 0.359509912196902 
1744	 0.360305384033114 
1745	 0.361065313577052 
1746	 0.361761540461543 
1747	 0.362387111055682 
1748	 0.362967103075103 
1749	 0.363490872464592 
1750	 0.363904942700178 
1751	 0.364369388740484 
1752	 0.36482545312901 
1753	 0.365271433673797 
1754	 0.365718036423829 
1755	 0.366140882634567 
1756	 0.366527692816634 
1757	 0.366931871603056 
1758	 0.367363046723066 
1759	 0.367805414873233 
1760	 0.368292801404687 
1761	 0.368821723244664 
1762	 0.369365131788701 
1763	 0.369983101243025 
1764	 0.37063054737106 
1765	 0.371331927163842 
1766	 0.372118555282446 
1767	 0.372914539771208 
1768	 0.373775472396709 
1769	 0.374668138361895 
1770	 0.375544452386256 
1771	 0.376496188180595 
1772	 0.377437687091905 
1773	 0.378367885646846 
1774	 0.379362917980348 
1775	 0.380312267495534 
1776	 0.381281099356757 
1777	 0.382269330259918 
1778	 0.383186934846913 
1779	 0.384111821147168 
1780	 0.384985065084272 
1781	 0.385824929635055 
1782	 0.386676792684993 
1783	 0.387480076964431 
1784	 0.388285745362752 
1785	 0.388983163561669 
1786	 0.38967682878746 
1787	 0.390340548120732 
1788	 0.390952133336819 
1789	 0.391550941511526 
1790	 0.392136207484048 
1791	 0.39267230970791 
1792	 0.39319487808646 
1793	 0.393703597931421 
1794	 0.394149687393092 
1795	 0.394583651656223 
1796	 0.394989142371181 
1797	 0.395411611834615 
1798	 0.395839246373305 
1799	 0.396267414709725 
1800	 0.396725689006748 
1801	 0.385728880547565 
1802	 0.38613147966865 
1803	 0.386539106486102 
1804	 0.386936265168116 
1805	 0.387344624853186 
1806	 0.387749054373956 
1807	 0.388166109035072 
1808	 0.388569703491802 
1809	 0.38897529568582 
1810	 0.389361435649431 
1811	 0.389739076855541 
1812	 0.390112702185369 
1813	 0.390462734275465 
1814	 0.390842710512377 
1815	 0.391204140812173 
1816	 0.391546697339137 
1817	 0.391893538268164 
1818	 0.39221873211763 
1819	 0.392561766552741 
1820	 0.392906228598094 
1821	 0.393267514586091 
1822	 0.393635075979131 
1823	 0.394024711206071 
1824	 0.394412698535598 
1825	 0.394805614079247 
1826	 0.395190974947233 
1827	 0.395562097245962 
1828	 0.395960202474306 
1829	 0.396367208470815 
1830	 0.396774461690274 
1831	 0.397194011527257 
1832	 0.397624316837978 
1833	 0.398034904391555 
1834	 0.398468294433724 
1835	 0.398919761941125 
1836	 0.399345389253214 
1837	 0.399782306920432 
1838	 0.400215124392617 
1839	 0.400662584642924 
1840	 0.401123664807473 
1841	 0.401580332619372 
1842	 0.402045815361076 
1843	 0.402516421820477 
1844	 0.402957891166329 
1845	 0.403362888069836 
1846	 0.403773712674167 
1847	 0.40414313361031 
1848	 0.404509769408902 
1849	 0.404881468732832 
1850	 0.405222248270672 
1851	 0.405536879654585 
1852	 0.405846559406945 
1853	 0.406140718812054 
1854	 0.406374092300946 
1855	 0.406602968948136 
1856	 0.406812101187437 
1857	 0.406984215469929 
1858	 0.407132535561944 
1859	 0.407219328800009 
1860	 0.407273751292299 
1861	 0.407253896232508 
1862	 0.407175547134045 
1863	 0.40703844406712 
1864	 0.406853878666079 
1865	 0.406620774501905 
1866	 0.406321084885243 
1867	 0.405962929293118 
1868	 0.405563949485516 
1869	 0.405072262920691 
1870	 0.40450374033867 
1871	 0.403894838351504 
1872	 0.403178683561384 
1873	 0.402360387630677 
1874	 0.40149451550315 
1875	 0.40055592275732 
1876	 0.399441545911541 
1877	 0.398293274324532 
1878	 0.396996442916845 
1879	 0.395532295857304 
1880	 0.394053056095487 
1881	 0.39240247466773 
1882	 0.390602845479361 
1883	 0.388698300514086 
1884	 0.386633852803412 
1885	 0.384289924212756 
1886	 0.381877482833119 
1887	 0.379226876899313 
1888	 0.376361248345894 
1889	 0.373591546605808 
1890	 0.370601616635922 
1891	 0.367566498780475 
1892	 0.364539104456668 
1893	 0.361345588082454 
1894	 0.357955218515127 
1895	 0.35464575949756 
1896	 0.351232506028334 
1897	 0.34776366307032 
1898	 0.344542216070718 
1899	 0.341233229131801 
1900	 0.338009736136888 
1901	 0.334886964368228 
1902	 0.331592357778842 
1903	 0.328477966034642 
1904	 0.325434129872512 
1905	 0.322413521859796 
1906	 0.31947260953196 
1907	 0.316865316302255 
1908	 0.314254855166413 
1909	 0.311767490272025 
1910	 0.309451823395797 
1911	 0.307065998723556 
1912	 0.304850360483599 
1913	 0.302707544068175 
1914	 0.30058689601399 
1915	 0.298637553772354 
1916	 0.296861919175303 
1917	 0.295089316581652 
1918	 0.293417240717145 
1919	 0.291880346063823 
1920	 0.290313685331819 
1921	 0.288863723106252 
1922	 0.287489612635991 
1923	 0.286167178635369 
1924	 0.285002670365829 
1925	 0.283876079151956 
1926	 0.282822501342986 
1927	 0.281850429460187 
1928	 0.280943165485318 
1929	 0.280083202385443 
1930	 0.279333383131835 
1931	 0.278658751843032 
1932	 0.278062894988397 
1933	 0.277589195588762 
1934	 0.277182837530331 
1935	 0.276838629510668 
1936	 0.276578024501021 
1937	 0.276399506504251 
1938	 0.276293987992247 
1939	 0.276263488834917 
1940	 0.276315093641997 
1941	 0.276453484959567 
1942	 0.276646096877918 
1943	 0.276922183729249 
1944	 0.277271018510316 
1945	 0.277692420100234 
1946	 0.278204264100277 
1947	 0.278745174404951 
1948	 0.279346746949433 
1949	 0.280025599760388 
1950	 0.280713937972731 
1951	 0.281433963332021 
1952	 0.282195654563763 
1953	 0.282997560576284 
1954	 0.283809921469009 
1955	 0.284701801966973 
1956	 0.285585165819558 
1957	 0.286500643489207 
1958	 0.287459291076978 
1959	 0.288363366261613 
1960	 0.289309277105663 
1961	 0.290249007523666 
1962	 0.291168641275588 
1963	 0.2921244963915 
1964	 0.293117113486158 
1965	 0.294078301088942 
1966	 0.295048399131041 
1967	 0.296031124859283 
1968	 0.296944491717145 
1969	 0.297896544148036 
1970	 0.298837207364068 
1971	 0.299765675491302 
1972	 0.300765257123093 
1973	 0.301729726173293 
1974	 0.302702774931657 
1975	 0.303722413869367 
1976	 0.304686741470316 
1977	 0.305597998904632 
1978	 0.306546940660864 
1979	 0.307492019095502 
1980	 0.308425401558158 
1981	 0.309417387613428 
1982	 0.310393923742363 
1983	 0.31138646702754 
1984	 0.312392594890444 
1985	 0.313332173452704 
1986	 0.314294432635811 
1987	 0.315237511037405 
1988	 0.316127027126451 
1989	 0.317066318145551 
1990	 0.318035185437129 
1991	 0.318986997561046 
1992	 0.319958484565064 
1993	 0.32093246298377 
1994	 0.321826245733735 
1995	 0.322724459827718 
1996	 0.323591667349969 
1997	 0.324416555090678 
1998	 0.325268732257997 
1999	 0.326130298931088 
2000	 0.326959439870595 
2001	 0.327815958705063 
2002	 0.328599071355853 
2003	 0.329334670397285 
2004	 0.330057588066222 
2005	 0.330721173766408 
2006	 0.331383251183089 
2007	 0.332056099644171 
2008	 0.332678866245551 
2009	 0.333252938900893 
2010	 0.333811711837071 
2011	 0.334280607680348 
2012	 0.334711560100903 
2013	 0.335076975284791 
2014	 0.335383875465285 
2015	 0.335635433191069 
2016	 0.335844549797228 
2017	 0.335958231381917 
2018	 0.336024138914379 
2019	 0.335984270986709 
2020	 0.335848743754818 
2021	 0.33562516192617 
2022	 0.335330018570893 
2023	 0.334929965591472 
2024	 0.334409926923595 
2025	 0.33384146498184 
2026	 0.333192817038777 
2027	 0.332416749647816 
2028	 0.331651492211209 
2029	 0.330822970470407 
2030	 0.329981167203494 
2031	 0.329090305617836 
2032	 0.328222796900615 
2033	 0.32727040269654 
2034	 0.326444049617758 
2035	 0.325652138250297 
2036	 0.324907059498239 
2037	 0.32430156767038 
2038	 0.323823257190784 
2039	 0.323447547456406 
2040	 0.323189173151565 
2041	 0.323038382706598 
2042	 0.322987231378687 
2043	 0.323066088962761 
2044	 0.323304998026575 
2045	 0.323577156846251 
2046	 0.323964642933346 
2047	 0.324404739957503 
2048	 0.324896583005937 
2049	 0.32546643768849 
2050	 0.326140254585127 
2051	 0.326851381509477 
2052	 0.327615850493281 
2053	 0.328438620018598 
2054	 0.329279502390094 
2055	 0.330170997033299 
2056	 0.331073219095847 
2057	 0.331987061015941 
2058	 0.332954568841888 
2059	 0.333962177585709 
2060	 0.334981112089409 
2061	 0.336080341993524 
2062	 0.337134857710745 
2063	 0.338178247906171 
2064	 0.339231151865725 
2065	 0.340290699640335 
2066	 0.341306059909747 
2067	 0.342404737608475 
2068	 0.343462157603554 
2069	 0.344493313190706 
2070	 0.345551585701201 
2071	 0.346513490149397 
2072	 0.347405723885458 
2073	 0.348285597425036 
2074	 0.349105950231231 
2075	 0.349921900305176 
2076	 0.350734558117938 
2077	 0.351487355809329 
2078	 0.352220983878142 
2079	 0.352897029369142 
2080	 0.353493332270529 
2081	 0.354084859218118 
2082	 0.354648680863972 
2083	 0.355166410247807 
2084	 0.355695642022302 
2085	 0.35617910722604 
2086	 0.356615657582157 
2087	 0.357019225189069 
2088	 0.357373451233142 
2089	 0.357663954490808 
2090	 0.357946081491745 
2091	 0.35818014329731 
2092	 0.358414643765832 
2093	 0.358637546979935 
2094	 0.358829848947675 
2095	 0.359003270269818 
2096	 0.35915638062048 
2097	 0.359269554341653 
2098	 0.359383964579808 
2099	 0.359481059566053 
2100	 0.359570884028113 
2101	 0.359660074293439 
2102	 0.359755035521571 
2103	 0.359803284715218 
2104	 0.359838216885325 
2105	 0.359847096986271 
2106	 0.359807875681948 
2107	 0.359781564872252 
2108	 0.359757140254525 
2109	 0.359705787409173 
2110	 0.359634914785822 
2111	 0.359555601876158 
2112	 0.359459913456998 
2113	 0.359349261285964 
2114	 0.359230876894673 
2115	 0.359092893714023 
2116	 0.358918780242223 
2117	 0.358763676322784 
2118	 0.358582730424588 
2119	 0.358398339743633 
2120	 0.358176077989749 
2121	 0.357935552916687 
2122	 0.357661150105878 
2123	 0.357360372880922 
2124	 0.35701718198623 
2125	 0.356668727178491 
2126	 0.356232447734968 
2127	 0.355747024222441 
2128	 0.355191794626158 
2129	 0.35453105001182 
2130	 0.353869963612712 
2131	 0.353193705827951 
2132	 0.352431057535881 
2133	 0.35163209992654 
2134	 0.350775034429833 
2135	 0.349768547903652 
2136	 0.34874256694345 
2137	 0.34767331747495 
2138	 0.346521835074488 
2139	 0.345392611111986 
2140	 0.344253412396225 
2141	 0.34306538084802 
2142	 0.341868321294025 
2143	 0.340614419653235 
2144	 0.33929666255667 
2145	 0.337976517176933 
2146	 0.33658677111684 
2147	 0.33524480924183 
2148	 0.333924834354451 
2149	 0.33257267002315 
2150	 0.331264474856996 
2151	 0.32988556665041 
2152	 0.328409810557425 
2153	 0.326983445457927 
2154	 0.325558224749233 
2155	 0.324091989294158 
2156	 0.322714506597332 
2157	 0.321385390022486 
2158	 0.320076471941753 
2159	 0.318816047285792 
2160	 0.317552909699063 
2161	 0.316280439421558 
2162	 0.315105752757839 
2163	 0.313940524581434 
2164	 0.312881142424447 
2165	 0.311917690129878 
2166	 0.311012060212048 
2167	 0.310169503843109 
2168	 0.30940554688862 
2169	 0.308710182024026 
2170	 0.308105389156829 
2171	 0.307570288983506 
2172	 0.307133595778024 
2173	 0.306810679533957 
2174	 0.306545142033159 
2175	 0.30636720453721 
2176	 0.306261957198187 
2177	 0.306219116994341 
2178	 0.306244394541393 
2179	 0.306342070741928 
2180	 0.306523948336003 
2181	 0.306740463154448 
2182	 0.307032368494006 
2183	 0.307347481831951 
2184	 0.307693393426642 
2185	 0.30810729548406 
2186	 0.30859157521709 
2187	 0.309085927278742 
2188	 0.309655424296964 
2189	 0.31020494001868 
2190	 0.310757834677731 
2191	 0.311330660406268 
2192	 0.311904708420954 
2193	 0.312513208919869 
2194	 0.313181377463029 
2195	 0.313808031725217 
2196	 0.314442740322353 
2197	 0.315085774818325 
2198	 0.315625353199405 
2199	 0.316165628334558 
2200	 0.316681031304287 
2201	 0.317160086927697 
2202	 0.317624267723145 
2203	 0.318067467706323 
2204	 0.318506783072415 
2205	 0.31891475536034 
2206	 0.319336544590274 
2207	 0.319760694698995 
2208	 0.320188733291716 
2209	 0.320584671060361 
2210	 0.321049529191781 
2211	 0.321560109096255 
2212	 0.322052882928269 
2213	 0.322603356179779 
2214	 0.32310217940464 
2215	 0.323587042522801 
2216	 0.32403422541395 
2217	 0.32445719564283 
2218	 0.324844843246317 
2219	 0.325218117987599 
2220	 0.325518147867752 
2221	 0.32575904505678 
2222	 0.325988796191525 
2223	 0.326125229744369 
2224	 0.326174411030927 
2225	 0.326193570857731 
2226	 0.326135372484105 
2227	 0.325987050581481 
2228	 0.325775604252407 
2229	 0.325454599762664 
2230	 0.325026690445645 
2231	 0.324520207823908 
2232	 0.323930750183538 
2233	 0.323225413884559 
2234	 0.322455114698984 
2235	 0.321510270264487 
2236	 0.320435312823457 
2237	 0.319216814602613 
2238	 0.317796605277368 
2239	 0.3163314778129 
2240	 0.314779689081206 
2241	 0.313081179087615 
2242	 0.311330374830394 
2243	 0.309360523835627 
2244	 0.307160693032017 
2245	 0.304896718614652 
2246	 0.302407299020026 
2247	 0.299919690369285 
2248	 0.29740358978304 
2249	 0.294759502131043 
2250	 0.292016337725342 
2251	 0.289260716766841 
2252	 0.286221284068241 
2253	 0.283215685264072 
2254	 0.280160718414825 
2255	 0.277007547452472 
2256	 0.274069820697757 
2257	 0.271088616576936 
2258	 0.268190382815461 
2259	 0.265389728348426 
2260	 0.26255173880934 
2261	 0.259685302160333 
2262	 0.256979677024164 
2263	 0.254259957641791 
2264	 0.251755108158219 
2265	 0.249453153859846 
2266	 0.24715411494424 
2267	 0.245016412753537 
2268	 0.242835480577356 
2269	 0.240605030960929 
2270	 0.238581535349348 
2271	 0.236589232105585 
2272	 0.234781606036587 
2273	 0.233192190869331 
2274	 0.231658287554096 
2275	 0.230218883294831 
2276	 0.228923984333721 
2277	 0.227742995252718 
2278	 0.226715419377931 
2279	 0.225847994880493 
2280	 0.225090896957667 
2281	 0.224518948672221 
2282	 0.223993526889274 
2283	 0.223604128122656 
2284	 0.223250923000577 
2285	 0.222899027604891 
2286	 0.222570955683841 
2287	 0.222199936275623 
2288	 0.221781149971769 
2289	 0.221383780107279 
2290	 0.220913410411922 
2291	 0.220384161367513 
2292	 0.219787714122416 
2293	 0.219028293119424 
2294	 0.218161511664321 
2295	 0.217142912788349 
2296	 0.216009833567561 
2297	 0.214854678503104 
2298	 0.213594080308163 
2299	 0.212308683295007 
2300	 0.210979302729419 
2301	 0.209615850319911 
2302	 0.208126586862994 
2303	 0.206813046385133 
2304	 0.205425098951027 
2305	 0.204354056885592 
2306	 0.203427692812015 
2307	 0.202740281834342 
2308	 0.202238980115101 
2309	 0.202058516137829 
2310	 0.202144894968987 
2311	 0.202472221779489 
2312	 0.203190860073619 
2313	 0.203989659737992 
2314	 0.205007686737511 
2315	 0.206143078274871 
2316	 0.207484526732495 
2317	 0.208872976352249 
2318	 0.210484802287562 
2319	 0.21199038381984 
2320	 0.213587899439533 
2321	 0.215061318264197 
2322	 0.216485458705871 
2323	 0.217838203695731 
2324	 0.219138197372379 
2325	 0.220319888813841 
2326	 0.221453017310476 
2327	 0.222389205671362 
2328	 0.223200283320225 
2329	 0.223836770103716 
2330	 0.224279227404698 
2331	 0.224568568625134 
2332	 0.224752264712783 
2333	 0.224741702682697 
2334	 0.224547632770308 
2335	 0.224249864290733 
2336	 0.223753904563723 
2337	 0.223103494061249 
2338	 0.222419533404065 
2339	 0.221547401104826 
2340	 0.22058046890947 
2341	 0.219632139346056 
2342	 0.218586246659748 
2343	 0.217540983723967 
2344	 0.216536212287411 
2345	 0.215564200004003 
2346	 0.21478732670189 
2347	 0.214173884931307 
2348	 0.21372347004077 
2349	 0.213536790277699 
2350	 0.213519317692463 
2351	 0.213751193910127 
2352	 0.214250046968157 
2353	 0.214866175880803 
2354	 0.215563091961558 
2355	 0.216443362728265 
2356	 0.217410242914252 
2357	 0.218496034764512 
2358	 0.219709031138788 
2359	 0.220841254911513 
2360	 0.221909543504818 
2361	 0.22290489534247 
2362	 0.223774651430385 
2363	 0.224614381717262 
2364	 0.225471304446674 
2365	 0.226278929786912 
2366	 0.227005188726622 
2367	 0.227698886283089 
2368	 0.228388846917861 
2369	 0.228989369189085 
2370	 0.229540187209136 
2371	 0.230041573363692 
2372	 0.230380341174269 
2373	 0.230673332696747 
2374	 0.231014493894699 
2375	 0.23132749586394 
2376	 0.231631339950078 
2377	 0.231922147961201 
2378	 0.232165760494341 
2379	 0.23238043393177 
2380	 0.232559019087468 
2381	 0.232722819752355 
2382	 0.232932353132184 
2383	 0.233193885322527 
2384	 0.233338405573916 
2385	 0.233456333686793 
2386	 0.233598217651234 
2387	 0.23363996678878 
2388	 0.233765847787141 
2389	 0.234028294072209 
2390	 0.234109257234524 
2391	 0.234097915650979 
2392	 0.23405954907175 
2393	 0.233946762678623 
2394	 0.233831276460015 
2395	 0.233679674355921 
2396	 0.233531205600608 
2397	 0.23330690091597 
2398	 0.233193637898038 
2399	 0.233152516457338 
2400	 0.233061756919305 
2401	 0.233022804756128 
2402	 0.232831707256939 
2403	 0.232664218158748 
2404	 0.232683590437324 
2405	 0.232783773036833 
2406	 0.232863627940992 
2407	 0.232984531414482 
2408	 0.233020698064936 
2409	 0.233030915940076 
2410	 0.23326062685266 
2411	 0.233489203887911 
2412	 0.233609679328787 
2413	 0.233782067254915 
2414	 0.23383196516866 
2415	 0.233808890306357 
2416	 0.233891936523034 
2417	 0.233880032022492 
2418	 0.233808052032157 
2419	 0.233792594497518 
2420	 0.233760838420682 
2421	 0.233742330756128 
2422	 0.233708661483064 
2423	 0.233653655834574 
2424	 0.233519987942435 
2425	 0.233274393802304 
2426	 0.233147887550161 
2427	 0.233109047847398 
2428	 0.233033826888305 
2429	 0.23295490784352 
2430	 0.23279826864038 
2431	 0.232496233130426 
2432	 0.232140617635942 
2433	 0.231824911268508 
2434	 0.231482488426486 
2435	 0.231093270475482 
2436	 0.230631129366718 
2437	 0.230142899709823 
2438	 0.229723223338734 
2439	 0.229189545082179 
2440	 0.228601785959246 
2441	 0.227990567813238 
2442	 0.22720419650856 
2443	 0.226376256062799 
2444	 0.225519137120086 
2445	 0.224737103214819 
2446	 0.224047580641293 
2447	 0.223253249942895 
2448	 0.222500103265916 
2449	 0.22175595281261 
2450	 0.220892423426366 
2451	 0.219970687820078 
2452	 0.21903578227383 
2453	 0.21808438869215 
2454	 0.217140931760929 
2455	 0.21645944253308 
2456	 0.215936172581271 
2457	 0.215383861883898 
2458	 0.214802268489902 
2459	 0.214160244289422 
2460	 0.213606266247337 
2461	 0.213153195972755 
2462	 0.21277088925286 
2463	 0.212509425596906 
2464	 0.212287229222661 
2465	 0.212008293965409 
2466	 0.211899766163352 
2467	 0.211960180917449 
2468	 0.211844274724298 
2469	 0.21188133465408 
2470	 0.212128696066082 
2471	 0.212254330467668 
2472	 0.212522917848433 
2473	 0.212945878642651 
2474	 0.213278123972143 
2475	 0.213644108377733 
2476	 0.214090976300775 
2477	 0.21449895314872 
2478	 0.214843650589949 
2479	 0.215098625762648 
2480	 0.215460098948336 
2481	 0.215754242380921 
2482	 0.216029909892608 
2483	 0.216195520326078 
2484	 0.216267051524699 
2485	 0.216356480294867 
2486	 0.216397326594843 
2487	 0.216391760847899 
2488	 0.2164248134122 
2489	 0.216518868855766 
2490	 0.216731579231714 
2491	 0.217083116891904 
2492	 0.217414112205118 
2493	 0.217560931704697 
2494	 0.217592125014449 
2495	 0.217510559305693 
2496	 0.217235187353459 
2497	 0.216918048709508 
2498	 0.216831106155508 
2499	 0.217052681540771 
2500	 0.217125995363326 
