Wavelength	spectrum00014.asd
350	 6.30579369747515E-02 
351	 6.30352828755839E-02 
352	 6.13110486614378E-02 
353	 5.84808446109153E-02 
354	 5.79716233242128E-02 
355	 5.85032378227522E-02 
356	 5.84814030569984E-02 
357	 5.70295688354104E-02 
358	 5.53429543370128E-02 
359	 5.45146943650059E-02 
360	 5.42803467483423E-02 
361	 5.37667686144562E-02 
362	 5.36433669022902E-02 
363	 5.38465124797876E-02 
364	 5.35822569014741E-02 
365	 5.11752498121392E-02 
366	 5.15099314788764E-02 
367	 5.24244920365092E-02 
368	 5.16225001570061E-02 
369	 5.23690877216012E-02 
370	 5.24548074299835E-02 
371	 5.16551723711066E-02 
372	 5.09522148454152E-02 
373	 5.06590322708888E-02 
374	 5.16376813883574E-02 
375	 5.33301276449511E-02 
376	 5.32081923438194E-02 
377	 5.26238246331908E-02 
378	 5.20339599944673E-02 
379	 5.16285007268958E-02 
380	 5.13672629957368E-02 
381	 5.16446055060403E-02 
382	 5.19815885784029E-02 
383	 5.15365209170284E-02 
384	 5.12889805978962E-02 
385	 5.16104751725331E-02 
386	 5.19977279178075E-02 
387	 5.07459944239987E-02 
388	 5.02653844791925E-02 
389	 5.03152452130267E-02 
390	 5.01108839608341E-02 
391	 4.97897020335027E-02 
392	 4.94320444420933E-02 
393	 4.95637823563511E-02 
394	 5.07539377150846E-02 
395	 5.10825327286967E-02 
396	 5.07249948180524E-02 
397	 5.02238701131153E-02 
398	 5.02284401407071E-02 
399	 4.99491788458372E-02 
400	 4.96765893896975E-02 
401	 4.97669849572913E-02 
402	 4.94698938710852E-02 
403	 0.049387463553981 
404	 4.96197696419477E-02 
405	 4.98452405255383E-02 
406	 4.98712283251579E-02 
407	 4.95526388197947E-02 
408	 4.91140612559468E-02 
409	 4.95247215880113E-02 
410	 4.94355272177484E-02 
411	 4.91888121420938E-02 
412	 4.94726437558748E-02 
413	 4.98013130371168E-02 
414	 4.94900434297684E-02 
415	 4.89626638441326E-02 
416	 4.95175795430714E-02 
417	 4.94304638343537E-02 
418	 4.94047950747584E-02 
419	 0.049877002181598 
420	 4.96155748086457E-02 
421	 4.94999056334998E-02 
422	 4.96753320557121E-02 
423	 0.049952825597515 
424	 5.01441900484824E-02 
425	 5.01762479633901E-02 
426	 5.01738867784454E-02 
427	 5.04602022828557E-02 
428	 5.04182626928859E-02 
429	 5.04394742324324E-02 
430	 5.08413781093613E-02 
431	 5.10295309753185E-02 
432	 5.12068066569708E-02 
433	 0.051415863656478 
434	 5.16147085752577E-02 
435	 5.18688370923086E-02 
436	 0.052055930966042 
437	 5.21632280386287E-02 
438	 5.23753867210131E-02 
439	 5.26054541389339E-02 
440	 5.28549597370542E-02 
441	 5.31408336166301E-02 
442	 5.34643624569471E-02 
443	 5.36842451079456E-02 
444	 5.38149819425879E-02 
445	 5.39910003344241E-02 
446	 5.40989736706806E-02 
447	 5.42369003340258E-02 
448	 5.44621020480041E-02 
449	 5.46872800624373E-02 
450	 5.48216614482428E-02 
451	 5.48693753242501E-02 
452	 5.48985898663424E-02 
453	 5.50575627787944E-02 
454	 5.52410551021812E-02 
455	 5.53364051953711E-02 
456	 5.52536193275813E-02 
457	 5.52310797063802E-02 
458	 5.52625752242713E-02 
459	 5.52924189708798E-02 
460	 5.52935377773819E-02 
461	 0.055392712814335 
462	 5.54711650807248E-02 
463	 5.53347627602939E-02 
464	 5.54221244037057E-02 
465	 5.55840955358037E-02 
466	 5.56339556342485E-02 
467	 5.54200236315437E-02 
468	 5.54487011430612E-02 
469	 0.055577009358095 
470	 5.55701008737361E-02 
471	 5.57211158540304E-02 
472	 5.57107650978222E-02 
473	 5.56048073375596E-02 
474	 5.57546990068633E-02 
475	 5.57514049862827E-02 
476	 5.57401059639476E-02 
477	 5.58620389485333E-02 
478	 5.60745529164927E-02 
479	 5.61472944642922E-02 
480	 5.61767599561673E-02 
481	 5.63478976595706E-02 
482	 5.64659879524017E-02 
483	 5.66000297799631E-02 
484	 5.67520640219147E-02 
485	 5.68297754029077E-02 
486	 0.057055550946637 
487	 0.057303037118652 
488	 5.74499128265224E-02 
489	 5.76395229309583E-02 
490	 5.79143099786751E-02 
491	 5.82203552275045E-02 
492	 5.84622028525926E-02 
493	 5.87535187641043E-02 
494	 5.91014372632779E-02 
495	 5.94477640689102E-02 
496	 5.96415550087471E-02 
497	 5.98838917021696E-02 
498	 6.02078398897007E-02 
499	 6.05879223382609E-02 
500	 0.061027431517325 
501	 6.13380442708448E-02 
502	 6.15787003600828E-02 
503	 6.20141752717911E-02 
504	 6.24330288951233E-02 
505	 6.28439044959373E-02 
506	 6.32781258496035E-02 
507	 6.37335869954476E-02 
508	 6.41146294923941E-02 
509	 6.45146746648082E-02 
510	 6.50668159342732E-02 
511	 6.55314559820459E-02 
512	 0.066002756757383 
513	 6.65366137319721E-02 
514	 6.71042508383787E-02 
515	 0.06759111970369 
516	 6.80668975502226E-02 
517	 6.86138672157241E-02 
518	 6.91693895492132E-02 
519	 6.97445646424102E-02 
520	 7.03603690182385E-02 
521	 7.10337763863202E-02 
522	 7.16631614864042E-02 
523	 7.22677189187802E-02 
524	 7.29068539889637E-02 
525	 7.36990333489202E-02 
526	 7.44203456227408E-02 
527	 7.51170197628427E-02 
528	 7.59113016017542E-02 
529	 7.67511015587487E-02 
530	 7.75858787157782E-02 
531	 7.84219134665444E-02 
532	 7.93221699741153E-02 
533	 8.02026954482457E-02 
534	 8.11001186255688E-02 
535	 8.20598753802226E-02 
536	 8.30864050787516E-02 
537	 0.084095658881072 
538	 8.51261244083262E-02 
539	 8.62672246987955E-02 
540	 8.73798640360351E-02 
541	 8.85312653390247E-02 
542	 8.97517867974553E-02 
543	 9.09762455947023E-02 
544	 9.22056548001182E-02 
545	 9.34462594185548E-02 
546	 9.47149258243587E-02 
547	 9.60574193837188E-02 
548	 9.74361380310422E-02 
549	 9.88420293623664E-02 
550	 0.100291094382832 
551	 0.101735404842969 
552	 0.103210374652969 
553	 0.104747885640958 
554	 0.106325291297765 
555	 0.107950378798593 
556	 0.109609011429102 
557	 0.111287163437336 
558	 0.113063945993313 
559	 0.114861196346537 
560	 0.116643092147675 
561	 0.118455882692275 
562	 0.120261761830974 
563	 0.122084258717422 
564	 0.123949661124235 
565	 0.125835602492904 
566	 0.127727119621038 
567	 0.129615140983603 
568	 0.131500861897973 
569	 0.133438760641145 
570	 0.135429293883361 
571	 0.137432543241948 
572	 0.139332237230462 
573	 0.141266033870986 
574	 0.143201745009069 
575	 0.145063582232314 
576	 0.146932480889347 
577	 0.148766142837668 
578	 0.150557584606927 
579	 0.152345096619722 
580	 0.154148519445678 
581	 0.155916878613618 
582	 0.157618856328973 
583	 0.159329705276338 
584	 0.161042192384986 
585	 0.162738653798379 
586	 0.164398927364068 
587	 0.166021007335059 
588	 0.167664916277264 
589	 0.1693045507485 
590	 0.170761612345064 
591	 0.172210928696659 
592	 0.173646916131958 
593	 0.175008574163424 
594	 0.176261944661166 
595	 0.177441947571176 
596	 0.17858181756596 
597	 0.179704186860602 
598	 0.180800841213849 
599	 0.181876308140469 
600	 0.182921334865461 
601	 0.183875561903162 
602	 0.184822092812522 
603	 0.185761594943204 
604	 0.186649337071657 
605	 0.18741480171159 
606	 0.188197445575199 
607	 0.189015541325003 
608	 0.189715954002105 
609	 0.190351884195045 
610	 0.190957548658167 
611	 0.191557706844103 
612	 0.192152699840613 
613	 0.192701399516461 
614	 0.193200137200611 
615	 0.193672616783716 
616	 0.194126609449184 
617	 0.194572367360447 
618	 0.195007556044473 
619	 0.195409443258577 
620	 0.195797412506539 
621	 0.196175757319307 
622	 0.196539964239279 
623	 0.196860008906377 
624	 0.197227894749103 
625	 0.197616981289918 
626	 0.197895928317019 
627	 0.198189294909515 
628	 0.198518679037077 
629	 0.19886344352243 
630	 0.199147516224171 
631	 0.199425359528411 
632	 0.199716995814915 
633	 0.200017707799713 
634	 0.200262765088448 
635	 0.200521744850755 
636	 0.200827909680607 
637	 0.201153171344293 
638	 0.201420486440413 
639	 0.201694451188951 
640	 0.202032836026455 
641	 0.202353365740711 
642	 0.202614849405947 
643	 0.202886270354187 
644	 0.203278620994913 
645	 0.203596251038079 
646	 0.203885900367537 
647	 0.204208812945242 
648	 0.204602902079874 
649	 0.204949294840336 
650	 0.205278768861144 
651	 0.205641186298868 
652	 0.205943342983553 
653	 0.206298030762604 
654	 0.206714777647899 
655	 0.207115059087436 
656	 0.207499581065003 
657	 0.207901472884473 
658	 0.20833084137213 
659	 0.208736574571943 
660	 0.209138148148604 
661	 0.20957279907533 
662	 0.210061360963416 
663	 0.210497612854458 
664	 0.210932548417879 
665	 0.21140725471431 
666	 0.211937520860159 
667	 0.212442131109064 
668	 0.212931177458433 
669	 0.213432630707223 
670	 0.213967691933566 
671	 0.214534869233229 
672	 0.215091172854003 
673	 0.215598408886181 
674	 0.216181739626851 
675	 0.21677295209035 
676	 0.217352385550646 
677	 0.217978684818376 
678	 0.21858967546414 
679	 0.219197001957827 
680	 0.219819692611975 
681	 0.220438548728096 
682	 0.221104094224002 
683	 0.221808317934618 
684	 0.222508067535643 
685	 0.223167436515626 
686	 0.223849094523499 
687	 0.224576908194537 
688	 0.225308094931524 
689	 0.226029471773318 
690	 0.226739918342028 
691	 0.227449630644213 
692	 0.228174929287504 
693	 0.228982437706652 
694	 0.229827806553816 
695	 0.230604894977658 
696	 0.231366086791447 
697	 0.232147349143012 
698	 0.232960249203091 
699	 0.233780649109537 
700	 0.234598566306723 
701	 0.235429173673479 
702	 0.236295482674104 
703	 0.237216248052786 
704	 0.238150907804447 
705	 0.239056842499079 
706	 0.239908144060342 
707	 0.240843179781661 
708	 0.241763275847668 
709	 0.242630531558569 
710	 0.243561504583586 
711	 0.244486333475283 
712	 0.245422981333246 
713	 0.24639427786203 
714	 0.247345526151594 
715	 0.248272579936742 
716	 0.249200261194473 
717	 0.2501633087338 
718	 0.251094656313842 
719	 0.252014079924687 
720	 0.252942582461386 
721	 0.253881574249786 
722	 0.2547711878173 
723	 0.255654292789663 
724	 0.256590192235464 
725	 0.257582196120329 
726	 0.258484974790002 
727	 0.259333625273702 
728	 0.260275815785673 
729	 0.261162936673783 
730	 0.262006069664716 
731	 0.262849583613738 
732	 0.263758697495227 
733	 0.264585860622666 
734	 0.265398036367021 
735	 0.266273869477349 
736	 0.267083140064102 
737	 0.267833985260246 
738	 0.268534416405441 
739	 0.269199225584303 
740	 0.269910891024873 
741	 0.270628970677288 
742	 0.271307405851857 
743	 0.271918520543356 
744	 0.272541953011434 
745	 0.273171624583344 
746	 0.273781737651971 
747	 0.274373451499541 
748	 0.274913339700701 
749	 0.275388044218733 
750	 0.275806245090848 
751	 0.276222761446204 
752	 0.27667613951592 
753	 0.277138650682494 
754	 0.277505496344463 
755	 0.277887581862811 
756	 0.278266112030044 
757	 0.27858743105898 
758	 0.278781050751108 
759	 0.278966128121994 
760	 0.279166776696244 
761	 0.279357116082052 
762	 0.279521311590423 
763	 0.279680257392008 
764	 0.279826540318083 
765	 0.279922840794322 
766	 0.280007931703045 
767	 0.280050045506942 
768	 0.280036212818643 
769	 0.280032485848947 
770	 0.279942394635204 
771	 0.279808127284047 
772	 0.279709555059361 
773	 0.279637614586334 
774	 0.279544179636243 
775	 0.279388334988141 
776	 0.27915425719073 
777	 0.279005819926734 
778	 0.278835682759729 
779	 0.27857687036527 
780	 0.278301537174707 
781	 0.277954624583587 
782	 0.27760625249358 
783	 0.2773223933865 
784	 0.27703439760635 
785	 0.276731355082669 
786	 0.27638473657508 
787	 0.275969919251212 
788	 0.275547654942186 
789	 0.275102427664075 
790	 0.274642229800117 
791	 0.27420837443193 
792	 0.273774394642324 
793	 0.273310352902926 
794	 0.272807632652364 
795	 0.272306514769192 
796	 0.271816408145661 
797	 0.271325423428663 
798	 0.270807359893291 
799	 0.270213546119812 
800	 0.269661926268923 
801	 0.269154641067888 
802	 0.268607018831844 
803	 0.268081493069343 
804	 0.267536205264561 
805	 0.266959350967817 
806	 0.266401532518395 
807	 0.265806871006576 
808	 0.265186242365318 
809	 0.264571348682961 
810	 0.263999634290675 
811	 0.263470219390748 
812	 0.262900884919648 
813	 0.262217798681557 
814	 0.261608535000516 
815	 0.260996247089922 
816	 0.260356815927653 
817	 0.259729333615255 
818	 0.259149230320561 
819	 0.258555959293494 
820	 0.257925434109901 
821	 0.257317268894941 
822	 0.256680237911127 
823	 0.256060227891322 
824	 0.255500679518824 
825	 0.254969836683374 
826	 0.254346939702897 
827	 0.253702095952143 
828	 0.253163777981626 
829	 0.252627084922829 
830	 0.252063731302141 
831	 0.251466852425397 
832	 0.250851252977588 
833	 0.250270181986452 
834	 0.24970855226785 
835	 0.249142054014269 
836	 0.24854967218094 
837	 0.248027749528914 
838	 0.247483614156219 
839	 0.246863909054067 
840	 0.246361971779709 
841	 0.245835426420376 
842	 0.245304967361787 
843	 0.244823067762576 
844	 0.244264729948526 
845	 0.243696765811486 
846	 0.243175029495952 
847	 0.242720794594195 
848	 0.242206306986355 
849	 0.24165918128512 
850	 0.241132583999566 
851	 0.240681550613804 
852	 0.240233854102588 
853	 0.23977346608161 
854	 0.239318210800978 
855	 0.238934727930299 
856	 0.238502483817883 
857	 0.238024760235824 
858	 0.23755834671193 
859	 0.23719177107514 
860	 0.23677589485385 
861	 0.236330394746897 
862	 0.235950482770113 
863	 0.235590756521409 
864	 0.235233519234584 
865	 0.234876065959977 
866	 0.234523342994597 
867	 0.23413166590304 
868	 0.23373573063514 
869	 0.233361799758423 
870	 0.2330089654226 
871	 0.232744269356357 
872	 0.232472414865959 
873	 0.232136769987802 
874	 0.231843691736496 
875	 0.231567791735415 
876	 0.231287943777382 
877	 0.230997233313189 
878	 0.230743430683296 
879	 0.230481689206741 
880	 0.230217690775779 
881	 0.229980350670039 
882	 0.229781207822494 
883	 0.229537634606042 
884	 0.229268664719744 
885	 0.229064864653062 
886	 0.228890860890617 
887	 0.228732884731915 
888	 0.228571196353678 
889	 0.228384392439194 
890	 0.228246792307357 
891	 0.228101244154962 
892	 0.227922903206641 
893	 0.227780894341619 
894	 0.227683325630509 
895	 0.227582393569814 
896	 0.227453173765957 
897	 0.227371330229456 
898	 0.227287634397539 
899	 0.227160079170124 
900	 0.226996265516758 
901	 0.22696794324392 
902	 0.226976085338044 
903	 0.22694540887651 
904	 0.226837143719087 
905	 0.22670267585639 
906	 0.226630383487924 
907	 0.22665154557309 
908	 0.226726621221561 
909	 0.226664443094322 
910	 0.226641357131303 
911	 0.226685002764545 
912	 0.226651703914412 
913	 0.226681983781713 
914	 0.226714012744691 
915	 0.226712031522051 
916	 0.226717062879275 
917	 0.226731804191748 
918	 0.226807907502023 
919	 0.226945852164896 
920	 0.227043690313619 
921	 0.22706305935588 
922	 0.22706656800995 
923	 0.227119986903506 
924	 0.227217984790504 
925	 0.227331826641784 
926	 0.227433525083926 
927	 0.227522309922689 
928	 0.227684606046796 
929	 0.227799990135733 
930	 0.227862532948048 
931	 0.227931158513506 
932	 0.228097315854835 
933	 0.228259114459671 
934	 0.22841966921594 
935	 0.228613421063932 
936	 0.228681533636478 
937	 0.22885188746952 
938	 0.229102140062216 
939	 0.229246714313254 
940	 0.229353123248892 
941	 0.229568421501664 
942	 0.229874104313399 
943	 0.230115099062485 
944	 0.230332807840317 
945	 0.230480358858632 
946	 0.230628422388824 
947	 0.230942349025771 
948	 0.23118724857595 
949	 0.231391887718463 
950	 0.231616393021301 
951	 0.231899408130314 
952	 0.232151245362136 
953	 0.232368482214645 
954	 0.232582302800929 
955	 0.232845435748331 
956	 0.233156072302641 
957	 0.23348662461746 
958	 0.233813029977911 
959	 0.23413037856594 
960	 0.234410152791556 
961	 0.234667739673108 
962	 0.234933455976012 
963	 0.235241016286954 
964	 0.235501036655629 
965	 0.235808550520217 
966	 0.236209416912874 
967	 0.236533323234228 
968	 0.236911987568816 
969	 0.237273798607925 
970	 0.237548474248738 
971	 0.237803438476285 
972	 0.238241711015438 
973	 0.238655511462225 
974	 0.238876175324662 
975	 0.239217633246745 
976	 0.239550490040298 
977	 0.239911433825682 
978	 0.240340424995877 
979	 0.240740604532619 
980	 0.241146412325147 
981	 0.241529183035766 
982	 0.241874777750996 
983	 0.24227496896224 
984	 0.242667213406683 
985	 0.24308189085709 
986	 0.243541104464895 
987	 0.243926682364577 
988	 0.244403758707896 
989	 0.244903099626718 
990	 0.245296766436191 
991	 0.245556161002003 
992	 0.245966805261041 
993	 0.24647289748867 
994	 0.246916150731353 
995	 0.247274400009766 
996	 0.247754580835952 
997	 0.248243997474489 
998	 0.248616549825707 
999	 0.249122749055653 
1000	 0.249569580362438 
1001	 0.252828447360445 
1002	 0.253280878097488 
1003	 0.253755126375581 
1004	 0.25425854787296 
1005	 0.254817119969846 
1006	 0.255317548692553 
1007	 0.255801094121875 
1008	 0.256307500002093 
1009	 0.256775380934343 
1010	 0.257291185621835 
1011	 0.257868112136239 
1012	 0.258418972699008 
1013	 0.258975104518443 
1014	 0.259529241899524 
1015	 0.260088536263641 
1016	 0.260610173120183 
1017	 0.261187003729108 
1018	 0.261736078914768 
1019	 0.262298192122881 
1020	 0.262878561841502 
1021	 0.263427478981212 
1022	 0.263929938239326 
1023	 0.264504267942197 
1024	 0.265105939299303 
1025	 0.265699768423772 
1026	 0.266321667043707 
1027	 0.266923599134035 
1028	 0.267501646069847 
1029	 0.268119478968466 
1030	 0.268705636526858 
1031	 0.2693474000382 
1032	 0.269950485192395 
1033	 0.27050760657328 
1034	 0.271116926298667 
1035	 0.271745774044504 
1036	 0.27241430459518 
1037	 0.273165061715212 
1038	 0.273841975136498 
1039	 0.274531178399819 
1040	 0.275189273241369 
1041	 0.275770762943117 
1042	 0.276415680825869 
1043	 0.277086664216886 
1044	 0.277730646467379 
1045	 0.278436885664625 
1046	 0.279173721869948 
1047	 0.279850330283508 
1048	 0.280555513480291 
1049	 0.281236760155704 
1050	 0.281912453783276 
1051	 0.282671873933368 
1052	 0.283412309808195 
1053	 0.284170990665848 
1054	 0.28498257364063 
1055	 0.285758542332542 
1056	 0.286512876421964 
1057	 0.287288056957275 
1058	 0.288062757774265 
1059	 0.288817359393137 
1060	 0.289623190600863 
1061	 0.290407120054176 
1062	 0.291270300404343 
1063	 0.292151461669822 
1064	 0.292964590007587 
1065	 0.293845891663307 
1066	 0.294682721709773 
1067	 0.295485669872907 
1068	 0.296354030416644 
1069	 0.297200930783946 
1070	 0.298078095838564 
1071	 0.298977198530207 
1072	 0.299880215207971 
1073	 0.300763701087313 
1074	 0.301681820468691 
1075	 0.302555899407993 
1076	 0.303442566510658 
1077	 0.304390736573321 
1078	 0.305289781106147 
1079	 0.30622354070009 
1080	 0.307214378381808 
1081	 0.308133181053774 
1082	 0.309085554485144 
1083	 0.310064184772364 
1084	 0.310992893766521 
1085	 0.31196318168446 
1086	 0.312947014425259 
1087	 0.313947280954622 
1088	 0.314952746157557 
1089	 0.315944450640604 
1090	 0.316905719119379 
1091	 0.317880949423988 
1092	 0.318817735348905 
1093	 0.319815721418794 
1094	 0.320874293767057 
1095	 0.321871080230029 
1096	 0.322939623045829 
1097	 0.324019790137455 
1098	 0.32501528488683 
1099	 0.326068565893042 
1100	 0.327098635879975 
1101	 0.32810885127189 
1102	 0.329198768998945 
1103	 0.330252198059732 
1104	 0.331293634399447 
1105	 0.33236879356755 
1106	 0.333459594043132 
1107	 0.334489974552337 
1108	 0.335603469010078 
1109	 0.336703209634149 
1110	 0.337783437509246 
1111	 0.33893096715385 
1112	 0.340025130271572 
1113	 0.341154090605036 
1114	 0.342312452040144 
1115	 0.343397990100085 
1116	 0.344527801461077 
1117	 0.34564202214828 
1118	 0.346758021638788 
1119	 0.347886506985949 
1120	 0.34900664283811 
1121	 0.350109266915291 
1122	 0.351237050176107 
1123	 0.352398567903517 
1124	 0.353501225112442 
1125	 0.35465935588931 
1126	 0.35580600820555 
1127	 0.356934764166138 
1128	 0.358138475075596 
1129	 0.359290917428832 
1130	 0.360472706294914 
1131	 0.361681890499649 
1132	 0.362782822860769 
1133	 0.36393144229577 
1134	 0.365077733628902 
1135	 0.366215360633192 
1136	 0.367346527669441 
1137	 0.368494392742353 
1138	 0.369631864730441 
1139	 0.37080271261862 
1140	 0.372018611544856 
1141	 0.373149710878549 
1142	 0.374320809200677 
1143	 0.375477273526512 
1144	 0.376606722136005 
1145	 0.37778959968866 
1146	 0.37892698870817 
1147	 0.380112459886168 
1148	 0.381335925769586 
1149	 0.382483133284415 
1150	 0.383669015871869 
1151	 0.384820021350106 
1152	 0.38598043528884 
1153	 0.387129049234642 
1154	 0.388288307715692 
1155	 0.389465903476963 
1156	 0.390631673340489 
1157	 0.391771730216403 
1158	 0.392897441947414 
1159	 0.394027376223009 
1160	 0.395143650947494 
1161	 0.396234963062527 
1162	 0.397399728858529 
1163	 0.398528776742769 
1164	 0.39968243361709 
1165	 0.400860351172079 
1166	 0.401955711972662 
1167	 0.403060556673464 
1168	 0.404133989562587 
1169	 0.405220923555494 
1170	 0.406297293854032 
1171	 0.407382373800111 
1172	 0.408476045280272 
1173	 0.409574717025994 
1174	 0.410659324193527 
1175	 0.411736822312108 
1176	 0.412828946522201 
1177	 0.41391372302271 
1178	 0.414969224530854 
1179	 0.416078238166592 
1180	 0.417151452861823 
1181	 0.418225410681527 
1182	 0.419336811246772 
1183	 0.420387957916697 
1184	 0.42145171092659 
1185	 0.422517266968908 
1186	 0.423570563114007 
1187	 0.424603486876531 
1188	 0.425641482003715 
1189	 0.426682234717185 
1190	 0.427728634570025 
1191	 0.428769373474985 
1192	 0.429794048090529 
1193	 0.430824577719481 
1194	 0.431837973386149 
1195	 0.432853883941628 
1196	 0.433840966029112 
1197	 0.434794902311586 
1198	 0.435765133063817 
1199	 0.436759909007778 
1200	 0.437693632452254 
1201	 0.438675866543822 
1202	 0.439646118661026 
1203	 0.440573982444751 
1204	 0.441526596343254 
1205	 0.442458045842016 
1206	 0.443390839212843 
1207	 0.444315960440863 
1208	 0.445227229937231 
1209	 0.4461240327714 
1210	 0.447014932319556 
1211	 0.447896714664511 
1212	 0.448768796871186 
1213	 0.449635197384782 
1214	 0.450496370409187 
1215	 0.451351494671154 
1216	 0.452201405260876 
1217	 0.453027759434422 
1218	 0.453847378476955 
1219	 0.454650155047036 
1220	 0.455417768612534 
1221	 0.45621569973623 
1222	 0.456968985932072 
1223	 0.457734710670813 
1224	 0.458511684791447 
1225	 0.459290240761584 
1226	 0.460049680145751 
1227	 0.460834770152675 
1228	 0.461571458721333 
1229	 0.462268715883837 
1230	 0.462973711265789 
1231	 0.463653454822304 
1232	 0.464348607872362 
1233	 0.465053557955705 
1234	 0.465733172142773 
1235	 0.466409148750679 
1236	 0.467078272295559 
1237	 0.467728367169023 
1238	 0.468375522867971 
1239	 0.469025117995806 
1240	 0.469659359876274 
1241	 0.47029803849888 
1242	 0.470895290384823 
1243	 0.471493122131618 
1244	 0.47208236901518 
1245	 0.472660543901289 
1246	 0.473223619598461 
1247	 0.473781838592439 
1248	 0.474336508137347 
1249	 0.474876543019917 
1250	 0.475402781170743 
1251	 0.47592104467843 
1252	 0.476422031372536 
1253	 0.476928937992694 
1254	 0.477439416779623 
1255	 0.477935867279254 
1256	 0.478437423979881 
1257	 0.478917903932706 
1258	 0.479383159601002 
1259	 0.479832005644534 
1260	 0.480250758160019 
1261	 0.48067987011142 
1262	 0.481100381859644 
1263	 0.481521493240859 
1264	 0.481939446308215 
1265	 0.482362897970947 
1266	 0.482783535292547 
1267	 0.483198960475825 
1268	 0.483608151958508 
1269	 0.484026255007594 
1270	 0.484418305547179 
1271	 0.484790599229887 
1272	 0.48516118732382 
1273	 0.485510845086082 
1274	 0.485876069822246 
1275	 0.486243942455606 
1276	 0.486603888371223 
1277	 0.486960570114201 
1278	 0.487324066455917 
1279	 0.487687296841733 
1280	 0.488045861292182 
1281	 0.488414687037227 
1282	 0.488770559252508 
1283	 0.489116706221462 
1284	 0.48945195708207 
1285	 0.489778229046937 
1286	 0.490098217747632 
1287	 0.490407180189406 
1288	 0.490706447424823 
1289	 0.490988785604966 
1290	 0.491250065802681 
1291	 0.491528789719623 
1292	 0.491789154371575 
1293	 0.492075908624657 
1294	 0.492390323358833 
1295	 0.492685913440307 
1296	 0.492984051898658 
1297	 0.493274257843052 
1298	 0.493562479206076 
1299	 0.493837338487975 
1300	 0.494108542768416 
1301	 0.494365422706614 
1302	 0.494601325902594 
1303	 0.494840614910526 
1304	 0.495073367409217 
1305	 0.495303155035594 
1306	 0.495523506739396 
1307	 0.495752473439621 
1308	 0.495983439457582 
1309	 0.496216771269431 
1310	 0.496436516566746 
1311	 0.496652794721699 
1312	 0.496878757395656 
1313	 0.497101693622536 
1314	 0.497314920867806 
1315	 0.49754341102955 
1316	 0.497743425649308 
1317	 0.497932420266609 
1318	 0.498087593886934 
1319	 0.498220806980739 
1320	 0.49834656153023 
1321	 0.49842555993013 
1322	 0.498536029856667 
1323	 0.498664041546727 
1324	 0.498776221149016 
1325	 0.498873683330161 
1326	 0.49899407845592 
1327	 0.499123887183962 
1328	 0.499247371438873 
1329	 0.499403633158636 
1330	 0.499523566353188 
1331	 0.499621363682623 
1332	 0.499706862273355 
1333	 0.499766404406739 
1334	 0.49982244831778 
1335	 0.499890468909892 
1336	 0.499958381710562 
1337	 0.500013714826703 
1338	 0.500077918854831 
1339	 0.500119822974286 
1340	 0.500132337617049 
1341	 0.500168465744752 
1342	 0.500216685034173 
1343	 0.500242837902404 
1344	 0.50027360259868 
1345	 0.50028153957455 
1346	 0.500274497880758 
1347	 0.50024713667934 
1348	 0.500198829319341 
1349	 0.500150785772743 
1350	 0.500080221556639 
1351	 0.500016040683116 
1352	 0.499946499211335 
1353	 0.499888385965024 
1354	 0.499821783856006 
1355	 0.499775130206657 
1356	 0.49974657230252 
1357	 0.499722958062118 
1358	 0.499720937773145 
1359	 0.499706261643083 
1360	 0.499693159794838 
1361	 0.499676316824752 
1362	 0.499642234169699 
1363	 0.499628958254185 
1364	 0.499604264553652 
1365	 0.499581653687152 
1366	 0.499551581719324 
1367	 0.499523425575493 
1368	 0.499471748454087 
1369	 0.499409131030467 
1370	 0.499341965962833 
1371	 0.499261423654024 
1372	 0.499172547987397 
1373	 0.499101496640768 
1374	 0.498970495585976 
1375	 0.498813699354246 
1376	 0.498620249219782 
1377	 0.498397635510139 
1378	 0.498121980599389 
1379	 0.497807838480802 
1380	 0.497455019387805 
1381	 0.497066327156136 
1382	 0.4966169339386 
1383	 0.496116822793611 
1384	 0.49558391064237 
1385	 0.494998348093327 
1386	 0.494375743789334 
1387	 0.493724192520932 
1388	 0.493039835246954 
1389	 0.492302709065483 
1390	 0.491546619146364 
1391	 0.490769138903104 
1392	 0.489942810284986 
1393	 0.48913731386563 
1394	 0.488303460734434 
1395	 0.487504362654053 
1396	 0.486710038198977 
1397	 0.485960437759573 
1398	 0.485237271795361 
1399	 0.484519077846135 
1400	 0.483846871269636 
1401	 0.483131900267772 
1402	 0.482409341229383 
1403	 0.481669694685886 
1404	 0.480922934221793 
1405	 0.480154338542197 
1406	 0.479384319583132 
1407	 0.478563708456762 
1408	 0.477681683721162 
1409	 0.476836302424842 
1410	 0.475919475354594 
1411	 0.475117606050693 
1412	 0.474274232993506 
1413	 0.473671317875019 
1414	 0.473116849967591 
1415	 0.472832495479863 
1416	 0.472800170639247 
1417	 0.472889550183672 
1418	 0.473268252033043 
1419	 0.473615113534163 
1420	 0.474146126832199 
1421	 0.474571147936418 
1422	 0.475015819715911 
1423	 0.475374062684594 
1424	 0.475655557308331 
1425	 0.475904927735873 
1426	 0.476096849972689 
1427	 0.476242977254434 
1428	 0.476377489494728 
1429	 0.47648995150809 
1430	 0.476615339162404 
1431	 0.476728003208816 
1432	 0.476852685357817 
1433	 0.476991125276567 
1434	 0.477108882020405 
1435	 0.477223522053064 
1436	 0.477324104285175 
1437	 0.477407084237654 
1438	 0.47749791313493 
1439	 0.477582291912856 
1440	 0.477668470306675 
1441	 0.47775517855639 
1442	 0.477844841820232 
1443	 0.477933077078455 
1444	 0.47802439733001 
1445	 0.478129762667804 
1446	 0.478213365803017 
1447	 0.478288048648612 
1448	 0.478359780724821 
1449	 0.4784278101715 
1450	 0.478476948968014 
1451	 0.47851032434657 
1452	 0.478547629110595 
1453	 0.47856630936835 
1454	 0.478594078822574 
1455	 0.478638096095857 
1456	 0.478666211256561 
1457	 0.478674415508784 
1458	 0.47869878819416 
1459	 0.478730393926892 
1460	 0.478755415244642 
1461	 0.47878527519602 
1462	 0.478815778823651 
1463	 0.478834491963024 
1464	 0.478861585527128 
1465	 0.478900929014361 
1466	 0.478940307285968 
1467	 0.478970072753046 
1468	 0.478990653668021 
1469	 0.479012910773365 
1470	 0.479024301072792 
1471	 0.479023917496216 
1472	 0.479019910266065 
1473	 0.479001575871302 
1474	 0.478958628526122 
1475	 0.478934344948501 
1476	 0.47891471993337 
1477	 0.478882852120479 
1478	 0.478857197413144 
1479	 0.47880898591165 
1480	 0.478738592555969 
1481	 0.478677215496089 
1482	 0.478616073113022 
1483	 0.478537959662574 
1484	 0.478451227412956 
1485	 0.478364339423646 
1486	 0.478250469639092 
1487	 0.478169702513744 
1488	 0.478098787903833 
1489	 0.478045646515897 
1490	 0.478012189263501 
1491	 0.477984125389281 
1492	 0.477966353620446 
1493	 0.477963093584614 
1494	 0.477960693581273 
1495	 0.4779908024566 
1496	 0.478047305500442 
1497	 0.478115837432236 
1498	 0.478209919560358 
1499	 0.478312321782022 
1500	 0.478429337934045 
1501	 0.478552918805074 
1502	 0.478691683970617 
1503	 0.478834746505082 
1504	 0.478979422270581 
1505	 0.479139938815827 
1506	 0.479322642036619 
1507	 0.479496012737485 
1508	 0.479668998633796 
1509	 0.479854680469023 
1510	 0.480042118862016 
1511	 0.480232511011076 
1512	 0.480440748451383 
1513	 0.480643193531176 
1514	 0.480843381848725 
1515	 0.481040813164453 
1516	 0.481242819230564 
1517	 0.481435184323435 
1518	 0.481607152923389 
1519	 0.481794877282819 
1520	 0.481991540005288 
1521	 0.482179687606012 
1522	 0.482375191589664 
1523	 0.482590170230411 
1524	 0.482803803855197 
1525	 0.483019652012596 
1526	 0.483237271944478 
1527	 0.483467914167358 
1528	 0.483680120055441 
1529	 0.483882673557095 
1530	 0.484090360993978 
1531	 0.484288445805557 
1532	 0.484506980427707 
1533	 0.484736287661979 
1534	 0.484961886343924 
1535	 0.485197237261652 
1536	 0.485425827887678 
1537	 0.485655454453813 
1538	 0.485871307782164 
1539	 0.486093438602255 
1540	 0.486281143359784 
1541	 0.486443932663957 
1542	 0.486604502740908 
1543	 0.486745426595945 
1544	 0.486885414827211 
1545	 0.487027002009081 
1546	 0.487143530801956 
1547	 0.487242847751233 
1548	 0.487335404887919 
1549	 0.48740724566445 
1550	 0.487484010414607 
1551	 0.487560406110257 
1552	 0.487623742083535 
1553	 0.48767911807499 
1554	 0.487729835009393 
1555	 0.487767449624569 
1556	 0.487808550009519 
1557	 0.487839850986774 
1558	 0.487888710426151 
1559	 0.487939739435897 
1560	 0.488002076011582 
1561	 0.488098047339422 
1562	 0.488154489635023 
1563	 0.488181291874378 
1564	 0.488241881055639 
1565	 0.488291645544175 
1566	 0.488363438467762 
1567	 0.488487309384717 
1568	 0.488569338298803 
1569	 0.488617974082828 
1570	 0.488701390775437 
1571	 0.488801861592831 
1572	 0.488879279580682 
1573	 0.488964804133466 
1574	 0.489045201809354 
1575	 0.489095994001725 
1576	 0.489164409759626 
1577	 0.489258060202258 
1578	 0.489332468709933 
1579	 0.489390787071555 
1580	 0.489458589649281 
1581	 0.489523036076892 
1582	 0.489594811776093 
1583	 0.489673138279365 
1584	 0.489753743922036 
1585	 0.489842974401847 
1586	 0.489924646657468 
1587	 0.490010306715061 
1588	 0.490085242414487 
1589	 0.490158307830013 
1590	 0.4902151722423 
1591	 0.49024993497047 
1592	 0.490297728978481 
1593	 0.490336454253263 
1594	 0.490382879027203 
1595	 0.490441677931653 
1596	 0.490498159413141 
1597	 0.490554482650244 
1598	 0.49060947426727 
1599	 0.490668050067556 
1600	 0.490723447712638 
1601	 0.490770516488517 
1602	 0.490826946152658 
1603	 0.490899670298013 
1604	 0.490950948969533 
1605	 0.490997030055262 
1606	 0.491036157178014 
1607	 0.491051886521944 
1608	 0.491077630437035 
1609	 0.491106195853642 
1610	 0.491134834070605 
1611	 0.491173273565091 
1612	 0.491196197021744 
1613	 0.491211703356575 
1614	 0.491224454007623 
1615	 0.491222530015246 
1616	 0.491224419702002 
1617	 0.491222386690287 
1618	 0.491228791933266 
1619	 0.49124139265025 
1620	 0.491250507928883 
1621	 0.491263390213335 
1622	 0.491276818304715 
1623	 0.491294679540477 
1624	 0.491299060835704 
1625	 0.491277880794505 
1626	 0.491293825761556 
1627	 0.491318705649673 
1628	 0.491349546693327 
1629	 0.491423714291538 
1630	 0.491474641997936 
1631	 0.491518668651627 
1632	 0.491548143677984 
1633	 0.491558736455388 
1634	 0.491579914010697 
1635	 0.49159760724415 
1636	 0.491607069647094 
1637	 0.491636696646974 
1638	 0.491631748898862 
1639	 0.491586819711471 
1640	 0.491556594826663 
1641	 0.491513011484728 
1642	 0.491474228870933 
1643	 0.491441340960521 
1644	 0.491411707109413 
1645	 0.491392092487904 
1646	 0.49135685096318 
1647	 0.49131597651381 
1648	 0.491275435464043 
1649	 0.491219229422929 
1650	 0.491170220934345 
1651	 0.491141637834388 
1652	 0.49108547421273 
1653	 0.491016524396932 
1654	 0.490941114833738 
1655	 0.490856979360969 
1656	 0.490750982151486 
1657	 0.49062272985857 
1658	 0.49049795216057 
1659	 0.490361796245369 
1660	 0.490215764358827 
1661	 0.490080326031631 
1662	 0.489914219375653 
1663	 0.489726136864786 
1664	 0.489515658007888 
1665	 0.489290691032616 
1666	 0.489034164281392 
1667	 0.488735782451999 
1668	 0.488438937397729 
1669	 0.488138843254256 
1670	 0.487802704095593 
1671	 0.487445837955692 
1672	 0.48706614649218 
1673	 0.486656024589054 
1674	 0.486217154131076 
1675	 0.485750070408275 
1676	 0.485288073113771 
1677	 0.484780160574138 
1678	 0.484309208514893 
1679	 0.483847508461668 
1680	 0.483404697056007 
1681	 0.482969190904657 
1682	 0.482562593523836 
1683	 0.482181579057995 
1684	 0.481826816361296 
1685	 0.48148059448725 
1686	 0.481195370614278 
1687	 0.480956452186725 
1688	 0.480730643482206 
1689	 0.480551284519397 
1690	 0.480389513115689 
1691	 0.480239289280927 
1692	 0.480132135459793 
1693	 0.480082808788516 
1694	 0.480011051708234 
1695	 0.479951915643289 
1696	 0.479888854046726 
1697	 0.479827454983293 
1698	 0.479757791890996 
1699	 0.479695928844296 
1700	 0.479627245648848 
1701	 0.479553551946401 
1702	 0.479462487218998 
1703	 0.479362071299875 
1704	 0.479253879406738 
1705	 0.479132237601408 
1706	 0.478979308121632 
1707	 0.47884462556264 
1708	 0.478651469206411 
1709	 0.478446370763848 
1710	 0.478234803757039 
1711	 0.477958709808824 
1712	 0.477684684890748 
1713	 0.477368572858558 
1714	 0.476991703400506 
1715	 0.476634884058097 
1716	 0.476233903966903 
1717	 0.475820475049536 
1718	 0.475425782869107 
1719	 0.475010720010749 
1720	 0.474631050217392 
1721	 0.474259321823443 
1722	 0.473892171356931 
1723	 0.473556871213835 
1724	 0.473240509385961 
1725	 0.472974399803462 
1726	 0.472757489865681 
1727	 0.472585730135808 
1728	 0.472469659768839 
1729	 0.472371140216207 
1730	 0.472307146184427 
1731	 0.472318957186868 
1732	 0.472369608991279 
1733	 0.47244724814874 
1734	 0.472571038214914 
1735	 0.472678450312125 
1736	 0.472744836945286 
1737	 0.472825604477985 
1738	 0.472943357640886 
1739	 0.473044980392382 
1740	 0.473168397695338 
1741	 0.473282166970271 
1742	 0.473375103306047 
1743	 0.473467678162568 
1744	 0.473563155338004 
1745	 0.473670889872736 
1746	 0.473766296502371 
1747	 0.473875639951922 
1748	 0.474018904544143 
1749	 0.474120863201715 
1750	 0.474205475567764 
1751	 0.474300606003224 
1752	 0.474374709460142 
1753	 0.474468226743684 
1754	 0.474583465578991 
1755	 0.474666207916683 
1756	 0.474740612663149 
1757	 0.474847122275028 
1758	 0.474911286586535 
1759	 0.474992069410785 
1760	 0.475080468666511 
1761	 0.475122479491148 
1762	 0.475174787578972 
1763	 0.475284922997036 
1764	 0.47540098264744 
1765	 0.475521943367125 
1766	 0.475680856471968 
1767	 0.475825794884742 
1768	 0.475962549342312 
1769	 0.476103942486066 
1770	 0.476220077824575 
1771	 0.476336064622839 
1772	 0.476445745068828 
1773	 0.476583327328528 
1774	 0.476741294753431 
1775	 0.476835821596977 
1776	 0.476896057596127 
1777	 0.476931435583599 
1778	 0.476944026054832 
1779	 0.476967265859103 
1780	 0.476987798949474 
1781	 0.476978365087072 
1782	 0.476958728066064 
1783	 0.476992458883802 
1784	 0.477027256765509 
1785	 0.477094200407574 
1786	 0.477127177193052 
1787	 0.477114952419994 
1788	 0.477129149400388 
1789	 0.477124654429428 
1790	 0.477148353865059 
1791	 0.477204000330019 
1792	 0.477243196594702 
1793	 0.477305874990944 
1794	 0.47733690768679 
1795	 0.477356291889797 
1796	 0.477382084124546 
1797	 0.477414336158199 
1798	 0.477467193811613 
1799	 0.477547275717565 
1800	 0.47766208943753 
1801	 0.472267278395127 
1802	 0.472315146731634 
1803	 0.472399553201052 
1804	 0.472492352624509 
1805	 0.472606034165046 
1806	 0.47271786402138 
1807	 0.472852096346901 
1808	 0.472971240458391 
1809	 0.473089130421729 
1810	 0.473201615856516 
1811	 0.473318406817885 
1812	 0.473426828664929 
1813	 0.473532385781692 
1814	 0.473631426087851 
1815	 0.473702171367757 
1816	 0.473780059663491 
1817	 0.473857002594956 
1818	 0.473920338751994 
1819	 0.473991017608702 
1820	 0.474054935907531 
1821	 0.474143292508243 
1822	 0.474246679047679 
1823	 0.474342550097992 
1824	 0.47445314219933 
1825	 0.47458560275184 
1826	 0.474697232630658 
1827	 0.474791864375779 
1828	 0.474908169358831 
1829	 0.475042425170611 
1830	 0.475146835492793 
1831	 0.475250076348327 
1832	 0.475347235230469 
1833	 0.475399195503819 
1834	 0.475476324538885 
1835	 0.475562626277474 
1836	 0.475626813395557 
1837	 0.475703628005098 
1838	 0.475788537617842 
1839	 0.475862799596304 
1840	 0.475941433160679 
1841	 0.476010267955048 
1842	 0.476076011682164 
1843	 0.476137597896149 
1844	 0.476174325201257 
1845	 0.476191701033078 
1846	 0.476189151268935 
1847	 0.476183741986992 
1848	 0.476195299071908 
1849	 0.47623010062715 
1850	 0.476223284985498 
1851	 0.476209661554757 
1852	 0.476193557103546 
1853	 0.47614613491062 
1854	 0.476079767831314 
1855	 0.476018656646926 
1856	 0.475948840486274 
1857	 0.475846975386428 
1858	 0.47571043377774 
1859	 0.475563577052355 
1860	 0.475421750527222 
1861	 0.475207640931141 
1862	 0.474944129370831 
1863	 0.474691066037402 
1864	 0.474362990665346 
1865	 0.473999016260885 
1866	 0.473607269640539 
1867	 0.473133278893266 
1868	 0.472628797363469 
1869	 0.472077061577234 
1870	 0.471492378448176 
1871	 0.470894237859623 
1872	 0.470231441857118 
1873	 0.469525569580028 
1874	 0.46878015718153 
1875	 0.467979628713094 
1876	 0.467057650654794 
1877	 0.466125035075627 
1878	 0.465079175447282 
1879	 0.463879681006888 
1880	 0.462669636080944 
1881	 0.461324080736823 
1882	 0.459846362977703 
1883	 0.458296039561505 
1884	 0.456636891410408 
1885	 0.454747184147871 
1886	 0.452821590610218 
1887	 0.450699674988735 
1888	 0.448410007006831 
1889	 0.446179505092384 
1890	 0.443728500912465 
1891	 0.441208938539274 
1892	 0.438615579164261 
1893	 0.435839464337554 
1894	 0.432851503699263 
1895	 0.429879743957275 
1896	 0.426778400170908 
1897	 0.423585781938948 
1898	 0.420600373027987 
1899	 0.417531741741693 
1900	 0.414539173717473 
1901	 0.411676580714427 
1902	 0.408686248235642 
1903	 0.405903407354479 
1904	 0.403253821395717 
1905	 0.400677183882081 
1906	 0.398239095882578 
1907	 0.396149687133678 
1908	 0.394127558500607 
1909	 0.392246921776054 
1910	 0.39057831705741 
1911	 0.388922982571486 
1912	 0.387454432543034 
1913	 0.386097418230603 
1914	 0.384786414554533 
1915	 0.383601950493056 
1916	 0.382570569554873 
1917	 0.38154470612211 
1918	 0.380597386763403 
1919	 0.379746068457155 
1920	 0.378889594751068 
1921	 0.378119104778492 
1922	 0.377393301384358 
1923	 0.376700509294941 
1924	 0.376105863441454 
1925	 0.375529164729072 
1926	 0.374983296764981 
1927	 0.374481459274307 
1928	 0.374003115995862 
1929	 0.373545882048876 
1930	 0.373127218367984 
1931	 0.372754229317457 
1932	 0.372407236496599 
1933	 0.372124909756075 
1934	 0.37189573798491 
1935	 0.371685481583414 
1936	 0.371523204897229 
1937	 0.371412408423019 
1938	 0.371336569169138 
1939	 0.371318541341073 
1940	 0.371352945932134 
1941	 0.371453234733897 
1942	 0.371581844376958 
1943	 0.371746156925417 
1944	 0.371956141914016 
1945	 0.372200006678454 
1946	 0.372499160573581 
1947	 0.372825350520265 
1948	 0.373196877497967 
1949	 0.373608502759773 
1950	 0.374032273009665 
1951	 0.374485878005326 
1952	 0.374963954098097 
1953	 0.375458387854271 
1954	 0.375984308254129 
1955	 0.376553102857017 
1956	 0.377097733669115 
1957	 0.377696627724205 
1958	 0.378302088615035 
1959	 0.378873182949728 
1960	 0.379500906203897 
1961	 0.380100297867462 
1962	 0.380656813434148 
1963	 0.3812716632728 
1964	 0.381921897714073 
1965	 0.382548369099013 
1966	 0.383198731283834 
1967	 0.383852497463121 
1968	 0.384433188155439 
1969	 0.385030309331243 
1970	 0.385639845264427 
1971	 0.386257203974518 
1972	 0.386930642784679 
1973	 0.387601132691067 
1974	 0.388276805966061 
1975	 0.38898270599316 
1976	 0.389664558524462 
1977	 0.390336978362894 
1978	 0.391010939615631 
1979	 0.391684354177678 
1980	 0.392330596985777 
1981	 0.393009359312482 
1982	 0.393675173960095 
1983	 0.394352871475662 
1984	 0.395049145565329 
1985	 0.395714389020567 
1986	 0.39641550032872 
1987	 0.397110451795147 
1988	 0.397797702463942 
1989	 0.398507330053211 
1990	 0.399240104996269 
1991	 0.399953805240558 
1992	 0.400683936783829 
1993	 0.401406824982131 
1994	 0.402060291636252 
1995	 0.402717360703508 
1996	 0.403353488341581 
1997	 0.403987655698845 
1998	 0.404637929017574 
1999	 0.405315562565933 
2000	 0.405949375280872 
2001	 0.406592899930912 
2002	 0.407177963150447 
2003	 0.407730294181894 
2004	 0.408259881946419 
2005	 0.408739252309317 
2006	 0.409217030384458 
2007	 0.409691054849995 
2008	 0.410108063072978 
2009	 0.410523830704628 
2010	 0.410939623796366 
2011	 0.411318169654812 
2012	 0.411675814711835 
2013	 0.411989881810944 
2014	 0.412276117602383 
2015	 0.412515600636784 
2016	 0.412698737349012 
2017	 0.412873385269362 
2018	 0.413031452969145 
2019	 0.413139584282128 
2020	 0.413221096352357 
2021	 0.413259602947394 
2022	 0.413245709052994 
2023	 0.413173550611006 
2024	 0.413081406433545 
2025	 0.412957565478485 
2026	 0.412768189601063 
2027	 0.412510859788162 
2028	 0.412257094273654 
2029	 0.411926710085799 
2030	 0.411637651283973 
2031	 0.411360841605584 
2032	 0.411075650260612 
2033	 0.410756710298268 
2034	 0.410495101085904 
2035	 0.410237082478507 
2036	 0.410020372351378 
2037	 0.409863033907585 
2038	 0.409755604377731 
2039	 0.409691835952022 
2040	 0.409666974554448 
2041	 0.409704092690547 
2042	 0.40979110476208 
2043	 0.409936155149333 
2044	 0.410151009552235 
2045	 0.410397418419188 
2046	 0.410698514680542 
2047	 0.411036575538653 
2048	 0.411417755745628 
2049	 0.41183243708379 
2050	 0.412304877155899 
2051	 0.41278803907536 
2052	 0.413298718383365 
2053	 0.413837860000414 
2054	 0.414367143541922 
2055	 0.414899935459599 
2056	 0.415461207716799 
2057	 0.416023424184818 
2058	 0.416620373245512 
2059	 0.41726213641102 
2060	 0.41788612322669 
2061	 0.418534101584265 
2062	 0.419165090483566 
2063	 0.41977623246541 
2064	 0.420412507288948 
2065	 0.421056765444842 
2066	 0.421696487993815 
2067	 0.422389539097142 
2068	 0.423047336708364 
2069	 0.423686784753964 
2070	 0.424333173837082 
2071	 0.424933619023632 
2072	 0.425495239615864 
2073	 0.426045935031482 
2074	 0.426567487528041 
2075	 0.427079043241519 
2076	 0.42756867241907 
2077	 0.428051525664817 
2078	 0.428544829623727 
2079	 0.428988372419026 
2080	 0.429400602807982 
2081	 0.429794641445726 
2082	 0.430159703143316 
2083	 0.43048120082376 
2084	 0.430807632992877 
2085	 0.431121965293896 
2086	 0.431408399323774 
2087	 0.431678343266149 
2088	 0.43191421194208 
2089	 0.432115820534921 
2090	 0.432311398208394 
2091	 0.432474631933667 
2092	 0.432637435660352 
2093	 0.432797996934864 
2094	 0.432934598023356 
2095	 0.433042500505314 
2096	 0.433156817029253 
2097	 0.433265214535553 
2098	 0.433356762580318 
2099	 0.433454210030175 
2100	 0.433565874040552 
2101	 0.433646254065541 
2102	 0.433712942367296 
2103	 0.433773573771493 
2104	 0.433816630496892 
2105	 0.433856006313968 
2106	 0.433892170312097 
2107	 0.433916227888491 
2108	 0.433918237748377 
2109	 0.433934755607718 
2110	 0.433953830601992 
2111	 0.433965044622844 
2112	 0.433978829138735 
2113	 0.433987864364866 
2114	 0.433984808096321 
2115	 0.433985669330278 
2116	 0.433986061073147 
2117	 0.433997542589118 
2118	 0.433987508952362 
2119	 0.433977441367333 
2120	 0.433934409210375 
2121	 0.433870975450551 
2122	 0.433796636880826 
2123	 0.433706111832141 
2124	 0.433593919541679 
2125	 0.433505011400925 
2126	 0.433314184992225 
2127	 0.433073379881934 
2128	 0.432783275826506 
2129	 0.432396706062547 
2130	 0.432010296938342 
2131	 0.431604270185938 
2132	 0.431151184599515 
2133	 0.430677202774326 
2134	 0.430161409841727 
2135	 0.429520593526698 
2136	 0.428865482829924 
2137	 0.42815807751078 
2138	 0.427358640952617 
2139	 0.426578114464045 
2140	 0.425796848782054 
2141	 0.424950810456233 
2142	 0.424063379579817 
2143	 0.42314901501177 
2144	 0.422192627897654 
2145	 0.421211502701204 
2146	 0.420179010814148 
2147	 0.419155710735774 
2148	 0.418119541883764 
2149	 0.417053920159842 
2150	 0.416004230932247 
2151	 0.41489650528676 
2152	 0.413718548409317 
2153	 0.412546107147564 
2154	 0.411337631557509 
2155	 0.410132535764111 
2156	 0.408992008385098 
2157	 0.407884226652935 
2158	 0.406779992751097 
2159	 0.405732791683498 
2160	 0.404642448159448 
2161	 0.403519291939742 
2162	 0.402453798953452 
2163	 0.40134775505576 
2164	 0.400374932200934 
2165	 0.399488311423472 
2166	 0.39862783711692 
2167	 0.397860534818776 
2168	 0.397102552075584 
2169	 0.396345024048192 
2170	 0.39566570737856 
2171	 0.39503667164643 
2172	 0.394462607627354 
2173	 0.393975476971442 
2174	 0.393489935679078 
2175	 0.393064114672176 
2176	 0.39269958992342 
2177	 0.392324911331358 
2178	 0.391979769728804 
2179	 0.39165284193606 
2180	 0.391336554915123 
2181	 0.39104095133529 
2182	 0.39077571871262 
2183	 0.390521178743389 
2184	 0.390297367402615 
2185	 0.390048257791061 
2186	 0.389800901286827 
2187	 0.389564506720593 
2188	 0.389316329431987 
2189	 0.389074771875624 
2190	 0.388852151938433 
2191	 0.388629651034606 
2192	 0.388405190297555 
2193	 0.388180721960283 
2194	 0.387963249877875 
2195	 0.387748908663452 
2196	 0.387550370793061 
2197	 0.387320161263853 
2198	 0.387078393886209 
2199	 0.386830636844364 
2200	 0.38650493399348 
2201	 0.386128603486843 
2202	 0.385693660450823 
2203	 0.385153218899817 
2204	 0.384704151132206 
2205	 0.384142464208002 
2206	 0.383839733513758 
2207	 0.383609535502932 
2208	 0.383592761806219 
2209	 0.38373462685522 
2210	 0.384079417604184 
2211	 0.384649663976606 
2212	 0.385314888910956 
2213	 0.386294265658372 
2214	 0.387130046601227 
2215	 0.388069497062702 
2216	 0.388894090898568 
2217	 0.389677852486934 
2218	 0.390358160017188 
2219	 0.390988575813546 
2220	 0.391506949850621 
2221	 0.391895659751136 
2222	 0.392233745661596 
2223	 0.392486356809233 
2224	 0.392695431383256 
2225	 0.392813729132166 
2226	 0.392854782794932 
2227	 0.39283673622779 
2228	 0.392718966703661 
2229	 0.392582344946845 
2230	 0.392409110591993 
2231	 0.392159904953749 
2232	 0.391843456664666 
2233	 0.391491054343528 
2234	 0.39108656278658 
2235	 0.390613030429316 
2236	 0.390090529128914 
2237	 0.389501809345234 
2238	 0.388785443282326 
2239	 0.38811959700808 
2240	 0.387435029578995 
2241	 0.386734937113873 
2242	 0.386092150816361 
2243	 0.385323869729598 
2244	 0.3844674781342 
2245	 0.383593223515247 
2246	 0.382613915495946 
2247	 0.381661824709175 
2248	 0.380718965075838 
2249	 0.379740032511564 
2250	 0.378743865377098 
2251	 0.377726340521511 
2252	 0.376649005495821 
2253	 0.375594095742814 
2254	 0.374544957244793 
2255	 0.373525672481769 
2256	 0.372620796403471 
2257	 0.371730518714503 
2258	 0.370863246648213 
2259	 0.37003205957602 
2260	 0.369263810264011 
2261	 0.368504978149348 
2262	 0.367846719842935 
2263	 0.367279059755124 
2264	 0.366750560440454 
2265	 0.366293110695974 
2266	 0.365856775431532 
2267	 0.365506122259638 
2268	 0.365115307351613 
2269	 0.364738917865577 
2270	 0.364363318917678 
2271	 0.363979132655526 
2272	 0.363610126916772 
2273	 0.36324223927056 
2274	 0.362890662286786 
2275	 0.362578229446219 
2276	 0.362226220708144 
2277	 0.361860168699133 
2278	 0.361513835748021 
2279	 0.361100530624027 
2280	 0.360773945182859 
2281	 0.360513472443713 
2282	 0.360277981002505 
2283	 0.3600930065344 
2284	 0.359928817448164 
2285	 0.359815698434073 
2286	 0.359685415931394 
2287	 0.359578372282573 
2288	 0.359554680951875 
2289	 0.359540085036946 
2290	 0.359549728284093 
2291	 0.359632899669096 
2292	 0.359745127789588 
2293	 0.359860520127727 
2294	 0.360001274153846 
2295	 0.36015319777679 
2296	 0.360302106765311 
2297	 0.360427089482611 
2298	 0.360563100329621 
2299	 0.360655262851135 
2300	 0.360688545738191 
2301	 0.360773168286081 
2302	 0.360868810305085 
2303	 0.360958963224897 
2304	 0.361074011744504 
2305	 0.361142559704284 
2306	 0.361177532001573 
2307	 0.361229444685332 
2308	 0.361248845637413 
2309	 0.36132241863536 
2310	 0.361417838612752 
2311	 0.361527832138104 
2312	 0.36170168373484 
2313	 0.361822244127084 
2314	 0.361922794895338 
2315	 0.362041738754692 
2316	 0.362163391744014 
2317	 0.362241586121307 
2318	 0.362316913812121 
2319	 0.362369072137691 
2320	 0.362382300325596 
2321	 0.36237030083067 
2322	 0.362373174640502 
2323	 0.362305629138087 
2324	 0.362155961446056 
2325	 0.362009053234654 
2326	 0.361824898159763 
2327	 0.361635640321623 
2328	 0.361426801620937 
2329	 0.361213929927961 
2330	 0.361009264937727 
2331	 0.360738336094192 
2332	 0.360467932634929 
2333	 0.360233075054793 
2334	 0.359964400973482 
2335	 0.359683733184014 
2336	 0.359374258561025 
2337	 0.35904786649908 
2338	 0.358703986808702 
2339	 0.358327619458254 
2340	 0.357969120897939 
2341	 0.357546214841367 
2342	 0.35704426989081 
2343	 0.356566597828107 
2344	 0.356106618279195 
2345	 0.355707512856933 
2346	 0.355451833437042 
2347	 0.355200051189221 
2348	 0.354936402893774 
2349	 0.354680840326682 
2350	 0.354375580464319 
2351	 0.354170023320774 
2352	 0.354042596511658 
2353	 0.353933321295406 
2354	 0.35386879128859 
2355	 0.353804101711974 
2356	 0.353728081946817 
2357	 0.353654894441519 
2358	 0.353546393513545 
2359	 0.353346252792342 
2360	 0.353101152517706 
2361	 0.352898752723068 
2362	 0.352725687839706 
2363	 0.352576252095866 
2364	 0.352464225613749 
2365	 0.352297732770808 
2366	 0.352110400206015 
2367	 0.351929809791968 
2368	 0.351722267956764 
2369	 0.351489819047192 
2370	 0.351212558573549 
2371	 0.3508948866541 
2372	 0.350565345449113 
2373	 0.350252630370671 
2374	 0.349946959312653 
2375	 0.349689144525938 
2376	 0.349343952591363 
2377	 0.348964266605462 
2378	 0.348665942757919 
2379	 0.348240598252673 
2380	 0.347901511048796 
2381	 0.347698369727302 
2382	 0.347440506457905 
2383	 0.347176530510859 
2384	 0.346936384337427 
2385	 0.346708358525842 
2386	 0.346487829214689 
2387	 0.34627239051403 
2388	 0.34606560650622 
2389	 0.345886188772989 
2390	 0.345662921518045 
2391	 0.345409555101443 
2392	 0.345193008261234 
2393	 0.344970046451932 
2394	 0.344798179905672 
2395	 0.344686170835228 
2396	 0.344528978575038 
2397	 0.344379353560021 
2398	 0.344203533196704 
2399	 0.344007451727687 
2400	 0.343754977261939 
2401	 0.343503673567219 
2402	 0.343150281056706 
2403	 0.342803649643966 
2404	 0.342617957012591 
2405	 0.342272955743066 
2406	 0.341856686979308 
2407	 0.341542599356763 
2408	 0.341141144595108 
2409	 0.340738989557172 
2410	 0.340473707115229 
2411	 0.340130065562097 
2412	 0.339700798496298 
2413	 0.339285915102474 
2414	 0.338891154534466 
2415	 0.338482690552502 
2416	 0.337974622674821 
2417	 0.337504301873874 
2418	 0.337063394408708 
2419	 0.336644144368783 
2420	 0.336394756698992 
2421	 0.336097225776454 
2422	 0.335607830567798 
2423	 0.33503770334258 
2424	 0.334361891728841 
2425	 0.333750279944972 
2426	 0.333227600047062 
2427	 0.332702267062764 
2428	 0.332275317925558 
2429	 0.331732168615588 
2430	 0.331116203898122 
2431	 0.330569632816495 
2432	 0.329902866433453 
2433	 0.329225838087938 
2434	 0.32857298170934 
2435	 0.327903827330272 
2436	 0.327280204728773 
2437	 0.326565466110041 
2438	 0.325820637309518 
2439	 0.325048452447358 
2440	 0.324300488065575 
2441	 0.323718029357214 
2442	 0.323156979860206 
2443	 0.322526485790515 
2444	 0.321856948405099 
2445	 0.321204804494171 
2446	 0.320387229639476 
2447	 0.319579594402188 
2448	 0.319005670739354 
2449	 0.318257207259102 
2450	 0.317576640988955 
2451	 0.317233341799931 
2452	 0.316754319916572 
2453	 0.316117268926541 
2454	 0.315650921942582 
2455	 0.315272884467592 
2456	 0.314671034340314 
2457	 0.314180189793266 
2458	 0.313791210643003 
2459	 0.313075513678426 
2460	 0.312530501413325 
2461	 0.312193014131994 
2462	 0.311721473780151 
2463	 0.311269051425036 
2464	 0.310825193965139 
2465	 0.310407143990622 
2466	 0.310210368772085 
2467	 0.310031998778383 
2468	 0.309638748032164 
2469	 0.309156317069223 
2470	 0.308619915850534 
2471	 0.308159600558439 
2472	 0.307963737578664 
2473	 0.307869334493932 
2474	 0.30750560108301 
2475	 0.30717245832907 
2476	 0.307072150888321 
2477	 0.306701945902372 
2478	 0.30636651613327 
2479	 0.30619814336682 
2480	 0.305717874470492 
2481	 0.305495578511483 
2482	 0.305484958286815 
2483	 0.305330743903301 
2484	 0.305062510464479 
2485	 0.304688798442322 
2486	 0.304485915687346 
2487	 0.304291092685151 
2488	 0.304244483036629 
2489	 0.304173480088078 
2490	 0.303879881562423 
2491	 0.303538498034628 
2492	 0.303194012079723 
2493	 0.303004786508401 
2494	 0.30290739634401 
2495	 0.302691129359262 
2496	 0.30239843354603 
2497	 0.301996760761577 
2498	 0.301479016927815 
2499	 0.301394371625106 
2500	 0.301633948140088 
