Wavelength	spectrum00001.asd
350	 5.35333911896318E-02 
351	 5.28135841804576E-02 
352	 0.051370768544353 
353	 5.02590396455748E-02 
354	 0.050420291219808 
355	 5.02327267866526E-02 
356	 4.94715800515077E-02 
357	 4.81490055559619E-02 
358	 4.56605329686343E-02 
359	 0.044023507500376 
360	 4.39787139292772E-02 
361	 4.51663393505743E-02 
362	 4.51676392491261E-02 
363	 4.41070900254792E-02 
364	 4.28286431458639E-02 
365	 4.26742534088778E-02 
366	 4.30276943488432E-02 
367	 4.26599721130889E-02 
368	 4.12472618782083E-02 
369	 4.18745958748309E-02 
370	 0.041830935301827 
371	 4.13930275694072E-02 
372	 4.22009053391261E-02 
373	 4.14233506289403E-02 
374	 4.12459804009782E-02 
375	 4.22297556391718E-02 
376	 4.18970271923471E-02 
377	 4.20787402739004E-02 
378	 4.23827862817643E-02 
379	 4.20435727023673E-02 
380	 4.08083569749849E-02 
381	 4.11357228829185E-02 
382	 4.20734376890307E-02 
383	 4.10242350951362E-02 
384	 0.041287720904858 
385	 4.13260103247292E-02 
386	 4.04537718127838E-02 
387	 4.00620870382366E-02 
388	 4.02063861922793E-02 
389	 4.08819455983929E-02 
390	 4.15548054470528E-02 
391	 3.98590097169439E-02 
392	 3.94554239854639E-02 
393	 4.04751794280002E-02 
394	 4.06773986830549E-02 
395	 0.040145984429482 
396	 3.99682197087292E-02 
397	 0.040438156089474 
398	 4.03463117064674E-02 
399	 4.00629301154236E-02 
400	 3.96354299070852E-02 
401	 3.91519961532966E-02 
402	 3.91007428266284E-02 
403	 3.94478509367702E-02 
404	 3.97590438237092E-02 
405	 3.94228453968632E-02 
406	 3.92992984086462E-02 
407	 3.91462182024145E-02 
408	 3.88398674887156E-02 
409	 0.038825447934758 
410	 3.86990361238937E-02 
411	 3.84944292743255E-02 
412	 3.84236197763317E-02 
413	 3.89126099612765E-02 
414	 3.87367912483148E-02 
415	 3.81128932443508E-02 
416	 0.038507457200211 
417	 3.84169700946047E-02 
418	 3.83502024254257E-02 
419	 3.86563015683305E-02 
420	 3.84400938336714E-02 
421	 3.85099303998759E-02 
422	 3.87346268196189E-02 
423	 3.87035925425776E-02 
424	 3.89395869878713E-02 
425	 3.89617358874072E-02 
426	 3.87585212491753E-02 
427	 3.89225904290991E-02 
428	 3.89996298148156E-02 
429	 0.039115211480114 
430	 3.93464202267424E-02 
431	 3.91694296808747E-02 
432	 3.94966295256314E-02 
433	 3.99750031362067E-02 
434	 3.97125167267819E-02 
435	 4.00040405272792E-02 
436	 4.02500448811548E-02 
437	 4.01618405129706E-02 
438	 4.02565540056899E-02 
439	 4.04621711722121E-02 
440	 4.07253621017768E-02 
441	 4.09670221386928E-02 
442	 0.041036974002193 
443	 4.11289456821276E-02 
444	 4.13065515034903E-02 
445	 4.15137524087255E-02 
446	 4.16961439927095E-02 
447	 4.18128117969275E-02 
448	 4.18719509268386E-02 
449	 4.19760828394331E-02 
450	 4.20615992479148E-02 
451	 4.21369803510473E-02 
452	 4.22307756551559E-02 
453	 4.23334312129597E-02 
454	 0.04236895452367 
455	 0.042347462415996 
456	 4.23770868505679E-02 
457	 4.24748775947205E-02 
458	 4.24982659821197E-02 
459	 4.24023515753035E-02 
460	 4.25435550883228E-02 
461	 4.26974059981404E-02 
462	 4.27164263731041E-02 
463	 4.25500468404678E-02 
464	 4.25457259138108E-02 
465	 4.26799015452476E-02 
466	 0.042792621594371 
467	 4.25752890567556E-02 
468	 4.26014096950432E-02 
469	 4.27174149818339E-02 
470	 4.26811796231591E-02 
471	 4.28783985661588E-02 
472	 4.28942337166881E-02 
473	 0.042787446577884 
474	 4.29730065898256E-02 
475	 4.29752978518491E-02 
476	 4.29948001659574E-02 
477	 4.31533162286564E-02 
478	 4.31436284715223E-02 
479	 4.32207154356498E-02 
480	 4.33593443669812E-02 
481	 4.34402725266334E-02 
482	 0.043485310837318 
483	 4.35686611254904E-02 
484	 4.37067459606836E-02 
485	 4.38453112269127E-02 
486	 4.39709125614043E-02 
487	 0.044077668517364 
488	 0.044185069425345 
489	 4.43842672606413E-02 
490	 4.45468763894156E-02 
491	 4.47028597107498E-02 
492	 4.49554459569183E-02 
493	 4.51298440958417E-02 
494	 4.53316092160823E-02 
495	 0.045586741084703 
496	 4.57280555536016E-02 
497	 4.59214355339171E-02 
498	 4.61969992725282E-02 
499	 4.65226023244713E-02 
500	 4.68123145619855E-02 
501	 4.70470692107829E-02 
502	 4.72693421955949E-02 
503	 4.75686015909276E-02 
504	 4.79421219526963E-02 
505	 4.82825804321256E-02 
506	 4.85522738982544E-02 
507	 4.89308119645204E-02 
508	 4.92704090093071E-02 
509	 4.96107887000588E-02 
510	 5.00523162893691E-02 
511	 5.05041831012804E-02 
512	 5.09294796123324E-02 
513	 5.13287782577942E-02 
514	 5.17446085368305E-02 
515	 5.21326752365358E-02 
516	 5.25458779046325E-02 
517	 5.30327939918081E-02 
518	 5.35416841093646E-02 
519	 5.40563904591125E-02 
520	 5.45979131158439E-02 
521	 0.05519914470318 
522	 5.57038378252877E-02 
523	 0.056233902579975 
524	 0.056850321725443 
525	 5.74118121875764E-02 
526	 5.80219168969374E-02 
527	 5.86726440457244E-02 
528	 5.93276899451287E-02 
529	 6.00323375031823E-02 
530	 6.06803257111193E-02 
531	 6.13169064642418E-02 
532	 6.21459913921595E-02 
533	 6.28886189632346E-02 
534	 6.36337145755666E-02 
535	 6.44717315378447E-02 
536	 6.52570605965983E-02 
537	 0.066073780367365 
538	 0.066919607733636 
539	 6.77522205816116E-02 
540	 6.86278131520448E-02 
541	 0.06954799054443 
542	 7.04813204698584E-02 
543	 7.13523997830263E-02 
544	 7.22460620214096E-02 
545	 7.31540951959115E-02 
546	 7.40561268032756E-02 
547	 7.50187961507649E-02 
548	 7.59699864829296E-02 
549	 0.076898518096317 
550	 7.78511608280523E-02 
551	 7.88331588284144E-02 
552	 0.079833338302549 
553	 8.08307969584801E-02 
554	 8.17775560594498E-02 
555	 8.27908266326968E-02 
556	 8.38425905693241E-02 
557	 8.48453329730565E-02 
558	 8.58555160832511E-02 
559	 8.68616016047697E-02 
560	 8.78518233445281E-02 
561	 8.88241351444811E-02 
562	 8.97671836153517E-02 
563	 9.07039032057573E-02 
564	 0.091651961029498 
565	 9.25783393884089E-02 
566	 9.34521658027289E-02 
567	 9.43127732851832E-02 
568	 9.52448078169514E-02 
569	 9.61890520253585E-02 
570	 9.71065053386456E-02 
571	 9.79756417403451E-02 
572	 9.87925597749416E-02 
573	 0.099654776354583 
574	 0.100533605316775 
575	 0.101364372669426 
576	 0.102212575383217 
577	 0.102984087338887 
578	 0.103696744899868 
579	 0.104500852757519 
580	 0.105296368583921 
581	 0.106068109268896 
582	 0.106824698956175 
583	 0.107581369315353 
584	 0.108365593671608 
585	 0.1091719826513 
586	 0.109974168439687 
587	 0.110752508920961 
588	 0.111512246621906 
589	 0.112265090538824 
590	 0.113029153902036 
591	 0.113746638789793 
592	 0.114462547383892 
593	 0.115218308569735 
594	 0.115895489473517 
595	 0.116564968442386 
596	 0.117238104878478 
597	 0.117869800588837 
598	 0.118514504738302 
599	 0.119189948759386 
600	 0.119888592383166 
601	 0.120553684898245 
602	 0.121236001506853 
603	 0.121925270337724 
604	 0.122591436288533 
605	 0.123275208017654 
606	 0.123931965678537 
607	 0.124574550820544 
608	 0.125291520445084 
609	 0.125950604841027 
610	 0.126606138082637 
611	 0.127310566160673 
612	 0.12794262945525 
613	 0.128565450627827 
614	 0.129198998128197 
615	 0.129834133860148 
616	 0.130456388565216 
617	 0.131102380343572 
618	 0.131772334795424 
619	 0.132388866537245 
620	 0.133053377998754 
621	 0.133739936966841 
622	 0.134390064826726 
623	 0.135005394662184 
624	 0.135655201345621 
625	 0.136334412727805 
626	 0.136970643067868 
627	 0.137611324554257 
628	 0.138281955949643 
629	 0.138985063819294 
630	 0.13968170289743 
631	 0.14033669475342 
632	 0.140982669258873 
633	 0.141673180611078 
634	 0.142362875997917 
635	 0.143042226318181 
636	 0.143723183785386 
637	 0.144436107570008 
638	 0.145140148866189 
639	 0.145827189254126 
640	 0.146510091875425 
641	 0.14724094881843 
642	 0.147954066577593 
643	 0.148656344055744 
644	 0.149395170642386 
645	 0.150119942458603 
646	 0.15086378212363 
647	 0.15163532832224 
648	 0.152389732293393 
649	 0.153114012586129 
650	 0.153843741105475 
651	 0.154611811265654 
652	 0.155367639761853 
653	 0.156126927097887 
654	 0.156898189925198 
655	 0.157679463117885 
656	 0.158445984819418 
657	 0.159225752545308 
658	 0.160035207066395 
659	 0.160852375036703 
660	 0.161655591134454 
661	 0.162465784998914 
662	 0.163304823785128 
663	 0.164102236673119 
664	 0.164906866519897 
665	 0.165725636690156 
666	 0.166519239537539 
667	 0.167401303880011 
668	 0.168303309739915 
669	 0.169155062694141 
670	 0.169976010010783 
671	 0.170832992627852 
672	 0.171696852716317 
673	 0.172516590686015 
674	 0.173421320909112 
675	 0.174324375941238 
676	 0.175199710379931 
677	 0.176116584116509 
678	 0.177006038811028 
679	 0.177886324416464 
680	 0.178788363502098 
681	 0.179717381988248 
682	 0.180655124172269 
683	 0.181592455279248 
684	 0.182525484468922 
685	 0.183442870905955 
686	 0.184356639013573 
687	 0.185286885392483 
688	 0.186263830924001 
689	 0.187217021739827 
690	 0.188159149678368 
691	 0.189122360341372 
692	 0.190116225556572 
693	 0.19112110876206 
694	 0.192122539923796 
695	 0.193111295476669 
696	 0.194106962257603 
697	 0.195127318429573 
698	 0.196150376236308 
699	 0.197089848243105 
700	 0.198084892971709 
701	 0.199135004182906 
702	 0.200198632885858 
703	 0.201248222867173 
704	 0.202296543888118 
705	 0.20334246285095 
706	 0.204379736807933 
707	 0.205455355505634 
708	 0.206544703598386 
709	 0.207617932844683 
710	 0.208651398920573 
711	 0.209717143591487 
712	 0.210814847399298 
713	 0.211917080794182 
714	 0.212988013984873 
715	 0.214083735535045 
716	 0.215197539653925 
717	 0.216278276093914 
718	 0.217351855551138 
719	 0.218445274915319 
720	 0.219562385521784 
721	 0.220667086679171 
722	 0.22172796771898 
723	 0.222784940273775 
724	 0.223887778350963 
725	 0.225038030597592 
726	 0.22613336049372 
727	 0.227189877810179 
728	 0.22830235274762 
729	 0.229408848210576 
730	 0.230481870911305 
731	 0.231537664666377 
732	 0.232655782077806 
733	 0.233755466398108 
734	 0.23482057892725 
735	 0.235866196568962 
736	 0.236936722641937 
737	 0.23800276965079 
738	 0.239046884123952 
739	 0.240065118071985 
740	 0.241108039881942 
741	 0.242130734924605 
742	 0.243135217622648 
743	 0.244214520817637 
744	 0.245183034231848 
745	 0.246129402061493 
746	 0.247151282754364 
747	 0.248112313890982 
748	 0.249072775304868 
749	 0.250024523260928 
750	 0.250930368245967 
751	 0.251853772288617 
752	 0.252765576270563 
753	 0.253664868699522 
754	 0.25459743157956 
755	 0.255518569962503 
756	 0.256400260526703 
757	 0.257232262731373 
758	 0.258033654962223 
759	 0.258815598705454 
760	 0.259604285278306 
761	 0.260418344768911 
762	 0.26119575077903 
763	 0.261950056562037 
764	 0.262694467002254 
765	 0.263435454728461 
766	 0.264140127432556 
767	 0.264832292192237 
768	 0.26553066465889 
769	 0.266217349901475 
770	 0.266883496725508 
771	 0.267512923377995 
772	 0.268102790988403 
773	 0.26872145065287 
774	 0.269300032771985 
775	 0.269843991640228 
776	 0.270416799174822 
777	 0.270948358921298 
778	 0.271473549511605 
779	 0.272007794913914 
780	 0.272508635789237 
781	 0.272974321714891 
782	 0.273422194227228 
783	 0.273872053957268 
784	 0.274323585247055 
785	 0.274791903655925 
786	 0.275227407807656 
787	 0.275561089419325 
788	 0.275866596507224 
789	 0.27619394440205 
790	 0.276549850776659 
791	 0.276893584288114 
792	 0.27722061864551 
793	 0.277526048342541 
794	 0.277816635467097 
795	 0.278126259606365 
796	 0.278410532644927 
797	 0.278669113945407 
798	 0.278909214158194 
799	 0.279083308804728 
800	 0.279285152646598 
801	 0.279508495847919 
802	 0.279672348663741 
803	 0.27982491481398 
804	 0.279972745914843 
805	 0.280133629794681 
806	 0.280348328362468 
807	 0.280512667436744 
808	 0.280619771603894 
809	 0.280703942213893 
810	 0.280831581786098 
811	 0.280984651024396 
812	 0.281106572029227 
813	 0.281148573453172 
814	 0.281210460342227 
815	 0.281261098342256 
816	 0.281297606929403 
817	 0.281348970854494 
818	 0.281441516337591 
819	 0.281490584751752 
820	 0.28148755757034 
821	 0.28157380668369 
822	 0.281569905732382 
823	 0.281552733474484 
824	 0.281610955448604 
825	 0.281660276114426 
826	 0.281604330075879 
827	 0.281528698750779 
828	 0.281565091800052 
829	 0.281568925812822 
830	 0.281532325769673 
831	 0.281476436421104 
832	 0.281440318651621 
833	 0.281443501291717 
834	 0.281417997749223 
835	 0.28134642137213 
836	 0.281307358969659 
837	 0.281292802378031 
838	 0.281243843405793 
839	 0.28115203747584 
840	 0.281197381204659 
841	 0.281156745782541 
842	 0.281069579750066 
843	 0.281047170933383 
844	 0.280977517548756 
845	 0.280897036365266 
846	 0.280829532485768 
847	 0.280780949765822 
848	 0.280732168558612 
849	 0.280659636492081 
850	 0.280576625720991 
851	 0.280538909432709 
852	 0.280518937565695 
853	 0.280490292393337 
854	 0.280439313770474 
855	 0.280378361841382 
856	 0.280324652171715 
857	 0.280263998422487 
858	 0.280190930103529 
859	 0.280170213507316 
860	 0.28014815728458 
861	 0.280111909290254 
862	 0.280072177168027 
863	 0.28003410268582 
864	 0.279991932215915 
865	 0.27995327186503 
866	 0.279933965257293 
867	 0.279902424948777 
868	 0.279909557642796 
869	 0.279942973972731 
870	 0.279896735010569 
871	 0.279916930797134 
872	 0.279910323706811 
873	 0.279829224703547 
874	 0.279839539858563 
875	 0.279862394006122 
876	 0.279892372682331 
877	 0.279933102386995 
878	 0.279944269841754 
879	 0.279963300120495 
880	 0.279990970053207 
881	 0.280013809636159 
882	 0.280050139762893 
883	 0.280081958354618 
884	 0.28011472401032 
885	 0.280171164575573 
886	 0.280247137019711 
887	 0.280332620544058 
888	 0.280402674243888 
889	 0.280424791154028 
890	 0.280499029191249 
891	 0.280570621324582 
892	 0.28061806435821 
893	 0.280723040712063 
894	 0.280855773692908 
895	 0.280978445595883 
896	 0.281077463214457 
897	 0.281211056854513 
898	 0.281306706801869 
899	 0.281388581157261 
900	 0.281508672216692 
901	 0.281690157233388 
902	 0.281842501320727 
903	 0.281957489526452 
904	 0.282070082064161 
905	 0.282175665502817 
906	 0.282338190671999 
907	 0.282530014176053 
908	 0.282671931607293 
909	 0.282843902848226 
910	 0.283045786163008 
911	 0.28325505145603 
912	 0.283441575120491 
913	 0.28365892045939 
914	 0.283865200458234 
915	 0.284048910893603 
916	 0.284257342448447 
917	 0.284468629506028 
918	 0.284681862050343 
919	 0.28490271428075 
920	 0.285141332934563 
921	 0.285391075052929 
922	 0.285632166299239 
923	 0.285866295842771 
924	 0.28615763332905 
925	 0.286437894868987 
926	 0.286715565577531 
927	 0.287020001728968 
928	 0.287367606949246 
929	 0.287646452635649 
930	 0.287891752531724 
931	 0.288182456649631 
932	 0.288480845550388 
933	 0.288787601040309 
934	 0.289105391181768 
935	 0.289432697806334 
936	 0.289738450102455 
937	 0.29006301599686 
938	 0.290383526970518 
939	 0.290666074011214 
940	 0.291131010774417 
941	 0.291565646504076 
942	 0.291903480351521 
943	 0.292238994117344 
944	 0.292577035321844 
945	 0.292930596470819 
946	 0.293305712067625 
947	 0.293697160075491 
948	 0.294056115878731 
949	 0.294422784493552 
950	 0.294813652124015 
951	 0.295200745320312 
952	 0.295616245553708 
953	 0.296026108375004 
954	 0.296401067242927 
955	 0.296740904143289 
956	 0.297109339047291 
957	 0.297567772189818 
958	 0.298072734128564 
959	 0.298423180328017 
960	 0.298876431275112 
961	 0.299385409148411 
962	 0.299857921182059 
963	 0.300267166182346 
964	 0.300671236421974 
965	 0.301113692003563 
966	 0.301597795164535 
967	 0.302055117834249 
968	 0.302478607255492 
969	 0.302911106509528 
970	 0.303390986339306 
971	 0.303909539400256 
972	 0.304340077917046 
973	 0.304748773385947 
974	 0.305224703465387 
975	 0.305734202090298 
976	 0.306284238138164 
977	 0.306853916364114 
978	 0.307401854510004 
979	 0.307850984603223 
980	 0.308316555355649 
981	 0.308845183146531 
982	 0.309422403224854 
983	 0.309935795050233 
984	 0.310476702915663 
985	 0.311038103535337 
986	 0.311587924087172 
987	 0.312136039593934 
988	 0.312654564632721 
989	 0.313230721354923 
990	 0.31389234734652 
991	 0.314325877136456 
992	 0.314914657581842 
993	 0.315576030816233 
994	 0.31613474687476 
995	 0.316734691143633 
996	 0.317320463135064 
997	 0.317889786076511 
998	 0.31846926380588 
999	 0.319123585870901 
1000	 0.31969573028106 
1001	 0.322897304012148 
1002	 0.323551700661293 
1003	 0.32420112204179 
1004	 0.324815651799371 
1005	 0.325402277808543 
1006	 0.326049600413557 
1007	 0.326691735090796 
1008	 0.327352927375659 
1009	 0.328077648832242 
1010	 0.328751854862046 
1011	 0.329394695212298 
1012	 0.330047361305639 
1013	 0.330674200925352 
1014	 0.331350095540078 
1015	 0.332037351487863 
1016	 0.332744094510404 
1017	 0.33350115543252 
1018	 0.334236841848972 
1019	 0.33495517655242 
1020	 0.33569282342059 
1021	 0.336409307720529 
1022	 0.337111652470372 
1023	 0.337812522281847 
1024	 0.338472265798766 
1025	 0.339209772901683 
1026	 0.339993924985108 
1027	 0.340759709306858 
1028	 0.341566121924284 
1029	 0.342362600691329 
1030	 0.343119972149798 
1031	 0.343879080966136 
1032	 0.344642559033646 
1033	 0.345409178429865 
1034	 0.346191268782319 
1035	 0.346958387937617 
1036	 0.347736668171822 
1037	 0.348533420014029 
1038	 0.349341202057701 
1039	 0.350162668179473 
1040	 0.350961939529362 
1041	 0.351752405726921 
1042	 0.352557517656206 
1043	 0.353346073460636 
1044	 0.354154500784502 
1045	 0.354999261273819 
1046	 0.355877299498681 
1047	 0.356734249258939 
1048	 0.357605509546263 
1049	 0.358466543164907 
1050	 0.359271114415913 
1051	 0.360107607114271 
1052	 0.360973288618988 
1053	 0.361849260901454 
1054	 0.36277097152502 
1055	 0.363672518557792 
1056	 0.364566794219057 
1057	 0.365463208677657 
1058	 0.366343055530788 
1059	 0.367241377724289 
1060	 0.368215743211141 
1061	 0.369138695323044 
1062	 0.370049688054818 
1063	 0.371020918008453 
1064	 0.371894889693359 
1065	 0.372741488242889 
1066	 0.373628113023754 
1067	 0.37449776677875 
1068	 0.375420201202048 
1069	 0.37635840749643 
1070	 0.377303430318008 
1071	 0.378282263121377 
1072	 0.379233132600249 
1073	 0.380103846678432 
1074	 0.381035219170883 
1075	 0.381912251890186 
1076	 0.382748431839824 
1077	 0.383711282226766 
1078	 0.38463987341774 
1079	 0.385602272338515 
1080	 0.386631356464642 
1081	 0.387552963588887 
1082	 0.388463470725672 
1083	 0.38935186406586 
1084	 0.390229153335597 
1085	 0.391190769304051 
1086	 0.392120086820371 
1087	 0.39304161356623 
1088	 0.394007705050108 
1089	 0.394981230563394 
1090	 0.395850576292463 
1091	 0.396796176653063 
1092	 0.397729356303518 
1093	 0.398619815402556 
1094	 0.399601233751242 
1095	 0.400525509503933 
1096	 0.401463583888169 
1097	 0.402470221458843 
1098	 0.403384008683917 
1099	 0.404304909832732 
1100	 0.405250825351686 
1101	 0.406140754033742 
1102	 0.407064638145815 
1103	 0.407996976239556 
1104	 0.408954308395843 
1105	 0.409910840403011 
1106	 0.410867487316638 
1107	 0.411776141085917 
1108	 0.412706917022643 
1109	 0.413594749242872 
1110	 0.414458964126655 
1111	 0.415410587427714 
1112	 0.416331726537618 
1113	 0.417270688565178 
1114	 0.418238377568705 
1115	 0.419121922699546 
1116	 0.420037077273825 
1117	 0.420958254729632 
1118	 0.421873050474858 
1119	 0.422813124332073 
1120	 0.423722331826424 
1121	 0.424606707176213 
1122	 0.425499738696642 
1123	 0.426405823356484 
1124	 0.427251185517524 
1125	 0.428145433877209 
1126	 0.429030319241096 
1127	 0.429884634336301 
1128	 0.430787042472416 
1129	 0.431646117051113 
1130	 0.43248800268366 
1131	 0.433326516367762 
1132	 0.434098347338334 
1133	 0.434901638802495 
1134	 0.435686840319201 
1135	 0.436459280273806 
1136	 0.437233570570792 
1137	 0.43800493026488 
1138	 0.438751261392379 
1139	 0.43951037250894 
1140	 0.440304785117357 
1141	 0.440998006927387 
1142	 0.441720690621764 
1143	 0.442440600981715 
1144	 0.443114950735538 
1145	 0.443852025165432 
1146	 0.444541578398646 
1147	 0.445211833681689 
1148	 0.445913023882696 
1149	 0.446556271737159 
1150	 0.447200456398893 
1151	 0.447845594847905 
1152	 0.448487873910085 
1153	 0.449122035506835 
1154	 0.449749184838888 
1155	 0.450381925350356 
1156	 0.451007419846588 
1157	 0.451621241255201 
1158	 0.452214781982882 
1159	 0.452814278976374 
1160	 0.453374274710559 
1161	 0.453915946609054 
1162	 0.454462911892756 
1163	 0.454979043147541 
1164	 0.455513862512135 
1165	 0.456060566994648 
1166	 0.456574053723251 
1167	 0.457092044533892 
1168	 0.457598434144092 
1169	 0.458109377525962 
1170	 0.458614247524715 
1171	 0.459114194818465 
1172	 0.459619292456175 
1173	 0.460118199144684 
1174	 0.460607672146137 
1175	 0.461072878958313 
1176	 0.461531108590912 
1177	 0.46198585635387 
1178	 0.462403566001968 
1179	 0.462855969330465 
1180	 0.46331439953694 
1181	 0.463769268506701 
1182	 0.464223279816158 
1183	 0.464634640123576 
1184	 0.465073342586808 
1185	 0.465529449403699 
1186	 0.465987975487689 
1187	 0.466471517043793 
1188	 0.466944752459313 
1189	 0.467412417000687 
1190	 0.467888014101429 
1191	 0.468366123724517 
1192	 0.468840526312596 
1193	 0.469304877298134 
1194	 0.469792788924793 
1195	 0.470288187476074 
1196	 0.470806790018018 
1197	 0.471348172351291 
1198	 0.471902381050846 
1199	 0.472473375921202 
1200	 0.473000431806869 
1201	 0.47354832485698 
1202	 0.474082729408774 
1203	 0.474615503696963 
1204	 0.475210637359065 
1205	 0.47579872784292 
1206	 0.47639521171089 
1207	 0.477029596337268 
1208	 0.47767820814403 
1209	 0.47835076090812 
1210	 0.479054446384697 
1211	 0.479778871838144 
1212	 0.480531335974146 
1213	 0.481299207079944 
1214	 0.482092117559328 
1215	 0.482904811991864 
1216	 0.48374135731193 
1217	 0.484574846257266 
1218	 0.485428663109439 
1219	 0.486287296748271 
1220	 0.487130207590928 
1221	 0.488017731764931 
1222	 0.48887934459378 
1223	 0.489741062490054 
1224	 0.49057575989916 
1225	 0.491384345249587 
1226	 0.49218718228672 
1227	 0.49298678448134 
1228	 0.493751084774793 
1229	 0.494499190520042 
1230	 0.495230811424994 
1231	 0.495927213044792 
1232	 0.496625339950332 
1233	 0.497318237370713 
1234	 0.497984457459332 
1235	 0.498624787566174 
1236	 0.499267654795389 
1237	 0.499903130077884 
1238	 0.500526080291837 
1239	 0.501144570499757 
1240	 0.501752667873287 
1241	 0.502356417350119 
1242	 0.502895730285496 
1243	 0.503437900085458 
1244	 0.503952084552979 
1245	 0.50448494031324 
1246	 0.505018125398149 
1247	 0.505528529474867 
1248	 0.506041662206118 
1249	 0.506537202000888 
1250	 0.5069966356918 
1251	 0.507469250132115 
1252	 0.507951086909452 
1253	 0.508418142691124 
1254	 0.508886241655749 
1255	 0.509332008504189 
1256	 0.509761590256804 
1257	 0.510185975397871 
1258	 0.51058594474266 
1259	 0.510991396172776 
1260	 0.511397858733751 
1261	 0.511801828448237 
1262	 0.512216314485194 
1263	 0.512608187754756 
1264	 0.512985922874424 
1265	 0.51334729668635 
1266	 0.513720614513685 
1267	 0.514073801041429 
1268	 0.51444843519811 
1269	 0.514842722659927 
1270	 0.515225958626849 
1271	 0.515612001384882 
1272	 0.515989042633922 
1273	 0.516361843462497 
1274	 0.516732639220396 
1275	 0.51709146639499 
1276	 0.517456588473427 
1277	 0.517821187629639 
1278	 0.518189352002589 
1279	 0.518558847627455 
1280	 0.518929498633127 
1281	 0.519302596998885 
1282	 0.519676456365884 
1283	 0.520064770510877 
1284	 0.520428856877758 
1285	 0.520781442879239 
1286	 0.5211218948232 
1287	 0.52147110850965 
1288	 0.521808297340236 
1289	 0.522145294087561 
1290	 0.522493936882049 
1291	 0.522823484539669 
1292	 0.52313043895658 
1293	 0.523448553499301 
1294	 0.523765029016985 
1295	 0.52408526714449 
1296	 0.524410449439568 
1297	 0.524726284895771 
1298	 0.5250497642722 
1299	 0.52535229641445 
1300	 0.525632669253492 
1301	 0.525921528511157 
1302	 0.526204024783609 
1303	 0.526484863433721 
1304	 0.526769387725365 
1305	 0.527048654986176 
1306	 0.527317328046728 
1307	 0.527589802793002 
1308	 0.527852294328712 
1309	 0.528135421535411 
1310	 0.528410546946919 
1311	 0.528688724604268 
1312	 0.528960244361678 
1313	 0.529237997544048 
1314	 0.529492695899876 
1315	 0.529734266670588 
1316	 0.529974494419925 
1317	 0.530200405015307 
1318	 0.530430386880324 
1319	 0.530658997469422 
1320	 0.530887423827915 
1321	 0.53111588902096 
1322	 0.53133676361378 
1323	 0.531561905454999 
1324	 0.531771424005412 
1325	 0.531957579389934 
1326	 0.532160894690831 
1327	 0.5323620977907 
1328	 0.532567711239664 
1329	 0.532804979546733 
1330	 0.533005131506828 
1331	 0.533190062532459 
1332	 0.533363304472797 
1333	 0.533514048647004 
1334	 0.533653027590325 
1335	 0.533788085644356 
1336	 0.533921943950038 
1337	 0.534031976569124 
1338	 0.534115722094245 
1339	 0.534225966914202 
1340	 0.534338996769937 
1341	 0.534435355152431 
1342	 0.534543225691482 
1343	 0.534630006511175 
1344	 0.534692002095448 
1345	 0.534754514771599 
1346	 0.534828563028211 
1347	 0.53486759733967 
1348	 0.53488860706889 
1349	 0.534889251932052 
1350	 0.534848585577813 
1351	 0.534830959766523 
1352	 0.534804872265186 
1353	 0.534784043018045 
1354	 0.534775854959479 
1355	 0.534763679270462 
1356	 0.534748871842556 
1357	 0.534731832346695 
1358	 0.53472065533912 
1359	 0.534700703000516 
1360	 0.534676557759188 
1361	 0.534642413315919 
1362	 0.534602593003692 
1363	 0.534573626199906 
1364	 0.534520446888843 
1365	 0.534464226353621 
1366	 0.534381497921162 
1367	 0.534279743376522 
1368	 0.534163769114088 
1369	 0.534029190069673 
1370	 0.533885200050997 
1371	 0.533727936776232 
1372	 0.533561529343139 
1373	 0.533389253501844 
1374	 0.533192422651532 
1375	 0.532981567349608 
1376	 0.532749950888691 
1377	 0.532503022115166 
1378	 0.532224594022226 
1379	 0.531915893783131 
1380	 0.531599950789245 
1381	 0.531266944016159 
1382	 0.530907612016842 
1383	 0.530517917857308 
1384	 0.530137569185163 
1385	 0.529731650146609 
1386	 0.52933701394166 
1387	 0.528961493845387 
1388	 0.528578888829931 
1389	 0.528186087003199 
1390	 0.527797611986371 
1391	 0.527426117536802 
1392	 0.527026670149065 
1393	 0.526648427655715 
1394	 0.526228853850267 
1395	 0.525772617514292 
1396	 0.525298383386613 
1397	 0.524772046782757 
1398	 0.524217796322625 
1399	 0.523582799513649 
1400	 0.522892209968104 
1401	 0.522156054769121 
1402	 0.52134860208522 
1403	 0.520509851395019 
1404	 0.519629656582948 
1405	 0.518725652067407 
1406	 0.517760523097989 
1407	 0.516806930499036 
1408	 0.515800266772058 
1409	 0.514861872050874 
1410	 0.513910503455597 
1411	 0.513034627692541 
1412	 0.512190062522244 
1413	 0.511444018551921 
1414	 0.510754483399241 
1415	 0.510143485002636 
1416	 0.509638815943677 
1417	 0.509163750625134 
1418	 0.508759561553523 
1419	 0.508375750828105 
1420	 0.508039847189071 
1421	 0.507728513574121 
1422	 0.507444171655999 
1423	 0.507186561315779 
1424	 0.506964532847173 
1425	 0.50675714902592 
1426	 0.506578939479388 
1427	 0.506434094478068 
1428	 0.506311749695608 
1429	 0.506234291444213 
1430	 0.506192784491755 
1431	 0.506185779013528 
1432	 0.506216617300295 
1433	 0.506299629145234 
1434	 0.5063798122685 
1435	 0.506491936084083 
1436	 0.506602031353227 
1437	 0.506716771093312 
1438	 0.506851550244545 
1439	 0.506997208035677 
1440	 0.50716411355478 
1441	 0.507348267413386 
1442	 0.507552431671182 
1443	 0.507777854491259 
1444	 0.508016607394115 
1445	 0.508283954540853 
1446	 0.508540835677521 
1447	 0.508798754200511 
1448	 0.509074672847489 
1449	 0.509363078264164 
1450	 0.509648911234939 
1451	 0.509956138994062 
1452	 0.510247874825418 
1453	 0.510518346084706 
1454	 0.510805278966215 
1455	 0.511113219813071 
1456	 0.511397757383817 
1457	 0.511669808949151 
1458	 0.511952170766532 
1459	 0.512221587446427 
1460	 0.512496734975767 
1461	 0.512788278855868 
1462	 0.513074330173001 
1463	 0.513355838766702 
1464	 0.513635058986917 
1465	 0.513908384336823 
1466	 0.514197573625677 
1467	 0.514465377806952 
1468	 0.514729577184194 
1469	 0.515006769127976 
1470	 0.515259366191786 
1471	 0.515517580645922 
1472	 0.51577941247348 
1473	 0.516027067347918 
1474	 0.516261384308328 
1475	 0.516503876317249 
1476	 0.516743442218714 
1477	 0.516981504079237 
1478	 0.517224350310736 
1479	 0.51745371693045 
1480	 0.517677204069369 
1481	 0.517894162738475 
1482	 0.51810700608853 
1483	 0.518306002848301 
1484	 0.518487572903306 
1485	 0.518680384611636 
1486	 0.518872045542815 
1487	 0.519052754297172 
1488	 0.519238790514399 
1489	 0.519411244061007 
1490	 0.519556685260979 
1491	 0.519724101364253 
1492	 0.519885315620951 
1493	 0.520073212615079 
1494	 0.52028393557893 
1495	 0.520489825832244 
1496	 0.520708163251138 
1497	 0.52093212573681 
1498	 0.521152744068888 
1499	 0.521387122924103 
1500	 0.521635933765872 
1501	 0.521892357514632 
1502	 0.522161011997251 
1503	 0.522426621028839 
1504	 0.5226990914651 
1505	 0.522973531653229 
1506	 0.523241391875024 
1507	 0.523523796854034 
1508	 0.523821705490536 
1509	 0.524116585544968 
1510	 0.524425843616518 
1511	 0.524719442555445 
1512	 0.525000876880924 
1513	 0.525287262141648 
1514	 0.52555729593652 
1515	 0.525846265899669 
1516	 0.526153859502848 
1517	 0.526455988400869 
1518	 0.526773802829292 
1519	 0.527076871675518 
1520	 0.52737062523564 
1521	 0.52765483009464 
1522	 0.527937258352488 
1523	 0.528237972941384 
1524	 0.528542755267904 
1525	 0.528861302227246 
1526	 0.529170617181111 
1527	 0.529479038340716 
1528	 0.529797434493427 
1529	 0.530114020507831 
1530	 0.530444036265502 
1531	 0.530793605147225 
1532	 0.531124467241244 
1533	 0.531444310100591 
1534	 0.531792751988015 
1535	 0.53214804525161 
1536	 0.532501005683861 
1537	 0.532888058849529 
1538	 0.533223751602399 
1539	 0.533536253241411 
1540	 0.533835256226632 
1541	 0.534107723915701 
1542	 0.534384183567866 
1543	 0.534651764516797 
1544	 0.534907521319829 
1545	 0.535159345003415 
1546	 0.535394549637621 
1547	 0.535616312875624 
1548	 0.535821962536707 
1549	 0.536009399371039 
1550	 0.536196461717927 
1551	 0.536369085118289 
1552	 0.536539085560485 
1553	 0.536698395861794 
1554	 0.536872085510929 
1555	 0.53704292810579 
1556	 0.537219088466346 
1557	 0.537413953875842 
1558	 0.537593260975031 
1559	 0.537755099163462 
1560	 0.5379372991496 
1561	 0.538126802415935 
1562	 0.538316246184864 
1563	 0.538511941469051 
1564	 0.538714854499335 
1565	 0.538920128783966 
1566	 0.539128493702507 
1567	 0.539338066627709 
1568	 0.539568132871733 
1569	 0.539812857575483 
1570	 0.540050967847837 
1571	 0.540317350530101 
1572	 0.540552831797689 
1573	 0.540768842076269 
1574	 0.540979158181866 
1575	 0.541169126187352 
1576	 0.541371258198215 
1577	 0.541560824688238 
1578	 0.541770879460924 
1579	 0.542008719129445 
1580	 0.54222279724275 
1581	 0.542426414799127 
1582	 0.542644437307093 
1583	 0.542856956927885 
1584	 0.543074464887171 
1585	 0.54331423629253 
1586	 0.543539248904023 
1587	 0.543752438238696 
1588	 0.543966034452702 
1589	 0.544183917323655 
1590	 0.544389558496733 
1591	 0.544572332791531 
1592	 0.54477916608421 
1593	 0.545002803099761 
1594	 0.545206520413249 
1595	 0.545413811640125 
1596	 0.545617755316777 
1597	 0.545804566794885 
1598	 0.545991456310262 
1599	 0.546189048918939 
1600	 0.546373792838668 
1601	 0.546533025970078 
1602	 0.546710544632412 
1603	 0.546897533193815 
1604	 0.547079169849136 
1605	 0.547268404716616 
1606	 0.547451614877127 
1607	 0.547631420668712 
1608	 0.547804264545256 
1609	 0.547975253452917 
1610	 0.548138673513189 
1611	 0.548296572567933 
1612	 0.548442739804909 
1613	 0.548580141938739 
1614	 0.548712148714021 
1615	 0.54883141642231 
1616	 0.548948234830401 
1617	 0.549051779517329 
1618	 0.549167226644415 
1619	 0.549295779776243 
1620	 0.549403774503317 
1621	 0.549513953625823 
1622	 0.549611128109567 
1623	 0.549679973688069 
1624	 0.549754977830651 
1625	 0.549833823664408 
1626	 0.54990392104437 
1627	 0.549962847910202 
1628	 0.550028183264489 
1629	 0.550085867566895 
1630	 0.550155023248278 
1631	 0.550252141448024 
1632	 0.550315626827923 
1633	 0.550357265868814 
1634	 0.550408612718348 
1635	 0.550437905515917 
1636	 0.550480831496695 
1637	 0.550550747905297 
1638	 0.550604814251401 
1639	 0.550648888232816 
1640	 0.550695181289965 
1641	 0.550753058654305 
1642	 0.550779963596114 
1643	 0.550793934138566 
1644	 0.550794416407746 
1645	 0.550774592755518 
1646	 0.550737525459609 
1647	 0.550683887629711 
1648	 0.550623510632204 
1649	 0.55054359680642 
1650	 0.550455302524053 
1651	 0.550365329205231 
1652	 0.55025940260613 
1653	 0.550134549771361 
1654	 0.549999442880862 
1655	 0.549868661593827 
1656	 0.549698590322337 
1657	 0.549508035447087 
1658	 0.549285334290112 
1659	 0.549034904922152 
1660	 0.548746015238397 
1661	 0.548427175778776 
1662	 0.548073599426294 
1663	 0.547685594111946 
1664	 0.547245780390785 
1665	 0.546792176981522 
1666	 0.546240377387934 
1667	 0.545610110700109 
1668	 0.544938288968973 
1669	 0.544193996660371 
1670	 0.543402665917224 
1671	 0.542561509732905 
1672	 0.541664174529439 
1673	 0.540710424588013 
1674	 0.539692166666224 
1675	 0.538607465668016 
1676	 0.537509203097954 
1677	 0.53635669486093 
1678	 0.535173971656999 
1679	 0.533960046473603 
1680	 0.532703973572557 
1681	 0.531384169357358 
1682	 0.530062645577735 
1683	 0.528709917818403 
1684	 0.527391711330502 
1685	 0.526085007395486 
1686	 0.524745270337853 
1687	 0.523401252857655 
1688	 0.522025264951707 
1689	 0.520609339591359 
1690	 0.519195925164678 
1691	 0.517797584387601 
1692	 0.516372433010407 
1693	 0.514934292134447 
1694	 0.513451341046915 
1695	 0.511931452545458 
1696	 0.510375587905761 
1697	 0.508772633783267 
1698	 0.50714877060789 
1699	 0.505482227692436 
1700	 0.503880714698255 
1701	 0.502262759907201 
1702	 0.500707709002647 
1703	 0.499169216903556 
1704	 0.497719457061112 
1705	 0.496305845420085 
1706	 0.494950511219181 
1707	 0.493777253617183 
1708	 0.492648545053293 
1709	 0.491592927629808 
1710	 0.490621893215152 
1711	 0.489624501372037 
1712	 0.488689329267639 
1713	 0.487785182403751 
1714	 0.486898725063927 
1715	 0.486099326170469 
1716	 0.485293246450825 
1717	 0.48449750662301 
1718	 0.483707857744978 
1719	 0.48291858462876 
1720	 0.482193908328421 
1721	 0.481522525559217 
1722	 0.480971387455076 
1723	 0.480590070291451 
1724	 0.480331675556802 
1725	 0.480221042649186 
1726	 0.480303510699521 
1727	 0.480539851912291 
1728	 0.48092726845094 
1729	 0.481509081327044 
1730	 0.482235493814554 
1731	 0.483037771238807 
1732	 0.483956901494361 
1733	 0.48487377753235 
1734	 0.485789444427274 
1735	 0.48671992508563 
1736	 0.487561033554078 
1737	 0.488318099226816 
1738	 0.488969898656674 
1739	 0.489501662879705 
1740	 0.489915295711608 
1741	 0.490242990301841 
1742	 0.490430161695544 
1743	 0.49059339697804 
1744	 0.490672565604097 
1745	 0.490723502168564 
1746	 0.490703185898535 
1747	 0.49070987848548 
1748	 0.490655105376606 
1749	 0.490679736214643 
1750	 0.490733368000647 
1751	 0.490836181944175 
1752	 0.490963407473048 
1753	 0.491188484601894 
1754	 0.491474467488624 
1755	 0.491837298576525 
1756	 0.492268802934264 
1757	 0.492800190086784 
1758	 0.493455471717948 
1759	 0.4941777495574 
1760	 0.49499654810343 
1761	 0.495879867226696 
1762	 0.496792321418804 
1763	 0.497867634534978 
1764	 0.498975694656278 
1765	 0.500123957805969 
1766	 0.501378501991967 
1767	 0.502553682735267 
1768	 0.503797263929415 
1769	 0.505075646131462 
1770	 0.506210512059059 
1771	 0.507331102638149 
1772	 0.508382787182335 
1773	 0.509326337170718 
1774	 0.510254953140514 
1775	 0.511105508672876 
1776	 0.511870192904428 
1777	 0.512565607479098 
1778	 0.51319515644922 
1779	 0.513804014507999 
1780	 0.51436449259422 
1781	 0.514892642921306 
1782	 0.515400438820089 
1783	 0.515837379645953 
1784	 0.516224491199157 
1785	 0.516511318687812 
1786	 0.51678434374062 
1787	 0.516988703654705 
1788	 0.517193738069765 
1789	 0.517381393838237 
1790	 0.517576059360106 
1791	 0.517752614515693 
1792	 0.517953268944086 
1793	 0.518172402275804 
1794	 0.518365232447722 
1795	 0.518549970380337 
1796	 0.518702771260175 
1797	 0.518868098122476 
1798	 0.519031815959488 
1799	 0.519216780592283 
1800	 0.519440165606412 
1801	 0.517725087316505 
1802	 0.517909219459396 
1803	 0.51811853914357 
1804	 0.51832177338218 
1805	 0.518562575206348 
1806	 0.518794444961961 
1807	 0.519047350337682 
1808	 0.519280686555175 
1809	 0.519505009013329 
1810	 0.519735343307055 
1811	 0.519963868952461 
1812	 0.52019641462048 
1813	 0.520422730938469 
1814	 0.520680733015083 
1815	 0.520924191070021 
1816	 0.521164736634142 
1817	 0.521419138968774 
1818	 0.521680519604047 
1819	 0.521942438333857 
1820	 0.522216258025935 
1821	 0.522488095317964 
1822	 0.522760398931086 
1823	 0.523039485585466 
1824	 0.523324065988521 
1825	 0.523584635364781 
1826	 0.523841724095551 
1827	 0.524103333234228 
1828	 0.524339313405873 
1829	 0.524544304330302 
1830	 0.524773383293823 
1831	 0.525007396157248 
1832	 0.525224741025042 
1833	 0.525440198121853 
1834	 0.525662697667275 
1835	 0.525883784365187 
1836	 0.526083720125663 
1837	 0.526291482489267 
1838	 0.52650461549369 
1839	 0.526715501496239 
1840	 0.526930239053277 
1841	 0.527131658262266 
1842	 0.527320354550315 
1843	 0.52752964926419 
1844	 0.527739303486153 
1845	 0.52791198625549 
1846	 0.528109891026463 
1847	 0.528300147596638 
1848	 0.528471686979401 
1849	 0.528641691953739 
1850	 0.52877896719862 
1851	 0.528896169220649 
1852	 0.529001914302195 
1853	 0.529079823627817 
1854	 0.529105885019633 
1855	 0.529127536817954 
1856	 0.529131622804655 
1857	 0.529088360205136 
1858	 0.529029316377597 
1859	 0.528936259310128 
1860	 0.528809435450909 
1861	 0.528651071345766 
1862	 0.528462574884814 
1863	 0.528257380492433 
1864	 0.528004447828862 
1865	 0.527702986402718 
1866	 0.527350272679947 
1867	 0.526924851516102 
1868	 0.526462390896314 
1869	 0.525950457641752 
1870	 0.525376533249016 
1871	 0.524760162574711 
1872	 0.52408343155258 
1873	 0.52335179635298 
1874	 0.522564065111812 
1875	 0.521717975465586 
1876	 0.520754009709751 
1877	 0.519760650440228 
1878	 0.518632045524918 
1879	 0.517366971566884 
1880	 0.516099607928457 
1881	 0.514674461572719 
1882	 0.513105138233523 
1883	 0.511458777229283 
1884	 0.509707616322797 
1885	 0.507684245672125 
1886	 0.505572804589872 
1887	 0.503250354117523 
1888	 0.500702462766723 
1889	 0.498215758625966 
1890	 0.495519550962282 
1891	 0.492782352263798 
1892	 0.490038233149897 
1893	 0.487153213022473 
1894	 0.484077155259751 
1895	 0.481103434398659 
1896	 0.478074194563898 
1897	 0.475024633388305 
1898	 0.472236175202119 
1899	 0.469414443360761 
1900	 0.466685739752048 
1901	 0.464083876895335 
1902	 0.461355832565431 
1903	 0.458803081344093 
1904	 0.456334028965829 
1905	 0.453908039356695 
1906	 0.451564647792567 
1907	 0.449541642504171 
1908	 0.447538852875802 
1909	 0.445650232215249 
1910	 0.443936955226405 
1911	 0.442184995035442 
1912	 0.440589192691411 
1913	 0.43908937038504 
1914	 0.437631877980481 
1915	 0.436311392316737 
1916	 0.435140042213373 
1917	 0.433985105325178 
1918	 0.432928883946138 
1919	 0.431989280496085 
1920	 0.431050354146128 
1921	 0.430231132403314 
1922	 0.429489589178066 
1923	 0.428790263405371 
1924	 0.428218078499001 
1925	 0.427709229146442 
1926	 0.427252541238973 
1927	 0.426868537486409 
1928	 0.426521274248736 
1929	 0.426229250279138 
1930	 0.425978949496403 
1931	 0.425770791039814 
1932	 0.425629317364466 
1933	 0.425538336769653 
1934	 0.425492381486827 
1935	 0.425501219883511 
1936	 0.425568889880806 
1937	 0.425690480142422 
1938	 0.425886263675464 
1939	 0.426102270160715 
1940	 0.426360751113088 
1941	 0.426663594580885 
1942	 0.426994162315113 
1943	 0.427371392752506 
1944	 0.427790368689415 
1945	 0.428239465554116 
1946	 0.428743856520581 
1947	 0.429271936742214 
1948	 0.429843526006486 
1949	 0.430460163653044 
1950	 0.43104946731867 
1951	 0.431637633905751 
1952	 0.432241955259911 
1953	 0.432848539842683 
1954	 0.43344353039566 
1955	 0.434088547512942 
1956	 0.434732761972039 
1957	 0.435398206668625 
1958	 0.43607507871793 
1959	 0.43671073456586 
1960	 0.437353902299335 
1961	 0.437974241225858 
1962	 0.438546346868703 
1963	 0.439155746553845 
1964	 0.439786985647491 
1965	 0.440387753443413 
1966	 0.440990177962277 
1967	 0.441597391069897 
1968	 0.442133539453386 
1969	 0.442676273626455 
1970	 0.443247918747794 
1971	 0.443813050351836 
1972	 0.444413500031876 
1973	 0.445014643436524 
1974	 0.445608485584995 
1975	 0.44620472182217 
1976	 0.446787223158716 
1977	 0.447368960714966 
1978	 0.447942220993348 
1979	 0.448496913853383 
1980	 0.449056470149291 
1981	 0.449643908487756 
1982	 0.450179283695493 
1983	 0.450719966391939 
1984	 0.451263113818777 
1985	 0.451747199664446 
1986	 0.45225547075047 
1987	 0.45275840544877 
1988	 0.453251152578541 
1989	 0.453746008806019 
1990	 0.454255275051395 
1991	 0.454740047511194 
1992	 0.455212887382153 
1993	 0.45569376377199 
1994	 0.456137295167205 
1995	 0.456560150429169 
1996	 0.456969788853085 
1997	 0.457368404011616 
1998	 0.457788511187423 
1999	 0.458220868221337 
2000	 0.458635369843187 
2001	 0.459073608690734 
2002	 0.459468347631541 
2003	 0.459832752100859 
2004	 0.460192282258293 
2005	 0.460540475855429 
2006	 0.46086065938424 
2007	 0.46117416727632 
2008	 0.4614478378942 
2009	 0.461692937519029 
2010	 0.46190960022906 
2011	 0.462076451059457 
2012	 0.462243391104024 
2013	 0.462361858593164 
2014	 0.462444570230748 
2015	 0.462492989102465 
2016	 0.462522931631804 
2017	 0.46248028256219 
2018	 0.462386690959315 
2019	 0.462252423488697 
2020	 0.462064953575896 
2021	 0.461821580601199 
2022	 0.461562632511986 
2023	 0.461259521125075 
2024	 0.460864812935144 
2025	 0.460442619932224 
2026	 0.459969822789087 
2027	 0.459406759093075 
2028	 0.458867958926637 
2029	 0.458290115597701 
2030	 0.457725551521467 
2031	 0.457151358989949 
2032	 0.456585846462892 
2033	 0.455991987177721 
2034	 0.455458792028734 
2035	 0.454931630072629 
2036	 0.454444008862518 
2037	 0.454050937407121 
2038	 0.453717786430573 
2039	 0.453436844676465 
2040	 0.453227912691332 
2041	 0.453070676325348 
2042	 0.452960552312651 
2043	 0.45291269959881 
2044	 0.452956468612016 
2045	 0.452999909758963 
2046	 0.453075974843433 
2047	 0.453198863421418 
2048	 0.453351218419242 
2049	 0.453545553235327 
2050	 0.453797555095044 
2051	 0.454077161390981 
2052	 0.45438505159853 
2053	 0.454731697653283 
2054	 0.455072038869329 
2055	 0.455438991535109 
2056	 0.4558017178189 
2057	 0.456157034269669 
2058	 0.456539012998397 
2059	 0.456939453476332 
2060	 0.457345519341612 
2061	 0.457785674044584 
2062	 0.4581995796432 
2063	 0.458610063065061 
2064	 0.459018304807857 
2065	 0.459421721916429 
2066	 0.459803946437385 
2067	 0.460212504170199 
2068	 0.460604893716818 
2069	 0.46098974008081 
2070	 0.461388156875926 
2071	 0.46173599957885 
2072	 0.462055364948646 
2073	 0.462363117584475 
2074	 0.462635952930972 
2075	 0.462903465971726 
2076	 0.46315994029457 
2077	 0.463403609476392 
2078	 0.463636163905731 
2079	 0.463847290237247 
2080	 0.464056687687714 
2081	 0.464231510392533 
2082	 0.464376051973502 
2083	 0.46449309042718 
2084	 0.464601739361685 
2085	 0.464678089609163 
2086	 0.464762135017953 
2087	 0.464845666559925 
2088	 0.464909859266755 
2089	 0.464973325014014 
2090	 0.465004397317124 
2091	 0.465005561057946 
2092	 0.465000311146103 
2093	 0.464973014523232 
2094	 0.464936375717164 
2095	 0.46488797780437 
2096	 0.464833232415939 
2097	 0.464761904424773 
2098	 0.464685255531697 
2099	 0.464618804294743 
2100	 0.464540341622034 
2101	 0.464427648953304 
2102	 0.464296134722839 
2103	 0.464154873584131 
2104	 0.463971986574924 
2105	 0.463815085772416 
2106	 0.463691787681148 
2107	 0.463498831085358 
2108	 0.46329381055511 
2109	 0.463047197605434 
2110	 0.462726288753694 
2111	 0.462423410332579 
2112	 0.462100627237573 
2113	 0.461777308017962 
2114	 0.461456101956043 
2115	 0.461119801881182 
2116	 0.460775492860357 
2117	 0.460422103870641 
2118	 0.460053490940623 
2119	 0.459663715534854 
2120	 0.459286468547977 
2121	 0.458897439942853 
2122	 0.458523307773367 
2123	 0.458167428330954 
2124	 0.457781400967853 
2125	 0.457389224863748 
2126	 0.456991245683939 
2127	 0.456568693035658 
2128	 0.456160712865833 
2129	 0.455756794762219 
2130	 0.455350943318993 
2131	 0.454964646937809 
2132	 0.45454490268489 
2133	 0.454093728518294 
2134	 0.453673027958231 
2135	 0.453225001083089 
2136	 0.452749216252921 
2137	 0.452253469440623 
2138	 0.451735767853775 
2139	 0.45122733690995 
2140	 0.450679071965649 
2141	 0.450179143591725 
2142	 0.449710383541283 
2143	 0.449237729719613 
2144	 0.448781570533964 
2145	 0.448318965895181 
2146	 0.447844599426214 
2147	 0.44739913571423 
2148	 0.44697242230115 
2149	 0.446539370632905 
2150	 0.446139550598438 
2151	 0.445714328939833 
2152	 0.445266082016174 
2153	 0.444830371723552 
2154	 0.444361571953541 
2155	 0.443879108065867 
2156	 0.443425770941092 
2157	 0.442973153655488 
2158	 0.442516495584999 
2159	 0.442101141264731 
2160	 0.441615935362648 
2161	 0.441064819944868 
2162	 0.440576809711048 
2163	 0.440071636100536 
2164	 0.439604237907373 
2165	 0.439178527985115 
2166	 0.438763584900999 
2167	 0.438354853843838 
2168	 0.437974858765691 
2169	 0.43760336652567 
2170	 0.437290964796895 
2171	 0.437023913714508 
2172	 0.4367700843079 
2173	 0.436545571598033 
2174	 0.436374612726979 
2175	 0.436217695258288 
2176	 0.436098794758099 
2177	 0.436033877210202 
2178	 0.436046151239295 
2179	 0.43603858724572 
2180	 0.436060901011811 
2181	 0.436084919311327 
2182	 0.436110811064849 
2183	 0.436172684713208 
2184	 0.436280039748375 
2185	 0.436345830943513 
2186	 0.436410244590254 
2187	 0.436487488651718 
2188	 0.436540237328254 
2189	 0.436620064676685 
2190	 0.436727304366451 
2191	 0.436842932237366 
2192	 0.436961010500458 
2193	 0.437094251820746 
2194	 0.437275881500664 
2195	 0.437422313096775 
2196	 0.437574631539709 
2197	 0.437688479561274 
2198	 0.437774561461082 
2199	 0.437869494363055 
2200	 0.437964879052206 
2201	 0.438067250837331 
2202	 0.438132231518459 
2203	 0.438189835493581 
2204	 0.438219681955598 
2205	 0.438196677392531 
2206	 0.438211745956382 
2207	 0.438235978570142 
2208	 0.438250690909202 
2209	 0.438278825743524 
2210	 0.438279050237117 
2211	 0.438272081004179 
2212	 0.438237641475497 
2213	 0.438168262658182 
2214	 0.438110267116522 
2215	 0.438064192651683 
2216	 0.437963316309638 
2217	 0.43785692184301 
2218	 0.437708136922649 
2219	 0.43748824999046 
2220	 0.437270245553131 
2221	 0.43705672528147 
2222	 0.436794257499424 
2223	 0.436502063461145 
2224	 0.436138128539513 
2225	 0.435704399716863 
2226	 0.43522146308454 
2227	 0.434666115102912 
2228	 0.43405874897027 
2229	 0.433356122749184 
2230	 0.432573586051853 
2231	 0.431709726070737 
2232	 0.430763233017034 
2233	 0.429726003728948 
2234	 0.428637445488878 
2235	 0.427386517086428 
2236	 0.426030679684297 
2237	 0.424534427799312 
2238	 0.422841430431463 
2239	 0.421119107283272 
2240	 0.41931177546678 
2241	 0.417384654472072 
2242	 0.415457133141135 
2243	 0.413270185213586 
2244	 0.410832053953272 
2245	 0.408363785451371 
2246	 0.405636372333296 
2247	 0.402967335815381 
2248	 0.40030757657815 
2249	 0.397570893173581 
2250	 0.394802326375155 
2251	 0.392003944740278 
2252	 0.388953129521245 
2253	 0.386008901875724 
2254	 0.383006332845964 
2255	 0.379961294318804 
2256	 0.37721706879052 
2257	 0.374465154204801 
2258	 0.371773056667353 
2259	 0.369202312159694 
2260	 0.366594349254353 
2261	 0.363961229204303 
2262	 0.361456814314265 
2263	 0.35894917469227 
2264	 0.356639727302775 
2265	 0.354508214486405 
2266	 0.352350165571143 
2267	 0.350371225917403 
2268	 0.348263659937086 
2269	 0.346102955017039 
2270	 0.343990273685673 
2271	 0.341813990553494 
2272	 0.339742572059716 
2273	 0.337760577210365 
2274	 0.335740345922944 
2275	 0.333844801878903 
2276	 0.331801587716009 
2277	 0.329654697264765 
2278	 0.32753191927473 
2279	 0.325268383412485 
2280	 0.323113670650047 
2281	 0.321078396492183 
2282	 0.318957800968816 
2283	 0.316861201306437 
2284	 0.314736490143206 
2285	 0.312405015570688 
2286	 0.310145431499525 
2287	 0.307828299218682 
2288	 0.305439848418732 
2289	 0.3032311554464 
2290	 0.300931072477068 
2291	 0.298675496015924 
2292	 0.2964983546085 
2293	 0.294212788968443 
2294	 0.292087854810853 
2295	 0.290120160966345 
2296	 0.288277755018535 
2297	 0.286756833308295 
2298	 0.285483060329225 
2299	 0.284496321874637 
2300	 0.283763981688164 
2301	 0.283394210373145 
2302	 0.283349674291573 
2303	 0.28361647147731 
2304	 0.284282560768089 
2305	 0.285124126325467 
2306	 0.286293083517995 
2307	 0.287656187252216 
2308	 0.2892639461406 
2309	 0.291085529319266 
2310	 0.293268317786114 
2311	 0.295396417768716 
2312	 0.297836701932583 
2313	 0.300035075558782 
2314	 0.302223661077093 
2315	 0.304277676948674 
2316	 0.306232469277914 
2317	 0.308023171579353 
2318	 0.309794818774393 
2319	 0.311214601568341 
2320	 0.312437826856294 
2321	 0.313361643414942 
2322	 0.313896626867116 
2323	 0.31431220748761 
2324	 0.314491370644996 
2325	 0.314462961360162 
2326	 0.31420575554941 
2327	 0.313805567920497 
2328	 0.313138574821942 
2329	 0.312377691328096 
2330	 0.311509448948267 
2331	 0.3104251075655 
2332	 0.309185975589268 
2333	 0.307803115912815 
2334	 0.306227235304856 
2335	 0.304623453040216 
2336	 0.302903339770953 
2337	 0.301114957417678 
2338	 0.299399541207255 
2339	 0.297627502157789 
2340	 0.296005910644869 
2341	 0.294584677400122 
2342	 0.293297033177819 
2343	 0.292264625657214 
2344	 0.291455293571581 
2345	 0.29102681785867 
2346	 0.290995974130487 
2347	 0.291354349466692 
2348	 0.292031406908109 
2349	 0.293061641312784 
2350	 0.294367597627346 
2351	 0.295847714904798 
2352	 0.297573490206689 
2353	 0.29932907364852 
2354	 0.300912509871844 
2355	 0.30245094959119 
2356	 0.303829710295154 
2357	 0.305012855434284 
2358	 0.306182409725136 
2359	 0.307131514698107 
2360	 0.307840467297697 
2361	 0.308350779841542 
2362	 0.308701766367919 
2363	 0.308970856295529 
2364	 0.309195483895738 
2365	 0.309421672278977 
2366	 0.309578373187102 
2367	 0.309691930060621 
2368	 0.309814978082953 
2369	 0.309868696681427 
2370	 0.309905500058607 
2371	 0.30994812158044 
2372	 0.309964968701627 
2373	 0.310048080304579 
2374	 0.31019223095094 
2375	 0.310360882516599 
2376	 0.310537018812092 
2377	 0.31064811816857 
2378	 0.310714572987065 
2379	 0.310816079386767 
2380	 0.310900388021298 
2381	 0.311080527767074 
2382	 0.311256644493314 
2383	 0.311452027315863 
2384	 0.311616357366401 
2385	 0.311805312091189 
2386	 0.311959534218277 
2387	 0.312099782886854 
2388	 0.312255713972725 
2389	 0.312423267288648 
2390	 0.312533459683097 
2391	 0.312588815905721 
2392	 0.312684063861682 
2393	 0.312774521109755 
2394	 0.312829363010844 
2395	 0.312903620149987 
2396	 0.312962566727716 
2397	 0.312975463867874 
2398	 0.312978647625573 
2399	 0.312974306473259 
2400	 0.312992967695703 
2401	 0.312982671988427 
2402	 0.312987536469274 
2403	 0.31304048558816 
2404	 0.313068788301243 
2405	 0.313070865803819 
2406	 0.313080811047222 
2407	 0.31304028092526 
2408	 0.312969575264648 
2409	 0.312923634491378 
2410	 0.312810500058972 
2411	 0.312740187377507 
2412	 0.31276897002312 
2413	 0.3127284531467 
2414	 0.312728580468488 
2415	 0.312754690229171 
2416	 0.312640672542083 
2417	 0.312570055114214 
2418	 0.312576264274141 
2419	 0.312525250739274 
2420	 0.312459801645315 
2421	 0.312342956929284 
2422	 0.312092597797349 
2423	 0.311829610952662 
2424	 0.311625651632968 
2425	 0.311475118769369 
2426	 0.311489937205912 
2427	 0.311492939211002 
2428	 0.31138309749931 
2429	 0.311245021280618 
2430	 0.310948518123967 
2431	 0.310684804914634 
2432	 0.310554071210329 
2433	 0.310382977625874 
2434	 0.310247375001567 
2435	 0.310018099076775 
2436	 0.309529484583037 
2437	 0.309072935629473 
2438	 0.308732325735173 
2439	 0.308207988292031 
2440	 0.307712993341215 
2441	 0.307330502835812 
2442	 0.30682728414302 
2443	 0.306382411964998 
2444	 0.305923944038585 
2445	 0.305338881935232 
2446	 0.304637078028567 
2447	 0.303969787382367 
2448	 0.303420540682259 
2449	 0.302711315809939 
2450	 0.30201481553066 
2451	 0.30139642250864 
2452	 0.300739904544272 
2453	 0.300137028608305 
2454	 0.299602713790663 
2455	 0.299013291751906 
2456	 0.29818276038575 
2457	 0.297424649295387 
2458	 0.296758366979328 
2459	 0.295927981570785 
2460	 0.29541682964349 
2461	 0.295087811310586 
2462	 0.294414388953982 
2463	 0.293763886078185 
2464	 0.293154495120459 
2465	 0.292406899977207 
2466	 0.291958823959223 
2467	 0.291608602538674 
2468	 0.290985697148257 
2469	 0.290417893453612 
2470	 0.289801730234665 
2471	 0.289082253173918 
2472	 0.288529786823246 
2473	 0.288083382921101 
2474	 0.287684162927419 
2475	 0.287332891131453 
2476	 0.287160951522558 
2477	 0.287000945179258 
2478	 0.286563181359287 
2479	 0.286250214028761 
2480	 0.285835844026 
2481	 0.285496791224107 
2482	 0.285350287402217 
2483	 0.28484284281599 
2484	 0.284671582324706 
2485	 0.284639853089395 
2486	 0.284730050906612 
2487	 0.284829616204627 
2488	 0.284650344472792 
2489	 0.284384704097802 
2490	 0.284263893635659 
2491	 0.284446417326558 
2492	 0.284694729771105 
2493	 0.284688426874723 
2494	 0.284646783912941 
2495	 0.284746782341712 
2496	 0.284793592352215 
2497	 0.284966574198595 
2498	 0.285190576580519 
2499	 0.285437749758673 
2500	 0.285825524246144 
