Wavelength	spectrum00016.asd
350	 5.26618576936007E-02 
351	 5.13983916327608E-02 
352	 5.02676176560667E-02 
353	 4.92868137470702E-02 
354	 0.047736920661313 
355	 4.80394890586721E-02 
356	 4.74557761241183E-02 
357	 4.43492416057489E-02 
358	 4.35946822395257E-02 
359	 4.31771661445326E-02 
360	 4.28619195554005E-02 
361	 4.31747704479946E-02 
362	 4.29236643985275E-02 
363	 4.23193461234026E-02 
364	 0.041596464514925 
365	 4.07888062853157E-02 
366	 4.15611750274631E-02 
367	 4.21871056987757E-02 
368	 4.12385930022906E-02 
369	 4.10390678799967E-02 
370	 4.02001880120964E-02 
371	 3.93204031214174E-02 
372	 0.039834097546673 
373	 3.98782116293427E-02 
374	 4.00682956744804E-02 
375	 4.05073336081256E-02 
376	 4.01953735973496E-02 
377	 3.98848007317351E-02 
378	 3.96720754593477E-02 
379	 3.94336674752401E-02 
380	 0.03876815725685 
381	 3.92268368499701E-02 
382	 3.99410045957117E-02 
383	 3.89732011682074E-02 
384	 3.93109381424283E-02 
385	 3.97342555973352E-02 
386	 3.92369734929552E-02 
387	 3.78093836964299E-02 
388	 3.77386360375446E-02 
389	 3.80895796472514E-02 
390	 3.76196525435959E-02 
391	 3.75796672254418E-02 
392	 3.74937484502092E-02 
393	 3.74532847003598E-02 
394	 3.78308611436529E-02 
395	 0.037571415076176 
396	 0.037593788572314 
397	 3.80614055413805E-02 
398	 3.74733447563082E-02 
399	 0.036893998308905 
400	 3.66315239243236E-02 
401	 3.66327048302427E-02 
402	 3.62918364177371E-02 
403	 3.64140455515288E-02 
404	 3.67246258960958E-02 
405	 3.62471144773172E-02 
406	 3.64172055965135E-02 
407	 3.61762663341536E-02 
408	 3.52748086012509E-02 
409	 3.58117759920234E-02 
410	 3.55464718733226E-02 
411	 3.50804411898621E-02 
412	 0.035530088541196 
413	 3.57366208830151E-02 
414	 3.53646891615741E-02 
415	 3.48079171383696E-02 
416	 3.49916537835472E-02 
417	 3.50413714868336E-02 
418	 3.50928147353971E-02 
419	 3.52007425892819E-02 
420	 3.47109989704319E-02 
421	 3.48158500298847E-02 
422	 3.51786392402904E-02 
423	 3.49850129375483E-02 
424	 3.48426279585215E-02 
425	 3.46939323436117E-02 
426	 3.45600094397118E-02 
427	 0.034604238698575 
428	 3.47018832156313E-02 
429	 3.47040446899498E-02 
430	 3.45633857426911E-02 
431	 3.45142085590867E-02 
432	 0.034632359051061 
433	 3.47650344013389E-02 
434	 0.034680467349479 
435	 3.47205943990817E-02 
436	 0.034697649403017 
437	 3.45724971856069E-02 
438	 3.46278068912953E-02 
439	 3.47315338037535E-02 
440	 3.47471805182339E-02 
441	 3.46294561070017E-02 
442	 3.47121130577532E-02 
443	 3.48299089356831E-02 
444	 0.034940858759518 
445	 3.50947275500834E-02 
446	 3.49428982576507E-02 
447	 3.48647152983125E-02 
448	 3.50488080718571E-02 
449	 3.49934890806689E-02 
450	 3.50612428637154E-02 
451	 3.51638621591333E-02 
452	 3.51050515213513E-02 
453	 3.51180878198254E-02 
454	 3.51988102165172E-02 
455	 3.53045801524237E-02 
456	 3.53709499113869E-02 
457	 0.035405380601256 
458	 3.53521806021836E-02 
459	 3.52413557350037E-02 
460	 0.03540760334801 
461	 3.54469294295573E-02 
462	 3.53753827956055E-02 
463	 3.54205359222238E-02 
464	 3.53931815279754E-02 
465	 3.53875593601775E-02 
466	 3.54438721436623E-02 
467	 0.035470131940597 
468	 3.55981751868855E-02 
469	 3.56557683681465E-02 
470	 3.55335396943437E-02 
471	 3.57794720249964E-02 
472	 3.58428291451057E-02 
473	 3.56943851734512E-02 
474	 3.57295918307516E-02 
475	 3.57520159654415E-02 
476	 3.57462162873601E-02 
477	 3.57509217892593E-02 
478	 3.58863357465366E-02 
479	 3.58833595476497E-02 
480	 3.58572582958682E-02 
481	 3.59962382649759E-02 
482	 3.58975340999155E-02 
483	 3.58460625263499E-02 
484	 3.59651555547572E-02 
485	 0.036135479096114 
486	 3.62594871063158E-02 
487	 3.62532158106036E-02 
488	 3.61375836347177E-02 
489	 3.62139727888172E-02 
490	 3.62756552008444E-02 
491	 3.62983787180037E-02 
492	 3.63668771737692E-02 
493	 3.65026236074094E-02 
494	 3.65663348075536E-02 
495	 3.65255936787359E-02 
496	 3.65495028534496E-02 
497	 3.66289149796857E-02 
498	 3.67070381064848E-02 
499	 3.67356867780278E-02 
500	 3.68089497757892E-02 
501	 3.68267338446877E-02 
502	 3.67909216545605E-02 
503	 3.67980595668485E-02 
504	 3.68654698489586E-02 
505	 0.036927452504377 
506	 0.036955579044784 
507	 0.037059944577888 
508	 3.71076221621975E-02 
509	 3.71125958027574E-02 
510	 3.71477566154055E-02 
511	 3.71830595798661E-02 
512	 3.72597223709274E-02 
513	 3.73834299015277E-02 
514	 3.75118673951343E-02 
515	 3.74861654746508E-02 
516	 3.74594161609272E-02 
517	 0.037569198649412 
518	 3.75831889213064E-02 
519	 3.76714831956461E-02 
520	 3.78090094578193E-02 
521	 3.78449092679669E-02 
522	 0.0378870726098 
523	 3.79845395046593E-02 
524	 3.81222188587453E-02 
525	 3.81720880730399E-02 
526	 3.82561041642989E-02 
527	 3.83784863341927E-02 
528	 3.85025287590525E-02 
529	 3.86197599566909E-02 
530	 3.87070696057026E-02 
531	 0.038790777420627 
532	 3.89455884416527E-02 
533	 0.039054602829816 
534	 3.91807573180369E-02 
535	 0.039377004662609 
536	 3.95515191619362E-02 
537	 0.039755220903612 
538	 3.99493785677278E-02 
539	 4.00683092403022E-02 
540	 4.02757697317109E-02 
541	 0.040517444975528 
542	 4.07493077166193E-02 
543	 4.09867293911359E-02 
544	 4.12350360940267E-02 
545	 4.14638451462833E-02 
546	 4.16588302657182E-02 
547	 4.19266263703685E-02 
548	 4.22056112957197E-02 
549	 4.24619303431445E-02 
550	 4.26951751194216E-02 
551	 0.04293608417602 
552	 4.32296517367248E-02 
553	 4.35754991672725E-02 
554	 4.38513612604884E-02 
555	 4.41636087905648E-02 
556	 4.45310430737621E-02 
557	 4.49282736858614E-02 
558	 4.53383210576632E-02 
559	 4.57654638709032E-02 
560	 4.62117278100473E-02 
561	 4.66731388861289E-02 
562	 0.047153556560428 
563	 4.76593640468185E-02 
564	 4.82002298566735E-02 
565	 4.88053511208665E-02 
566	 4.93831034121633E-02 
567	 4.99258013614259E-02 
568	 5.04915245315298E-02 
569	 5.10835636886246E-02 
570	 5.16624942803706E-02 
571	 5.22177975505167E-02 
572	 5.28083580450629E-02 
573	 5.34696690952225E-02 
574	 5.41569683420379E-02 
575	 5.48218890796988E-02 
576	 0.055616617739364 
577	 5.64133775238024E-02 
578	 5.71795932734699E-02 
579	 5.80086093564407E-02 
580	 5.88148860569627E-02 
581	 5.95919866633544E-02 
582	 0.060364683413687 
583	 6.11912559113646E-02 
584	 6.20147437521192E-02 
585	 6.28578225873607E-02 
586	 6.37820206930896E-02 
587	 6.47275067567855E-02 
588	 0.065675889000964 
589	 6.66245025682872E-02 
590	 6.75873661217903E-02 
591	 0.068566674857656 
592	 6.95481761709465E-02 
593	 7.05034140011338E-02 
594	 7.13622313902453E-02 
595	 7.22862315023911E-02 
596	 7.32818803050615E-02 
597	 7.42174980818798E-02 
598	 7.52087762356651E-02 
599	 7.62664692304532E-02 
600	 7.73662545483716E-02 
601	 7.84377761978482E-02 
602	 0.079533145681578 
603	 8.06354121704026E-02 
604	 8.17103276550994E-02 
605	 8.28340742398375E-02 
606	 8.39486726241546E-02 
607	 8.50466130626126E-02 
608	 0.086192365502295 
609	 8.72955801733941E-02 
610	 8.83864624969302E-02 
611	 8.95059025678541E-02 
612	 9.06158597681425E-02 
613	 9.17292818234389E-02 
614	 9.28476127633857E-02 
615	 9.39656143273097E-02 
616	 9.50642966374524E-02 
617	 9.61628988864522E-02 
618	 9.72692730523784E-02 
619	 9.83658116302077E-02 
620	 9.94490652014796E-02 
621	 0.100543832836063 
622	 0.101669930514576 
623	 0.102774900615699 
624	 0.103866632913073 
625	 0.104953320295547 
626	 0.106040744271862 
627	 0.107090508583257 
628	 0.108146991478124 
629	 0.109244342642559 
630	 0.110355619595836 
631	 0.111437188397235 
632	 0.11251066797625 
633	 0.113612225078026 
634	 0.114646250655067 
635	 0.115710318153015 
636	 0.116826409768895 
637	 0.117897961779305 
638	 0.118985606092333 
639	 0.120078974746008 
640	 0.121156122529865 
641	 0.122209493112171 
642	 0.123256351833164 
643	 0.124323774820461 
644	 0.125439393116885 
645	 0.126568833992243 
646	 0.127666585603543 
647	 0.128730233972904 
648	 0.12982767609946 
649	 0.130959007011929 
650	 0.132094815375809 
651	 0.13320458561179 
652	 0.134304419982156 
653	 0.135411279399075 
654	 0.136542549851613 
655	 0.137708557272576 
656	 0.138856681129821 
657	 0.140008770491255 
658	 0.141176126587193 
659	 0.142317374371502 
660	 0.143506455719963 
661	 0.14471831491487 
662	 0.145903808323044 
663	 0.147109694345115 
664	 0.148321364107437 
665	 0.149543015930976 
666	 0.150796156333379 
667	 0.152025251062213 
668	 0.153274267777617 
669	 0.154569570075838 
670	 0.155840809009287 
671	 0.157153867955737 
672	 0.158482868828131 
673	 0.159776409410822 
674	 0.161107215119608 
675	 0.162404979199957 
676	 0.16368767189499 
677	 0.165091010688243 
678	 0.166446542328054 
679	 0.167796094700019 
680	 0.169197729401444 
681	 0.170600788460786 
682	 0.172030564017501 
683	 0.173467647305136 
684	 0.174875385024622 
685	 0.176283664198193 
686	 0.177695695109225 
687	 0.179129547133852 
688	 0.180631600117499 
689	 0.18212117261638 
690	 0.183582281928971 
691	 0.18503193025659 
692	 0.186519310579188 
693	 0.188034181637995 
694	 0.189569808154644 
695	 0.191111170005634 
696	 0.192583894251707 
697	 0.194040674081173 
698	 0.195535450784236 
699	 0.1970977884291 
700	 0.198630653728746 
701	 0.2001494316113 
702	 0.201689070057299 
703	 0.203211590827114 
704	 0.204766588747715 
705	 0.206311298959496 
706	 0.207758538851253 
707	 0.209266181660163 
708	 0.210768892576401 
709	 0.21223475390859 
710	 0.213737667988099 
711	 0.21524940156582 
712	 0.216741992113684 
713	 0.218195777723904 
714	 0.219626581121465 
715	 0.22105103380911 
716	 0.222477720336726 
717	 0.223900878773765 
718	 0.225267076115397 
719	 0.226604232153501 
720	 0.227937044771866 
721	 0.22926006924003 
722	 0.230573035214799 
723	 0.231842908108531 
724	 0.23305016580715 
725	 0.234270350223152 
726	 0.235436194996959 
727	 0.236597775799105 
728	 0.237859828243404 
729	 0.238951522170568 
730	 0.239994071893289 
731	 0.24107345112603 
732	 0.242129718169587 
733	 0.243143901542288 
734	 0.244080240397178 
735	 0.244934667922551 
736	 0.245813419793062 
737	 0.246677497968161 
738	 0.247495501771084 
739	 0.248253883127433 
740	 0.249051626345115 
741	 0.249836621666919 
742	 0.250558589209487 
743	 0.251201325313914 
744	 0.251828668245334 
745	 0.252440345531187 
746	 0.253016557398063 
747	 0.253540098385302 
748	 0.254021937109049 
749	 0.254453362869659 
750	 0.254828238201112 
751	 0.255248756751168 
752	 0.255649694914994 
753	 0.255975978421013 
754	 0.256211708504903 
755	 0.256465285218356 
756	 0.256721136567525 
757	 0.256930310722581 
758	 0.257039862814295 
759	 0.257119620956484 
760	 0.2572041310428 
761	 0.257298048192155 
762	 0.257343328967439 
763	 0.257373014340435 
764	 0.257382885105667 
765	 0.257326308937164 
766	 0.257269327579654 
767	 0.257209625217599 
768	 0.257131839696767 
769	 0.257026717479942 
770	 0.256868043111319 
771	 0.256688086195328 
772	 0.256526533892885 
773	 0.256347780534706 
774	 0.25610034680774 
775	 0.255790684702046 
776	 0.255476838338459 
777	 0.255220132049081 
778	 0.254986836510242 
779	 0.254721884766588 
780	 0.254364095890617 
781	 0.253969416548106 
782	 0.253603436858784 
783	 0.253294903325845 
784	 0.252940076954655 
785	 0.252611439227145 
786	 0.252271464178931 
787	 0.251838659567873 
788	 0.251402032604736 
789	 0.250962500885814 
790	 0.250524443497909 
791	 0.250105593142475 
792	 0.249751981402663 
793	 0.249358529708283 
794	 0.248871521467619 
795	 0.248431612051637 
796	 0.248020857619094 
797	 0.247615118959294 
798	 0.247184347582457 
799	 0.246707613614637 
800	 0.246232695723007 
801	 0.245770068867885 
802	 0.245301291918224 
803	 0.2448479515022 
804	 0.244400946839737 
805	 0.243953265919842 
806	 0.243506386271945 
807	 0.243099214055302 
808	 0.242704865355519 
809	 0.242289999134504 
810	 0.241847036554013 
811	 0.24149186677442 
812	 0.241143221424639 
813	 0.240673705460618 
814	 0.240246813316108 
815	 0.239858185491121 
816	 0.239494465238371 
817	 0.239143088097916 
818	 0.238804380869612 
819	 0.238466310229352 
820	 0.238121091026113 
821	 0.237769076951707 
822	 0.237462674069429 
823	 0.237179519002444 
824	 0.236888261090159 
825	 0.236602863866645 
826	 0.23628849755264 
827	 0.235991253015554 
828	 0.235777212189858 
829	 0.23560227348383 
830	 0.235400286164139 
831	 0.235149662321987 
832	 0.234877089859771 
833	 0.234644638736237 
834	 0.234473555061021 
835	 0.234336499190913 
836	 0.234147904752041 
837	 0.233969091275767 
838	 0.233818662631565 
839	 0.233703922631577 
840	 0.233634321513706 
841	 0.233562841495493 
842	 0.233472436044978 
843	 0.233370113328474 
844	 0.233305379245232 
845	 0.233218408084337 
846	 0.233130688522075 
847	 0.233114282403929 
848	 0.233104525296993 
849	 0.233080774002715 
850	 0.233048610997895 
851	 0.233040565824086 
852	 0.233118470652977 
853	 0.233198151279998 
854	 0.233228641639971 
855	 0.233294614664268 
856	 0.233386632985753 
857	 0.233490847997599 
858	 0.233597156507422 
859	 0.233721450733289 
860	 0.233870840967862 
861	 0.234052558207642 
862	 0.234262284445336 
863	 0.234440092276629 
864	 0.234617738733179 
865	 0.234829670348465 
866	 0.235097541496563 
867	 0.235356913806138 
868	 0.235614642872386 
869	 0.235888872026182 
870	 0.236197714876709 
871	 0.236570986110904 
872	 0.236954408081912 
873	 0.237297665807107 
874	 0.237596472777139 
875	 0.237975263424969 
876	 0.238403079322757 
877	 0.238820156949738 
878	 0.23926280891231 
879	 0.239724269890626 
880	 0.240171877098428 
881	 0.240584602510971 
882	 0.241065558271279 
883	 0.241568035267272 
884	 0.242076662386625 
885	 0.242608571634951 
886	 0.243173977956456 
887	 0.24373065370486 
888	 0.244289258295597 
889	 0.244918629008078 
890	 0.245556407450854 
891	 0.246135968628065 
892	 0.246681788464708 
893	 0.247364136158225 
894	 0.248061822814757 
895	 0.248740594676469 
896	 0.24939691722849 
897	 0.250041762179749 
898	 0.25074114286061 
899	 0.251495191048717 
900	 0.252269763914943 
901	 0.253007665567694 
902	 0.253766178539458 
903	 0.254560647143749 
904	 0.255372181002952 
905	 0.256138049008061 
906	 0.256915773183511 
907	 0.257747396461081 
908	 0.258640857063695 
909	 0.259494332060985 
910	 0.260406533458522 
911	 0.261388316866356 
912	 0.262346583002772 
913	 0.263287051644753 
914	 0.264206510604923 
915	 0.265121536366669 
916	 0.266072613899202 
917	 0.267049256495717 
918	 0.268108953222938 
919	 0.269253904792609 
920	 0.27036921882657 
921	 0.271438499686844 
922	 0.272521433883157 
923	 0.273656225070665 
924	 0.274765357055372 
925	 0.27595619686579 
926	 0.277194688993169 
927	 0.278422490094518 
928	 0.279676481403823 
929	 0.280850939824166 
930	 0.282028233149428 
931	 0.283317293367452 
932	 0.284571590541599 
933	 0.285881497786636 
934	 0.287218421484673 
935	 0.288520598344385 
936	 0.289932159261022 
937	 0.291326546043198 
938	 0.292657059703779 
939	 0.293969547604983 
940	 0.295429178324735 
941	 0.296929386802509 
942	 0.298419581539912 
943	 0.29991703806045 
944	 0.301371845452887 
945	 0.30277699634735 
946	 0.304178715964254 
947	 0.305656564700153 
948	 0.307113308864388 
949	 0.308628092454903 
950	 0.310178856560386 
951	 0.311607814072761 
952	 0.313065189406194 
953	 0.314617009352338 
954	 0.316214357906467 
955	 0.317681343480142 
956	 0.319157355862477 
957	 0.320712705365644 
958	 0.32237161371797 
959	 0.324101495590579 
960	 0.325618685308494 
961	 0.327086833693349 
962	 0.32865767047092 
963	 0.330228369989618 
964	 0.331755756581847 
965	 0.333315515606983 
966	 0.334954815373893 
967	 0.336586063809486 
968	 0.338204313422042 
969	 0.33984354659135 
970	 0.341501429812878 
971	 0.343055864896302 
972	 0.344599200711186 
973	 0.346224406595305 
974	 0.347939151371183 
975	 0.349525907573053 
976	 0.351187616748009 
977	 0.352911761612304 
978	 0.354621292737544 
979	 0.35626897970138 
980	 0.357960291741634 
981	 0.359655152441222 
982	 0.361319862577612 
983	 0.363121299187003 
984	 0.364849387901971 
985	 0.366472817721144 
986	 0.368078856500063 
987	 0.369896505533767 
988	 0.371676322345397 
989	 0.373375891221362 
990	 0.375039375032392 
991	 0.3767107686159 
992	 0.378375013387651 
993	 0.380007548193528 
994	 0.381631369067424 
995	 0.383444699676204 
996	 0.385149282950977 
997	 0.386782972466472 
998	 0.388466443562391 
999	 0.390147570309437 
1000	 0.391808767026722 
1001	 0.405234146482794 
1002	 0.40693241636249 
1003	 0.408639834935648 
1004	 0.410289761920457 
1005	 0.411903431797712 
1006	 0.413539478582781 
1007	 0.415119252283129 
1008	 0.416779092388373 
1009	 0.418498291418817 
1010	 0.42015748807038 
1011	 0.421858499973917 
1012	 0.423489681380635 
1013	 0.425033181335733 
1014	 0.426624280800522 
1015	 0.42821196415932 
1016	 0.429778869602152 
1017	 0.431418235684721 
1018	 0.432995985869848 
1019	 0.434587372540262 
1020	 0.436192628192526 
1021	 0.437706173220332 
1022	 0.439148663367147 
1023	 0.440630094327994 
1024	 0.442047593782476 
1025	 0.443532417093996 
1026	 0.445091873603941 
1027	 0.446574202862494 
1028	 0.448055011988972 
1029	 0.449533184731639 
1030	 0.45088043941228 
1031	 0.452298438611316 
1032	 0.453696431239105 
1033	 0.455017776688863 
1034	 0.456406734688057 
1035	 0.457749586973866 
1036	 0.459104017263127 
1037	 0.460495403300674 
1038	 0.461826737657065 
1039	 0.463132254797788 
1040	 0.464439316752307 
1041	 0.465676408042751 
1042	 0.466984715710846 
1043	 0.468345110149673 
1044	 0.469647935309891 
1045	 0.471004672751691 
1046	 0.472374875685487 
1047	 0.473601796100634 
1048	 0.474870549145028 
1049	 0.476079050286933 
1050	 0.477296544592446 
1051	 0.478657377664096 
1052	 0.479949875487944 
1053	 0.481255742544163 
1054	 0.4826568507409 
1055	 0.483921943843325 
1056	 0.485079486282982 
1057	 0.486304896523649 
1058	 0.487492755792216 
1059	 0.488669105370074 
1060	 0.490010674358023 
1061	 0.491300813497418 
1062	 0.492618717465201 
1063	 0.493974525957242 
1064	 0.495200134903242 
1065	 0.496436834255224 
1066	 0.497624751899936 
1067	 0.498810482997142 
1068	 0.500070416482486 
1069	 0.501275125271251 
1070	 0.502516905260018 
1071	 0.503812968174608 
1072	 0.505073016962582 
1073	 0.506236975224403 
1074	 0.507475385994191 
1075	 0.508644340844329 
1076	 0.509769208368355 
1077	 0.510996792914646 
1078	 0.512155252010031 
1079	 0.513321520561736 
1080	 0.514516916867437 
1081	 0.515610014577552 
1082	 0.516746837086993 
1083	 0.517857069636168 
1084	 0.518933810738171 
1085	 0.520101876247214 
1086	 0.521230426108244 
1087	 0.522327967093236 
1088	 0.523463379496311 
1089	 0.524623693698954 
1090	 0.525646085961652 
1091	 0.526678343288697 
1092	 0.527721533816895 
1093	 0.528728777943827 
1094	 0.52980651793618 
1095	 0.530857195598036 
1096	 0.531872350326986 
1097	 0.532887276599487 
1098	 0.533836960341738 
1099	 0.534811024416487 
1100	 0.535758795917394 
1101	 0.536656254681468 
1102	 0.537630576175385 
1103	 0.538570980935131 
1104	 0.539492834517607 
1105	 0.540417225755155 
1106	 0.541382243449405 
1107	 0.54226876063412 
1108	 0.543141696174105 
1109	 0.544005157064746 
1110	 0.544861100119488 
1111	 0.545739636293913 
1112	 0.546575938622432 
1113	 0.547437795227724 
1114	 0.548298800017349 
1115	 0.549062713982922 
1116	 0.549862296359132 
1117	 0.550667135644596 
1118	 0.551450199444881 
1119	 0.552244549523401 
1120	 0.553000792188392 
1121	 0.553726798598217 
1122	 0.554438861241314 
1123	 0.555172066525103 
1124	 0.555828708557716 
1125	 0.556511131581858 
1126	 0.557178674349543 
1127	 0.557777844210779 
1128	 0.558409057232861 
1129	 0.55902700253695 
1130	 0.559623550352605 
1131	 0.560229236907869 
1132	 0.560779154040966 
1133	 0.56130176449251 
1134	 0.561832442842411 
1135	 0.562323711159018 
1136	 0.562778491309922 
1137	 0.563230648884959 
1138	 0.563664460480634 
1139	 0.564075638902597 
1140	 0.564471447157469 
1141	 0.56485266897046 
1142	 0.565223134737488 
1143	 0.565575313770062 
1144	 0.565917729902101 
1145	 0.566260358100584 
1146	 0.566556630635668 
1147	 0.566842664086996 
1148	 0.567127167653527 
1149	 0.567376704331937 
1150	 0.567618441051818 
1151	 0.56785580065975 
1152	 0.568085581182178 
1153	 0.568306735941389 
1154	 0.568510236279062 
1155	 0.568716998362611 
1156	 0.568892833264604 
1157	 0.56903736696057 
1158	 0.569177473600335 
1159	 0.569304873819444 
1160	 0.569410484484787 
1161	 0.569524398064591 
1162	 0.569630128599566 
1163	 0.569714123401711 
1164	 0.569815448399915 
1165	 0.569904818784749 
1166	 0.569969996476298 
1167	 0.570040985135541 
1168	 0.570083895049974 
1169	 0.570116452084841 
1170	 0.570122470272312 
1171	 0.570140027314942 
1172	 0.570157278918666 
1173	 0.570162209117972 
1174	 0.570175134503385 
1175	 0.570154625901564 
1176	 0.570106322260989 
1177	 0.570058670809564 
1178	 0.569998227205173 
1179	 0.569921112962729 
1180	 0.569844124303206 
1181	 0.569762589404381 
1182	 0.569662244350318 
1183	 0.569584910829584 
1184	 0.569539170627488 
1185	 0.569493155283695 
1186	 0.569463311613873 
1187	 0.569448123450817 
1188	 0.569456397295798 
1189	 0.569480286138539 
1190	 0.569512529907728 
1191	 0.569564683721443 
1192	 0.569632329630038 
1193	 0.569697682190282 
1194	 0.569797060826895 
1195	 0.569920854913594 
1196	 0.570069946048975 
1197	 0.570232901566751 
1198	 0.57043827602271 
1199	 0.570675099651036 
1200	 0.570918783148263 
1201	 0.571205840928188 
1202	 0.571484804405194 
1203	 0.571767930345992 
1204	 0.572129068714928 
1205	 0.57252268818167 
1206	 0.572937086668821 
1207	 0.573434741536902 
1208	 0.573971434283242 
1209	 0.574601789929757 
1210	 0.575291794296919 
1211	 0.576076326004481 
1212	 0.576987287019079 
1213	 0.57791551524319 
1214	 0.578902386534145 
1215	 0.579955509613022 
1216	 0.581063523933327 
1217	 0.582201871789519 
1218	 0.583419440895729 
1219	 0.584658562826549 
1220	 0.585892458844875 
1221	 0.587217875679775 
1222	 0.588494022250937 
1223	 0.589782056557284 
1224	 0.591029166934426 
1225	 0.592254988204596 
1226	 0.593425088605463 
1227	 0.594575856289601 
1228	 0.595670364857024 
1229	 0.596730396126796 
1230	 0.59771829645813 
1231	 0.598646632442004 
1232	 0.59954386213871 
1233	 0.600357101433898 
1234	 0.601158237951818 
1235	 0.60193810700949 
1236	 0.602685939998579 
1237	 0.603389588051506 
1238	 0.604084997143833 
1239	 0.604763624122535 
1240	 0.605413537948939 
1241	 0.606065043281608 
1242	 0.606654574786437 
1243	 0.607225210515109 
1244	 0.607759711879226 
1245	 0.608292953649268 
1246	 0.608802946776685 
1247	 0.60929723627769 
1248	 0.609777988349416 
1249	 0.610249772117385 
1250	 0.610704040994127 
1251	 0.611136377351294 
1252	 0.611555396681487 
1253	 0.611969130047398 
1254	 0.612367046086728 
1255	 0.61274501917182 
1256	 0.613120426827558 
1257	 0.613476932596014 
1258	 0.613807001129602 
1259	 0.614120268950085 
1260	 0.614416429920762 
1261	 0.614706287042541 
1262	 0.614973579351106 
1263	 0.615236301366008 
1264	 0.615489971557464 
1265	 0.615730131084043 
1266	 0.615995477647506 
1267	 0.616261068051122 
1268	 0.616522914660778 
1269	 0.616801964697252 
1270	 0.617071937852026 
1271	 0.6173269919326 
1272	 0.617588745538083 
1273	 0.617866519917171 
1274	 0.618125704212005 
1275	 0.618383086736892 
1276	 0.618614415801412 
1277	 0.618805054444606 
1278	 0.619032461631489 
1279	 0.619248446153046 
1280	 0.619484482391611 
1281	 0.619752975278884 
1282	 0.620023555572399 
1283	 0.620304367703234 
1284	 0.620577999241137 
1285	 0.620853392053374 
1286	 0.621133801624129 
1287	 0.621427041973923 
1288	 0.621723434464857 
1289	 0.622010662721318 
1290	 0.622310431304943 
1291	 0.622601033757216 
1292	 0.622873561921425 
1293	 0.623153888749291 
1294	 0.623442149195014 
1295	 0.623728020990015 
1296	 0.624005865855938 
1297	 0.624288706435184 
1298	 0.624586454106842 
1299	 0.624865619783197 
1300	 0.625144344894851 
1301	 0.625402261197522 
1302	 0.625639092652645 
1303	 0.625877672668767 
1304	 0.626109796259146 
1305	 0.626328460156025 
1306	 0.626536567527492 
1307	 0.62674501000025 
1308	 0.62694642795975 
1309	 0.627136233124444 
1310	 0.627323285999059 
1311	 0.627514538351534 
1312	 0.627688174353237 
1313	 0.627849541140044 
1314	 0.628000846003126 
1315	 0.628148059179995 
1316	 0.628275354005475 
1317	 0.628383957683836 
1318	 0.628488756436089 
1319	 0.628588116490906 
1320	 0.628666481037801 
1321	 0.628727571608581 
1322	 0.628787058633713 
1323	 0.628838105449562 
1324	 0.628870888496161 
1325	 0.628905027576035 
1326	 0.628911920739755 
1327	 0.628880412457816 
1328	 0.628857995610045 
1329	 0.628847999045896 
1330	 0.628797770519799 
1331	 0.628754120759388 
1332	 0.628656518839294 
1333	 0.628519574200626 
1334	 0.628332092125445 
1335	 0.628140229988248 
1336	 0.627912008761037 
1337	 0.62768740731315 
1338	 0.627449246852867 
1339	 0.627207230590594 
1340	 0.62696702202958 
1341	 0.626686457632102 
1342	 0.626389653476151 
1343	 0.626070832862645 
1344	 0.625731492807193 
1345	 0.625353845157393 
1346	 0.624950365616541 
1347	 0.624531604292124 
1348	 0.624088697045303 
1349	 0.623606057062895 
1350	 0.62308391953179 
1351	 0.622571819628127 
1352	 0.622010216599973 
1353	 0.621475902770648 
1354	 0.620960367500871 
1355	 0.620448954854639 
1356	 0.619950667258944 
1357	 0.619435258389301 
1358	 0.618918895433336 
1359	 0.618400437871277 
1360	 0.617874425054184 
1361	 0.61733595401407 
1362	 0.616796448257698 
1363	 0.616279849172522 
1364	 0.615708364105841 
1365	 0.615123083770578 
1366	 0.6144926181812 
1367	 0.613819992654639 
1368	 0.613142547702929 
1369	 0.61244181353967 
1370	 0.611715639175035 
1371	 0.61097260920219 
1372	 0.610215876537238 
1373	 0.609430440342205 
1374	 0.608632356830583 
1375	 0.607827366700744 
1376	 0.606988078430615 
1377	 0.606124832159967 
1378	 0.60522462914878 
1379	 0.604281150877343 
1380	 0.60333788828746 
1381	 0.602379645470187 
1382	 0.601385884140269 
1383	 0.600341988837672 
1384	 0.59934010837626 
1385	 0.598306174282541 
1386	 0.597321396409787 
1387	 0.596386048645837 
1388	 0.59547508146132 
1389	 0.594593760837468 
1390	 0.593721250153592 
1391	 0.592907144724953 
1392	 0.592046088137617 
1393	 0.591223286538919 
1394	 0.590354699170323 
1395	 0.589417493838552 
1396	 0.588470830425878 
1397	 0.587405406109531 
1398	 0.586278939023203 
1399	 0.585017548728766 
1400	 0.583665339402011 
1401	 0.58219874917862 
1402	 0.580605344612289 
1403	 0.57892735526533 
1404	 0.577126244827709 
1405	 0.575316388650896 
1406	 0.573398711387417 
1407	 0.57150463107748 
1408	 0.569524629206929 
1409	 0.567663956420186 
1410	 0.565771074741708 
1411	 0.564033094227132 
1412	 0.562374008302752 
1413	 0.560869397331654 
1414	 0.559482845126658 
1415	 0.558201165506649 
1416	 0.557068530857804 
1417	 0.556005171912644 
1418	 0.555062087313023 
1419	 0.554148824981321 
1420	 0.553327010356203 
1421	 0.552540767186831 
1422	 0.551791228897604 
1423	 0.551084596147449 
1424	 0.550446371680794 
1425	 0.549812939462295 
1426	 0.549216510563377 
1427	 0.548685675680504 
1428	 0.548200545456199 
1429	 0.54777637890298 
1430	 0.547407582639724 
1431	 0.547098870688308 
1432	 0.546838197774297 
1433	 0.546633439170313 
1434	 0.546471636300375 
1435	 0.546368531516913 
1436	 0.546285573818605 
1437	 0.546246862462821 
1438	 0.546231390332741 
1439	 0.546247803216613 
1440	 0.546288749022524 
1441	 0.546360851963468 
1442	 0.546455658384643 
1443	 0.546565610728072 
1444	 0.54672063771242 
1445	 0.546918665371915 
1446	 0.547128891027353 
1447	 0.547382979956162 
1448	 0.547632505445433 
1449	 0.547894213829958 
1450	 0.54816362909296 
1451	 0.548452218406439 
1452	 0.548731651261158 
1453	 0.549014173343226 
1454	 0.549295599857151 
1455	 0.549569441956481 
1456	 0.549851994253761 
1457	 0.550140221046235 
1458	 0.550430359288995 
1459	 0.550730517302995 
1460	 0.551024628270042 
1461	 0.551310352019673 
1462	 0.551606267788048 
1463	 0.551898906286679 
1464	 0.552201650888722 
1465	 0.552506645887591 
1466	 0.552842220107196 
1467	 0.553154355416014 
1468	 0.553477355387397 
1469	 0.553825879260927 
1470	 0.554158072336804 
1471	 0.554490901912579 
1472	 0.554836594649288 
1473	 0.555165368570371 
1474	 0.555482962145724 
1475	 0.555788901872548 
1476	 0.556092916036733 
1477	 0.556382222380054 
1478	 0.556659438870413 
1479	 0.556908483846105 
1480	 0.557143698674443 
1481	 0.557364310353575 
1482	 0.557550844166713 
1483	 0.557745353408398 
1484	 0.557942605316752 
1485	 0.55811954436905 
1486	 0.558279084774658 
1487	 0.558437186350379 
1488	 0.558569095238597 
1489	 0.558732701312095 
1490	 0.558909475419412 
1491	 0.559081512469189 
1492	 0.559270383637045 
1493	 0.559449519317063 
1494	 0.559615523350613 
1495	 0.559791100809113 
1496	 0.559953822154689 
1497	 0.560156765681255 
1498	 0.560381637202592 
1499	 0.560611608379684 
1500	 0.56087329869868 
1501	 0.561131567528675 
1502	 0.561395624215391 
1503	 0.561653163217015 
1504	 0.561915648265178 
1505	 0.562179365222233 
1506	 0.562436299127355 
1507	 0.562695451019617 
1508	 0.562954494987776 
1509	 0.5632247104161 
1510	 0.563498155828403 
1511	 0.563772740034718 
1512	 0.564064368189422 
1513	 0.564347437204051 
1514	 0.564625405750899 
1515	 0.564902251994307 
1516	 0.565179895679756 
1517	 0.565451714476423 
1518	 0.565710384092794 
1519	 0.565977190955379 
1520	 0.566249208407507 
1521	 0.566516970449761 
1522	 0.566760843488451 
1523	 0.567042901650469 
1524	 0.567319454162335 
1525	 0.567589228127769 
1526	 0.567879441908562 
1527	 0.568192340038518 
1528	 0.568494396082902 
1529	 0.568795271997882 
1530	 0.569106116579525 
1531	 0.56942904437963 
1532	 0.569735102818154 
1533	 0.570040838529427 
1534	 0.570342500219691 
1535	 0.570635394850542 
1536	 0.570922244907348 
1537	 0.571212596521636 
1538	 0.571485925311235 
1539	 0.571744885047536 
1540	 0.571998623242038 
1541	 0.572245254303793 
1542	 0.57248304166578 
1543	 0.572715778160464 
1544	 0.572927624161109 
1545	 0.573138739270824 
1546	 0.573307685392195 
1547	 0.573441518609005 
1548	 0.573572338337009 
1549	 0.573680130904926 
1550	 0.57377396418347 
1551	 0.573867130446199 
1552	 0.573921349264605 
1553	 0.573923767881777 
1554	 0.573958926854429 
1555	 0.573974132974985 
1556	 0.574018694204195 
1557	 0.574084245108478 
1558	 0.574159168888885 
1559	 0.574253485067557 
1560	 0.574338041191118 
1561	 0.574431997496361 
1562	 0.574524356537116 
1563	 0.574599330416493 
1564	 0.574702575954996 
1565	 0.574818932638996 
1566	 0.57494976314001 
1567	 0.575089457331722 
1568	 0.575256131565878 
1569	 0.575454340957595 
1570	 0.57564463950811 
1571	 0.575863884545196 
1572	 0.576058825185612 
1573	 0.576239418641816 
1574	 0.57642097409667 
1575	 0.576603861526057 
1576	 0.576770379828225 
1577	 0.576933001670135 
1578	 0.577079097578711 
1579	 0.57718239456537 
1580	 0.577327178680201 
1581	 0.577483885618445 
1582	 0.577642137053117 
1583	 0.577834516690735 
1584	 0.578003578980476 
1585	 0.5781695128157 
1586	 0.578312324686983 
1587	 0.578429700293704 
1588	 0.578559156000731 
1589	 0.578658519659517 
1590	 0.578792969544726 
1591	 0.578956526572312 
1592	 0.579117907720386 
1593	 0.579311169734177 
1594	 0.579470472359783 
1595	 0.579613853129454 
1596	 0.579756198385022 
1597	 0.579880912252587 
1598	 0.58000453334643 
1599	 0.580132618581861 
1600	 0.580248407309758 
1601	 0.580339074424566 
1602	 0.580448063414969 
1603	 0.580559706127166 
1604	 0.580677265977308 
1605	 0.580816599053345 
1606	 0.580936628462793 
1607	 0.581059994399387 
1608	 0.581160431742776 
1609	 0.581244413233839 
1610	 0.581316079155962 
1611	 0.581374640511696 
1612	 0.581412854653039 
1613	 0.581427835000027 
1614	 0.581440171033413 
1615	 0.581431714366781 
1616	 0.581425685805669 
1617	 0.581424352897994 
1618	 0.5814076427777 
1619	 0.581378621492821 
1620	 0.581344501104708 
1621	 0.581311688687512 
1622	 0.581252276262709 
1623	 0.581174251273695 
1624	 0.581091463705116 
1625	 0.580990509076899 
1626	 0.580876936900748 
1627	 0.580748109475525 
1628	 0.580623853761463 
1629	 0.580484626250468 
1630	 0.580351771842722 
1631	 0.580222430084288 
1632	 0.580098097470527 
1633	 0.57997760473558 
1634	 0.57985296407529 
1635	 0.579732775290586 
1636	 0.579614163427673 
1637	 0.57949863626359 
1638	 0.579368420408212 
1639	 0.579243357589043 
1640	 0.579099642852296 
1641	 0.578942570475939 
1642	 0.578764656088452 
1643	 0.578563860795338 
1644	 0.578362784335633 
1645	 0.578158578882044 
1646	 0.577926891588472 
1647	 0.577694601820049 
1648	 0.577420209756041 
1649	 0.577115598625757 
1650	 0.576770905112952 
1651	 0.576376778687914 
1652	 0.575983153737405 
1653	 0.575566811083055 
1654	 0.57512016177376 
1655	 0.574674301710634 
1656	 0.57417282035906 
1657	 0.57364564040203 
1658	 0.573040149975626 
1659	 0.572384114480987 
1660	 0.571670624414189 
1661	 0.570899345918387 
1662	 0.570041772786611 
1663	 0.569119743211054 
1664	 0.568111486207836 
1665	 0.567019839755917 
1666	 0.56583353489289 
1667	 0.564564677170725 
1668	 0.563226194012337 
1669	 0.561806400707201 
1670	 0.560285875698799 
1671	 0.558670670192175 
1672	 0.556975949342072 
1673	 0.555199004963856 
1674	 0.553294946566072 
1675	 0.551305763636906 
1676	 0.549242139638615 
1677	 0.547030347796629 
1678	 0.544799650925657 
1679	 0.542482685823354 
1680	 0.540152109547275 
1681	 0.537793916346224 
1682	 0.535344626323053 
1683	 0.532849656540308 
1684	 0.530342781371009 
1685	 0.527761978536008 
1686	 0.525154146918071 
1687	 0.522509593084134 
1688	 0.519836370935671 
1689	 0.51710627867729 
1690	 0.514357251276895 
1691	 0.511620768090081 
1692	 0.508874491886265 
1693	 0.506108720660055 
1694	 0.503278623865473 
1695	 0.500415514224138 
1696	 0.497484529152073 
1697	 0.49446464239776 
1698	 0.491420479863398 
1699	 0.488337159427182 
1700	 0.485326715361144 
1701	 0.482249860863825 
1702	 0.479336002337332 
1703	 0.476443696154218 
1704	 0.473757467357187 
1705	 0.471197258499543 
1706	 0.468734778662881 
1707	 0.466556089654077 
1708	 0.464482379514284 
1709	 0.462536050393166 
1710	 0.460724537344366 
1711	 0.458936902869379 
1712	 0.457273234411766 
1713	 0.455617139159071 
1714	 0.453980582710388 
1715	 0.452514081442783 
1716	 0.451024133240523 
1717	 0.449588375401733 
1718	 0.448281167913743 
1719	 0.44700639158431 
1720	 0.445866376480478 
1721	 0.444868494933631 
1722	 0.444010589920445 
1723	 0.443402819613811 
1724	 0.443025844541033 
1725	 0.442875201975806 
1726	 0.443069529904854 
1727	 0.443553724697655 
1728	 0.444267004883139 
1729	 0.445295829433289 
1730	 0.446598705700356 
1731	 0.448030334317996 
1732	 0.449680461321178 
1733	 0.451380165033878 
1734	 0.453044253120455 
1735	 0.454715701572139 
1736	 0.456232557761455 
1737	 0.457588142200358 
1738	 0.458756471856853 
1739	 0.459681326939352 
1740	 0.46038947386479 
1741	 0.460918215161166 
1742	 0.461180261160714 
1743	 0.461362215672277 
1744	 0.461344143780609 
1745	 0.461279499549966 
1746	 0.461054555805464 
1747	 0.460883980929737 
1748	 0.460631552263063 
1749	 0.460471618989701 
1750	 0.460328046256877 
1751	 0.460274125506669 
1752	 0.460244860680485 
1753	 0.460364412631606 
1754	 0.460572042295756 
1755	 0.460918830767462 
1756	 0.461373654146356 
1757	 0.461980477215116 
1758	 0.462806324992218 
1759	 0.463771498769449 
1760	 0.464931860620674 
1761	 0.466308039827393 
1762	 0.467738951472628 
1763	 0.469367646262107 
1764	 0.471137777477221 
1765	 0.472973340923612 
1766	 0.474975930517361 
1767	 0.476954823119753 
1768	 0.478966689896258 
1769	 0.481003962584568 
1770	 0.482842730352681 
1771	 0.484645148676782 
1772	 0.48635681271712 
1773	 0.487903081666329 
1774	 0.489450474474162 
1775	 0.490847205167433 
1776	 0.492109524238504 
1777	 0.493266518565537 
1778	 0.49423082591939 
1779	 0.495134711721631 
1780	 0.49595638110206 
1781	 0.496638793121825 
1782	 0.497281793103306 
1783	 0.497846535369884 
1784	 0.498337048197653 
1785	 0.498778809356192 
1786	 0.499179980992205 
1787	 0.499516543553385 
1788	 0.499822662905434 
1789	 0.500094128169082 
1790	 0.500343429642184 
1791	 0.500549948055739 
1792	 0.500745782261895 
1793	 0.500904428504004 
1794	 0.501057906341993 
1795	 0.501195057955528 
1796	 0.501338639517884 
1797	 0.501504371806735 
1798	 0.501668990336689 
1799	 0.501849711679244 
1800	 0.502051998791703 
1801	 0.486507213000022 
1802	 0.486708673792488 
1803	 0.486931469820931 
1804	 0.487158581968619 
1805	 0.487406277196173 
1806	 0.487634304600122 
1807	 0.487876076680409 
1808	 0.48811033219045 
1809	 0.488313465477032 
1810	 0.488547511588414 
1811	 0.488800861850858 
1812	 0.489059410135497 
1813	 0.489322893643715 
1814	 0.48960829616011 
1815	 0.489885652163399 
1816	 0.490173886432883 
1817	 0.490476522436813 
1818	 0.490784687500035 
1819	 0.491101463620049 
1820	 0.491436708167556 
1821	 0.491775030567342 
1822	 0.492115684831182 
1823	 0.49247705495927 
1824	 0.492831148849764 
1825	 0.493175032040968 
1826	 0.493500015610673 
1827	 0.493801024915185 
1828	 0.494108981982705 
1829	 0.494409360679076 
1830	 0.494706416841406 
1831	 0.494990260886888 
1832	 0.495299028170888 
1833	 0.495594528196063 
1834	 0.495906889459629 
1835	 0.496231134130622 
1836	 0.496517048045449 
1837	 0.496818341464531 
1838	 0.497112687878979 
1839	 0.497409066621516 
1840	 0.497722325009893 
1841	 0.4980225008058 
1842	 0.498314022567399 
1843	 0.498600603548684 
1844	 0.498897594937234 
1845	 0.49916314732448 
1846	 0.499433595209961 
1847	 0.499684647502927 
1848	 0.499917363920611 
1849	 0.50015436884964 
1850	 0.500334729002742 
1851	 0.500481710637444 
1852	 0.500607784146071 
1853	 0.500695325176467 
1854	 0.500740152369703 
1855	 0.500778723294055 
1856	 0.500796567445906 
1857	 0.500771154971432 
1858	 0.500697765629629 
1859	 0.50058487489419 
1860	 0.500435634133206 
1861	 0.500229209814554 
1862	 0.499969299773905 
1863	 0.499693132398951 
1864	 0.499360917843632 
1865	 0.498973919287429 
1866	 0.4985328377795 
1867	 0.497995333927793 
1868	 0.49740829363572 
1869	 0.496748270811883 
1870	 0.496022782849144 
1871	 0.495276520293487 
1872	 0.49441619424691 
1873	 0.493466569463105 
1874	 0.492459109599861 
1875	 0.491357066820991 
1876	 0.490090247442883 
1877	 0.48882704274459 
1878	 0.487400003285945 
1879	 0.485800097221435 
1880	 0.484182800612848 
1881	 0.482361993653428 
1882	 0.480360239810423 
1883	 0.478229146399929 
1884	 0.47593195624032 
1885	 0.473311312421379 
1886	 0.470556203441106 
1887	 0.467516871936188 
1888	 0.464201141891479 
1889	 0.460968728257604 
1890	 0.457489507756268 
1891	 0.453974917800798 
1892	 0.450461553414953 
1893	 0.446788032329986 
1894	 0.442895897806583 
1895	 0.439131833404457 
1896	 0.435289661267693 
1897	 0.431446587197338 
1898	 0.427951048201409 
1899	 0.424403623534939 
1900	 0.420966176998097 
1901	 0.417722420125463 
1902	 0.414328790461257 
1903	 0.411137862820037 
1904	 0.408073524943738 
1905	 0.405091368275132 
1906	 0.402222620675956 
1907	 0.399705927958148 
1908	 0.397220809862334 
1909	 0.394887491975007 
1910	 0.392737299997932 
1911	 0.390565966605151 
1912	 0.38858805539815 
1913	 0.386698250439484 
1914	 0.384859126894679 
1915	 0.383180223422802 
1916	 0.381672683384435 
1917	 0.380176843170963 
1918	 0.37877992691047 
1919	 0.377507509490168 
1920	 0.376242167575934 
1921	 0.375112917490467 
1922	 0.374069996883205 
1923	 0.373117195741394 
1924	 0.37231647601267 
1925	 0.371540823220433 
1926	 0.370844089486739 
1927	 0.370253057948341 
1928	 0.369690785101456 
1929	 0.369159840119768 
1930	 0.368729030544606 
1931	 0.368375513162205 
1932	 0.368074200392401 
1933	 0.367876268592417 
1934	 0.367776113436474 
1935	 0.367712377434294 
1936	 0.367707179929132 
1937	 0.367771938909829 
1938	 0.367897729549228 
1939	 0.36807509866032 
1940	 0.36831226318422 
1941	 0.368630499943231 
1942	 0.368983863455549 
1943	 0.369398581041339 
1944	 0.369837386288722 
1945	 0.370331098386554 
1946	 0.370892504746996 
1947	 0.371450564307295 
1948	 0.372078239191023 
1949	 0.372747552099923 
1950	 0.373401184481303 
1951	 0.374062612020679 
1952	 0.374750346827751 
1953	 0.375450179039771 
1954	 0.376144738652481 
1955	 0.376906381873186 
1956	 0.377635237609387 
1957	 0.378376546449591 
1958	 0.379127779997054 
1959	 0.379826887242489 
1960	 0.380560589634822 
1961	 0.381278690945538 
1962	 0.381975005096284 
1963	 0.382699816727537 
1964	 0.383441228193917 
1965	 0.384151862267627 
1966	 0.384861315762096 
1967	 0.385597874171953 
1968	 0.38625542490304 
1969	 0.386943243626438 
1970	 0.387634281819655 
1971	 0.388291217001307 
1972	 0.388990281940026 
1973	 0.389674869385374 
1974	 0.390354306468122 
1975	 0.391055214272317 
1976	 0.3917149891719 
1977	 0.392346206295962 
1978	 0.3929783627142 
1979	 0.39358986074974 
1980	 0.394191764360864 
1981	 0.394829406880054 
1982	 0.395436397087336 
1983	 0.396057150599616 
1984	 0.396673369583202 
1985	 0.397221619142565 
1986	 0.397776937694053 
1987	 0.39832295853238 
1988	 0.398848187085805 
1989	 0.399367485184207 
1990	 0.399893806089163 
1991	 0.400390161446086 
1992	 0.400867702919256 
1993	 0.401334539851698 
1994	 0.401760405006619 
1995	 0.40217522642515 
1996	 0.40257045529595 
1997	 0.402939372570004 
1998	 0.40330189293895 
1999	 0.403660656233174 
2000	 0.40397969799581 
2001	 0.404271765721206 
2002	 0.404553207083955 
2003	 0.404818427159173 
2004	 0.405060777734824 
2005	 0.405281601857972 
2006	 0.405484764150935 
2007	 0.405676968096681 
2008	 0.405820890822728 
2009	 0.405935326215709 
2010	 0.406052366230359 
2011	 0.406113918082851 
2012	 0.406104633527264 
2013	 0.406060098547915 
2014	 0.405982486944799 
2015	 0.405839503109639 
2016	 0.405650497879055 
2017	 0.405397295452815 
2018	 0.405080450449758 
2019	 0.404709765279649 
2020	 0.40428498868182 
2021	 0.403782212248416 
2022	 0.40325596971502 
2023	 0.402661869525567 
2024	 0.401963217426333 
2025	 0.401252348000039 
2026	 0.400467744469901 
2027	 0.399561980155344 
2028	 0.398712521661023 
2029	 0.397832907935527 
2030	 0.396955496966314 
2031	 0.396087736985462 
2032	 0.395209789061366 
2033	 0.3942706494871 
2034	 0.393417321220202 
2035	 0.392573562113039 
2036	 0.391774553747073 
2037	 0.391095508009076 
2038	 0.390459660511043 
2039	 0.389905625592935 
2040	 0.389435507152765 
2041	 0.389028629857228 
2042	 0.388688875599075 
2043	 0.388422330378113 
2044	 0.388239200260386 
2045	 0.388099626243291 
2046	 0.388044249564548 
2047	 0.388011596940535 
2048	 0.388031185337562 
2049	 0.388084138695959 
2050	 0.388188466842312 
2051	 0.38830495018308 
2052	 0.388451037075577 
2053	 0.388643614203806 
2054	 0.388842749455499 
2055	 0.389070128445061 
2056	 0.389295505578808 
2057	 0.389529379339008 
2058	 0.389788403457772 
2059	 0.390064581418752 
2060	 0.390347410586224 
2061	 0.390675447644184 
2062	 0.390969579562726 
2063	 0.391238333542531 
2064	 0.391528303141139 
2065	 0.39182671541223 
2066	 0.392113802474427 
2067	 0.392422598447051 
2068	 0.392698397919602 
2069	 0.392958129851015 
2070	 0.393193989594488 
2071	 0.393428023996553 
2072	 0.393655961857723 
2073	 0.393863849738257 
2074	 0.394069495449598 
2075	 0.394229344576064 
2076	 0.394349227969156 
2077	 0.394462726954968 
2078	 0.394537291337243 
2079	 0.39462340394948 
2080	 0.394723485870984 
2081	 0.394789026198753 
2082	 0.394832580249286 
2083	 0.394865134825101 
2084	 0.394893233717425 
2085	 0.394896573445456 
2086	 0.394889536036308 
2087	 0.39488654905395 
2088	 0.394847395235631 
2089	 0.394775088842611 
2090	 0.394698871226008 
2091	 0.394601164454661 
2092	 0.394501109781969 
2093	 0.394401293414844 
2094	 0.394269205888585 
2095	 0.39411509748574 
2096	 0.393956050006937 
2097	 0.39377572193214 
2098	 0.393577715715708 
2099	 0.393396285508807 
2100	 0.393199415074077 
2101	 0.392973336031847 
2102	 0.392734547086877 
2103	 0.392465800535908 
2104	 0.392158053017105 
2105	 0.391853591882838 
2106	 0.391539628072724 
2107	 0.391198253007926 
2108	 0.390860194434097 
2109	 0.390467216146126 
2110	 0.390025519746239 
2111	 0.389575421500557 
2112	 0.38907626287917 
2113	 0.38858290602 
2114	 0.388095005296028 
2115	 0.38757326012772 
2116	 0.387013030633551 
2117	 0.38647125073975 
2118	 0.385916283528669 
2119	 0.385337526937738 
2120	 0.384779360753872 
2121	 0.384221787920327 
2122	 0.383678823179804 
2123	 0.383137534833489 
2124	 0.382608766658815 
2125	 0.382117926247399 
2126	 0.381590532927476 
2127	 0.381042800620473 
2128	 0.380515103227795 
2129	 0.379970161478613 
2130	 0.379442429574248 
2131	 0.378937438977894 
2132	 0.378434500888331 
2133	 0.377938388345357 
2134	 0.377451469713041 
2135	 0.376946251104408 
2136	 0.376431349143332 
2137	 0.375903233851536 
2138	 0.375327991374289 
2139	 0.374818936916814 
2140	 0.374326730840347 
2141	 0.373848653862449 
2142	 0.373403045253397 
2143	 0.37296267828511 
2144	 0.37252640351302 
2145	 0.372113263966588 
2146	 0.371728145375194 
2147	 0.371343310237513 
2148	 0.370968368780319 
2149	 0.370604212041784 
2150	 0.370253679878488 
2151	 0.369904967967964 
2152	 0.369551611254967 
2153	 0.369239602374507 
2154	 0.368903499354732 
2155	 0.368568693969516 
2156	 0.368222340562857 
2157	 0.367865385605396 
2158	 0.367506627045814 
2159	 0.367139141493465 
2160	 0.366782289672437 
2161	 0.366427963528801 
2162	 0.366074809941277 
2163	 0.365718701360049 
2164	 0.365373186234842 
2165	 0.365009485601915 
2166	 0.364699399170379 
2167	 0.364412973399028 
2168	 0.364152001113204 
2169	 0.363928924558468 
2170	 0.363723173212866 
2171	 0.36352563505394 
2172	 0.363373866528131 
2173	 0.363263732875846 
2174	 0.363169190418333 
2175	 0.363127017621089 
2176	 0.363095917700041 
2177	 0.363102779481051 
2178	 0.363144738727678 
2179	 0.363210286691467 
2180	 0.36331509048461 
2181	 0.363417933837405 
2182	 0.363548270472765 
2183	 0.363664952398682 
2184	 0.363781621144388 
2185	 0.363911654230926 
2186	 0.364035296887417 
2187	 0.36419083440947 
2188	 0.364379162994195 
2189	 0.364555817914695 
2190	 0.364755257681049 
2191	 0.364937152873238 
2192	 0.365107099475802 
2193	 0.365278636666521 
2194	 0.365445015699941 
2195	 0.365612084762623 
2196	 0.365783385800723 
2197	 0.365949632348013 
2198	 0.366084271470492 
2199	 0.366231548196866 
2200	 0.366354119593716 
2201	 0.366462341793723 
2202	 0.3665333302561 
2203	 0.366572296937646 
2204	 0.366632906553653 
2205	 0.3666746913231 
2206	 0.366708334248464 
2207	 0.366772492452037 
2208	 0.366780193133897 
2209	 0.366734041759401 
2210	 0.366698169999851 
2211	 0.366650384258375 
2212	 0.366588704859437 
2213	 0.366536468887845 
2214	 0.366432147663797 
2215	 0.366287598913681 
2216	 0.366137409594413 
2217	 0.365981502351669 
2218	 0.365759907010912 
2219	 0.365528113803993 
2220	 0.365229954345802 
2221	 0.3648449118145 
2222	 0.364427318769708 
2223	 0.364026798330884 
2224	 0.363558280834625 
2225	 0.36304338441042 
2226	 0.362447129184283 
2227	 0.361742500450561 
2228	 0.360937418493447 
2229	 0.360040122717843 
2230	 0.3590428248617 
2231	 0.357965169552874 
2232	 0.356810890880359 
2233	 0.355506779176618 
2234	 0.354136833623024 
2235	 0.3525535664821 
2236	 0.350794428172675 
2237	 0.348907775126619 
2238	 0.346809152574747 
2239	 0.344653671311747 
2240	 0.342383601947978 
2241	 0.339989910390707 
2242	 0.337566801774451 
2243	 0.334888826890968 
2244	 0.331985924011515 
2245	 0.329007781864724 
2246	 0.325709217669069 
2247	 0.322505282016209 
2248	 0.319309578214614 
2249	 0.316019530027073 
2250	 0.312669538536364 
2251	 0.309387960545576 
2252	 0.305792445824924 
2253	 0.30226898693949 
2254	 0.298705853698096 
2255	 0.295073179252422 
2256	 0.291780835301919 
2257	 0.288513999840888 
2258	 0.285346898826413 
2259	 0.282379517100762 
2260	 0.279323881506214 
2261	 0.276230352488512 
2262	 0.273320083110339 
2263	 0.270407066992524 
2264	 0.267727815417229 
2265	 0.265292025197025 
2266	 0.262803086609267 
2267	 0.260489069553076 
2268	 0.25807565988393 
2269	 0.255593358224955 
2270	 0.253234416641101 
2271	 0.250863131261339 
2272	 0.248612160548325 
2273	 0.246521538373126 
2274	 0.244374957879191 
2275	 0.242354509850311 
2276	 0.240191402384437 
2277	 0.237959029400722 
2278	 0.235720474543752 
2279	 0.23332927755245 
2280	 0.231038540475505 
2281	 0.228830313710362 
2282	 0.226554844082761 
2283	 0.22429382926526 
2284	 0.222053611657301 
2285	 0.219579151544036 
2286	 0.217163549623564 
2287	 0.21464561387165 
2288	 0.212029796655932 
2289	 0.209591631763383 
2290	 0.207062504380257 
2291	 0.204587342406631 
2292	 0.202176044842234 
2293	 0.199635075321423 
2294	 0.197212322235333 
2295	 0.194951472663246 
2296	 0.192844170207038 
2297	 0.191063544566531 
2298	 0.189574586960716 
2299	 0.188303894670519 
2300	 0.187268620395424 
2301	 0.186556671046202 
2302	 0.186104539916011 
2303	 0.186023897720758 
2304	 0.186295436365044 
2305	 0.186882308532544 
2306	 0.18787078523123 
2307	 0.189061562600486 
2308	 0.190563174631731 
2309	 0.192335818941619 
2310	 0.194493549038343 
2311	 0.196677574298836 
2312	 0.199292740167277 
2313	 0.201646335528899 
2314	 0.20402851977379 
2315	 0.206288924320687 
2316	 0.208501277953199 
2317	 0.210502700257617 
2318	 0.212478570509266 
2319	 0.214083724521013 
2320	 0.215453766201466 
2321	 0.216542382905179 
2322	 0.217278232463439 
2323	 0.217839414662986 
2324	 0.21811980071123 
2325	 0.218212489242168 
2326	 0.218068977062245 
2327	 0.217739706112625 
2328	 0.217146625603705 
2329	 0.216429972195254 
2330	 0.215532508876104 
2331	 0.214435297853402 
2332	 0.213281640549973 
2333	 0.211936603862872 
2334	 0.210330107481401 
2335	 0.208648815315473 
2336	 0.206746106918824 
2337	 0.204799081059004 
2338	 0.2029862588799 
2339	 0.201096044141574 
2340	 0.19934673872389 
2341	 0.197706420897798 
2342	 0.196110731819836 
2343	 0.194855811217673 
2344	 0.193912421212197 
2345	 0.19328860941655 
2346	 0.19311818511645 
2347	 0.193407913119536 
2348	 0.193950843068999 
2349	 0.194943793853004 
2350	 0.196324374525998 
2351	 0.197867012224271 
2352	 0.199618464160281 
2353	 0.201437562701209 
2354	 0.203114497981807 
2355	 0.204756061429325 
2356	 0.20628857113094 
2357	 0.207605328126069 
2358	 0.208787576552053 
2359	 0.209686635532687 
2360	 0.210360844520208 
2361	 0.210864974457453 
2362	 0.211239420331017 
2363	 0.211484422848933 
2364	 0.211674729200195 
2365	 0.211778597620148 
2366	 0.211806323727083 
2367	 0.211838314352167 
2368	 0.211874716671661 
2369	 0.211982523379862 
2370	 0.212039863989126 
2371	 0.212089122448483 
2372	 0.212135336100535 
2373	 0.212120838298132 
2374	 0.212199695950578 
2375	 0.212253141933394 
2376	 0.2123098533092 
2377	 0.212527743620876 
2378	 0.212648775495997 
2379	 0.212762062532673 
2380	 0.212955285195034 
2381	 0.213051374457999 
2382	 0.213196393524985 
2383	 0.213378035609757 
2384	 0.213566883368957 
2385	 0.213776918647743 
2386	 0.213972159059453 
2387	 0.214180203983996 
2388	 0.214386939051032 
2389	 0.2145651760391 
2390	 0.214748211761416 
2391	 0.214975698224831 
2392	 0.215147754030173 
2393	 0.215307903830832 
2394	 0.215436133308268 
2395	 0.215468976424471 
2396	 0.215552166413534 
2397	 0.215646332319571 
2398	 0.215725082603138 
2399	 0.215858351551961 
2400	 0.215938530709187 
2401	 0.215972290384771 
2402	 0.215991084518075 
2403	 0.215963701811047 
2404	 0.216024014392303 
2405	 0.216054235212418 
2406	 0.216188051344848 
2407	 0.216360696720589 
2408	 0.216370846043018 
2409	 0.216429926340659 
2410	 0.216437143429589 
2411	 0.216410484456439 
2412	 0.216508790941297 
2413	 0.216561479513271 
2414	 0.216523694433745 
2415	 0.216511994696483 
2416	 0.21655246967823 
2417	 0.216562646279466 
2418	 0.21656078724685 
2419	 0.216548846560545 
2420	 0.216458867175937 
2421	 0.216430617981859 
2422	 0.216544496181247 
2423	 0.2166298549498 
2424	 0.21655688462999 
2425	 0.216492109232687 
2426	 0.216434550169708 
2427	 0.216302371869389 
2428	 0.216308535078302 
2429	 0.216244363040563 
2430	 0.216125561254801 
2431	 0.216087639374436 
2432	 0.21595612299901 
2433	 0.215865785221144 
2434	 0.21561424107086 
2435	 0.215308266566371 
2436	 0.215111180847651 
2437	 0.214765532678327 
2438	 0.214451674067765 
2439	 0.214106724793734 
2440	 0.213741632690709 
2441	 0.21344118029366 
2442	 0.212984657042913 
2443	 0.212541137868313 
2444	 0.212127200336835 
2445	 0.211615419352403 
2446	 0.211164994464683 
2447	 0.21064075573908 
2448	 0.209928257626214 
2449	 0.209237888937361 
2450	 0.208656043313129 
2451	 0.208217462333254 
2452	 0.207775915777221 
2453	 0.207122043720603 
2454	 0.206458542060435 
2455	 0.205950331221322 
2456	 0.205457646757472 
2457	 0.204988315936597 
2458	 0.20454783493672 
2459	 0.203888074735701 
2460	 0.203244471337555 
2461	 0.202769796732695 
2462	 0.202273619604854 
2463	 0.201948516082703 
2464	 0.20155891925844 
2465	 0.201020615379938 
2466	 0.20053477759074 
2467	 0.199837038088574 
2468	 0.199268191293872 
2469	 0.19898563823981 
2470	 0.198612295272035 
2471	 0.198470110900973 
2472	 0.198302315603885 
2473	 0.197885301947665 
2474	 0.197702581353575 
2475	 0.197401339550596 
2476	 0.197033018877512 
2477	 0.196971091513116 
2478	 0.196899059812628 
2479	 0.196820601340132 
2480	 0.196604784572873 
2481	 0.196481278505146 
2482	 0.19640450531622 
2483	 0.196268339841464 
2484	 0.196274002329707 
2485	 0.196235413466001 
2486	 0.196359511384261 
2487	 0.196838542932501 
2488	 0.197011800145852 
2489	 0.196965809186178 
2490	 0.197090786493474 
2491	 0.197111288461312 
2492	 0.197249250991026 
2493	 0.197646628595972 
2494	 0.197911893809793 
2495	 0.198113234973862 
2496	 0.198170191330182 
2497	 0.198038319454123 
2498	 0.198145918811276 
2499	 0.198362942411348 
2500	 0.198883417380534 
