Wavelength	spectrum00005.asd
350	 3.23841600304236E-02 
351	 3.00774021456747E-02 
352	 2.77378973488248E-02 
353	 2.75995167349165E-02 
354	 2.83230067976107E-02 
355	 2.86851001505311E-02 
356	 2.86945869650315E-02 
357	 2.83312309071413E-02 
358	 2.61243149795641E-02 
359	 2.53285799979578E-02 
360	 2.60261097795876E-02 
361	 2.66745781492967E-02 
362	 2.80854822850515E-02 
363	 2.68032605774855E-02 
364	 2.34273793003965E-02 
365	 2.41374467568368E-02 
366	 2.52036348360408E-02 
367	 2.56250280908366E-02 
368	 2.54291341308654E-02 
369	 2.58692012879437E-02 
370	 2.55518395288574E-02 
371	 2.48356416223337E-02 
372	 2.49566926323841E-02 
373	 0.025254729441386 
374	 2.56303569340166E-02 
375	 2.58139467160862E-02 
376	 2.51808757800254E-02 
377	 2.63109238606069E-02 
378	 2.74128365452881E-02 
379	 2.64725853533045E-02 
380	 2.45813842234253E-02 
381	 0.024731515162347 
382	 2.56052480814277E-02 
383	 2.39176362718335E-02 
384	 0.02492964300499 
385	 2.56660279676562E-02 
386	 2.46814520505853E-02 
387	 2.41887418051746E-02 
388	 0.024645051051339 
389	 0.025178615134835 
390	 2.49466562291521E-02 
391	 2.47666340682983E-02 
392	 2.50398155362032E-02 
393	 2.54833744384169E-02 
394	 0.02542920936148 
395	 2.51566190652279E-02 
396	 0.025145667880578 
397	 0.025381915471936 
398	 2.49727665484993E-02 
399	 2.50704290360945E-02 
400	 2.54017864340391E-02 
401	 0.025410095916779 
402	 2.51814933175174E-02 
403	 2.52722247571094E-02 
404	 2.55054196253742E-02 
405	 2.52248886494551E-02 
406	 0.025208595477897 
407	 2.50278461109357E-02 
408	 2.46948882260151E-02 
409	 2.55279594339518E-02 
410	 2.56465175496755E-02 
411	 2.53818671304271E-02 
412	 2.56005161838048E-02 
413	 0.025958018948302 
414	 2.56672540441093E-02 
415	 0.02507464491268 
416	 2.54634763930493E-02 
417	 0.02586914062599 
418	 2.59496904279601E-02 
419	 2.57256945906797E-02 
420	 2.57618410761062E-02 
421	 2.56684706952061E-02 
422	 2.57133804543495E-02 
423	 2.62338544757512E-02 
424	 2.62541888016567E-02 
425	 2.61062808527052E-02 
426	 2.61052604968866E-02 
427	 2.64125124282693E-02 
428	 2.65884263951852E-02 
429	 2.67340464205829E-02 
430	 2.69611692734831E-02 
431	 2.69896150521562E-02 
432	 2.71980366736824E-02 
433	 2.75155595297832E-02 
434	 2.76366922580312E-02 
435	 0.027626135720067 
436	 0.027765818904071 
437	 2.80947395617017E-02 
438	 0.028240101786894 
439	 2.84890665763641E-02 
440	 2.87015472535096E-02 
441	 2.87322710385832E-02 
442	 2.89189829684242E-02 
443	 2.92121329009131E-02 
444	 0.029488753387164 
445	 2.95936701660609E-02 
446	 2.96252940198645E-02 
447	 2.97307932414759E-02 
448	 2.99418690814608E-02 
449	 3.00143938808641E-02 
450	 3.01881024996279E-02 
451	 3.03745505209704E-02 
452	 3.04095456882634E-02 
453	 3.04910815736621E-02 
454	 3.05464949644727E-02 
455	 3.05707434604906E-02 
456	 0.030651294573176 
457	 0.030722792121406 
458	 3.07270288006397E-02 
459	 3.06683287804095E-02 
460	 3.07315566926227E-02 
461	 3.07429049162072E-02 
462	 3.07258261711779E-02 
463	 3.08009573634709E-02 
464	 3.08862864901135E-02 
465	 3.10287135702602E-02 
466	 0.031134450376247 
467	 3.08544025341124E-02 
468	 3.09004582004872E-02 
469	 0.031098583684491 
470	 3.11289154351741E-02 
471	 3.12765540193452E-02 
472	 3.13633723012299E-02 
473	 3.13623218490677E-02 
474	 3.13774510762625E-02 
475	 3.14217710573378E-02 
476	 3.15023992575493E-02 
477	 3.15984366126242E-02 
478	 3.16354786753371E-02 
479	 3.16427867356381E-02 
480	 3.17308553494103E-02 
481	 3.19679946832147E-02 
482	 3.19456491267772E-02 
483	 3.20281162098854E-02 
484	 3.22660211997214E-02 
485	 3.22961187290073E-02 
486	 3.25036333243753E-02 
487	 3.27144189838404E-02 
488	 3.27621020139159E-02 
489	 3.29032032390642E-02 
490	 3.30820292044387E-02 
491	 3.33126046734885E-02 
492	 3.36195963712975E-02 
493	 3.37418210861314E-02 
494	 3.38630367440373E-02 
495	 3.41117817560835E-02 
496	 3.44449322771471E-02 
497	 3.46755396456734E-02 
498	 3.48397655229782E-02 
499	 3.50454350259775E-02 
500	 3.53522121758471E-02 
501	 3.56282047073333E-02 
502	 3.58804730806947E-02 
503	 3.62361868128671E-02 
504	 3.65645615533182E-02 
505	 3.68233120355845E-02 
506	 3.70499887869597E-02 
507	 3.74302205569192E-02 
508	 3.78468375885531E-02 
509	 3.82553225876273E-02 
510	 3.86519239244931E-02 
511	 3.90974954450419E-02 
512	 3.94997156611508E-02 
513	 3.98567169854466E-02 
514	 4.03001443462563E-02 
515	 4.06859154032603E-02 
516	 4.10920363413444E-02 
517	 0.041594542115953 
518	 4.20592081990461E-02 
519	 4.25245637369525E-02 
520	 4.29943288710954E-02 
521	 4.34563639835321E-02 
522	 0.044046171864917 
523	 4.46152204868839E-02 
524	 4.50846839598405E-02 
525	 4.55836281194268E-02 
526	 4.61491784691232E-02 
527	 4.67651268645402E-02 
528	 4.73859420140644E-02 
529	 4.79605624812374E-02 
530	 4.85301906698054E-02 
531	 4.91462931577312E-02 
532	 4.98581271286184E-02 
533	 5.04682668885169E-02 
534	 5.10577581898869E-02 
535	 0.051714945231678 
536	 5.23612530925673E-02 
537	 5.30307781084175E-02 
538	 0.053702108270527 
539	 5.43376378199131E-02 
540	 5.50476588818629E-02 
541	 0.055757635896089 
542	 5.64318602275509E-02 
543	 5.71353845487024E-02 
544	 5.77709236486415E-02 
545	 5.83888225621057E-02 
546	 0.059058578538571 
547	 5.97174558794118E-02 
548	 6.03671461337921E-02 
549	 6.10129632918793E-02 
550	 6.16581504882477E-02 
551	 6.22376987203294E-02 
552	 6.28424128874664E-02 
553	 6.35101530426485E-02 
554	 0.06406497952544 
555	 6.46308451574615E-02 
556	 6.52332178220254E-02 
557	 6.58465868807011E-02 
558	 0.066439401783728 
559	 6.70198886434981E-02 
560	 6.75896694453611E-02 
561	 6.81366898293096E-02 
562	 6.86367186793208E-02 
563	 6.91314850450222E-02 
564	 6.96468111756004E-02 
565	 7.00713666575845E-02 
566	 7.05096103619587E-02 
567	 7.09780412027128E-02 
568	 7.14218775306534E-02 
569	 7.18196211510939E-02 
570	 0.072197516645393 
571	 7.25676957334519E-02 
572	 7.28825040647048E-02 
573	 7.32697736530853E-02 
574	 7.36747258045886E-02 
575	 7.40002702586544E-02 
576	 7.43731170101385E-02 
577	 0.074707683500993 
578	 7.49880717798617E-02 
579	 7.52912908040517E-02 
580	 7.55986363687686E-02 
581	 7.58773758256078E-02 
582	 7.61230896176313E-02 
583	 7.64322084698304E-02 
584	 7.67354372906865E-02 
585	 7.70159026109207E-02 
586	 7.72881712442471E-02 
587	 7.75419037300675E-02 
588	 7.77780901136356E-02 
589	 7.80010736602716E-02 
590	 0.078218849067146 
591	 7.84121216805692E-02 
592	 7.86108931328349E-02 
593	 7.88383173942026E-02 
594	 7.90203683887956E-02 
595	 7.91991428629088E-02 
596	 7.93830150204743E-02 
597	 7.95474374705261E-02 
598	 7.96913123917108E-02 
599	 7.98874259640266E-02 
600	 8.01399505770944E-02 
601	 0.080246876947421 
602	 8.04082562246067E-02 
603	 8.06090977878084E-02 
604	 8.07547583351366E-02 
605	 8.09000756193057E-02 
606	 0.081041949666862 
607	 8.11907319150964E-02 
608	 8.13776459307851E-02 
609	 0.081504178638071 
610	 8.16226499665793E-02 
611	 8.17879940460094E-02 
612	 8.19309429599543E-02 
613	 8.20531770429135E-02 
614	 8.21717342498922E-02 
615	 0.082309708217189 
616	 0.082431943934993 
617	 8.25619329208969E-02 
618	 8.27122734899305E-02 
619	 8.28658502633874E-02 
620	 8.29865079341358E-02 
621	 0.083111194287269 
622	 8.32763714713335E-02 
623	 8.33822944201211E-02 
624	 8.35080936734044E-02 
625	 8.36610107328607E-02 
626	 8.37776698061175E-02 
627	 8.39002978139876E-02 
628	 8.40282532078326E-02 
629	 0.084158390719326 
630	 0.084303509199207 
631	 8.44267406063509E-02 
632	 0.084558980617905 
633	 8.47450001386181E-02 
634	 8.48993500540027E-02 
635	 8.50454058468137E-02 
636	 8.51951320261736E-02 
637	 8.53338428061908E-02 
638	 8.54759928764804E-02 
639	 8.56346366468649E-02 
640	 0.085807145214141 
641	 0.085942089819602 
642	 8.60795375382866E-02 
643	 8.62353698647385E-02 
644	 0.086406667999205 
645	 8.65683455264087E-02 
646	 8.67280725798232E-02 
647	 8.69013618831357E-02 
648	 8.71111802536153E-02 
649	 8.73042820259176E-02 
650	 0.087473475745025 
651	 8.76297029307904E-02 
652	 8.77887166884912E-02 
653	 8.79493929787363E-02 
654	 8.81198780517092E-02 
655	 8.83132460543836E-02 
656	 8.85045945492621E-02 
657	 8.86964897059151E-02 
658	 8.88900772851916E-02 
659	 8.90735052828793E-02 
660	 8.92524395758859E-02 
661	 8.94351209674609E-02 
662	 8.96296178948542E-02 
663	 8.98385276981312E-02 
664	 9.00333792134901E-02 
665	 9.02265093127192E-02 
666	 9.04678566612423E-02 
667	 9.06646749984357E-02 
668	 9.08496008471293E-02 
669	 9.10575545496135E-02 
670	 9.12622849485905E-02 
671	 9.14689247343208E-02 
672	 9.16767887878689E-02 
673	 9.18857037135519E-02 
674	 0.092112656247205 
675	 0.092333283161327 
676	 9.25456668919598E-02 
677	 9.27785248992149E-02 
678	 9.29682345320722E-02 
679	 0.093175541554255 
680	 9.34434587368981E-02 
681	 9.36716000036298E-02 
682	 9.39077480276982E-02 
683	 9.41472419467217E-02 
684	 9.43624599351311E-02 
685	 9.45846307874172E-02 
686	 9.48006872676234E-02 
687	 9.50198657717146E-02 
688	 9.52898502183842E-02 
689	 9.55133952562726E-02 
690	 9.57143225008759E-02 
691	 9.59447494869125E-02 
692	 9.62368526647096E-02 
693	 9.64966206488326E-02 
694	 9.67236103603901E-02 
695	 0.096972373367837 
696	 9.71946712330811E-02 
697	 9.74374676033392E-02 
698	 9.77114327368266E-02 
699	 9.79540774060724E-02 
700	 0.098195285947189 
701	 9.84535296634033E-02 
702	 9.87330154632863E-02 
703	 9.89959331151561E-02 
704	 0.099253753355881 
705	 9.95105322017293E-02 
706	 9.97662728504989E-02 
707	 0.100038421053841 
708	 0.100317052647145 
709	 0.100592164679715 
710	 0.100860122866665 
711	 0.101128392827816 
712	 0.101399601750413 
713	 0.101676308626587 
714	 0.101969063597195 
715	 0.102254700296678 
716	 0.102531343743711 
717	 0.102812919990359 
718	 0.103104589507749 
719	 0.103403437624088 
720	 0.103696787492275 
721	 0.103955340068983 
722	 0.104241200028726 
723	 0.104536720388585 
724	 0.104814277446494 
725	 0.105115616413889 
726	 0.105390169971298 
727	 0.105657606040374 
728	 0.105978337393643 
729	 0.106271249997762 
730	 0.106546032617173 
731	 0.10682354017677 
732	 0.107122009208432 
733	 0.107416651880241 
734	 0.107692842939532 
735	 0.107953975504919 
736	 0.108255288528557 
737	 0.108542165064253 
738	 0.108804913953152 
739	 0.109066814748834 
740	 0.109348562881308 
741	 0.109631018401757 
742	 0.109898540974873 
743	 0.110149356978776 
744	 0.110411120740687 
745	 0.110672929603748 
746	 0.110926914012306 
747	 0.111217617128663 
748	 0.111482925186528 
749	 0.111718237371609 
750	 0.111953043648513 
751	 0.112185660870192 
752	 0.112432296599074 
753	 0.11268433290542 
754	 0.112901143849938 
755	 0.113118778431621 
756	 0.113349605267212 
757	 0.113584232923925 
758	 0.113763781265949 
759	 0.113965995052497 
760	 0.114190995000848 
761	 0.114403557754945 
762	 0.114608663871661 
763	 0.114797705187317 
764	 0.114978809244011 
765	 0.115176397409073 
766	 0.115353021998167 
767	 0.115525738023413 
768	 0.115712784277918 
769	 0.115916772844243 
770	 0.116061956742171 
771	 0.116184203483713 
772	 0.116344487041036 
773	 0.1164941699125 
774	 0.116668044226104 
775	 0.1168330036664 
776	 0.116914012867485 
777	 0.117038258205894 
778	 0.11718501328851 
779	 0.117321195996765 
780	 0.11743214748582 
781	 0.117532858230759 
782	 0.117633642199262 
783	 0.117738924289811 
784	 0.117836147407758 
785	 0.117945898367348 
786	 0.118049227620323 
787	 0.118112923799326 
788	 0.118178265099299 
789	 0.118246121640685 
790	 0.118319649663756 
791	 0.118408284201582 
792	 0.118505140297816 
793	 0.118571098343826 
794	 0.118600534107336 
795	 0.1186858279294 
796	 0.118739745137874 
797	 0.118774614531789 
798	 0.118823401105273 
799	 0.118824858007133 
800	 0.118860380238657 
801	 0.118915848900582 
802	 0.118912099383769 
803	 0.118951409683882 
804	 0.118994569739728 
805	 0.119018625917488 
806	 0.119053348997127 
807	 0.119057559921976 
808	 0.119060421177906 
809	 0.119082618305973 
810	 0.119061575799845 
811	 0.119078286721432 
812	 0.119108084833382 
813	 0.119092674842243 
814	 0.119079471888165 
815	 0.119074618883415 
816	 0.119063547223871 
817	 0.119023364052814 
818	 0.119038877280139 
819	 0.119052142286354 
820	 0.119026020357915 
821	 0.1189940432468 
822	 0.11895987118176 
823	 0.118942992613131 
824	 0.118946654883564 
825	 0.118917346824233 
826	 0.118884429114732 
827	 0.118849922256899 
828	 0.118809925296853 
829	 0.118802092667969 
830	 0.11878069713837 
831	 0.118742727919641 
832	 0.118722875674831 
833	 0.118685251235573 
834	 0.11864840144265 
835	 0.118621119028603 
836	 0.118585307825319 
837	 0.118562594067094 
838	 0.118537968692426 
839	 0.118501138332381 
840	 0.118484701994063 
841	 0.118429319305559 
842	 0.118373642005647 
843	 0.118369243111396 
844	 0.118322224853163 
845	 0.118258032467868 
846	 0.118212774114038 
847	 0.118215133881685 
848	 0.11820034593606 
849	 0.118164585670646 
850	 0.11811722021012 
851	 0.118073709099028 
852	 0.118028892319082 
853	 0.117997535127433 
854	 0.117984428222336 
855	 0.117967677961286 
856	 0.117934647470522 
857	 0.117900721448532 
858	 0.117879171170288 
859	 0.117836929910695 
860	 0.117805687645851 
861	 0.117787431321262 
862	 0.117769073888328 
863	 0.117753157437626 
864	 0.117733597770662 
865	 0.117718594818222 
866	 0.117721406070939 
867	 0.117669575881858 
868	 0.1176409365042 
869	 0.117653963348016 
870	 0.117621391109408 
871	 0.117610364586587 
872	 0.117611320352012 
873	 0.117602564796901 
874	 0.117569797256693 
875	 0.117583686408993 
876	 0.117606660423459 
877	 0.117597227702057 
878	 0.117638512678564 
879	 0.117616266208523 
880	 0.11758083795476 
881	 0.11762919020329 
882	 0.11763864856452 
883	 0.117621756104425 
884	 0.117622796403968 
885	 0.117685177609878 
886	 0.117687095806324 
887	 0.117673938121394 
888	 0.117693254110601 
889	 0.117763256092103 
890	 0.117786060878629 
891	 0.11777928243423 
892	 0.117782725571852 
893	 0.117831898292137 
894	 0.117873079835244 
895	 0.117925487318906 
896	 0.117997919774679 
897	 0.118023091480713 
898	 0.118053146978202 
899	 0.118082742228613 
900	 0.118102273375105 
901	 0.118161928702195 
902	 0.11821961309002 
903	 0.118267563438642 
904	 0.118311457259036 
905	 0.118315876609806 
906	 0.118377489743253 
907	 0.118493254197365 
908	 0.118583112129641 
909	 0.11861907252861 
910	 0.118661860767142 
911	 0.118740069616354 
912	 0.118835751111535 
913	 0.11891945311779 
914	 0.119001266176711 
915	 0.119087581619393 
916	 0.11917043829291 
917	 0.119237831943067 
918	 0.119328209494419 
919	 0.119457513777442 
920	 0.119583116794889 
921	 0.119692930805884 
922	 0.119752451408414 
923	 0.11977584508844 
924	 0.11990414500441 
925	 0.120027434076626 
926	 0.120136212270146 
927	 0.120254140120018 
928	 0.120404195196343 
929	 0.12051894359658 
930	 0.120616726315312 
931	 0.120737512966685 
932	 0.120832191283509 
933	 0.120998026356231 
934	 0.121168634363502 
935	 0.121228982637166 
936	 0.121310105946495 
937	 0.121513745714577 
938	 0.121741747852907 
939	 0.121815478079796 
940	 0.121994568003649 
941	 0.122159923934546 
942	 0.122278383357144 
943	 0.12241886708668 
944	 0.122608585715261 
945	 0.122778641428244 
946	 0.12292308649995 
947	 0.123104492969839 
948	 0.123239663128832 
949	 0.123356122591186 
950	 0.123487531497085 
951	 0.123649204008581 
952	 0.123794449039813 
953	 0.124001650224871 
954	 0.124240865922339 
955	 0.12431245470986 
956	 0.124475525905433 
957	 0.124713858252564 
958	 0.124950940058181 
959	 0.125118656434701 
960	 0.125282871959275 
961	 0.125458912776405 
962	 0.12563683925945 
963	 0.125783093340523 
964	 0.125918701147476 
965	 0.126131621838782 
966	 0.126425580378508 
967	 0.12658698870029 
968	 0.126818826601131 
969	 0.127073548365085 
970	 0.127263499704698 
971	 0.127384545573142 
972	 0.127577523255995 
973	 0.127793727102316 
974	 0.127971403063371 
975	 0.128193004147594 
976	 0.128409978968422 
977	 0.128694499910358 
978	 0.129053207555462 
979	 0.129186656162782 
980	 0.129359287343049 
981	 0.129585345707031 
982	 0.12981283623017 
983	 0.130069242646887 
984	 0.130353259105351 
985	 0.130632851346807 
986	 0.130883077172418 
987	 0.131141313684331 
988	 0.131369734707179 
989	 0.131576344407979 
990	 0.131797714220043 
991	 0.132109590528903 
992	 0.132342927183206 
993	 0.132492685865592 
994	 0.132651284829512 
995	 0.132995183662623 
996	 0.133299541620157 
997	 0.13356467717819 
998	 0.133868215818696 
999	 0.134250788674931 
1000	 0.134508225486211 
1001	 0.13652633882981 
1002	 0.136810854209265 
1003	 0.137068914203996 
1004	 0.137325151452342 
1005	 0.137565395429449 
1006	 0.137853105965432 
1007	 0.138142366456672 
1008	 0.138445839211678 
1009	 0.138798512606786 
1010	 0.139115427894886 
1011	 0.139426796021616 
1012	 0.13971834508999 
1013	 0.139969892052727 
1014	 0.140269265525789 
1015	 0.1405730798632 
1016	 0.140889470788252 
1017	 0.141212103926484 
1018	 0.141545376920299 
1019	 0.141891609042667 
1020	 0.142257486275815 
1021	 0.142621930135564 
1022	 0.143034102417224 
1023	 0.143404567773817 
1024	 0.143741093503556 
1025	 0.144089631344254 
1026	 0.144426325400177 
1027	 0.144782525453645 
1028	 0.145144780110106 
1029	 0.145535045909204 
1030	 0.145874538875723 
1031	 0.146233731651339 
1032	 0.146610917322421 
1033	 0.146954056506226 
1034	 0.147342780683389 
1035	 0.147751567656005 
1036	 0.148135613892989 
1037	 0.148501631509381 
1038	 0.148881492788088 
1039	 0.14926736388372 
1040	 0.149648121491615 
1041	 0.150013656463124 
1042	 0.150407794015259 
1043	 0.150833544864096 
1044	 0.15121138288037 
1045	 0.151586547169861 
1046	 0.151986007208549 
1047	 0.152341308929177 
1048	 0.152744584294327 
1049	 0.153196425548527 
1050	 0.153635630598663 
1051	 0.154084597881418 
1052	 0.15451119923134 
1053	 0.154938573712878 
1054	 0.155358606962829 
1055	 0.155778828048692 
1056	 0.156199579301389 
1057	 0.156622677077942 
1058	 0.15703145818981 
1059	 0.157444889735869 
1060	 0.157925301530965 
1061	 0.158381088601394 
1062	 0.15883717537482 
1063	 0.15931967551217 
1064	 0.159747290038968 
1065	 0.160175571697917 
1066	 0.16062936292988 
1067	 0.161072193630454 
1068	 0.161552021907508 
1069	 0.162020299586287 
1070	 0.162484947926836 
1071	 0.162950358184173 
1072	 0.163426186455881 
1073	 0.163872780936562 
1074	 0.164337867430374 
1075	 0.164790635877462 
1076	 0.165258320129718 
1077	 0.165746559346903 
1078	 0.166200519131719 
1079	 0.166695317517943 
1080	 0.167211647459882 
1081	 0.167700755221142 
1082	 0.168212289920066 
1083	 0.168714187844669 
1084	 0.169174861522173 
1085	 0.169653824184461 
1086	 0.170143876489221 
1087	 0.170641750723625 
1088	 0.171135696896914 
1089	 0.171632218469294 
1090	 0.172110232186006 
1091	 0.172574335554493 
1092	 0.173041904814999 
1093	 0.173541167521107 
1094	 0.174067510301254 
1095	 0.174572156406152 
1096	 0.175078510836366 
1097	 0.175590045541253 
1098	 0.176067517183478 
1099	 0.176555162730677 
1100	 0.177056898608355 
1101	 0.177543257586928 
1102	 0.1780311595227 
1103	 0.178529416652517 
1104	 0.17902995485013 
1105	 0.179555052125414 
1106	 0.180083750392511 
1107	 0.180600261892431 
1108	 0.181119989433379 
1109	 0.181597813970695 
1110	 0.182091632186254 
1111	 0.182624983910904 
1112	 0.183119867234243 
1113	 0.183636093931885 
1114	 0.184159186823978 
1115	 0.184615308349978 
1116	 0.185103154436368 
1117	 0.185630418645362 
1118	 0.186139416625055 
1119	 0.186651363874759 
1120	 0.187158258883942 
1121	 0.187670480168362 
1122	 0.188151021076842 
1123	 0.188640015612167 
1124	 0.189120600613175 
1125	 0.189606185064913 
1126	 0.190092722171677 
1127	 0.190575791682083 
1128	 0.19107503095058 
1129	 0.19155795296184 
1130	 0.192043389667829 
1131	 0.19252404432163 
1132	 0.192959949062106 
1133	 0.193403623416877 
1134	 0.193838692882167 
1135	 0.194267003399026 
1136	 0.194684370061232 
1137	 0.195112338335123 
1138	 0.195542650748768 
1139	 0.19596663094173 
1140	 0.196396397319397 
1141	 0.196801486892362 
1142	 0.197212394175303 
1143	 0.197606373375837 
1144	 0.197998913055912 
1145	 0.198426071508609 
1146	 0.198842462590046 
1147	 0.199268970215456 
1148	 0.199714013597783 
1149	 0.200120455815595 
1150	 0.200518056747387 
1151	 0.200912882536889 
1152	 0.201307978123778 
1153	 0.201701319905753 
1154	 0.20208524638264 
1155	 0.202466581051533 
1156	 0.202843057654517 
1157	 0.20320874343259 
1158	 0.203563836563465 
1159	 0.203908059704464 
1160	 0.204269988710304 
1161	 0.204614673127666 
1162	 0.204951485357041 
1163	 0.205300579551979 
1164	 0.205646566388136 
1165	 0.205982441858263 
1166	 0.206296572179197 
1167	 0.206608245744407 
1168	 0.206904680499404 
1169	 0.207213459341393 
1170	 0.207529973173622 
1171	 0.207838766302636 
1172	 0.208151735302342 
1173	 0.20845860803189 
1174	 0.208753523146146 
1175	 0.20904361393966 
1176	 0.209340379692217 
1177	 0.209619695074429 
1178	 0.209876651702679 
1179	 0.210146783518616 
1180	 0.210402641404036 
1181	 0.210685607636618 
1182	 0.211006631429177 
1183	 0.211307219367696 
1184	 0.211630172282846 
1185	 0.211947200269188 
1186	 0.212274687755917 
1187	 0.212604771432139 
1188	 0.212949629599204 
1189	 0.213298589261282 
1190	 0.213668230734141 
1191	 0.214046754571763 
1192	 0.214433214112554 
1193	 0.214851329280212 
1194	 0.215257653286782 
1195	 0.215653664749901 
1196	 0.216069430362237 
1197	 0.216495070827631 
1198	 0.216924090879015 
1199	 0.217372084891953 
1200	 0.217814072819751 
1201	 0.218241390580141 
1202	 0.2186663320034 
1203	 0.219079362675081 
1204	 0.219533711731641 
1205	 0.219993286812139 
1206	 0.220467449059147 
1207	 0.22095441977532 
1208	 0.221458248313209 
1209	 0.221959690883959 
1210	 0.22247028971905 
1211	 0.222990271704719 
1212	 0.223516921549792 
1213	 0.224055826294552 
1214	 0.224598255371934 
1215	 0.225167018631569 
1216	 0.225765216682857 
1217	 0.226348337702698 
1218	 0.226940958984194 
1219	 0.227543147232112 
1220	 0.228121929865646 
1221	 0.228722788026049 
1222	 0.229329497395568 
1223	 0.229937257609493 
1224	 0.230532324795574 
1225	 0.231125067533489 
1226	 0.231695423412726 
1227	 0.232252657550693 
1228	 0.232803610345647 
1229	 0.23334501774947 
1230	 0.233871933183444 
1231	 0.234391976852913 
1232	 0.234896022593314 
1233	 0.235368214478525 
1234	 0.235849436264009 
1235	 0.236324908896762 
1236	 0.236801222432548 
1237	 0.237293971652499 
1238	 0.237760406651689 
1239	 0.238203465717632 
1240	 0.23865567628101 
1241	 0.239106929146328 
1242	 0.239515286821235 
1243	 0.23994306758646 
1244	 0.240371938607612 
1245	 0.240806689776547 
1246	 0.241248094574395 
1247	 0.241670619460546 
1248	 0.242097021443819 
1249	 0.2425122304816 
1250	 0.242902894091157 
1251	 0.243301560628295 
1252	 0.24370521031398 
1253	 0.244105141343016 
1254	 0.244502432523347 
1255	 0.244895028200328 
1256	 0.245285062176064 
1257	 0.245677259456163 
1258	 0.246064985049078 
1259	 0.24645106848758 
1260	 0.246854107581839 
1261	 0.247233698428382 
1262	 0.247588302647708 
1263	 0.247954948019758 
1264	 0.248309986898014 
1265	 0.248643380399395 
1266	 0.249006200546872 
1267	 0.249383088704942 
1268	 0.249747387709618 
1269	 0.250128518536541 
1270	 0.250478251680109 
1271	 0.25080729653006 
1272	 0.251136498359065 
1273	 0.2514461917982 
1274	 0.251767411642238 
1275	 0.252081917511436 
1276	 0.252407649337767 
1277	 0.252748588476948 
1278	 0.253075100725336 
1279	 0.253390025244967 
1280	 0.253721062003795 
1281	 0.254059880134952 
1282	 0.254386961773868 
1283	 0.254707895018018 
1284	 0.255044133336322 
1285	 0.255382878920519 
1286	 0.25570910620751 
1287	 0.256053330548273 
1288	 0.256436564710424 
1289	 0.256757666275207 
1290	 0.257038675695536 
1291	 0.257360947707513 
1292	 0.257674125012 
1293	 0.257991520964882 
1294	 0.258333996980908 
1295	 0.258665823577113 
1296	 0.258983693470519 
1297	 0.259302254986929 
1298	 0.259625245880734 
1299	 0.259953600146912 
1300	 0.260273021291575 
1301	 0.26059747592392 
1302	 0.260945039674244 
1303	 0.261273333409113 
1304	 0.261589622116532 
1305	 0.261901399175847 
1306	 0.262198189935471 
1307	 0.262503778348274 
1308	 0.262797951211324 
1309	 0.263113724833856 
1310	 0.263419057705422 
1311	 0.26373361734265 
1312	 0.264031354353806 
1313	 0.26432072667451 
1314	 0.2646086318145 
1315	 0.264892100392509 
1316	 0.265168495293369 
1317	 0.265441481051692 
1318	 0.265707579737477 
1319	 0.265954968943746 
1320	 0.266222809676678 
1321	 0.266501108516236 
1322	 0.266767696671611 
1323	 0.267044817242433 
1324	 0.267305656237665 
1325	 0.267549619701222 
1326	 0.26779521762053 
1327	 0.26802963387497 
1328	 0.268274673794863 
1329	 0.268536889321974 
1330	 0.268773029836492 
1331	 0.26901290140959 
1332	 0.269230448796912 
1333	 0.269422169893419 
1334	 0.269597901575948 
1335	 0.269777287814991 
1336	 0.269949660602193 
1337	 0.27011705066146 
1338	 0.270282950182259 
1339	 0.27043402631104 
1340	 0.270577384576494 
1341	 0.270708554822163 
1342	 0.270829555653309 
1343	 0.270939875950097 
1344	 0.271044210603337 
1345	 0.271128288615116 
1346	 0.271201352385934 
1347	 0.271255470368831 
1348	 0.271287670705209 
1349	 0.271314047595462 
1350	 0.271318195408203 
1351	 0.271330798795671 
1352	 0.271327734418076 
1353	 0.271345800820135 
1354	 0.271367929559215 
1355	 0.271405114761667 
1356	 0.271471262766648 
1357	 0.271521560984709 
1358	 0.271571475872456 
1359	 0.2716250597001 
1360	 0.271682830727174 
1361	 0.271727499859912 
1362	 0.271766971506282 
1363	 0.271797335672187 
1364	 0.271821327205259 
1365	 0.27182658242893 
1366	 0.271835585549284 
1367	 0.271854956124441 
1368	 0.271842228828833 
1369	 0.271806128282945 
1370	 0.271776252666081 
1371	 0.271730219210899 
1372	 0.271694128692596 
1373	 0.271665230531293 
1374	 0.271627962430152 
1375	 0.27157807005547 
1376	 0.271545254001846 
1377	 0.271525194306657 
1378	 0.271489497498532 
1379	 0.271455367812333 
1380	 0.271420488152931 
1381	 0.271377435663243 
1382	 0.271329021668701 
1383	 0.271275434853006 
1384	 0.2712325524716 
1385	 0.271180679418359 
1386	 0.271140387186183 
1387	 0.271114198944952 
1388	 0.271093038024168 
1389	 0.271075509935189 
1390	 0.271061529080585 
1391	 0.271059255096021 
1392	 0.271065490076022 
1393	 0.271048119429909 
1394	 0.271018001489216 
1395	 0.270962165126652 
1396	 0.270890230501024 
1397	 0.270783257782464 
1398	 0.270667266118105 
1399	 0.270482508206563 
1400	 0.27024801715929 
1401	 0.269991372638599 
1402	 0.269693385829007 
1403	 0.269357577112912 
1404	 0.268990847785463 
1405	 0.268597781290619 
1406	 0.268144628603595 
1407	 0.267708047900282 
1408	 0.267253341900728 
1409	 0.266805958767471 
1410	 0.266345788040841 
1411	 0.265902536536739 
1412	 0.265450549257232 
1413	 0.265038353918521 
1414	 0.264627813040781 
1415	 0.264271386709403 
1416	 0.263958574459093 
1417	 0.26366967939775 
1418	 0.263423163061592 
1419	 0.263193324304769 
1420	 0.262983405864517 
1421	 0.262802629915434 
1422	 0.262649463590925 
1423	 0.2625188773216 
1424	 0.262414621485246 
1425	 0.262333572666266 
1426	 0.262268438717123 
1427	 0.26223415932337 
1428	 0.26222919837848 
1429	 0.262240826325737 
1430	 0.262287402292829 
1431	 0.262366232918587 
1432	 0.262462587948493 
1433	 0.262588774846314 
1434	 0.26272676816585 
1435	 0.262883694654588 
1436	 0.263058930780196 
1437	 0.263254034100118 
1438	 0.263461052413963 
1439	 0.263683944626357 
1440	 0.26392626458565 
1441	 0.264181548743658 
1442	 0.264461853024743 
1443	 0.264763993646153 
1444	 0.2650856596941 
1445	 0.265435064563617 
1446	 0.265787470295537 
1447	 0.266163171232623 
1448	 0.266535506767807 
1449	 0.266911941677368 
1450	 0.267297321916007 
1451	 0.267694516122089 
1452	 0.268086634252395 
1453	 0.268481930443506 
1454	 0.268876892400843 
1455	 0.269269762126192 
1456	 0.26966523929122 
1457	 0.270068924601382 
1458	 0.270467268681828 
1459	 0.270854958165114 
1460	 0.27125549978194 
1461	 0.271668210498585 
1462	 0.272068619199256 
1463	 0.272465884518537 
1464	 0.272869088906199 
1465	 0.273261650470312 
1466	 0.273670535474752 
1467	 0.274058762620293 
1468	 0.274459196962342 
1469	 0.274876802487793 
1470	 0.275265711515984 
1471	 0.275672170185886 
1472	 0.276098277014442 
1473	 0.276510384105232 
1474	 0.276913798263708 
1475	 0.277318838998785 
1476	 0.277727288265726 
1477	 0.278133911259728 
1478	 0.278535966294449 
1479	 0.278931322460242 
1480	 0.279322147754972 
1481	 0.279723392627205 
1482	 0.280125040720337 
1483	 0.280522168806845 
1484	 0.280933995439283 
1485	 0.281323780907661 
1486	 0.281688736921914 
1487	 0.282067373272476 
1488	 0.28244671524169 
1489	 0.282825245887769 
1490	 0.283213089007681 
1491	 0.283585187437677 
1492	 0.283941323952436 
1493	 0.284310637694006 
1494	 0.2846769634205 
1495	 0.285045672244395 
1496	 0.285431739587964 
1497	 0.285797732510813 
1498	 0.286144733763908 
1499	 0.286506422361249 
1500	 0.286852645542067 
1501	 0.287228749476241 
1502	 0.287650370514112 
1503	 0.28802954959872 
1504	 0.288406096227853 
1505	 0.288771857340756 
1506	 0.28909779146496 
1507	 0.289442729029505 
1508	 0.289793377153588 
1509	 0.290150294138474 
1510	 0.290519712346662 
1511	 0.290876152995795 
1512	 0.291241457337395 
1513	 0.291589402432296 
1514	 0.291917569911513 
1515	 0.292245009756993 
1516	 0.292558724240879 
1517	 0.292877826626388 
1518	 0.29320239687638 
1519	 0.293516440387619 
1520	 0.293834359513623 
1521	 0.294133746860196 
1522	 0.294425177133112 
1523	 0.294727730903004 
1524	 0.295029909797418 
1525	 0.295336153342578 
1526	 0.295641099120406 
1527	 0.295945332173064 
1528	 0.296253658295187 
1529	 0.29656644408468 
1530	 0.296872449016426 
1531	 0.297182855052449 
1532	 0.297477996440517 
1533	 0.297761604273801 
1534	 0.298049711011488 
1535	 0.298329144249397 
1536	 0.298618460794005 
1537	 0.298916451782337 
1538	 0.299201744402982 
1539	 0.29948571658082 
1540	 0.299766095159594 
1541	 0.300037716462455 
1542	 0.30031263720149 
1543	 0.300590661497355 
1544	 0.300860138104772 
1545	 0.301128887229271 
1546	 0.301385166192314 
1547	 0.301629332355329 
1548	 0.301878817593037 
1549	 0.302120562796065 
1550	 0.302367142432278 
1551	 0.302625784235757 
1552	 0.302863323414802 
1553	 0.3030881613044 
1554	 0.303317153239806 
1555	 0.303534167753241 
1556	 0.303759713883093 
1557	 0.303986658470597 
1558	 0.304223208570086 
1559	 0.304464400558474 
1560	 0.304707854426792 
1561	 0.304965639851782 
1562	 0.305212388685142 
1563	 0.305448005685027 
1564	 0.305697618945792 
1565	 0.305947596679744 
1566	 0.30620736272724 
1567	 0.306480402497422 
1568	 0.306752336460369 
1569	 0.307035666342565 
1570	 0.307305332581656 
1571	 0.307573967394929 
1572	 0.307834915883275 
1573	 0.308078650543614 
1574	 0.308334455399405 
1575	 0.30859275804154 
1576	 0.308851617590641 
1577	 0.30911946922479 
1578	 0.309377268095415 
1579	 0.309629105967863 
1580	 0.309881055451103 
1581	 0.310126146090523 
1582	 0.310376384941623 
1583	 0.310627440102799 
1584	 0.310881948110004 
1585	 0.311137325944028 
1586	 0.311398127041499 
1587	 0.311669620540392 
1588	 0.311930917851965 
1589	 0.312194402172983 
1590	 0.312450055940255 
1591	 0.312694933066102 
1592	 0.3129411885899 
1593	 0.313189452286489 
1594	 0.313427538258407 
1595	 0.313664427419329 
1596	 0.313887464193391 
1597	 0.314090576622499 
1598	 0.314302608374034 
1599	 0.314505930540976 
1600	 0.31471774845554 
1601	 0.314940891591431 
1602	 0.315157304675905 
1603	 0.315378922859662 
1604	 0.315587863577002 
1605	 0.315795808634333 
1606	 0.315987150814685 
1607	 0.316153708128314 
1608	 0.316333062480493 
1609	 0.316507883270159 
1610	 0.316683404026217 
1611	 0.316873775302448 
1612	 0.317046147572052 
1613	 0.317211851239966 
1614	 0.317362421754854 
1615	 0.317487337840898 
1616	 0.317628016702271 
1617	 0.317767429035944 
1618	 0.317904803808713 
1619	 0.318062049020262 
1620	 0.31819267250569 
1621	 0.318307936135189 
1622	 0.318411165415058 
1623	 0.318490529505467 
1624	 0.318576478817057 
1625	 0.318651336772479 
1626	 0.318731190809142 
1627	 0.318808408479846 
1628	 0.31889591848729 
1629	 0.318990499650223 
1630	 0.319086440725291 
1631	 0.319195969945323 
1632	 0.319297428815671 
1633	 0.319389142056346 
1634	 0.319489690466109 
1635	 0.319592065564946 
1636	 0.319696616664305 
1637	 0.319810952586593 
1638	 0.319920387200528 
1639	 0.320039019526631 
1640	 0.320136288180759 
1641	 0.320229631720379 
1642	 0.320303226352122 
1643	 0.320341363573347 
1644	 0.320394111362846 
1645	 0.320458159758373 
1646	 0.320491684672292 
1647	 0.320526599572425 
1648	 0.320532932137068 
1649	 0.320506620158316 
1650	 0.320463377647866 
1651	 0.320408985321245 
1652	 0.320321098944562 
1653	 0.320210541744948 
1654	 0.320064810048344 
1655	 0.319900869808928 
1656	 0.319678310603802 
1657	 0.319421478479403 
1658	 0.319099246565481 
1659	 0.318710108535382 
1660	 0.318287829962678 
1661	 0.31782874713305 
1662	 0.317298028512333 
1663	 0.316726166154877 
1664	 0.316064598591127 
1665	 0.315337559491898 
1666	 0.314505532025841 
1667	 0.313584986528271 
1668	 0.312587431955147 
1669	 0.311492819593695 
1670	 0.310325697341756 
1671	 0.309080348775482 
1672	 0.307744536813646 
1673	 0.306313472436359 
1674	 0.304802663579616 
1675	 0.303169320832322 
1676	 0.301570890361398 
1677	 0.299914069249255 
1678	 0.29826625193345 
1679	 0.296605140834633 
1680	 0.294943275547682 
1681	 0.293249249402317 
1682	 0.291583663875438 
1683	 0.289952446201703 
1684	 0.288326334257502 
1685	 0.286696382793313 
1686	 0.285090822873827 
1687	 0.283459066796011 
1688	 0.281913525484039 
1689	 0.280417627580129 
1690	 0.278951249902244 
1691	 0.277547593618241 
1692	 0.276204206192961 
1693	 0.274890921129329 
1694	 0.273640339338867 
1695	 0.27246043509862 
1696	 0.27130844484783 
1697	 0.270209543277184 
1698	 0.26910555913999 
1699	 0.268042738701749 
1700	 0.267023178878199 
1701	 0.266004886912097 
1702	 0.26505289372339 
1703	 0.264156471613096 
1704	 0.263294983672121 
1705	 0.26245551884729 
1706	 0.26167721917052 
1707	 0.261014590411252 
1708	 0.260389708376244 
1709	 0.259822018855732 
1710	 0.259311287807429 
1711	 0.258802473087332 
1712	 0.258337576242034 
1713	 0.257898533797968 
1714	 0.257463361500162 
1715	 0.257070044982425 
1716	 0.256707106376865 
1717	 0.256364560299098 
1718	 0.256053254164398 
1719	 0.255788126165032 
1720	 0.255561159755778 
1721	 0.255390868873094 
1722	 0.255288267968716 
1723	 0.255253733978228 
1724	 0.255300066378505 
1725	 0.255425622263822 
1726	 0.255690298382347 
1727	 0.256100245285201 
1728	 0.256609737840344 
1729	 0.257256337687448 
1730	 0.258014264922813 
1731	 0.258787471989072 
1732	 0.259642755248613 
1733	 0.260511675672554 
1734	 0.261361498537022 
1735	 0.262246989280442 
1736	 0.263062625696963 
1737	 0.263821677896426 
1738	 0.26450693219215 
1739	 0.265097876226494 
1740	 0.265593236363385 
1741	 0.266053128509601 
1742	 0.26643245567945 
1743	 0.266781444223124 
1744	 0.267077544249604 
1745	 0.267370552582169 
1746	 0.267591545534797 
1747	 0.26785547595656 
1748	 0.268118723458865 
1749	 0.268418467041646 
1750	 0.268739228390655 
1751	 0.269095755595209 
1752	 0.269467804151004 
1753	 0.269913396073408 
1754	 0.27038720343678 
1755	 0.27094832966162 
1756	 0.271575278594144 
1757	 0.272267779021836 
1758	 0.273084402081187 
1759	 0.273917523340376 
1760	 0.274862391598638 
1761	 0.275934632201671 
1762	 0.277000786201584 
1763	 0.278185209478895 
1764	 0.279423214993549 
1765	 0.280657667920561 
1766	 0.281997060580953 
1767	 0.283323031447933 
1768	 0.284691682325479 
1769	 0.286081315156879 
1770	 0.287318362394626 
1771	 0.288550937441827 
1772	 0.289735116876473 
1773	 0.290834123627918 
1774	 0.291978002159517 
1775	 0.293009968148867 
1776	 0.293967388793026 
1777	 0.294857292121149 
1778	 0.295594928175698 
1779	 0.296321339532881 
1780	 0.296983439703123 
1781	 0.297574534057954 
1782	 0.298171987289588 
1783	 0.298711987976487 
1784	 0.299223368057333 
1785	 0.299647561011766 
1786	 0.300059665048947 
1787	 0.300433545309908 
1788	 0.300789267786278 
1789	 0.301127731671129 
1790	 0.301446676001017 
1791	 0.301734753740007 
1792	 0.302021764223564 
1793	 0.302288435073949 
1794	 0.302566931866992 
1795	 0.302822642322346 
1796	 0.303057265189877 
1797	 0.303316545027348 
1798	 0.30359944593451 
1799	 0.30385786266673 
1800	 0.304106318005896 
1801	 0.300805539196045 
1802	 0.301059053999773 
1803	 0.301323555253144 
1804	 0.301571245705674 
1805	 0.301839837898097 
1806	 0.302099942245867 
1807	 0.302371257326887 
1808	 0.302639478282846 
1809	 0.302900927039384 
1810	 0.303164738972597 
1811	 0.303439839219763 
1812	 0.303707961721373 
1813	 0.303964737551867 
1814	 0.304243249000557 
1815	 0.304489475069549 
1816	 0.304740436646851 
1817	 0.305023496974956 
1818	 0.305320644289205 
1819	 0.305609907759952 
1820	 0.305922238383874 
1821	 0.306236992964894 
1822	 0.306549312278734 
1823	 0.306857269313569 
1824	 0.307181022824555 
1825	 0.307507120119346 
1826	 0.307814164437094 
1827	 0.308099134362075 
1828	 0.308396068866218 
1829	 0.308689102035894 
1830	 0.308987088135984 
1831	 0.309283302015361 
1832	 0.30959068045925 
1833	 0.309897758043299 
1834	 0.310215948771796 
1835	 0.310542731000044 
1836	 0.310853164717267 
1837	 0.311174339044318 
1838	 0.311499068699018 
1839	 0.31182067332544 
1840	 0.31215429414907 
1841	 0.312476716338929 
1842	 0.312791082628653 
1843	 0.313103212426491 
1844	 0.313416238805628 
1845	 0.313710767363408 
1846	 0.314028172843293 
1847	 0.314339411460867 
1848	 0.314641795223723 
1849	 0.314954385812635 
1850	 0.315242031290972 
1851	 0.315513799823525 
1852	 0.315783740288169 
1853	 0.316023041294163 
1854	 0.316217997329987 
1855	 0.316408065221051 
1856	 0.316568191361783 
1857	 0.316714899275728 
1858	 0.316873059396179 
1859	 0.317000443648056 
1860	 0.317117769413415 
1861	 0.317195295871186 
1862	 0.317254039236299 
1863	 0.317274326806237 
1864	 0.317255692069699 
1865	 0.317202764644356 
1866	 0.317128747881901 
1867	 0.317013863413295 
1868	 0.316868648999798 
1869	 0.316701519854269 
1870	 0.316471616928598 
1871	 0.316202301934102 
1872	 0.315877328273023 
1873	 0.315503122325486 
1874	 0.315070840931469 
1875	 0.314607060276003 
1876	 0.314056262944981 
1877	 0.313467686709598 
1878	 0.31278784559796 
1879	 0.312005145122493 
1880	 0.311194857753027 
1881	 0.310241213541779 
1882	 0.309180358799609 
1883	 0.308021264238866 
1884	 0.3067179800618 
1885	 0.305171343928161 
1886	 0.303544456597785 
1887	 0.301748023676436 
1888	 0.299739302689712 
1889	 0.297802756018303 
1890	 0.295707093537774 
1891	 0.293553880819235 
1892	 0.291444446752464 
1893	 0.289249575327885 
1894	 0.286931173784086 
1895	 0.284700017291751 
1896	 0.282462101564392 
1897	 0.280235638406972 
1898	 0.278220318672049 
1899	 0.276208417762062 
1900	 0.274281628380455 
1901	 0.272462974482614 
1902	 0.270573948791959 
1903	 0.268829612311838 
1904	 0.267174434793731 
1905	 0.265585142653114 
1906	 0.26407089493216 
1907	 0.262769299777656 
1908	 0.261508749685399 
1909	 0.260348682485056 
1910	 0.2593154244255 
1911	 0.258280627595358 
1912	 0.257359505725387 
1913	 0.256511791505591 
1914	 0.255687897519727 
1915	 0.254970392254774 
1916	 0.254364569700582 
1917	 0.253798613728869 
1918	 0.253286068224663 
1919	 0.252870697908853 
1920	 0.252495573827264 
1921	 0.25219163919418 
1922	 0.251938532743553 
1923	 0.25173587182584 
1924	 0.251601946522166 
1925	 0.251494500282386 
1926	 0.251429246672047 
1927	 0.251410873554697 
1928	 0.251427059115132 
1929	 0.251486832105401 
1930	 0.25156730042794 
1931	 0.251690562483902 
1932	 0.251843255746567 
1933	 0.252005797979527 
1934	 0.252222208303739 
1935	 0.252466025123191 
1936	 0.252741297830378 
1937	 0.25306171198425 
1938	 0.253435682925609 
1939	 0.253816707329114 
1940	 0.254228931344205 
1941	 0.254672269867693 
1942	 0.25511016072643 
1943	 0.255591162547162 
1944	 0.256092327879597 
1945	 0.256587003694931 
1946	 0.257135610894177 
1947	 0.257693103366287 
1948	 0.258260463970901 
1949	 0.258861336689865 
1950	 0.259439093897352 
1951	 0.260003417783423 
1952	 0.260582531852296 
1953	 0.261157962419872 
1954	 0.261737684582555 
1955	 0.26236555243484 
1956	 0.26297254125813 
1957	 0.263595453050116 
1958	 0.264224179394109 
1959	 0.264791482681071 
1960	 0.265389663982085 
1961	 0.26598448955527 
1962	 0.266557742158226 
1963	 0.267154781106929 
1964	 0.267789041080683 
1965	 0.268380133936279 
1966	 0.26895772411434 
1967	 0.269551569625594 
1968	 0.270093155353382 
1969	 0.270632704265863 
1970	 0.271182351899922 
1971	 0.271730592773543 
1972	 0.272322508611445 
1973	 0.272909031519052 
1974	 0.273479172486139 
1975	 0.274068922800545 
1976	 0.27461857490984 
1977	 0.275123235986254 
1978	 0.275644916909275 
1979	 0.276158700346327 
1980	 0.276665719062946 
1981	 0.277188285868078 
1982	 0.277700274077388 
1983	 0.2782058136827 
1984	 0.278698452143792 
1985	 0.279169052035044 
1986	 0.279653912720443 
1987	 0.28011466571865 
1988	 0.280561144474638 
1989	 0.281000950278342 
1990	 0.281434407707966 
1991	 0.281839650539539 
1992	 0.282229056496271 
1993	 0.282622038699378 
1994	 0.282957067920491 
1995	 0.283266174338481 
1996	 0.283582273735751 
1997	 0.283861629905557 
1998	 0.284139995951479 
1999	 0.284424082481045 
2000	 0.284672282677785 
2001	 0.284898923256828 
2002	 0.285103378059768 
2003	 0.285289189392012 
2004	 0.285441438200406 
2005	 0.285560505865123 
2006	 0.285668131256199 
2007	 0.285764357002108 
2008	 0.285808380418104 
2009	 0.28583642647725 
2010	 0.285858379355785 
2011	 0.285827032737875 
2012	 0.285784909949822 
2013	 0.285698563271186 
2014	 0.285575101966875 
2015	 0.285425210774825 
2016	 0.285243573856672 
2017	 0.285027791204068 
2018	 0.284786533215044 
2019	 0.284511892571339 
2020	 0.284208407340756 
2021	 0.283845352188839 
2022	 0.283473228265026 
2023	 0.283072158165518 
2024	 0.28262463460354 
2025	 0.282172084756939 
2026	 0.281661927432775 
2027	 0.281078728632496 
2028	 0.280533066508528 
2029	 0.279953601928517 
2030	 0.279389329208191 
2031	 0.278860730445649 
2032	 0.278298567455031 
2033	 0.277686408699303 
2034	 0.277123882052381 
2035	 0.276567851372564 
2036	 0.276011458245033 
2037	 0.275526744008618 
2038	 0.275063786117642 
2039	 0.27462871469826 
2040	 0.274228503748254 
2041	 0.273851397616673 
2042	 0.273486894169635 
2043	 0.27318245179296 
2044	 0.272917666289999 
2045	 0.272684766828139 
2046	 0.272523134069898 
2047	 0.272346698330411 
2048	 0.272174803098338 
2049	 0.272040842319927 
2050	 0.271924472305985 
2051	 0.271829945961622 
2052	 0.271784807485922 
2053	 0.271758946570194 
2054	 0.271742519644323 
2055	 0.271753025558438 
2056	 0.271758008409157 
2057	 0.271770580014018 
2058	 0.271795998396385 
2059	 0.271828302330027 
2060	 0.271867191947069 
2061	 0.271925184637793 
2062	 0.271976385166254 
2063	 0.272018450403792 
2064	 0.272080691650001 
2065	 0.272144783331016 
2066	 0.272232477972291 
2067	 0.272327357757574 
2068	 0.272441453632094 
2069	 0.272556598079812 
2070	 0.272687176941553 
2071	 0.272800504173919 
2072	 0.27292750901884 
2073	 0.273024649481698 
2074	 0.273099522072294 
2075	 0.273174410302357 
2076	 0.273224329518842 
2077	 0.27328924757302 
2078	 0.273367356023697 
2079	 0.273432967062816 
2080	 0.273500019503488 
2081	 0.273557115678012 
2082	 0.273609567809321 
2083	 0.273639240600588 
2084	 0.273657040060065 
2085	 0.273697581876004 
2086	 0.273723186208192 
2087	 0.273741673681003 
2088	 0.273752102036874 
2089	 0.273762573346483 
2090	 0.273760763162895 
2091	 0.273746488124896 
2092	 0.273729279489998 
2093	 0.273712510100093 
2094	 0.273676947486934 
2095	 0.273619226746411 
2096	 0.27356835974208 
2097	 0.273521043860013 
2098	 0.273450804957548 
2099	 0.273372808149177 
2100	 0.273299773815164 
2101	 0.273198608816112 
2102	 0.273079563404702 
2103	 0.272939233977104 
2104	 0.27278042991663 
2105	 0.272606762135746 
2106	 0.272402106389049 
2107	 0.272198834091556 
2108	 0.272001383296779 
2109	 0.271768817390288 
2110	 0.271512231617214 
2111	 0.271245993985463 
2112	 0.270947458147193 
2113	 0.270648136043031 
2114	 0.270351294011436 
2115	 0.270034042917046 
2116	 0.269698091825298 
2117	 0.269352791855891 
2118	 0.269003416284913 
2119	 0.2686276441442 
2120	 0.268286309182857 
2121	 0.267952595195999 
2122	 0.267627562793567 
2123	 0.267319171003359 
2124	 0.267010193309003 
2125	 0.26670639274529 
2126	 0.266403471226123 
2127	 0.266101640088096 
2128	 0.265816315921955 
2129	 0.265534915396756 
2130	 0.26526241582964 
2131	 0.265012938408246 
2132	 0.264755830080093 
2133	 0.264496641396159 
2134	 0.264244305490181 
2135	 0.263987119506084 
2136	 0.263749732927067 
2137	 0.263514836541141 
2138	 0.263276028570021 
2139	 0.263071763530072 
2140	 0.262886046276026 
2141	 0.262711090952177 
2142	 0.262559826363035 
2143	 0.262420389583134 
2144	 0.262293129944464 
2145	 0.262176495647287 
2146	 0.262071391842459 
2147	 0.26198631786481 
2148	 0.261914533257765 
2149	 0.261858034469995 
2150	 0.261827904939196 
2151	 0.261804878202091 
2152	 0.261807986430191 
2153	 0.261792923347801 
2154	 0.261786892113491 
2155	 0.26178276298961 
2156	 0.261761798314586 
2157	 0.261723068915384 
2158	 0.26169993700866 
2159	 0.261686714327336 
2160	 0.261642850034521 
2161	 0.261589429233118 
2162	 0.261535940192937 
2163	 0.261452771105757 
2164	 0.261389101738879 
2165	 0.261335041297864 
2166	 0.261288617924474 
2167	 0.261239583819903 
2168	 0.261204470877613 
2169	 0.261187188036054 
2170	 0.261172296599739 
2171	 0.261150380008534 
2172	 0.261154942917765 
2173	 0.2611849790413 
2174	 0.261206698908324 
2175	 0.261245828742798 
2176	 0.261325563157608 
2177	 0.2614132787083 
2178	 0.261521798205066 
2179	 0.261630404740167 
2180	 0.261763249040177 
2181	 0.261882233495036 
2182	 0.261996787882732 
2183	 0.262116788100746 
2184	 0.262248946716975 
2185	 0.262359125802563 
2186	 0.262456767306804 
2187	 0.262564587269123 
2188	 0.262671165377226 
2189	 0.262766452610071 
2190	 0.26287453307837 
2191	 0.262956014665245 
2192	 0.263010891707177 
2193	 0.263063605633076 
2194	 0.26311246676436 
2195	 0.263144939889295 
2196	 0.263175829576378 
2197	 0.263168455251942 
2198	 0.26315514783587 
2199	 0.263140362941533 
2200	 0.2631133223756 
2201	 0.263076228739436 
2202	 0.263035073464964 
2203	 0.262997796610547 
2204	 0.262915385469056 
2205	 0.262821874213273 
2206	 0.262688136477942 
2207	 0.262511948609057 
2208	 0.262316701556908 
2209	 0.262096081658827 
2210	 0.261850196584238 
2211	 0.261579846016064 
2212	 0.261278346698204 
2213	 0.260956095858755 
2214	 0.260588833414935 
2215	 0.260197011344998 
2216	 0.259743524264387 
2217	 0.259267445009727 
2218	 0.258702540071265 
2219	 0.258055846675413 
2220	 0.257366248248028 
2221	 0.256602337708935 
2222	 0.255782640943745 
2223	 0.254980369151148 
2224	 0.254062977127614 
2225	 0.253090291844696 
2226	 0.25204399644283 
2227	 0.2508433624333 
2228	 0.249518974523026 
2229	 0.248102512847961 
2230	 0.246532783547979 
2231	 0.244931581287788 
2232	 0.243267847996414 
2233	 0.241468154514 
2234	 0.239633816741446 
2235	 0.237560963128724 
2236	 0.235301456308332 
2237	 0.232946344639203 
2238	 0.230327154607449 
2239	 0.227775365947703 
2240	 0.225207143481276 
2241	 0.222502414259015 
2242	 0.219810771416631 
2243	 0.216905711655581 
2244	 0.213751980843207 
2245	 0.21062819185083 
2246	 0.20729808029772 
2247	 0.204077092785963 
2248	 0.20090442711803 
2249	 0.197701814843702 
2250	 0.194495133283976 
2251	 0.191369366895096 
2252	 0.188056636536193 
2253	 0.18486363545644 
2254	 0.181678585185583 
2255	 0.178512212801888 
2256	 0.175650498292189 
2257	 0.172849315584114 
2258	 0.170188697947008 
2259	 0.167733879615533 
2260	 0.16525699037666 
2261	 0.16280385079223 
2262	 0.160563016478958 
2263	 0.158382140571043 
2264	 0.156423827559158 
2265	 0.154722454382505 
2266	 0.153026512886706 
2267	 0.151498130418699 
2268	 0.149967147770742 
2269	 0.148513901689144 
2270	 0.147085871751619 
2271	 0.145678139933218 
2272	 0.144335568393935 
2273	 0.143078921112049 
2274	 0.141797723828176 
2275	 0.14063788762543 
2276	 0.139333461984367 
2277	 0.137950995241571 
2278	 0.136562931487571 
2279	 0.135070962471055 
2280	 0.13360219324847 
2281	 0.132148015850155 
2282	 0.13066699347518 
2283	 0.129172298159328 
2284	 0.127672281900415 
2285	 0.126058756345971 
2286	 0.124478448445111 
2287	 0.122822759542881 
2288	 0.121140775129869 
2289	 0.119620387394685 
2290	 0.118061473005661 
2291	 0.116559309630901 
2292	 0.115151232231471 
2293	 0.113690690977013 
2294	 0.112346882492444 
2295	 0.111130026473594 
2296	 0.110024470205762 
2297	 0.109137650090962 
2298	 0.108453809087164 
2299	 0.107903400625321 
2300	 0.107521864394684 
2301	 0.107325002468497 
2302	 0.107273607628787 
2303	 0.107472783243692 
2304	 0.107899194920055 
2305	 0.108530666717231 
2306	 0.109450351077033 
2307	 0.110449704509274 
2308	 0.111630822275591 
2309	 0.112952344200262 
2310	 0.114446119304096 
2311	 0.116007516486587 
2312	 0.117861396791635 
2313	 0.119535788004111 
2314	 0.121271649892291 
2315	 0.122866734093388 
2316	 0.124356068565168 
2317	 0.125758732540828 
2318	 0.127103233585881 
2319	 0.12828377017894 
2320	 0.129383061263442 
2321	 0.130305083634589 
2322	 0.131056426334759 
2323	 0.131667186297753 
2324	 0.132096686302236 
2325	 0.132404059899174 
2326	 0.132551622450415 
2327	 0.132573808973202 
2328	 0.132434512246801 
2329	 0.132201558733086 
2330	 0.131828483185547 
2331	 0.13134591488452 
2332	 0.130793199657531 
2333	 0.130120129676068 
2334	 0.129344693780856 
2335	 0.128535992119023 
2336	 0.12769101090734 
2337	 0.126788981883055 
2338	 0.125886347075306 
2339	 0.125014834596954 
2340	 0.124149671897968 
2341	 0.123385953182177 
2342	 0.122745194119502 
2343	 0.122215349896876 
2344	 0.12188994880395 
2345	 0.121773473615111 
2346	 0.121844958872489 
2347	 0.122163034123395 
2348	 0.122656268150709 
2349	 0.123383600687626 
2350	 0.124340241085107 
2351	 0.125410237780982 
2352	 0.126537810807951 
2353	 0.127731773293527 
2354	 0.128865387660645 
2355	 0.129945569240886 
2356	 0.131031867403615 
2357	 0.132016425313438 
2358	 0.132908657283818 
2359	 0.133634547244655 
2360	 0.134210812328211 
2361	 0.134643872441218 
2362	 0.134927273797009 
2363	 0.135167499775476 
2364	 0.135390027144866 
2365	 0.13553878301101 
2366	 0.135686841936083 
2367	 0.135845373644302 
2368	 0.135955629853188 
2369	 0.13603821134522 
2370	 0.136099443931886 
2371	 0.136154133261913 
2372	 0.136167632212676 
2373	 0.136227573146219 
2374	 0.136377143906209 
2375	 0.136488644297983 
2376	 0.136557486854207 
2377	 0.136626736031967 
2378	 0.136674165343076 
2379	 0.136676337206315 
2380	 0.13667913097438 
2381	 0.136719043721715 
2382	 0.136733824076923 
2383	 0.136684510171423 
2384	 0.136696409515431 
2385	 0.136760558542152 
2386	 0.136771942668244 
2387	 0.136750154373485 
2388	 0.13674568778623 
2389	 0.13676574940926 
2390	 0.136758292358304 
2391	 0.136737965668857 
2392	 0.136729426028907 
2393	 0.136709783941207 
2394	 0.136625807925061 
2395	 0.136525855704091 
2396	 0.136457821934152 
2397	 0.136307412971544 
2398	 0.136280431690673 
2399	 0.136351227616311 
2400	 0.136370759012163 
2401	 0.136434158367127 
2402	 0.136440701436313 
2403	 0.136461074393515 
2404	 0.136506298865592 
2405	 0.136569008056453 
2406	 0.136647948225151 
2407	 0.136749768068478 
2408	 0.136914296381047 
2409	 0.137072105306961 
2410	 0.137161252390759 
2411	 0.137232864010551 
2412	 0.137281877091222 
2413	 0.137294526627551 
2414	 0.13737713700403 
2415	 0.137418725713489 
2416	 0.137426854187604 
2417	 0.137500397205809 
2418	 0.137485247018452 
2419	 0.137485454961065 
2420	 0.137521486577202 
2421	 0.137507094961272 
2422	 0.137544572180153 
2423	 0.137600134061943 
2424	 0.137603306631718 
2425	 0.13759722947275 
2426	 0.13755113920788 
2427	 0.137471749454734 
2428	 0.137471834303483 
2429	 0.137405564452417 
2430	 0.137253710100242 
2431	 0.137144995334772 
2432	 0.137048014759477 
2433	 0.136974647314476 
2434	 0.136920067055916 
2435	 0.136915737785924 
2436	 0.136788231081684 
2437	 0.136517918443372 
2438	 0.136390481491124 
2439	 0.136240049509619 
2440	 0.136005378102267 
2441	 0.135790092648282 
2442	 0.135448769285728 
2443	 0.13510239870763 
2444	 0.134778334672013 
2445	 0.134436838740515 
2446	 0.134099591551048 
2447	 0.133638547904348 
2448	 0.133299633112334 
2449	 0.133134187481354 
2450	 0.132879825138789 
2451	 0.132647570514261 
2452	 0.132411830956942 
2453	 0.131956137616163 
2454	 0.131624477053915 
2455	 0.131504110202675 
2456	 0.131142656291582 
2457	 0.13083536141884 
2458	 0.130587623318219 
2459	 0.130063343764855 
2460	 0.129750942507224 
2461	 0.129578989814729 
2462	 0.129278483685288 
2463	 0.129098158858202 
2464	 0.128884372934618 
2465	 0.128600406137471 
2466	 0.128486441919531 
2467	 0.128460426733949 
2468	 0.128354317229185 
2469	 0.128307750901855 
2470	 0.12823512056524 
2471	 0.128072389844154 
2472	 0.128135338940877 
2473	 0.128139996922502 
2474	 0.127963732510615 
2475	 0.127953427191014 
2476	 0.128024533757662 
2477	 0.128128014896883 
2478	 0.128309803325857 
2479	 0.128406270653258 
2480	 0.128346808945865 
2481	 0.128471683257824 
2482	 0.128799766170285 
2483	 0.129067001599441 
2484	 0.129019946304045 
2485	 0.128840567692558 
2486	 0.12899218032631 
2487	 0.129268415105799 
2488	 0.129509386316617 
2489	 0.129845067828228 
2490	 0.130076129000811 
2491	 0.130005528182608 
2492	 0.13010364020515 
2493	 0.130438441302009 
2494	 0.130648734073298 
2495	 0.131001557159135 
2496	 0.131560202678092 
2497	 0.131932721787264 
2498	 0.132057990424369 
2499	 0.132160743806301 
2500	 0.132078840897845 
