Wavelength	spectrum00025.asd
350	 4.18507587405289E-02 
351	 3.93411936762846E-02 
352	 3.76852833311344E-02 
353	 3.83021530960295E-02 
354	 3.85048206697982E-02 
355	 3.98325374348532E-02 
356	 4.03983387917722E-02 
357	 3.88338487493979E-02 
358	 3.69456599126982E-02 
359	 0.036934658300354 
360	 3.78104262577131E-02 
361	 3.73270213881647E-02 
362	 0.037939539712084 
363	 3.78500633696797E-02 
364	 0.036897017732776 
365	 3.75247569049668E-02 
366	 3.80429281578372E-02 
367	 3.76218431262147E-02 
368	 3.64133090687442E-02 
369	 3.69903812562186E-02 
370	 3.71687117264002E-02 
371	 3.68349756565849E-02 
372	 3.69748832539529E-02 
373	 3.66432980393545E-02 
374	 3.70405968613365E-02 
375	 3.82436732350157E-02 
376	 3.84665855841209E-02 
377	 3.87994256699292E-02 
378	 0.038595747727516 
379	 3.75305256407484E-02 
380	 3.78354174960071E-02 
381	 3.79717820333647E-02 
382	 3.75991031025369E-02 
383	 3.71997377900388E-02 
384	 3.71289221072544E-02 
385	 3.77881709008781E-02 
386	 3.87548828109643E-02 
387	 3.84258123966391E-02 
388	 0.03782872757718 
389	 3.75986482589255E-02 
390	 0.037923495364962 
391	 3.78370622403604E-02 
392	 3.76581657886097E-02 
393	 3.75211608550573E-02 
394	 3.74551430566289E-02 
395	 3.79599543515341E-02 
396	 3.85580453234706E-02 
397	 0.038735646122747 
398	 0.038079841301496 
399	 3.76956590044347E-02 
400	 3.76623607965579E-02 
401	 3.76945043865414E-02 
402	 3.74014474848407E-02 
403	 3.76524167541039E-02 
404	 3.81245332507256E-02 
405	 3.77342438119909E-02 
406	 3.81211682938918E-02 
407	 3.82041475004723E-02 
408	 3.76496157549288E-02 
409	 3.84108503797774E-02 
410	 3.85734618093588E-02 
411	 3.81164353823976E-02 
412	 3.77116995951761E-02 
413	 3.81257577591107E-02 
414	 3.82199688554475E-02 
415	 3.79653536254897E-02 
416	 3.83388162432638E-02 
417	 3.80130739295461E-02 
418	 3.75967796534295E-02 
419	 3.76031106975512E-02 
420	 3.74947087281632E-02 
421	 3.76813144394471E-02 
422	 3.79036229537305E-02 
423	 3.77623851875515E-02 
424	 0.037842294232786 
425	 3.78792840311155E-02 
426	 3.77917711673305E-02 
427	 3.77781168178548E-02 
428	 3.77673704710121E-02 
429	 3.77990085985918E-02 
430	 3.78839533351149E-02 
431	 3.78912323198284E-02 
432	 0.037858068621918 
433	 3.77569518857823E-02 
434	 3.75797696535372E-02 
435	 0.037862920885546 
436	 3.79751310627082E-02 
437	 3.76952043857367E-02 
438	 3.76250077530072E-02 
439	 3.76794791020786E-02 
440	 0.037801178533456 
441	 3.78970821345452E-02 
442	 3.77397538361089E-02 
443	 3.77962775045997E-02 
444	 3.80103995631049E-02 
445	 3.79193930644177E-02 
446	 3.77929656714941E-02 
447	 3.77413224966597E-02 
448	 3.77984728725341E-02 
449	 3.79222484652731E-02 
450	 3.78280224542181E-02 
451	 3.76541846518433E-02 
452	 3.76789150955117E-02 
453	 3.78741300743184E-02 
454	 0.038002795156081 
455	 3.79738306219607E-02 
456	 3.78790582998848E-02 
457	 3.78036123263715E-02 
458	 3.77477071275462E-02 
459	 3.77299379157777E-02 
460	 3.79356639075431E-02 
461	 3.79219128511867E-02 
462	 3.77663536468277E-02 
463	 3.78096466497173E-02 
464	 3.78489229178571E-02 
465	 3.79337545809995E-02 
466	 3.80102777965878E-02 
467	 3.78144665263962E-02 
468	 3.78328455009914E-02 
469	 3.78919791368444E-02 
470	 3.77721839208194E-02 
471	 3.79463845427438E-02 
472	 3.80485794569484E-02 
473	 3.79921748141912E-02 
474	 3.79344314830623E-02 
475	 3.78408451627002E-02 
476	 3.78479676908919E-02 
477	 3.79725896472209E-02 
478	 3.79117140872664E-02 
479	 3.78966328060746E-02 
480	 3.78950349796276E-02 
481	 3.78121723127619E-02 
482	 3.78258489745267E-02 
483	 3.78535367180999E-02 
484	 3.78649362624734E-02 
485	 3.79112289401078E-02 
486	 3.81032640868448E-02 
487	 3.81407881932084E-02 
488	 3.78832742366652E-02 
489	 3.79759607577557E-02 
490	 3.80032479006833E-02 
491	 3.79529071568943E-02 
492	 3.80328253834284E-02 
493	 3.81068164984116E-02 
494	 3.80951163905455E-02 
495	 3.80259769985053E-02 
496	 3.80969021340706E-02 
497	 3.81167765126934E-02 
498	 3.80734583182189E-02 
499	 3.80177014008951E-02 
500	 0.038001209402235 
501	 3.80534111792953E-02 
502	 3.80986918720958E-02 
503	 3.79901277909371E-02 
504	 3.80062084324544E-02 
505	 3.80752459521196E-02 
506	 3.81080947623186E-02 
507	 3.81425859992299E-02 
508	 3.81251558948197E-02 
509	 3.80702876340382E-02 
510	 3.80245516190081E-02 
511	 3.80084945123641E-02 
512	 0.038032246011171 
513	 3.80905718695797E-02 
514	 3.81648613112462E-02 
515	 3.81041787529667E-02 
516	 3.80484107167528E-02 
517	 3.81190292440467E-02 
518	 3.80871531248706E-02 
519	 3.80630545307165E-02 
520	 3.80885836808697E-02 
521	 3.81453239099726E-02 
522	 3.81451303395009E-02 
523	 3.81063115800058E-02 
524	 3.80776189660885E-02 
525	 3.81436805584241E-02 
526	 3.81518637531579E-02 
527	 3.81457361656578E-02 
528	 3.82078028453615E-02 
529	 3.82146001235111E-02 
530	 3.81784532782725E-02 
531	 3.81558690033905E-02 
532	 0.038234752522722 
533	 3.82420917178571E-02 
534	 3.82291083350884E-02 
535	 3.82520212070416E-02 
536	 3.82270879159626E-02 
537	 3.82184083330917E-02 
538	 3.82231138098929E-02 
539	 3.82068236416433E-02 
540	 3.82132555524623E-02 
541	 0.038253878572474 
542	 3.83097734336598E-02 
543	 3.83203513406979E-02 
544	 3.83281833812515E-02 
545	 3.83040498666983E-02 
546	 3.82315342418428E-02 
547	 3.82435644040345E-02 
548	 3.82757503623377E-02 
549	 3.82845454155304E-02 
550	 3.82552712164288E-02 
551	 3.82117287965897E-02 
552	 3.82022120867065E-02 
553	 3.82384461205381E-02 
554	 3.82288219543764E-02 
555	 3.82526032945331E-02 
556	 3.82928923637547E-02 
557	 3.82943432748183E-02 
558	 3.82736371624682E-02 
559	 3.83099444219312E-02 
560	 0.038400046204061 
561	 3.84212103499165E-02 
562	 3.84389417568547E-02 
563	 3.84675449470874E-02 
564	 3.85016504626008E-02 
565	 3.85105551233816E-02 
566	 3.85247741946204E-02 
567	 0.038528448871471 
568	 3.84796027538334E-02 
569	 3.84904337655228E-02 
570	 3.84970198901256E-02 
571	 3.84512791765573E-02 
572	 3.83934832468342E-02 
573	 0.038357865411818 
574	 3.83601686623525E-02 
575	 3.83969573641345E-02 
576	 3.84239059034036E-02 
577	 0.038439249435792 
578	 3.84455205531554E-02 
579	 3.84467213314285E-02 
580	 3.84679731042042E-02 
581	 3.84958962510279E-02 
582	 3.85116844741404E-02 
583	 3.85065218305106E-02 
584	 3.85306775951715E-02 
585	 3.85758437714014E-02 
586	 3.85996355176219E-02 
587	 3.86060536322115E-02 
588	 3.86110863576792E-02 
589	 3.86149639994746E-02 
590	 3.85874550898218E-02 
591	 3.85805650612123E-02 
592	 3.85924833675137E-02 
593	 3.86006329708773E-02 
594	 3.85701455911211E-02 
595	 3.85680201519482E-02 
596	 3.85898638967138E-02 
597	 3.85707372460552E-02 
598	 3.85800507318968E-02 
599	 0.038600064287364 
600	 3.86112241828669E-02 
601	 3.86280800335722E-02 
602	 3.86449388740502E-02 
603	 3.86602825152546E-02 
604	 0.038672779031415 
605	 3.86718681256341E-02 
606	 3.86641443530276E-02 
607	 3.86677460505674E-02 
608	 3.87125613008809E-02 
609	 3.86818759378606E-02 
610	 3.86440474578746E-02 
611	 3.86770158669738E-02 
612	 3.87355599014987E-02 
613	 3.87339717096263E-02 
614	 3.86954025262508E-02 
615	 3.87067070489098E-02 
616	 3.87024657380838E-02 
617	 3.87034880546809E-02 
618	 3.87223855866815E-02 
619	 3.87399604540675E-02 
620	 3.87350654365443E-02 
621	 3.87392361930485E-02 
622	 3.87776998556512E-02 
623	 3.87504807242529E-02 
624	 3.87330622931854E-02 
625	 0.038748032901514 
626	 3.87614206252221E-02 
627	 3.87717836360316E-02 
628	 0.038783450733641 
629	 0.038796671862413 
630	 3.87961016237425E-02 
631	 3.87946699624531E-02 
632	 0.038805102747031 
633	 3.88323947925511E-02 
634	 3.88333896917467E-02 
635	 3.88215659561078E-02 
636	 3.88214279085497E-02 
637	 3.88635418970405E-02 
638	 0.03887656252436 
639	 3.88575043133613E-02 
640	 3.88306715550589E-02 
641	 3.88439857594554E-02 
642	 3.88700724600919E-02 
643	 0.038891550355629 
644	 3.88998550871071E-02 
645	 3.89062184589935E-02 
646	 3.89098502747903E-02 
647	 3.89103000545273E-02 
648	 3.89094992119173E-02 
649	 3.89190638761476E-02 
650	 3.89324890252312E-02 
651	 3.89370877921488E-02 
652	 3.89209820777895E-02 
653	 3.89039042102025E-02 
654	 3.89004651145722E-02 
655	 3.89169515387631E-02 
656	 3.89199305637066E-02 
657	 3.89317109370848E-02 
658	 3.89586421525367E-02 
659	 3.89522664988193E-02 
660	 3.89516686141316E-02 
661	 3.89625406617018E-02 
662	 3.89778693022343E-02 
663	 3.89953783371396E-02 
664	 0.038994791839502 
665	 3.89747941668586E-02 
666	 3.89547604570352E-02 
667	 3.89605441970872E-02 
668	 3.89905742825376E-02 
669	 3.90255465845639E-02 
670	 0.039018528208374 
671	 0.039003375111263 
672	 3.89987065772325E-02 
673	 0.039012581473863 
674	 3.90333326763583E-02 
675	 3.90379103293939E-02 
676	 3.90246145816828E-02 
677	 3.90178001306605E-02 
678	 3.90135037507514E-02 
679	 3.90225414840487E-02 
680	 3.90466236824045E-02 
681	 3.90505567078025E-02 
682	 3.90756174300031E-02 
683	 3.91031609306582E-02 
684	 3.90882280274966E-02 
685	 3.90583034780687E-02 
686	 3.90551862192359E-02 
687	 3.90801571507579E-02 
688	 3.90772255891384E-02 
689	 3.90766262421128E-02 
690	 3.90652762480819E-02 
691	 3.90404703982952E-02 
692	 3.90748796207268E-02 
693	 3.90870447543546E-02 
694	 0.039084604742794 
695	 3.91218354096382E-02 
696	 3.91118501705586E-02 
697	 3.90869882854368E-02 
698	 3.90733104665801E-02 
699	 0.039063349644548 
700	 3.90622627788049E-02 
701	 3.90658125886139E-02 
702	 3.90709798098631E-02 
703	 3.90931174890941E-02 
704	 3.90984111023166E-02 
705	 3.90884036430355E-02 
706	 3.90880126308655E-02 
707	 3.90835110292201E-02 
708	 3.90725530725645E-02 
709	 3.90660527402713E-02 
710	 3.90956472900768E-02 
711	 3.91155201076126E-02 
712	 3.91106389416878E-02 
713	 3.90901562200473E-02 
714	 3.91169209835837E-02 
715	 3.91241943207886E-02 
716	 3.91067376010432E-02 
717	 3.91051802471159E-02 
718	 3.91213397316477E-02 
719	 3.91348701501797E-02 
720	 3.91312959925068E-02 
721	 3.91096195272739E-02 
722	 3.91249293936881E-02 
723	 0.039156036148814 
724	 0.039163538028945 
725	 3.91383049012644E-02 
726	 0.039127495406454 
727	 3.91389398219155E-02 
728	 3.91495000932241E-02 
729	 3.91426458185963E-02 
730	 3.91326979490775E-02 
731	 3.91347966625805E-02 
732	 3.91581447929229E-02 
733	 3.91789056028519E-02 
734	 3.91859973258134E-02 
735	 3.91768028002195E-02 
736	 3.91587818564072E-02 
737	 3.91594025370653E-02 
738	 3.91687919609102E-02 
739	 3.91588229513408E-02 
740	 3.91868494649074E-02 
741	 3.91971122868398E-02 
742	 3.91715873296365E-02 
743	 3.91677186737311E-02 
744	 3.91712699459748E-02 
745	 3.91828001552202E-02 
746	 0.039198753261448 
747	 3.91927844424913E-02 
748	 3.91910664147546E-02 
749	 3.91925309401965E-02 
750	 3.91834729375018E-02 
751	 3.91852947017042E-02 
752	 3.91985483646321E-02 
753	 3.92130807758168E-02 
754	 3.92088860886954E-02 
755	 0.039195598138986 
756	 3.91815075192781E-02 
757	 3.91761167129335E-02 
758	 3.91974383446458E-02 
759	 0.039187698864353 
760	 3.91572393498276E-02 
761	 3.91480741791792E-02 
762	 3.91701454187104E-02 
763	 3.91836107846994E-02 
764	 3.91773764272361E-02 
765	 3.91747319937983E-02 
766	 3.91610472192178E-02 
767	 3.91466785974134E-02 
768	 3.91464462445626E-02 
769	 3.91787145318502E-02 
770	 3.91929611116572E-02 
771	 3.91886704478654E-02 
772	 0.039181887016906 
773	 0.03916384826951 
774	 0.039151869130257 
775	 0.039153639632833 
776	 0.039164591476343 
777	 3.91452821748578E-02 
778	 3.91428771287806E-02 
779	 3.91676402031086E-02 
780	 3.91466554612611E-02 
781	 3.91319966297147E-02 
782	 0.039132378743837 
783	 0.039140750348032 
784	 3.91412972047022E-02 
785	 3.91350537490866E-02 
786	 3.91275649176896E-02 
787	 3.91248790135868E-02 
788	 3.91145241310838E-02 
789	 3.91071905644664E-02 
790	 3.91103830822191E-02 
791	 3.91239682006571E-02 
792	 3.91156418904265E-02 
793	 3.90970588861593E-02 
794	 3.90880980753869E-02 
795	 3.91070864998594E-02 
796	 3.91057445066331E-02 
797	 3.90950913134524E-02 
798	 3.90995924838248E-02 
799	 3.90888959224006E-02 
800	 3.90818750110291E-02 
801	 3.90780338773254E-02 
802	 3.90635135099883E-02 
803	 3.90645985105274E-02 
804	 0.039066197985742 
805	 3.90588640935629E-02 
806	 3.90499186364935E-02 
807	 3.90696583246164E-02 
808	 3.90740247138738E-02 
809	 3.90355475115788E-02 
810	 3.90313570707801E-02 
811	 3.90327613626104E-02 
812	 3.90269540034256E-02 
813	 3.90124671591542E-02 
814	 3.90120987196754E-02 
815	 3.90209485662807E-02 
816	 3.90249777944297E-02 
817	 3.90086286632467E-02 
818	 3.90194334780343E-02 
819	 3.90184117657637E-02 
820	 3.89889003089315E-02 
821	 3.89713608434385E-02 
822	 3.89747291194486E-02 
823	 3.89817777514172E-02 
824	 3.89776049879197E-02 
825	 0.038979180291285 
826	 3.90027134957198E-02 
827	 3.90178877875796E-02 
828	 3.89887278731131E-02 
829	 3.89772033558084E-02 
830	 3.89835090959453E-02 
831	 3.89961839976494E-02 
832	 3.89970755562319E-02 
833	 3.89736223949705E-02 
834	 3.89650371077193E-02 
835	 3.89793595229798E-02 
836	 3.89661427167512E-02 
837	 3.89640745475567E-02 
838	 3.89557335018825E-02 
839	 3.89308900332075E-02 
840	 3.89394201097759E-02 
841	 3.89350965585314E-02 
842	 3.89170431368893E-02 
843	 3.89046992988539E-02 
844	 0.038917199679361 
845	 0.038924792149117 
846	 3.89160991630347E-02 
847	 3.88977877461555E-02 
848	 0.038886375041948 
849	 3.88723151996699E-02 
850	 3.88589319201816E-02 
851	 3.88676457187037E-02 
852	 3.88661322264943E-02 
853	 0.038864748468257 
854	 3.88710154166697E-02 
855	 3.88691765439388E-02 
856	 3.88286819928998E-02 
857	 3.88033484385749E-02 
858	 3.88386351110485E-02 
859	 0.038851164455441 
860	 3.88467968105654E-02 
861	 3.88367465841173E-02 
862	 3.88337486940066E-02 
863	 3.88368119507656E-02 
864	 3.88249738347696E-02 
865	 3.87974737455196E-02 
866	 3.87718602526771E-02 
867	 3.87438639350748E-02 
868	 3.87587248573901E-02 
869	 3.87928959581974E-02 
870	 3.87299510534732E-02 
871	 3.87236288330966E-02 
872	 3.87362490561959E-02 
873	 3.87252285698949E-02 
874	 3.87346841648021E-02 
875	 3.87215144955758E-02 
876	 3.87058284975688E-02 
877	 3.87132708028431E-02 
878	 3.87169633056909E-02 
879	 3.87077076976763E-02 
880	 3.86967637210514E-02 
881	 3.86982713470672E-02 
882	 3.86799104872801E-02 
883	 3.86735839441308E-02 
884	 3.86760474942303E-02 
885	 3.86603479577617E-02 
886	 0.038661336787801 
887	 3.86800569684259E-02 
888	 0.03868726068452 
889	 3.86340052323852E-02 
890	 3.86365262794649E-02 
891	 3.86594287271709E-02 
892	 3.86573706774223E-02 
893	 3.86187605028785E-02 
894	 3.86581696415045E-02 
895	 3.86845742575368E-02 
896	 3.86288865281388E-02 
897	 3.86167297107746E-02 
898	 3.86298050867438E-02 
899	 3.86268586166129E-02 
900	 3.85794469629902E-02 
901	 3.85428363204425E-02 
902	 3.85442642130256E-02 
903	 3.85821839170901E-02 
904	 3.86222053535869E-02 
905	 3.85533994841188E-02 
906	 3.85347745838528E-02 
907	 3.85792988032702E-02 
908	 3.85864952198957E-02 
909	 3.85510925981021E-02 
910	 3.85251083774375E-02 
911	 3.85336948806382E-02 
912	 3.85623941256518E-02 
913	 3.85678460102673E-02 
914	 3.85439572870111E-02 
915	 3.85089549650252E-02 
916	 3.85014979351003E-02 
917	 3.85173770635828E-02 
918	 3.85127356608785E-02 
919	 3.84873043651676E-02 
920	 3.85347795148663E-02 
921	 3.84712145383514E-02 
922	 3.84042488548574E-02 
923	 0.038437037561401 
924	 3.84641051712692E-02 
925	 3.84485058871342E-02 
926	 3.84437235657522E-02 
927	 3.84952433031043E-02 
928	 3.85096901776536E-02 
929	 3.85000707317049E-02 
930	 3.84928455561191E-02 
931	 3.85043189368709E-02 
932	 3.84782577160661E-02 
933	 3.84466112414311E-02 
934	 3.84292970780064E-02 
935	 3.84261081576768E-02 
936	 3.83735669568288E-02 
937	 3.83931650494682E-02 
938	 3.84400339538063E-02 
939	 3.83862787353251E-02 
940	 3.84157595979325E-02 
941	 3.84617775204753E-02 
942	 3.84680115640709E-02 
943	 3.84230787932152E-02 
944	 3.84359850539618E-02 
945	 3.84393531828136E-02 
946	 3.84290875475162E-02 
947	 0.038475015511011 
948	 3.84589017572418E-02 
949	 3.83934894931206E-02 
950	 3.83431221949163E-02 
951	 3.83938108633778E-02 
952	 3.84108184464231E-02 
953	 3.84085766395403E-02 
954	 3.84139326874409E-02 
955	 3.84277940838735E-02 
956	 3.83712253196398E-02 
957	 3.83556272926921E-02 
958	 3.84210464521464E-02 
959	 3.84222115931712E-02 
960	 3.83833524657043E-02 
961	 3.83619335674087E-02 
962	 3.83966853260845E-02 
963	 3.84699210078839E-02 
964	 3.84173032701572E-02 
965	 3.83455632228459E-02 
966	 3.83564717961433E-02 
967	 3.83666357550974E-02 
968	 3.83610304539889E-02 
969	 0.038354926695796 
970	 3.83650957421949E-02 
971	 3.83829080583521E-02 
972	 3.84052280787193E-02 
973	 0.038381788386356 
974	 3.83159524008131E-02 
975	 3.83966783087351E-02 
976	 3.83835271618929E-02 
977	 0.038363093417498 
978	 3.84285330858519E-02 
979	 3.83504834317171E-02 
980	 3.83471955154313E-02 
981	 0.038355989511498 
982	 3.82819215264902E-02 
983	 3.82353667626997E-02 
984	 3.83003911021635E-02 
985	 3.83747961230086E-02 
986	 3.83452745995208E-02 
987	 3.82983874532932E-02 
988	 3.83337785525978E-02 
989	 0.038386778246487 
990	 3.83480186034435E-02 
991	 3.81722878962113E-02 
992	 3.81885595805676E-02 
993	 3.82852798319956E-02 
994	 3.82763117206794E-02 
995	 3.83422930620655E-02 
996	 3.83711753949474E-02 
997	 3.83230251223488E-02 
998	 3.82578517992136E-02 
999	 3.84682206150445E-02 
1000	 0.038522712814946 
1001	 3.86869545851187E-02 
1002	 3.86962323270943E-02 
1003	 3.87250050316356E-02 
1004	 3.87376414433908E-02 
1005	 3.87533909548382E-02 
1006	 3.87610690946134E-02 
1007	 3.87538024229674E-02 
1008	 3.87589849241266E-02 
1009	 3.87893757857529E-02 
1010	 3.87744980855022E-02 
1011	 3.87219069185299E-02 
1012	 3.87041357245593E-02 
1013	 3.86607212380185E-02 
1014	 3.86490790705511E-02 
1015	 3.86763295994192E-02 
1016	 3.87240634732794E-02 
1017	 3.87465129623152E-02 
1018	 3.87171900086505E-02 
1019	 3.86675891031436E-02 
1020	 0.038644393559785 
1021	 3.86214189071435E-02 
1022	 3.85900263420272E-02 
1023	 3.85840404046771E-02 
1024	 3.86032007634951E-02 
1025	 3.86113580263244E-02 
1026	 3.86326095947623E-02 
1027	 3.86383234483189E-02 
1028	 0.038637466309985 
1029	 3.86308110925041E-02 
1030	 3.86047223294856E-02 
1031	 0.038594791866948 
1032	 3.85916837107384E-02 
1033	 3.85802477758147E-02 
1034	 3.85904347578677E-02 
1035	 3.85772666268197E-02 
1036	 3.85616029118576E-02 
1037	 3.85386649598964E-02 
1038	 3.85231091164065E-02 
1039	 3.85014127990133E-02 
1040	 3.84931555536851E-02 
1041	 3.84908973104687E-02 
1042	 3.84813057225383E-02 
1043	 3.84712123932402E-02 
1044	 3.84714959890409E-02 
1045	 3.84418036396662E-02 
1046	 3.84216546247945E-02 
1047	 3.84194117997513E-02 
1048	 3.84027579213479E-02 
1049	 3.84045955177572E-02 
1050	 3.84263816947618E-02 
1051	 3.84296958821915E-02 
1052	 3.84311123385784E-02 
1053	 0.038425066438132 
1054	 0.038413175541541 
1055	 3.84019990798692E-02 
1056	 3.83811501846179E-02 
1057	 3.83658836505564E-02 
1058	 3.83495081238533E-02 
1059	 0.03835155043619 
1060	 3.83540233306217E-02 
1061	 3.83355569899684E-02 
1062	 3.83315369112033E-02 
1063	 3.83115771242463E-02 
1064	 3.83105992875816E-02 
1065	 3.83496403151711E-02 
1066	 3.83697967600501E-02 
1067	 3.84088286842233E-02 
1068	 3.84370651198226E-02 
1069	 3.84283059289775E-02 
1070	 0.038419047958604 
1071	 3.84035798409495E-02 
1072	 0.038386905690187 
1073	 3.83640722273915E-02 
1074	 3.83482899349577E-02 
1075	 3.83613235525991E-02 
1076	 3.83786803706401E-02 
1077	 3.83886482626577E-02 
1078	 3.84053638508501E-02 
1079	 3.84144870475481E-02 
1080	 3.84084968079916E-02 
1081	 3.84120240732099E-02 
1082	 3.84263396911115E-02 
1083	 0.038421446500917 
1084	 3.84272681510997E-02 
1085	 0.038443268267974 
1086	 3.84425043923385E-02 
1087	 3.84245906437152E-02 
1088	 3.84341147393647E-02 
1089	 3.84390945515488E-02 
1090	 3.84189419060525E-02 
1091	 3.84414840603842E-02 
1092	 3.84548676469141E-02 
1093	 3.84358532322596E-02 
1094	 3.84384137358666E-02 
1095	 3.84444677690206E-02 
1096	 3.84272549315398E-02 
1097	 3.84085485742201E-02 
1098	 3.84269768712995E-02 
1099	 3.84303004392961E-02 
1100	 3.84190797021431E-02 
1101	 3.84544649292113E-02 
1102	 0.038460383965546 
1103	 3.84568485053458E-02 
1104	 0.03843598391132 
1105	 3.84391481517314E-02 
1106	 3.84226824665301E-02 
1107	 3.84184145220284E-02 
1108	 3.84337661762672E-02 
1109	 3.84389897682187E-02 
1110	 3.84339338033847E-02 
1111	 0.038440313141185 
1112	 0.038449577166674 
1113	 3.84400324757483E-02 
1114	 0.038447371168422 
1115	 3.84625522893103E-02 
1116	 3.84393210736758E-02 
1117	 3.84246790261103E-02 
1118	 0.038417338948575 
1119	 3.84020782627154E-02 
1120	 3.83919363921282E-02 
1121	 3.83933453419648E-02 
1122	 3.83955317023487E-02 
1123	 3.83830863495017E-02 
1124	 3.83788632072135E-02 
1125	 3.83813528223652E-02 
1126	 3.83847271201073E-02 
1127	 3.83844013283042E-02 
1128	 3.83711057575358E-02 
1129	 3.83450209086824E-02 
1130	 3.83211492297859E-02 
1131	 3.83158172442866E-02 
1132	 3.83150477515256E-02 
1133	 3.83179428309261E-02 
1134	 3.83241412614527E-02 
1135	 3.83222781111651E-02 
1136	 3.83147480953401E-02 
1137	 3.83064757552025E-02 
1138	 3.82816896398394E-02 
1139	 3.82781224461067E-02 
1140	 3.82846589670528E-02 
1141	 3.82927039383869E-02 
1142	 3.82938956462023E-02 
1143	 3.82961509960818E-02 
1144	 3.82845016715115E-02 
1145	 3.82725368528726E-02 
1146	 3.82753469007453E-02 
1147	 3.82725579737453E-02 
1148	 3.82671708935045E-02 
1149	 3.82628239899226E-02 
1150	 3.82511457391009E-02 
1151	 0.038247462179213 
1152	 0.038244909887637 
1153	 3.82462529212476E-02 
1154	 3.82385722315034E-02 
1155	 0.038226960531105 
1156	 3.82223997204401E-02 
1157	 3.82200957519959E-02 
1158	 3.82141004067972E-02 
1159	 3.82098545529455E-02 
1160	 3.82061417224947E-02 
1161	 3.81945577897775E-02 
1162	 3.81826763052899E-02 
1163	 3.81827570345641E-02 
1164	 3.81797371009225E-02 
1165	 3.81875678703537E-02 
1166	 3.82064349119947E-02 
1167	 3.82099503213442E-02 
1168	 3.82117430868906E-02 
1169	 3.82098121663059E-02 
1170	 3.81925383259917E-02 
1171	 3.81838327730052E-02 
1172	 3.81783867669952E-02 
1173	 3.81783413166461E-02 
1174	 3.81860846782216E-02 
1175	 3.81835381338888E-02 
1176	 0.038177374717041 
1177	 3.81734087073453E-02 
1178	 3.81578490472826E-02 
1179	 0.0381574540024 
1180	 3.81709013069742E-02 
1181	 0.038182116504682 
1182	 3.81816306322281E-02 
1183	 3.81794498117317E-02 
1184	 3.81651115426745E-02 
1185	 3.81518695335307E-02 
1186	 3.81566324434796E-02 
1187	 3.81790363875172E-02 
1188	 3.81847374322788E-02 
1189	 3.81991650982733E-02 
1190	 3.82014872436488E-02 
1191	 3.81936856603169E-02 
1192	 3.81817148730959E-02 
1193	 3.81521812207962E-02 
1194	 3.81444879923559E-02 
1195	 3.81404667266736E-02 
1196	 3.81373547844844E-02 
1197	 3.81449866660795E-02 
1198	 3.81655840971574E-02 
1199	 3.81677603853682E-02 
1200	 3.81592452295541E-02 
1201	 3.81584906726647E-02 
1202	 3.81572990747373E-02 
1203	 3.81538335308588E-02 
1204	 3.81464289455453E-02 
1205	 3.81471827055388E-02 
1206	 3.81549031382655E-02 
1207	 3.81563124923843E-02 
1208	 3.81608359173052E-02 
1209	 3.81596184372106E-02 
1210	 3.81437688796506E-02 
1211	 3.81427609640965E-02 
1212	 3.81556848444022E-02 
1213	 3.81556787482323E-02 
1214	 3.81503324658555E-02 
1215	 3.81548425801612E-02 
1216	 3.81624431614691E-02 
1217	 0.038159484883498 
1218	 3.81585482221586E-02 
1219	 0.038160980086126 
1220	 0.038141205552497 
1221	 3.81253196584976E-02 
1222	 3.81291320474155E-02 
1223	 3.81239044307719E-02 
1224	 0.038125005418938 
1225	 3.81321760939201E-02 
1226	 3.81324586391695E-02 
1227	 3.81303368701845E-02 
1228	 3.81329126097957E-02 
1229	 3.81392839566493E-02 
1230	 3.81377760297247E-02 
1231	 3.81314031722855E-02 
1232	 3.81310908515912E-02 
1233	 3.81215905286781E-02 
1234	 3.81240167216275E-02 
1235	 3.81463742273595E-02 
1236	 3.81555414953385E-02 
1237	 3.81664465085732E-02 
1238	 3.81695759600454E-02 
1239	 3.81656721615894E-02 
1240	 3.81520122176881E-02 
1241	 3.81430901873909E-02 
1242	 3.81347872772142E-02 
1243	 3.81415769247856E-02 
1244	 3.81676238462787E-02 
1245	 3.81656390611809E-02 
1246	 3.81608103492432E-02 
1247	 0.038154899458161 
1248	 3.81278621411017E-02 
1249	 3.81163985137896E-02 
1250	 3.81126294465299E-02 
1251	 3.81152758832725E-02 
1252	 3.81282248865611E-02 
1253	 3.81280559897603E-02 
1254	 3.81332613581213E-02 
1255	 0.038131523225657 
1256	 0.038112415506128 
1257	 3.81001489561361E-02 
1258	 3.80888366261392E-02 
1259	 3.80826915293018E-02 
1260	 3.80822459942228E-02 
1261	 3.80756203825943E-02 
1262	 3.80669584525982E-02 
1263	 3.80663246264185E-02 
1264	 3.80582512868542E-02 
1265	 3.80415888396787E-02 
1266	 3.80319161780027E-02 
1267	 3.80231990331588E-02 
1268	 3.80195323911993E-02 
1269	 3.80170019627383E-02 
1270	 3.80195669514474E-02 
1271	 3.80373768674111E-02 
1272	 3.80347736751677E-02 
1273	 3.80175308064354E-02 
1274	 3.80163009929241E-02 
1275	 0.038013700221039 
1276	 3.80106256160112E-02 
1277	 3.80219516703754E-02 
1278	 3.80246660891395E-02 
1279	 0.038009816605582 
1280	 0.03800931954995 
1281	 3.80235035914241E-02 
1282	 3.80277452523166E-02 
1283	 3.80332861021843E-02 
1284	 3.80358228724485E-02 
1285	 3.80346024251782E-02 
1286	 3.80220979260615E-02 
1287	 3.80249153334253E-02 
1288	 3.80327467101976E-02 
1289	 0.038039880271078 
1290	 3.80532424113922E-02 
1291	 0.038063753419815 
1292	 3.80689751655712E-02 
1293	 0.03808427162662 
1294	 3.81081352641324E-02 
1295	 3.81254326882011E-02 
1296	 3.81540090188107E-02 
1297	 3.81615324689333E-02 
1298	 3.81493243524351E-02 
1299	 3.81496736688763E-02 
1300	 3.81418597358927E-02 
1301	 3.81418905082419E-02 
1302	 3.81565103643243E-02 
1303	 3.81623693381782E-02 
1304	 0.038158859693606 
1305	 3.81646945944028E-02 
1306	 3.81731103110475E-02 
1307	 3.81832068547812E-02 
1308	 3.82047436501044E-02 
1309	 0.038221215257804 
1310	 3.82260801981414E-02 
1311	 3.82224114798224E-02 
1312	 3.82251153329643E-02 
1313	 3.82207851979164E-02 
1314	 3.82217271991518E-02 
1315	 3.82328482251118E-02 
1316	 3.82312666078302E-02 
1317	 3.82182894553951E-02 
1318	 3.82160845849115E-02 
1319	 3.82140935619685E-02 
1320	 3.82143321326405E-02 
1321	 3.82216746136138E-02 
1322	 3.82255537951873E-02 
1323	 3.82292494702612E-02 
1324	 3.82296534496705E-02 
1325	 0.038231052670857 
1326	 3.82281602663001E-02 
1327	 3.82178579875254E-02 
1328	 3.82117935886494E-02 
1329	 3.82033543826922E-02 
1330	 3.81985689375967E-02 
1331	 0.038199463585209 
1332	 3.81978951323048E-02 
1333	 3.81964444419167E-02 
1334	 3.81954341604178E-02 
1335	 3.81937548738302E-02 
1336	 3.81916321837323E-02 
1337	 3.81859977113943E-02 
1338	 3.81771217931262E-02 
1339	 3.81747641657351E-02 
1340	 3.81733091738724E-02 
1341	 3.81693349292325E-02 
1342	 3.81692211459858E-02 
1343	 3.81670748393055E-02 
1344	 3.81598597513961E-02 
1345	 3.81554343455968E-02 
1346	 3.81583432618299E-02 
1347	 3.81506822622706E-02 
1348	 3.81328959502802E-02 
1349	 3.81238442536966E-02 
1350	 3.81100909526594E-02 
1351	 3.81055296543471E-02 
1352	 3.81151496530015E-02 
1353	 3.81154284636416E-02 
1354	 3.81202514773303E-02 
1355	 3.81145926097796E-02 
1356	 3.80909660875113E-02 
1357	 3.80812954375981E-02 
1358	 3.80717508907249E-02 
1359	 3.80661359630944E-02 
1360	 3.80723998523329E-02 
1361	 3.80774689810353E-02 
1362	 3.80732390653741E-02 
1363	 3.80766694889242E-02 
1364	 3.80782394610194E-02 
1365	 3.80836400143525E-02 
1366	 3.80772985377971E-02 
1367	 3.80631180483732E-02 
1368	 3.80610149463933E-02 
1369	 0.038056090910621 
1370	 3.80536777794834E-02 
1371	 3.80641536313592E-02 
1372	 3.80634879424515E-02 
1373	 3.80527402371378E-02 
1374	 3.80493429287143E-02 
1375	 3.80479153314538E-02 
1376	 3.80473795351242E-02 
1377	 3.80537347246056E-02 
1378	 3.80479045509292E-02 
1379	 3.80328481970449E-02 
1380	 3.80255478219359E-02 
1381	 3.80123275419615E-02 
1382	 3.80053686995246E-02 
1383	 3.80108484069747E-02 
1384	 3.80094057740927E-02 
1385	 3.80016853520759E-02 
1386	 3.79998227081607E-02 
1387	 3.80057736438811E-02 
1388	 3.80025749276295E-02 
1389	 3.79886894966321E-02 
1390	 3.79864508648639E-02 
1391	 0.037983569981421 
1392	 3.79880915460431E-02 
1393	 3.79829297106913E-02 
1394	 3.79867581106231E-02 
1395	 3.79861913322001E-02 
1396	 3.79741265403154E-02 
1397	 3.79698597562069E-02 
1398	 3.79765043825397E-02 
1399	 3.79731985868653E-02 
1400	 3.79597622026871E-02 
1401	 3.79588106465172E-02 
1402	 3.79632500863041E-02 
1403	 3.79656448483279E-02 
1404	 3.79756442476047E-02 
1405	 3.79741846658264E-02 
1406	 0.037965638133198 
1407	 3.79598244411092E-02 
1408	 3.79448170666958E-02 
1409	 3.79431826018248E-02 
1410	 3.79495091852156E-02 
1411	 3.79537564711758E-02 
1412	 3.79680602189864E-02 
1413	 3.79730354136336E-02 
1414	 3.79689305825956E-02 
1415	 3.79718260273817E-02 
1416	 3.79768579721326E-02 
1417	 3.79794064573237E-02 
1418	 3.79872846235832E-02 
1419	 3.79887783831561E-02 
1420	 3.79786497666836E-02 
1421	 3.79767431120518E-02 
1422	 3.79762779333603E-02 
1423	 3.79785275842537E-02 
1424	 3.79911993325428E-02 
1425	 3.79961753443604E-02 
1426	 3.80001158910545E-02 
1427	 3.80017039739278E-02 
1428	 3.79926210622087E-02 
1429	 3.79928032404065E-02 
1430	 3.79878677845886E-02 
1431	 3.79764788209533E-02 
1432	 3.79779243625743E-02 
1433	 3.79839727768127E-02 
1434	 3.79914715932781E-02 
1435	 3.80105484826583E-02 
1436	 3.80171929938696E-02 
1437	 3.80187560661005E-02 
1438	 0.038021240540328 
1439	 3.80169500687135E-02 
1440	 3.80204674419325E-02 
1441	 3.80299923628359E-02 
1442	 3.80338158484391E-02 
1443	 3.80406166455694E-02 
1444	 3.80411452613521E-02 
1445	 0.038031673675924 
1446	 3.80307797669521E-02 
1447	 3.80324791405405E-02 
1448	 3.80319489742639E-02 
1449	 3.80340562305965E-02 
1450	 0.038036183232371 
1451	 3.80357698569646E-02 
1452	 3.80362603878955E-02 
1453	 3.80398716453698E-02 
1454	 3.80421340031914E-02 
1455	 3.80416338486508E-02 
1456	 0.038043205523437 
1457	 3.80471007231731E-02 
1458	 3.80486559687114E-02 
1459	 3.80508554320241E-02 
1460	 3.80512529466229E-02 
1461	 3.80480130023101E-02 
1462	 3.80477488288281E-02 
1463	 3.80518861250858E-02 
1464	 3.80492615491054E-02 
1465	 3.80410887864935E-02 
1466	 3.80376528919853E-02 
1467	 3.80309905703007E-02 
1468	 3.80215716723428E-02 
1469	 3.80295130347072E-02 
1470	 3.80305585462955E-02 
1471	 3.80346189682964E-02 
1472	 3.80428477859929E-02 
1473	 3.80462893120489E-02 
1474	 3.80486257309159E-02 
1475	 3.80466957217212E-02 
1476	 3.80407595479729E-02 
1477	 3.80358677781342E-02 
1478	 3.80243405072282E-02 
1479	 3.80253262259212E-02 
1480	 0.038032659763224 
1481	 3.80378719546841E-02 
1482	 3.80546610724754E-02 
1483	 3.80544864048724E-02 
1484	 3.80443013259891E-02 
1485	 3.80373894862003E-02 
1486	 3.80190321556291E-02 
1487	 3.80136286317157E-02 
1488	 3.80177803931442E-02 
1489	 3.80169494232204E-02 
1490	 3.80177339281914E-02 
1491	 3.80196658279504E-02 
1492	 3.80198721129433E-02 
1493	 3.80210231550943E-02 
1494	 3.80303657135596E-02 
1495	 3.80290482988321E-02 
1496	 3.80145726870423E-02 
1497	 3.80139071432628E-02 
1498	 3.80171984451361E-02 
1499	 3.80176632806946E-02 
1500	 3.80256581639523E-02 
1501	 3.80308515476455E-02 
1502	 3.80275322361165E-02 
1503	 3.80307034574105E-02 
1504	 3.80443068378863E-02 
1505	 3.80490140430213E-02 
1506	 3.80522633181433E-02 
1507	 3.80512222021436E-02 
1508	 3.80405237692165E-02 
1509	 3.80355213832294E-02 
1510	 3.80308856264793E-02 
1511	 3.80263438787722E-02 
1512	 3.80223912359415E-02 
1513	 0.038020905653702 
1514	 3.80230590205433E-02 
1515	 3.80218342121037E-02 
1516	 3.80149257215315E-02 
1517	 3.80181382655438E-02 
1518	 3.80338819767713E-02 
1519	 3.80352447244813E-02 
1520	 0.038032365435906 
1521	 3.80345499673624E-02 
1522	 3.80238783113311E-02 
1523	 3.80137510765751E-02 
1524	 3.80162602002384E-02 
1525	 3.80356246452422E-02 
1526	 3.80348367105621E-02 
1527	 0.038028589071608 
1528	 3.80287188997102E-02 
1529	 3.80200145165217E-02 
1530	 3.80276453473847E-02 
1531	 3.80528384764427E-02 
1532	 3.80566947213729E-02 
1533	 3.80584264922249E-02 
1534	 3.80540698808307E-02 
1535	 3.80348396873595E-02 
1536	 3.80284889002854E-02 
1537	 3.80253642307163E-02 
1538	 3.80226477850686E-02 
1539	 3.80239609570786E-02 
1540	 3.80217169740629E-02 
1541	 3.80171621368238E-02 
1542	 0.038017213270747 
1543	 3.80164713022317E-02 
1544	 3.80207483910338E-02 
1545	 3.80349901383349E-02 
1546	 3.80367078939358E-02 
1547	 3.80324377848275E-02 
1548	 3.80343646331782E-02 
1549	 3.80328857576557E-02 
1550	 3.80332252673972E-02 
1551	 3.80396434560327E-02 
1552	 3.80430312048017E-02 
1553	 3.80448742321043E-02 
1554	 3.80426905914567E-02 
1555	 3.80410819423575E-02 
1556	 3.80363843250761E-02 
1557	 3.80174498855802E-02 
1558	 3.80175253829069E-02 
1559	 3.80319484061261E-02 
1560	 3.80347186803922E-02 
1561	 3.80400394920315E-02 
1562	 3.80456798718369E-02 
1563	 3.80450867344045E-02 
1564	 3.80456098781347E-02 
1565	 3.80545016521742E-02 
1566	 3.80542221423427E-02 
1567	 3.80457613095908E-02 
1568	 3.80371924467032E-02 
1569	 3.80192341758831E-02 
1570	 3.80157890830204E-02 
1571	 3.80197101444193E-02 
1572	 3.80188278704395E-02 
1573	 3.80282712255121E-02 
1574	 3.80292094618673E-02 
1575	 3.80147627116922E-02 
1576	 3.80142079103381E-02 
1577	 3.80237263154619E-02 
1578	 3.80261630052675E-02 
1579	 0.038033726391649 
1580	 3.80337416667108E-02 
1581	 3.80238353552155E-02 
1582	 3.80180357471742E-02 
1583	 3.80088786131761E-02 
1584	 3.80052487821547E-02 
1585	 3.80004770413811E-02 
1586	 3.80047678366156E-02 
1587	 3.80223822216904E-02 
1588	 0.038030658886385 
1589	 3.80431681031586E-02 
1590	 3.80489861410313E-02 
1591	 0.03804682627848 
1592	 3.80434491409706E-02 
1593	 3.80312863531014E-02 
1594	 3.80294017373395E-02 
1595	 3.80320232673522E-02 
1596	 3.80316617036806E-02 
1597	 3.80363385018078E-02 
1598	 3.80404285874342E-02 
1599	 3.80409931506375E-02 
1600	 3.80415127694854E-02 
1601	 3.80503905085764E-02 
1602	 3.80484740691592E-02 
1603	 0.038029312934785 
1604	 3.80261477940152E-02 
1605	 3.80267663033052E-02 
1606	 3.80282721335781E-02 
1607	 3.80409217912613E-02 
1608	 3.80501770353756E-02 
1609	 3.80578762049542E-02 
1610	 3.80636229511455E-02 
1611	 3.80771378020006E-02 
1612	 3.80777650013672E-02 
1613	 3.80599899188307E-02 
1614	 0.038055278594578 
1615	 3.80508815970201E-02 
1616	 3.80467559567496E-02 
1617	 3.80531144449538E-02 
1618	 3.80542359871667E-02 
1619	 3.80481388048566E-02 
1620	 0.038045653173238 
1621	 0.03804393810176 
1622	 3.80442271071985E-02 
1623	 3.80485597355257E-02 
1624	 3.80487121660233E-02 
1625	 3.80449588909026E-02 
1626	 3.80479035672644E-02 
1627	 0.0380554412287 
1628	 3.80567661465842E-02 
1629	 3.80607691524847E-02 
1630	 3.80623188987994E-02 
1631	 3.80548993228659E-02 
1632	 3.80505881637584E-02 
1633	 3.80454291967562E-02 
1634	 3.80476001277711E-02 
1635	 3.80578451386724E-02 
1636	 3.80600648274517E-02 
1637	 3.80624733102397E-02 
1638	 3.80663528238128E-02 
1639	 3.80677223387657E-02 
1640	 3.80638213006698E-02 
1641	 3.80588300908379E-02 
1642	 3.80566745753613E-02 
1643	 0.038048220064021 
1644	 3.80426149042318E-02 
1645	 3.80450675565929E-02 
1646	 3.80440071727651E-02 
1647	 0.038034650984254 
1648	 3.80328338010463E-02 
1649	 3.80375121819415E-02 
1650	 3.80398620178394E-02 
1651	 3.80490293575681E-02 
1652	 3.80508800861961E-02 
1653	 3.80463810391427E-02 
1654	 3.80423675108198E-02 
1655	 3.80324437064596E-02 
1656	 3.80264775863411E-02 
1657	 3.80192286935011E-02 
1658	 3.80203516891671E-02 
1659	 3.80308395201087E-02 
1660	 3.80346515531423E-02 
1661	 3.80426910209085E-02 
1662	 3.80452367728447E-02 
1663	 3.80361929991952E-02 
1664	 3.80381968608935E-02 
1665	 0.038046862913144 
1666	 3.80488491161347E-02 
1667	 3.80558574616731E-02 
1668	 3.80566967297339E-02 
1669	 0.038047392642784 
1670	 3.80440919213811E-02 
1671	 3.80432911914973E-02 
1672	 3.80375022779382E-02 
1673	 3.80314010871842E-02 
1674	 3.80260788015711E-02 
1675	 3.80122572888502E-02 
1676	 3.80113503084806E-02 
1677	 3.80167681682131E-02 
1678	 3.80210980127916E-02 
1679	 3.80381828701646E-02 
1680	 3.80442046347601E-02 
1681	 0.038047072702711 
1682	 3.80460427327392E-02 
1683	 3.80342814555027E-02 
1684	 3.80275778623197E-02 
1685	 3.80163153916155E-02 
1686	 3.80140047610141E-02 
1687	 3.80233171391034E-02 
1688	 3.80245876523362E-02 
1689	 3.80245074398168E-02 
1690	 3.80262954696538E-02 
1691	 3.80236001743723E-02 
1692	 3.80270653645858E-02 
1693	 3.80421048783922E-02 
1694	 0.038042467148652 
1695	 3.80297159108058E-02 
1696	 3.80332167278745E-02 
1697	 3.80414203398382E-02 
1698	 3.80414461709251E-02 
1699	 3.80508151125154E-02 
1700	 0.038052437007539 
1701	 3.80381021439473E-02 
1702	 3.80285660217976E-02 
1703	 3.80204929725769E-02 
1704	 3.80221750156924E-02 
1705	 3.80281616846411E-02 
1706	 3.80190815502849E-02 
1707	 3.80214813143611E-02 
1708	 3.80256137303016E-02 
1709	 3.80279868956533E-02 
1710	 3.80403122336255E-02 
1711	 0.038045204438692 
1712	 3.80303212816044E-02 
1713	 3.80169499798786E-02 
1714	 3.80088390345033E-02 
1715	 3.79951150121126E-02 
1716	 3.79915831241188E-02 
1717	 3.80053433105083E-02 
1718	 3.80018780243119E-02 
1719	 3.79961363775026E-02 
1720	 3.80078828785307E-02 
1721	 3.79977858109593E-02 
1722	 0.03799739947171 
1723	 3.80101381990698E-02 
1724	 3.80100953231096E-02 
1725	 3.80072225615803E-02 
1726	 0.037987516197905 
1727	 3.79878319983504E-02 
1728	 3.79941561023867E-02 
1729	 3.79826048480749E-02 
1730	 0.037988382125891 
1731	 3.80010978364218E-02 
1732	 3.80122472736831E-02 
1733	 3.80138950306766E-02 
1734	 3.80067343289509E-02 
1735	 3.80003471985135E-02 
1736	 3.79901051495612E-02 
1737	 3.79859171207387E-02 
1738	 3.80102160383634E-02 
1739	 3.80082569289314E-02 
1740	 3.79807334045708E-02 
1741	 3.79710708368624E-02 
1742	 3.79573731628039E-02 
1743	 3.79576480392495E-02 
1744	 3.79862272480245E-02 
1745	 3.79797169479301E-02 
1746	 3.79519112095657E-02 
1747	 3.79410733164404E-02 
1748	 0.03791377475221 
1749	 3.79099413484085E-02 
1750	 3.79395592203394E-02 
1751	 3.79433626379967E-02 
1752	 3.79383559189584E-02 
1753	 3.79441877268678E-02 
1754	 3.79495809596822E-02 
1755	 3.79491337096076E-02 
1756	 3.79536394723637E-02 
1757	 3.79273827108406E-02 
1758	 3.79153414616486E-02 
1759	 3.79100921944917E-02 
1760	 3.79001038942627E-02 
1761	 3.79000082616572E-02 
1762	 3.78852117968659E-02 
1763	 3.78671165731117E-02 
1764	 3.78818720406269E-02 
1765	 3.78972687404815E-02 
1766	 3.79141890633832E-02 
1767	 0.037929956467755 
1768	 3.79262620324018E-02 
1769	 3.79304661680835E-02 
1770	 3.79291797665692E-02 
1771	 3.79307300510292E-02 
1772	 3.79438780809686E-02 
1773	 3.79303212287742E-02 
1774	 3.79076234825734E-02 
1775	 3.78982094213177E-02 
1776	 3.78996062430855E-02 
1777	 3.78978005293148E-02 
1778	 3.79119397183864E-02 
1779	 0.03794736370019 
1780	 3.79396276930195E-02 
1781	 3.79343651009134E-02 
1782	 3.79410483007786E-02 
1783	 3.79209333255063E-02 
1784	 3.79139492323128E-02 
1785	 3.79359658719023E-02 
1786	 3.79343399699486E-02 
1787	 0.037907130981525 
1788	 3.79029685659581E-02 
1789	 3.78876780556051E-02 
1790	 0.037888541064046 
1791	 3.79301387256963E-02 
1792	 3.79366418919606E-02 
1793	 0.037935418944538 
1794	 3.79373164842897E-02 
1795	 3.79172389174205E-02 
1796	 3.79099092105372E-02 
1797	 3.79103454404436E-02 
1798	 3.79100993612665E-02 
1799	 3.79010750939964E-02 
1800	 3.79045065532476E-02 
1801	 0.037573660279759 
1802	 0.037580934307283 
1803	 3.75885896959859E-02 
1804	 3.75954849593761E-02 
1805	 3.76092248968439E-02 
1806	 3.76297510285299E-02 
1807	 3.76651963761255E-02 
1808	 3.76830738854695E-02 
1809	 3.77018498946947E-02 
1810	 3.77137448852551E-02 
1811	 3.77086704349107E-02 
1812	 3.77159511069179E-02 
1813	 3.77392883139073E-02 
1814	 3.77456795255623E-02 
1815	 3.77299848244442E-02 
1816	 3.77111560589285E-02 
1817	 3.77107708604984E-02 
1818	 3.77068412879651E-02 
1819	 3.77078998532006E-02 
1820	 3.77366840876622E-02 
1821	 3.77425313240943E-02 
1822	 3.77254987950625E-02 
1823	 3.77205697947872E-02 
1824	 0.037717475455184 
1825	 3.77264935714361E-02 
1826	 3.77363692728455E-02 
1827	 3.77544113913991E-02 
1828	 3.77606610299148E-02 
1829	 3.77659261398791E-02 
1830	 3.77710122604566E-02 
1831	 3.77689542741927E-02 
1832	 0.037777466783021 
1833	 3.77777456865599E-02 
1834	 3.77723386584209E-02 
1835	 3.77636074011389E-02 
1836	 3.77521494281636E-02 
1837	 3.77565896488125E-02 
1838	 3.77738926199076E-02 
1839	 3.77849023297985E-02 
1840	 3.78085254547229E-02 
1841	 3.78183306470066E-02 
1842	 3.78178031808271E-02 
1843	 3.78214988788496E-02 
1844	 3.78206540338782E-02 
1845	 3.78218441447062E-02 
1846	 3.78225377738063E-02 
1847	 0.037816003431586 
1848	 3.78133571492894E-02 
1849	 3.78032142797422E-02 
1850	 3.78071843635232E-02 
1851	 0.03781745830977 
1852	 3.78345571730007E-02 
1853	 3.78502352893113E-02 
1854	 3.78616906279523E-02 
1855	 3.78655093282737E-02 
1856	 3.78670874719723E-02 
1857	 3.78579915459837E-02 
1858	 3.78584694517139E-02 
1859	 3.78606085482052E-02 
1860	 0.037857589950857 
1861	 3.78598523847138E-02 
1862	 3.78724317384295E-02 
1863	 3.78787481422169E-02 
1864	 3.78790221350554E-02 
1865	 3.78877817686519E-02 
1866	 3.78918612000626E-02 
1867	 3.78928133067388E-02 
1868	 3.78884344577759E-02 
1869	 3.78741101182125E-02 
1870	 3.78646957685766E-02 
1871	 3.78486771641476E-02 
1872	 3.78449905472307E-02 
1873	 3.78463539209556E-02 
1874	 3.78551674460081E-02 
1875	 3.78674898366416E-02 
1876	 3.78673259159922E-02 
1877	 3.78787303331056E-02 
1878	 3.78834970447373E-02 
1879	 3.78809339452562E-02 
1880	 0.037893615672865 
1881	 3.79009046608683E-02 
1882	 0.037904596663894 
1883	 3.79072781401717E-02 
1884	 3.79129842703016E-02 
1885	 3.79105656996876E-02 
1886	 3.79027967944236E-02 
1887	 3.78986609188481E-02 
1888	 3.78956434115532E-02 
1889	 3.78829940601658E-02 
1890	 3.78748426467477E-02 
1891	 3.78703295862913E-02 
1892	 3.78628797625215E-02 
1893	 3.78593124063899E-02 
1894	 3.78649664265269E-02 
1895	 3.78618959244227E-02 
1896	 3.78473484669694E-02 
1897	 3.78356378690579E-02 
1898	 3.78236842493488E-02 
1899	 3.78108628563595E-02 
1900	 3.78001552083022E-02 
1901	 3.77926619522852E-02 
1902	 3.77799171796158E-02 
1903	 3.77689074460191E-02 
1904	 3.77665394026283E-02 
1905	 0.037774515459807 
1906	 3.77785176523712E-02 
1907	 3.77734874829091E-02 
1908	 3.77732315743194E-02 
1909	 3.77660530957397E-02 
1910	 3.77551040239962E-02 
1911	 3.77541565065238E-02 
1912	 3.77503976293083E-02 
1913	 3.77514820438192E-02 
1914	 3.77535864042349E-02 
1915	 3.77527733451864E-02 
1916	 3.77539232893979E-02 
1917	 3.77540556008615E-02 
1918	 3.77484623648029E-02 
1919	 3.77484977873233E-02 
1920	 3.77483344091934E-02 
1921	 0.037749817169966 
1922	 3.77507742467369E-02 
1923	 3.77578724008579E-02 
1924	 3.77580593178217E-02 
1925	 3.77526803306951E-02 
1926	 0.037762771980636 
1927	 3.77843565003707E-02 
1928	 3.77921480352149E-02 
1929	 3.78018052308106E-02 
1930	 3.78208812363164E-02 
1931	 0.037824352570315 
1932	 3.78126907834326E-02 
1933	 3.78044291198526E-02 
1934	 3.78131718632671E-02 
1935	 3.78066772656842E-02 
1936	 3.77991967697451E-02 
1937	 3.78016040068064E-02 
1938	 3.78077856525472E-02 
1939	 3.78084838540697E-02 
1940	 3.78098262348854E-02 
1941	 3.78249312013725E-02 
1942	 3.78261343940142E-02 
1943	 3.78331942852349E-02 
1944	 3.78346685013142E-02 
1945	 3.78314878056208E-02 
1946	 0.037844232161835 
1947	 3.78595900184618E-02 
1948	 3.78756538248842E-02 
1949	 3.78840623694877E-02 
1950	 3.78885901207298E-02 
1951	 3.78706858346307E-02 
1952	 3.78740313443492E-02 
1953	 3.78827804945493E-02 
1954	 3.79089103654788E-02 
1955	 3.79136259902408E-02 
1956	 3.79132041234151E-02 
1957	 3.79179079738738E-02 
1958	 3.79117115441162E-02 
1959	 3.79262096715051E-02 
1960	 3.79471652620759E-02 
1961	 3.79560849221877E-02 
1962	 3.79521896359779E-02 
1963	 3.79623283137952E-02 
1964	 3.79745367400892E-02 
1965	 3.79863084444461E-02 
1966	 3.80056485731334E-02 
1967	 3.80247560587248E-02 
1968	 3.80316506877219E-02 
1969	 3.80372691380663E-02 
1970	 3.80400199181253E-02 
1971	 3.80374644184054E-02 
1972	 0.038044298178944 
1973	 3.80535660893614E-02 
1974	 3.80606973527458E-02 
1975	 3.80770867368231E-02 
1976	 3.80847304859496E-02 
1977	 3.80768664391493E-02 
1978	 3.80824972007227E-02 
1979	 3.80974861407529E-02 
1980	 3.81024455770544E-02 
1981	 0.038106178842481 
1982	 3.81336925754112E-02 
1983	 0.038155334184239 
1984	 3.81696808301298E-02 
1985	 3.81901197676562E-02 
1986	 3.82018113560208E-02 
1987	 3.82111887894003E-02 
1988	 3.82094911311867E-02 
1989	 3.82185489118969E-02 
1990	 0.038229247442688 
1991	 3.82407163170895E-02 
1992	 3.82523874753129E-02 
1993	 3.82725261530006E-02 
1994	 3.82939185873402E-02 
1995	 3.83169931268396E-02 
1996	 3.83302329601131E-02 
1997	 3.83395617935549E-02 
1998	 3.83542529601894E-02 
1999	 3.83616185031763E-02 
2000	 3.83733397546942E-02 
2001	 3.83994828659747E-02 
2002	 3.84118002476248E-02 
2003	 3.84123910931355E-02 
2004	 3.84207146914833E-02 
2005	 3.84233976913437E-02 
2006	 3.84322089526048E-02 
2007	 3.84446208792735E-02 
2008	 3.84627714942816E-02 
2009	 3.84841591049048E-02 
2010	 3.85089174682771E-02 
2011	 3.85222003787262E-02 
2012	 3.85302414602932E-02 
2013	 3.85447546720373E-02 
2014	 3.85548986595256E-02 
2015	 3.85714580542018E-02 
2016	 3.86029161979595E-02 
2017	 3.86178872349562E-02 
2018	 3.86231508898451E-02 
2019	 3.86324727036566E-02 
2020	 3.86348367918914E-02 
2021	 0.038639181694584 
2022	 3.86557330213698E-02 
2023	 3.86777611716339E-02 
2024	 3.87018481169015E-02 
2025	 3.87263566012744E-02 
2026	 3.87406351490323E-02 
2027	 3.87496167558468E-02 
2028	 3.87555029591634E-02 
2029	 3.87431860804555E-02 
2030	 3.87536943912423E-02 
2031	 3.87784570053513E-02 
2032	 3.87928442208844E-02 
2033	 3.88193538439902E-02 
2034	 3.88327593506104E-02 
2035	 3.88223254223615E-02 
2036	 3.88310738412214E-02 
2037	 3.88520425354758E-02 
2038	 3.88608845112761E-02 
2039	 3.88828702527861E-02 
2040	 3.89238633938216E-02 
2041	 0.038941844429189 
2042	 3.89608277444723E-02 
2043	 3.89678538710059E-02 
2044	 3.89515800235093E-02 
2045	 3.89514256174509E-02 
2046	 3.89438506390438E-02 
2047	 3.89491153439344E-02 
2048	 3.89736704386545E-02 
2049	 3.89905322109746E-02 
2050	 3.90105424499334E-02 
2051	 3.90272124440985E-02 
2052	 3.90419062021724E-02 
2053	 3.90529357553179E-02 
2054	 3.90626154953382E-02 
2055	 3.90702376343817E-02 
2056	 3.90781414930219E-02 
2057	 3.90806905871963E-02 
2058	 3.90913316978055E-02 
2059	 3.91138007857822E-02 
2060	 3.91209336257987E-02 
2061	 3.91174814025655E-02 
2062	 3.91231514725787E-02 
2063	 3.91227449856482E-02 
2064	 3.91276716461676E-02 
2065	 3.91390423424783E-02 
2066	 3.91584089011786E-02 
2067	 3.91759115157988E-02 
2068	 3.91905486134881E-02 
2069	 3.92053764465844E-02 
2070	 3.92291121266704E-02 
2071	 3.92353748532114E-02 
2072	 3.92258531133204E-02 
2073	 3.92303059423906E-02 
2074	 0.03923276663442 
2075	 3.92371354731036E-02 
2076	 0.039254087779517 
2077	 0.039260635620662 
2078	 3.92501316104723E-02 
2079	 0.039254975653726 
2080	 3.92658632367435E-02 
2081	 3.92765587700286E-02 
2082	 3.92855492846911E-02 
2083	 0.03932150816669 
2084	 3.93406606519808E-02 
2085	 0.039347375956045 
2086	 3.93559986957715E-02 
2087	 3.93572098070296E-02 
2088	 3.93635036810377E-02 
2089	 3.93697327736501E-02 
2090	 3.93795060256007E-02 
2091	 3.93969583735565E-02 
2092	 0.039404804768823 
2093	 3.94056872704597E-02 
2094	 3.94105935477384E-02 
2095	 3.94018100564475E-02 
2096	 3.94131594179531E-02 
2097	 3.94416282020168E-02 
2098	 3.94749327885446E-02 
2099	 3.94764156227651E-02 
2100	 3.94873921886236E-02 
2101	 0.039500438906752 
2102	 3.94930150917337E-02 
2103	 3.95061543789017E-02 
2104	 3.95533845017167E-02 
2105	 3.95631852292939E-02 
2106	 3.95446526520926E-02 
2107	 3.95518443533955E-02 
2108	 3.95536229415143E-02 
2109	 3.95683843680686E-02 
2110	 3.96171913319061E-02 
2111	 3.96372427073633E-02 
2112	 3.96408279107501E-02 
2113	 3.96525918786801E-02 
2114	 3.96467679726995E-02 
2115	 3.96576232375017E-02 
2116	 3.96891251078614E-02 
2117	 3.97113259391749E-02 
2118	 3.97367241120233E-02 
2119	 3.97767839605412E-02 
2120	 3.97877650870321E-02 
2121	 3.97778923405889E-02 
2122	 3.97886361842605E-02 
2123	 3.97892820139681E-02 
2124	 3.98001789843019E-02 
2125	 3.98353028010465E-02 
2126	 3.98535889931771E-02 
2127	 3.98571021056646E-02 
2128	 3.98707282784864E-02 
2129	 3.98937817228374E-02 
2130	 3.99048016346372E-02 
2131	 3.99122101096993E-02 
2132	 3.99216131296965E-02 
2133	 3.99403890486895E-02 
2134	 3.99264153797515E-02 
2135	 3.99106353631093E-02 
2136	 3.99017795203007E-02 
2137	 3.98915936600251E-02 
2138	 3.98664744406195E-02 
2139	 3.98602916311746E-02 
2140	 3.98718436250988E-02 
2141	 3.98719341637796E-02 
2142	 3.98704716544195E-02 
2143	 3.98681197782068E-02 
2144	 3.98713948185481E-02 
2145	 3.98591081233168E-02 
2146	 3.98347807739565E-02 
2147	 3.98187519352183E-02 
2148	 3.97952537394607E-02 
2149	 3.97732556978202E-02 
2150	 3.97545437591339E-02 
2151	 3.97385937448409E-02 
2152	 3.97166752414469E-02 
2153	 0.039708287081894 
2154	 3.96953125669656E-02 
2155	 3.96814080347843E-02 
2156	 3.96606933466746E-02 
2157	 0.03962510190219 
2158	 3.96103323194638E-02 
2159	 0.039609912720941 
2160	 3.95863267106515E-02 
2161	 3.95652126918043E-02 
2162	 3.95354891471952E-02 
2163	 3.94775198635527E-02 
2164	 3.94442615389492E-02 
2165	 3.94260892834943E-02 
2166	 3.93977829673079E-02 
2167	 3.93662423426321E-02 
2168	 3.93440252920972E-02 
2169	 3.93284543560392E-02 
2170	 3.93037652229334E-02 
2171	 3.92824913087069E-02 
2172	 3.92609112534477E-02 
2173	 3.92242325173863E-02 
2174	 3.91983471533501E-02 
2175	 3.91983466497636E-02 
2176	 3.91821953769706E-02 
2177	 3.91651737825283E-02 
2178	 3.91545792785378E-02 
2179	 3.91252988968795E-02 
2180	 3.90773196683632E-02 
2181	 3.90449490715244E-02 
2182	 3.90045453977205E-02 
2183	 3.89830846896778E-02 
2184	 3.89748949395374E-02 
2185	 3.89655543409547E-02 
2186	 0.038976727040779 
2187	 3.89612224099119E-02 
2188	 3.89350743957727E-02 
2189	 3.89091516565376E-02 
2190	 3.88581803658473E-02 
2191	 0.038828569292539 
2192	 3.88103683741319E-02 
2193	 3.87945320145468E-02 
2194	 0.038789629510556 
2195	 3.87830099298193E-02 
2196	 0.038784133587156 
2197	 0.038776474363197 
2198	 3.87627587919617E-02 
2199	 3.87462023687706E-02 
2200	 3.87320996584472E-02 
2201	 0.038710437421642 
2202	 3.86980050115135E-02 
2203	 3.86927613706588E-02 
2204	 3.86828573428825E-02 
2205	 3.86748773262208E-02 
2206	 3.86624550499248E-02 
2207	 3.86444664083982E-02 
2208	 3.86372673758951E-02 
2209	 3.86287966661606E-02 
2210	 3.86255516822035E-02 
2211	 3.86375579607081E-02 
2212	 3.86375681231573E-02 
2213	 3.86343205130937E-02 
2214	 0.038630114230223 
2215	 3.86171778655505E-02 
2216	 3.86121114432266E-02 
2217	 3.86113418161676E-02 
2218	 3.86091231920576E-02 
2219	 3.86145354122539E-02 
2220	 3.86104496375561E-02 
2221	 3.85923856807685E-02 
2222	 3.85831426934992E-02 
2223	 3.85948093491065E-02 
2224	 3.86025445806859E-02 
2225	 3.86158302781883E-02 
2226	 3.86383343913307E-02 
2227	 3.86287565955347E-02 
2228	 3.85855049313677E-02 
2229	 0.038574905622308 
2230	 3.85600263748887E-02 
2231	 0.038555344408395 
2232	 3.85757900486111E-02 
2233	 3.85760103849943E-02 
2234	 3.85641560682878E-02 
2235	 0.038562275484861 
2236	 0.038557955406158 
2237	 3.85584889180606E-02 
2238	 3.85683587011928E-02 
2239	 3.85727725604296E-02 
2240	 0.038579408096116 
2241	 3.85810132599342E-02 
2242	 3.85790787478247E-02 
2243	 3.85760387447999E-02 
2244	 3.85603538632561E-02 
2245	 3.85595678080367E-02 
2246	 0.038571268534482 
2247	 3.85756713229679E-02 
2248	 3.85847532619461E-02 
2249	 3.85941211661786E-02 
2250	 3.86061115782874E-02 
2251	 3.85956026358867E-02 
2252	 3.86148261251129E-02 
2253	 3.86409312980736E-02 
2254	 3.86281815245801E-02 
2255	 3.86266629295478E-02 
2256	 3.86291580928769E-02 
2257	 3.86050594148602E-02 
2258	 3.85958742489974E-02 
2259	 0.038596885195623 
2260	 3.86070199767509E-02 
2261	 3.86161974802884E-02 
2262	 3.86261348123877E-02 
2263	 3.86561208852836E-02 
2264	 3.86720706347161E-02 
2265	 3.86875140572846E-02 
2266	 3.86822467983965E-02 
2267	 3.86506991894478E-02 
2268	 3.86486041254169E-02 
2269	 3.86391440178794E-02 
2270	 3.86414925861486E-02 
2271	 3.86870014792201E-02 
2272	 3.87003657345624E-02 
2273	 3.86836209112543E-02 
2274	 3.86833670611034E-02 
2275	 3.86862833218696E-02 
2276	 3.86890769886659E-02 
2277	 3.87035905030997E-02 
2278	 3.87075168614967E-02 
2279	 3.86853819395384E-02 
2280	 3.86932856451984E-02 
2281	 3.87187551715771E-02 
2282	 3.87396851483044E-02 
2283	 3.87815114839368E-02 
2284	 3.88209056988602E-02 
2285	 3.88235464088108E-02 
2286	 3.88086702477011E-02 
2287	 3.87970691805138E-02 
2288	 0.038781834689834 
2289	 3.87683008959587E-02 
2290	 3.87761648931171E-02 
2291	 3.87702649123865E-02 
2292	 3.87841222954774E-02 
2293	 3.88121881824205E-02 
2294	 3.88198764643017E-02 
2295	 3.88608747128674E-02 
2296	 3.88693131900582E-02 
2297	 3.88727983708646E-02 
2298	 3.88695899355273E-02 
2299	 3.88681924826395E-02 
2300	 3.88548132648514E-02 
2301	 3.88446022884105E-02 
2302	 0.038818809524398 
2303	 3.88371651985999E-02 
2304	 3.88795977624367E-02 
2305	 3.88997090113555E-02 
2306	 3.89706030459606E-02 
2307	 3.89728786079219E-02 
2308	 3.88948409390031E-02 
2309	 3.88809834218624E-02 
2310	 3.88519999431279E-02 
2311	 3.88646141788066E-02 
2312	 3.89384931868109E-02 
2313	 3.89834623617472E-02 
2314	 3.90550734343943E-02 
2315	 3.90864367450061E-02 
2316	 3.90848874063507E-02 
2317	 3.90907651435443E-02 
2318	 3.90683821623492E-02 
2319	 3.90716483639618E-02 
2320	 3.90835168630349E-02 
2321	 3.91049917107969E-02 
2322	 3.91563115144635E-02 
2323	 3.91831048916125E-02 
2324	 0.039210475027313 
2325	 3.92288073150212E-02 
2326	 0.039213547071578 
2327	 3.92120688281059E-02 
2328	 3.92224711388736E-02 
2329	 3.92298596753292E-02 
2330	 3.92486244175771E-02 
2331	 3.92487303560305E-02 
2332	 3.92377480582332E-02 
2333	 3.92241243856629E-02 
2334	 3.92067635400743E-02 
2335	 3.92473533475782E-02 
2336	 3.93064881917639E-02 
2337	 0.039318024074673 
2338	 3.93444359255267E-02 
2339	 3.93824089385313E-02 
2340	 3.94199024076561E-02 
2341	 3.94437204329227E-02 
2342	 3.94478150754372E-02 
2343	 3.94297214173047E-02 
2344	 3.94134457142276E-02 
2345	 3.94288294245061E-02 
2346	 3.94301031709477E-02 
2347	 3.94326176560436E-02 
2348	 0.039433328281344 
2349	 3.94209713126573E-02 
2350	 3.94524116706106E-02 
2351	 3.94940794252906E-02 
2352	 3.95007500030219E-02 
2353	 3.94892621399491E-02 
2354	 3.94459586883942E-02 
2355	 3.94216415778918E-02 
2356	 3.94602082339927E-02 
2357	 3.95046382297856E-02 
2358	 3.94890753450569E-02 
2359	 3.94333332191497E-02 
2360	 0.039426512279513 
2361	 3.94549027355858E-02 
2362	 3.95031638913797E-02 
2363	 3.96096127178938E-02 
2364	 3.96869806918574E-02 
2365	 3.96617326206283E-02 
2366	 3.96206066406344E-02 
2367	 3.96201733825074E-02 
2368	 3.96047915666052E-02 
2369	 3.96121664576039E-02 
2370	 3.96760326808554E-02 
2371	 3.96920738371237E-02 
2372	 3.96389917436846E-02 
2373	 3.95766594339418E-02 
2374	 3.95614345979987E-02 
2375	 3.95808107130972E-02 
2376	 3.95964578597981E-02 
2377	 0.039630962719952 
2378	 3.96183828027751E-02 
2379	 0.039592640364538 
2380	 0.039655607903547 
2381	 3.96589862431921E-02 
2382	 3.96584690756125E-02 
2383	 3.96636467177124E-02 
2384	 0.039674751644263 
2385	 3.96767362342487E-02 
2386	 3.96710934322788E-02 
2387	 3.96505827652257E-02 
2388	 3.96529152949797E-02 
2389	 3.96544777370675E-02 
2390	 3.96334374874435E-02 
2391	 3.96448139887563E-02 
2392	 3.96307423247567E-02 
2393	 3.95309297834353E-02 
2394	 3.95336432442566E-02 
2395	 3.95944181391815E-02 
2396	 3.95963632090118E-02 
2397	 3.96326919928315E-02 
2398	 3.96477094438617E-02 
2399	 3.96594430063105E-02 
2400	 3.96671335822615E-02 
2401	 3.96425145640351E-02 
2402	 3.96706324707181E-02 
2403	 3.96451575373794E-02 
2404	 3.96403150572548E-02 
2405	 3.96252686817377E-02 
2406	 3.96371479324141E-02 
2407	 3.96038792671558E-02 
2408	 3.95530906297384E-02 
2409	 3.96424123276199E-02 
2410	 3.96801127456541E-02 
2411	 3.96652076529933E-02 
2412	 3.96717778977577E-02 
2413	 3.96738997628632E-02 
2414	 3.96531448239946E-02 
2415	 3.96768716437582E-02 
2416	 3.97584642216447E-02 
2417	 3.96828491974211E-02 
2418	 0.039528967389777 
2419	 3.94518791483664E-02 
2420	 3.94515297766808E-02 
2421	 3.95709153687423E-02 
2422	 3.97329420067026E-02 
2423	 3.97722102596229E-02 
2424	 3.97116670865034E-02 
2425	 3.96626273524428E-02 
2426	 3.96581557336842E-02 
2427	 3.96559789099971E-02 
2428	 3.95683895743689E-02 
2429	 3.94383502034622E-02 
2430	 3.93340776244909E-02 
2431	 3.93479236142087E-02 
2432	 3.95105119428089E-02 
2433	 3.96999168770123E-02 
2434	 3.98113442885564E-02 
2435	 3.98704513203297E-02 
2436	 3.98546140368983E-02 
2437	 3.97390560446713E-02 
2438	 0.039634305085648 
2439	 3.94942590189994E-02 
2440	 3.93459852122191E-02 
2441	 3.92602651202474E-02 
2442	 3.92458415224206E-02 
2443	 3.92920224607786E-02 
2444	 3.93386887718079E-02 
2445	 3.94552221165675E-02 
2446	 3.95424677864885E-02 
2447	 3.95138231844086E-02 
2448	 3.95247062073607E-02 
2449	 3.95048853656322E-02 
2450	 0.039379563203515 
2451	 3.92911147482307E-02 
2452	 3.92970742688795E-02 
2453	 3.93006731662732E-02 
2454	 3.92708786416053E-02 
2455	 3.94211662615419E-02 
2456	 3.95309092201728E-02 
2457	 3.94711677607288E-02 
2458	 3.95094582019641E-02 
2459	 3.93946111949964E-02 
2460	 3.92742907771187E-02 
2461	 3.93036800196349E-02 
2462	 3.92926379494016E-02 
2463	 3.94097821253737E-02 
2464	 3.95245928466293E-02 
2465	 3.94962192010164E-02 
2466	 3.94974472196103E-02 
2467	 3.95978528777036E-02 
2468	 3.95989979289005E-02 
2469	 3.94383295715336E-02 
2470	 3.93830036799873E-02 
2471	 3.93454804488715E-02 
2472	 3.91649097038505E-02 
2473	 0.039262290861479 
2474	 3.94407527137453E-02 
2475	 3.93445204388953E-02 
2476	 3.94547889036988E-02 
2477	 3.94819825671267E-02 
2478	 3.93145549160686E-02 
2479	 3.93787955173091E-02 
2480	 3.91099719030231E-02 
2481	 0.039091200620191 
2482	 3.92360576784695E-02 
2483	 3.92950412830045E-02 
2484	 3.95136153789074E-02 
2485	 3.95454691799946E-02 
2486	 3.95471339050936E-02 
2487	 3.94343471289242E-02 
2488	 3.90666370635423E-02 
2489	 0.038899963233075 
2490	 3.88576654369494E-02 
2491	 3.88066662603395E-02 
2492	 3.89944928649045E-02 
2493	 3.91709374015925E-02 
2494	 3.92503749320321E-02 
2495	 3.93461109289634E-02 
2496	 3.93571631744827E-02 
2497	 0.039377016241583 
2498	 0.039310382072849 
2499	 3.91709889116416E-02 
2500	 3.93414783954246E-02 
