Wavelength	spectrum00013.asd
350	 7.39693356237119E-02 
351	 7.18868453605589E-02 
352	 0.067945414855527 
353	 6.45535212996978E-02 
354	 6.70224948585083E-02 
355	 6.71669351975853E-02 
356	 6.56205531925913E-02 
357	 6.43009641677056E-02 
358	 6.23936604564371E-02 
359	 6.06822284095669E-02 
360	 0.059863176055399 
361	 0.060290204380168 
362	 6.04461348606885E-02 
363	 6.06116473197815E-02 
364	 6.05916769925686E-02 
365	 5.92844441170627E-02 
366	 6.07701748982054E-02 
367	 6.16377631860712E-02 
368	 5.93073706501745E-02 
369	 5.99068246070369E-02 
370	 6.01164549568169E-02 
371	 5.90513156330987E-02 
372	 5.75377698171961E-02 
373	 5.75308108469597E-02 
374	 5.88103270050085E-02 
375	 6.03480127887486E-02 
376	 6.04338865921611E-02 
377	 6.01353987679197E-02 
378	 6.00452542811702E-02 
379	 6.02765709565182E-02 
380	 5.96153776873385E-02 
381	 5.99299093299101E-02 
382	 6.06271818107978E-02 
383	 5.98656676052079E-02 
384	 5.92666388582321E-02 
385	 5.95309026856042E-02 
386	 6.02474255992519E-02 
387	 0.05954481609156 
388	 5.91772122991889E-02 
389	 5.96770451383497E-02 
390	 6.06652631644054E-02 
391	 5.97941193451093E-02 
392	 0.059446412483204 
393	 6.00723792576975E-02 
394	 6.07381083497742E-02 
395	 6.13340011111635E-02 
396	 6.14965609572542E-02 
397	 6.12654084621085E-02 
398	 0.061359606274674 
399	 6.09833535790874E-02 
400	 6.07342028858395E-02 
401	 6.11101297462009E-02 
402	 6.04052169047871E-02 
403	 6.04332367624095E-02 
404	 6.11881499675555E-02 
405	 6.12975092309057E-02 
406	 6.12952032636238E-02 
407	 6.13160499453908E-02 
408	 6.14451412572182E-02 
409	 6.17952054886682E-02 
410	 6.21216263555516E-02 
411	 6.22963759443789E-02 
412	 6.22928377062706E-02 
413	 6.23197336248119E-02 
414	 6.23731149928185E-02 
415	 6.24780988765796E-02 
416	 6.26922772390055E-02 
417	 6.30186452588329E-02 
418	 6.32846282932379E-02 
419	 6.33911687909979E-02 
420	 6.34352480379078E-02 
421	 6.36850656694453E-02 
422	 6.40741395763625E-02 
423	 6.43724673891105E-02 
424	 6.43092421102101E-02 
425	 6.44728096050594E-02 
426	 6.49406719787044E-02 
427	 6.51477373651074E-02 
428	 6.51417564571915E-02 
429	 0.065316495742794 
430	 6.58547514230664E-02 
431	 0.066064352194375 
432	 6.63535320062633E-02 
433	 6.66429170844448E-02 
434	 6.66491345995387E-02 
435	 6.68977346765332E-02 
436	 6.72516082194974E-02 
437	 6.75670979613571E-02 
438	 6.78153641375655E-02 
439	 6.80042993773295E-02 
440	 6.82290976962723E-02 
441	 6.85546275272893E-02 
442	 6.88225619980575E-02 
443	 6.90236815409238E-02 
444	 6.92013186411516E-02 
445	 6.94310720360098E-02 
446	 6.96550989272501E-02 
447	 6.98911709271964E-02 
448	 7.01451879119008E-02 
449	 0.070367565151914 
450	 7.06158117759464E-02 
451	 7.08781012343311E-02 
452	 7.11211056463056E-02 
453	 7.13489469888804E-02 
454	 7.16684031426973E-02 
455	 7.19846218089185E-02 
456	 0.071989877205343 
457	 7.22186039608432E-02 
458	 7.24742310495661E-02 
459	 7.25673696131358E-02 
460	 7.28578668383728E-02 
461	 0.073033786749643 
462	 0.073117638069213 
463	 0.073311078239495 
464	 7.36042777724251E-02 
465	 7.38331669091561E-02 
466	 7.39715474885501E-02 
467	 7.42389965171672E-02 
468	 7.43425607846645E-02 
469	 7.43976530276799E-02 
470	 7.45894885582922E-02 
471	 7.48697555277475E-02 
472	 7.50684797087028E-02 
473	 7.52066858893895E-02 
474	 7.54435352644132E-02 
475	 7.55257235037556E-02 
476	 7.56336430080009E-02 
477	 7.58612745456769E-02 
478	 7.59520649520126E-02 
479	 7.60612111802068E-02 
480	 7.62475771455664E-02 
481	 7.65056631517013E-02 
482	 7.66851352582505E-02 
483	 7.67972786668241E-02 
484	 7.68709056878946E-02 
485	 7.69386451292168E-02 
486	 7.71220436183062E-02 
487	 7.72659737599854E-02 
488	 7.72869373869674E-02 
489	 7.75381681270798E-02 
490	 7.77450147645237E-02 
491	 7.78916460380985E-02 
492	 0.078099810146073 
493	 0.078213894352605 
494	 7.82891351386045E-02 
495	 0.078406970812706 
496	 7.86625208390157E-02 
497	 7.87585342722021E-02 
498	 7.88236264792742E-02 
499	 7.90500899156263E-02 
500	 7.92710033981807E-02 
501	 7.93871962419366E-02 
502	 7.94275937463016E-02 
503	 7.95314515456276E-02 
504	 7.97871345387161E-02 
505	 8.00195144955237E-02 
506	 8.01417269525964E-02 
507	 8.04011737847458E-02 
508	 0.080677316012281 
509	 8.08981691332535E-02 
510	 8.10444303856034E-02 
511	 8.13129551321625E-02 
512	 8.16138155788894E-02 
513	 8.19021420079025E-02 
514	 8.22291637346817E-02 
515	 8.24455032230064E-02 
516	 8.27034452519642E-02 
517	 8.31258250470747E-02 
518	 8.34497773494713E-02 
519	 8.37760107269863E-02 
520	 8.41929544922651E-02 
521	 8.47538894463619E-02 
522	 8.52643496331318E-02 
523	 8.57402166076175E-02 
524	 0.086240800822995 
525	 8.68513826959777E-02 
526	 8.74655451459992E-02 
527	 8.80968968237638E-02 
528	 8.87956638225383E-02 
529	 8.95508235608191E-02 
530	 0.090370747160227 
531	 9.12573683998379E-02 
532	 9.22033531355037E-02 
533	 9.32140463591874E-02 
534	 9.43194991878423E-02 
535	 9.55600289664164E-02 
536	 9.69932993524005E-02 
537	 9.86163460818292E-02 
538	 0.100383069563753 
539	 0.10224674098469 
540	 0.104358464177328 
541	 0.106675660728917 
542	 0.10918861258283 
543	 0.111973226537131 
544	 0.115011917102244 
545	 0.118322947846158 
546	 0.121935421107786 
547	 0.125894123580363 
548	 0.130133885635579 
549	 0.134665314205646 
550	 0.139567105386062 
551	 0.144835413835911 
552	 0.150512120457142 
553	 0.156620532282068 
554	 0.163112099953345 
555	 0.169951962688567 
556	 0.177142089782928 
557	 0.184675810567038 
558	 0.192432984945884 
559	 0.200324138202446 
560	 0.208298115111091 
561	 0.216358666832006 
562	 0.224390432749546 
563	 0.232331287895047 
564	 0.240141112318489 
565	 0.247834319930495 
566	 0.255237900777136 
567	 0.262314585905411 
568	 0.269130007511881 
569	 0.275693044329527 
570	 0.281851597045783 
571	 0.287510244981141 
572	 0.292711128430558 
573	 0.297680913730109 
574	 0.302463823395554 
575	 0.307026736276905 
576	 0.311401977128696 
577	 0.315447768635879 
578	 0.319065863151224 
579	 0.322218174276785 
580	 0.325139673533401 
581	 0.32785025612339 
582	 0.330366375666709 
583	 0.332873098215797 
584	 0.33519284830753 
585	 0.33733394852199 
586	 0.339390058713492 
587	 0.341110616254168 
588	 0.342543159259831 
589	 0.343840198381222 
590	 0.345263638647677 
591	 0.346490483714661 
592	 0.347576897917054 
593	 0.348641732350653 
594	 0.349532151822613 
595	 0.350320935587196 
596	 0.351046107109187 
597	 0.351703493199914 
598	 0.35223746767192 
599	 0.352801424385308 
600	 0.353481537974743 
601	 0.354115068166069 
602	 0.354752411164469 
603	 0.355371123706502 
604	 0.355924525219319 
605	 0.356420720663681 
606	 0.356849036961875 
607	 0.357237683081355 
608	 0.357661427149452 
609	 0.357981299047755 
610	 0.35827876108064 
611	 0.358635724723508 
612	 0.358942565162873 
613	 0.359222542345878 
614	 0.359499662943122 
615	 0.359787253276764 
616	 0.359966893882976 
617	 0.360156847065624 
618	 0.360414235134758 
619	 0.360632718992785 
620	 0.360857157568019 
621	 0.361087286085577 
622	 0.361303160989519 
623	 0.361460567696313 
624	 0.361586993359863 
625	 0.361718130700589 
626	 0.36189185180251 
627	 0.362115739146016 
628	 0.36229107960681 
629	 0.362370283407054 
630	 0.362470032026967 
631	 0.362635665498517 
632	 0.362790709449901 
633	 0.362832854856391 
634	 0.362919172944125 
635	 0.363060804042807 
636	 0.363227759287615 
637	 0.363356241140579 
638	 0.363452714562796 
639	 0.363531879945775 
640	 0.363604136020982 
641	 0.363646707434681 
642	 0.363722367224232 
643	 0.363810350199388 
644	 0.363846373202591 
645	 0.363885223465132 
646	 0.36394928902761 
647	 0.364042904913522 
648	 0.3641530220522 
649	 0.364190440638164 
650	 0.36415378787524 
651	 0.364103526089157 
652	 0.364216454299757 
653	 0.364316676597647 
654	 0.364335632956738 
655	 0.364310479106785 
656	 0.364328741043696 
657	 0.364383117599158 
658	 0.364433951216559 
659	 0.364409947087127 
660	 0.364370588605054 
661	 0.364362501976599 
662	 0.364410617947706 
663	 0.364458861737692 
664	 0.364447903283614 
665	 0.364376312701445 
666	 0.364303820652211 
667	 0.364340803861667 
668	 0.364420211730121 
669	 0.3644505488066 
670	 0.364375225768741 
671	 0.364289749578233 
672	 0.3642467597212 
673	 0.364257599970591 
674	 0.364221112513765 
675	 0.364145871522826 
676	 0.36407800948982 
677	 0.364092916444167 
678	 0.364097839482529 
679	 0.364068257314956 
680	 0.363999069621295 
681	 0.363875253654722 
682	 0.363830148161489 
683	 0.363829750377833 
684	 0.363757578263083 
685	 0.363660608799146 
686	 0.363610529154092 
687	 0.363600054371437 
688	 0.363510275174525 
689	 0.363381905712294 
690	 0.363264281265911 
691	 0.363194397639186 
692	 0.363156424224262 
693	 0.36311832676988 
694	 0.363072880776936 
695	 0.363025052475239 
696	 0.36292299050783 
697	 0.362829161875873 
698	 0.362760013528107 
699	 0.362638187028432 
700	 0.362537631556858 
701	 0.362429338043631 
702	 0.362300478748419 
703	 0.362321217575286 
704	 0.362301422612921 
705	 0.362198687501849 
706	 0.36208271360194 
707	 0.361981481062548 
708	 0.361877397240166 
709	 0.361769439821026 
710	 0.361697684878343 
711	 0.361607556013047 
712	 0.361541079731323 
713	 0.361538030209783 
714	 0.361526059150099 
715	 0.361410046100932 
716	 0.361239647003671 
717	 0.361158225421016 
718	 0.361107113975524 
719	 0.361086052208697 
720	 0.361048381088733 
721	 0.360850442874654 
722	 0.360780203497482 
723	 0.360824325398715 
724	 0.360848585526206 
725	 0.36063946770692 
726	 0.360535995242454 
727	 0.360553925302842 
728	 0.360484220328339 
729	 0.360448822155012 
730	 0.360411849775023 
731	 0.360345015954402 
732	 0.360260120997928 
733	 0.360255251602195 
734	 0.360267374531601 
735	 0.360212412517284 
736	 0.36011779037144 
737	 0.360069572373795 
738	 0.360066987730146 
739	 0.360062434301126 
740	 0.360194150162746 
741	 0.360203715782815 
742	 0.360041466611064 
743	 0.360031066046201 
744	 0.360076952175727 
745	 0.360162243385726 
746	 0.360248863550333 
747	 0.360171849811499 
748	 0.36015403722597 
749	 0.360226900274465 
750	 0.36029435207053 
751	 0.360238486404879 
752	 0.360248083226693 
753	 0.36034021803444 
754	 0.360276019071176 
755	 0.360266096540285 
756	 0.360368777724067 
757	 0.360531171254496 
758	 0.360494856548983 
759	 0.360454527655597 
760	 0.360480434895131 
761	 0.360564888359593 
762	 0.360620746029645 
763	 0.360654093319829 
764	 0.360700931721246 
765	 0.360816810830268 
766	 0.361001993630658 
767	 0.361098937797107 
768	 0.361072341046321 
769	 0.361238122213385 
770	 0.361367896053617 
771	 0.361480922473168 
772	 0.361645199213281 
773	 0.361715733947663 
774	 0.361778536539214 
775	 0.36188196606221 
776	 0.362025861557129 
777	 0.362126159209832 
778	 0.362262767412043 
779	 0.362425959058511 
780	 0.362412206286724 
781	 0.362491730878509 
782	 0.362653467686591 
783	 0.362822800302742 
784	 0.363027037634584 
785	 0.36314272404599 
786	 0.363213085873731 
787	 0.363357249569269 
788	 0.363464594656415 
789	 0.363582632971746 
790	 0.363718750360251 
791	 0.363820116365697 
792	 0.363959790977242 
793	 0.36408839208 
794	 0.364190290830947 
795	 0.364407634009567 
796	 0.364510393328952 
797	 0.36455635414795 
798	 0.36468205510756 
799	 0.364826789237523 
800	 0.364995163945288 
801	 0.365120656799529 
802	 0.365111697243341 
803	 0.365191884365129 
804	 0.365319806243627 
805	 0.365444774227075 
806	 0.365560707817865 
807	 0.365670609359712 
808	 0.365733571544035 
809	 0.365749247304005 
810	 0.365859744900594 
811	 0.366007404232361 
812	 0.366129496509991 
813	 0.366185613930881 
814	 0.366274754799581 
815	 0.366383382218179 
816	 0.366489084440714 
817	 0.366571278016799 
818	 0.366664854603204 
819	 0.366706343152657 
820	 0.366697284253534 
821	 0.366766133072605 
822	 0.366759535157582 
823	 0.366796241763664 
824	 0.366960246616632 
825	 0.367001411092247 
826	 0.367078144650309 
827	 0.367139144250734 
828	 0.367082344122681 
829	 0.367090707457217 
830	 0.367118775500268 
831	 0.367168069494194 
832	 0.367276352425794 
833	 0.367288679656439 
834	 0.367241067560853 
835	 0.367201271993389 
836	 0.367233706980204 
837	 0.367288517045573 
838	 0.367286338653585 
839	 0.367209824701957 
840	 0.367235538888407 
841	 0.367202736833897 
842	 0.367120177029336 
843	 0.367064814355298 
844	 0.367075594781086 
845	 0.367087564546199 
846	 0.367056713398988 
847	 0.366964929397331 
848	 0.36681327907738 
849	 0.366705804420793 
850	 0.366664947537487 
851	 0.366600951896972 
852	 0.366568482876914 
853	 0.366548283039827 
854	 0.366508825637871 
855	 0.366426956166001 
856	 0.366273220232947 
857	 0.366132738996542 
858	 0.366087094652317 
859	 0.366079499843909 
860	 0.365968795345901 
861	 0.365817339089821 
862	 0.365762339588484 
863	 0.365674000102875 
864	 0.365613077374884 
865	 0.36556055841548 
866	 0.36542946733186 
867	 0.365258052511413 
868	 0.365149884574001 
869	 0.365156540093801 
870	 0.365238780170162 
871	 0.365108132443574 
872	 0.3649012827624 
873	 0.364769318094057 
874	 0.36466493002792 
875	 0.364597541777627 
876	 0.364481759944068 
877	 0.36428016538594 
878	 0.364219519406757 
879	 0.364147570125178 
880	 0.364037655259214 
881	 0.363935113047834 
882	 0.363901586546894 
883	 0.363844253602293 
884	 0.363719818574805 
885	 0.363551734536242 
886	 0.363494029844683 
887	 0.363482187173441 
888	 0.363430001319271 
889	 0.363272517887236 
890	 0.363127129959948 
891	 0.362970969627908 
892	 0.362815933921648 
893	 0.362774255667273 
894	 0.36257183345126 
895	 0.362343186538089 
896	 0.362231617634696 
897	 0.362113533767573 
898	 0.362089313934604 
899	 0.362020400977478 
900	 0.361787440135642 
901	 0.361643112832506 
902	 0.361570125346211 
903	 0.361504003412613 
904	 0.361382846891211 
905	 0.361310080514742 
906	 0.361157691816444 
907	 0.360967804716222 
908	 0.360878239434332 
909	 0.360694631048038 
910	 0.360567886894425 
911	 0.360509125308604 
912	 0.360367668911973 
913	 0.36021117383806 
914	 0.360038319248955 
915	 0.359917588435707 
916	 0.360000240323613 
917	 0.359954969064498 
918	 0.359849646609364 
919	 0.359799856018411 
920	 0.359843802176278 
921	 0.359737878525387 
922	 0.359582163395691 
923	 0.359492215808394 
924	 0.359364030821918 
925	 0.359364501210633 
926	 0.359380339583674 
927	 0.35929003291218 
928	 0.35927439085069 
929	 0.359220759481881 
930	 0.359140432195224 
931	 0.359095699499724 
932	 0.359126250082957 
933	 0.35911180464591 
934	 0.359111491647994 
935	 0.359225032874166 
936	 0.359197634819291 
937	 0.359169562079032 
938	 0.359173510052619 
939	 0.359166123401742 
940	 0.359240463883721 
941	 0.35932940676222 
942	 0.359366268690425 
943	 0.359322155899648 
944	 0.359347582668205 
945	 0.359343605572145 
946	 0.35931176051685 
947	 0.359368380364311 
948	 0.359355734833229 
949	 0.359263638826058 
950	 0.359181503014495 
951	 0.359266161252737 
952	 0.359292573414569 
953	 0.359289925407657 
954	 0.359272650776687 
955	 0.359174160629979 
956	 0.359183157722417 
957	 0.359199768648529 
958	 0.359143213240625 
959	 0.35907551223382 
960	 0.359095548184878 
961	 0.359027553805798 
962	 0.3588225114907 
963	 0.358801904998471 
964	 0.358656123204321 
965	 0.358578022320328 
966	 0.358667510638822 
967	 0.358532446614493 
968	 0.35841823386199 
969	 0.358367096240905 
970	 0.358348281275461 
971	 0.358290383501979 
972	 0.358389743606827 
973	 0.358448587843342 
974	 0.358312427589233 
975	 0.358291685978162 
976	 0.358257670323973 
977	 0.358201157547602 
978	 0.358129373745728 
979	 0.357985278702761 
980	 0.357895270466083 
981	 0.357838229015638 
982	 0.357765254518033 
983	 0.357713466794495 
984	 0.357723289093102 
985	 0.357749704279805 
986	 0.35774111989361 
987	 0.357737167071195 
988	 0.35773671721255 
989	 0.357670684675191 
990	 0.357510131229272 
991	 0.357422824353581 
992	 0.357418447825959 
993	 0.357528723282235 
994	 0.357694599525455 
995	 0.357561282899859 
996	 0.357551889992366 
997	 0.357527847658661 
998	 0.357332679981293 
999	 0.357465566490401 
1000	 0.357521910278292 
1001	 0.361675386655021 
1002	 0.361621835020134 
1003	 0.361587827886769 
1004	 0.361558681817999 
1005	 0.36153450707201 
1006	 0.361493554113997 
1007	 0.361451324690376 
1008	 0.361410917069638 
1009	 0.361342783105418 
1010	 0.361310471576735 
1011	 0.361294979954054 
1012	 0.36129591252927 
1013	 0.361328305641252 
1014	 0.361336801296483 
1015	 0.361341895553806 
1016	 0.361369211555572 
1017	 0.361385757042982 
1018	 0.361351994480116 
1019	 0.361329566377289 
1020	 0.361336841817312 
1021	 0.361323174645574 
1022	 0.361304408962529 
1023	 0.361291639968012 
1024	 0.361277955470841 
1025	 0.361241090598261 
1026	 0.361186670132469 
1027	 0.361144565365142 
1028	 0.361104451415598 
1029	 0.361050262132248 
1030	 0.361003686026375 
1031	 0.360965068876026 
1032	 0.360901739256445 
1033	 0.360843856653736 
1034	 0.360766200758612 
1035	 0.360644630640011 
1036	 0.360518532743438 
1037	 0.360337437747918 
1038	 0.360223965313241 
1039	 0.360135736656875 
1040	 0.360035527953557 
1041	 0.359972988568405 
1042	 0.359878033314261 
1043	 0.359759632526134 
1044	 0.359635411288328 
1045	 0.359521148677134 
1046	 0.359417590161013 
1047	 0.359340237465362 
1048	 0.359257939768246 
1049	 0.359161452996138 
1050	 0.359092001800436 
1051	 0.359007690228912 
1052	 0.358920367556021 
1053	 0.358872763395463 
1054	 0.358873135887744 
1055	 0.358830909501431 
1056	 0.358792925762228 
1057	 0.358773848796176 
1058	 0.35875216716605 
1059	 0.358712123925572 
1060	 0.358707050634945 
1061	 0.35869177702567 
1062	 0.35865567437373 
1063	 0.358603553247856 
1064	 0.358588211541172 
1065	 0.358610749063052 
1066	 0.358635863285825 
1067	 0.358699172007964 
1068	 0.358784790783693 
1069	 0.358848983144703 
1070	 0.358918697832439 
1071	 0.358991114686908 
1072	 0.359082210983193 
1073	 0.35914879232168 
1074	 0.35918842188471 
1075	 0.359210558347931 
1076	 0.359227938810802 
1077	 0.359254803053196 
1078	 0.359309536950763 
1079	 0.359388786441683 
1080	 0.359478116825236 
1081	 0.359574058624152 
1082	 0.359654536400567 
1083	 0.359739523820612 
1084	 0.359851591651649 
1085	 0.359945941578308 
1086	 0.360015503668959 
1087	 0.360077367549783 
1088	 0.36012842980044 
1089	 0.360163686129766 
1090	 0.360221165763585 
1091	 0.36029426252165 
1092	 0.360370607629374 
1093	 0.360451451698365 
1094	 0.360490984023326 
1095	 0.360516423030153 
1096	 0.360563149121162 
1097	 0.36058537153753 
1098	 0.36060510763308 
1099	 0.360633533269461 
1100	 0.360632990869615 
1101	 0.360643518772403 
1102	 0.3606611351657 
1103	 0.360664054374475 
1104	 0.360655009072569 
1105	 0.360670340839645 
1106	 0.360697526494359 
1107	 0.360717486968122 
1108	 0.36076612366636 
1109	 0.360822820645505 
1110	 0.360831909102428 
1111	 0.360840469126946 
1112	 0.360866321232564 
1113	 0.360871011940132 
1114	 0.360879203590039 
1115	 0.360873919587575 
1116	 0.360842004128155 
1117	 0.360826187701043 
1118	 0.360806994429931 
1119	 0.360785277787828 
1120	 0.360766077971163 
1121	 0.360756253105799 
1122	 0.36072253720514 
1123	 0.360694267426411 
1124	 0.3606805049341 
1125	 0.360650498119228 
1126	 0.360622429359028 
1127	 0.360612392426898 
1128	 0.360586336380847 
1129	 0.360542111882233 
1130	 0.36050314717736 
1131	 0.36044177013819 
1132	 0.360386255100744 
1133	 0.360353740291147 
1134	 0.360318882787825 
1135	 0.36027911528844 
1136	 0.360240100679265 
1137	 0.360194124894894 
1138	 0.360143271939218 
1139	 0.36008753829171 
1140	 0.360029882697907 
1141	 0.359969220970509 
1142	 0.35988977168343 
1143	 0.359795807671121 
1144	 0.359699743778748 
1145	 0.359581148900731 
1146	 0.359460216737219 
1147	 0.359369613956452 
1148	 0.359280932856243 
1149	 0.359188935467269 
1150	 0.359106821954912 
1151	 0.359036102012681 
1152	 0.358957154180784 
1153	 0.358881583093804 
1154	 0.358793163239891 
1155	 0.35869558649835 
1156	 0.35859393108804 
1157	 0.35848317385793 
1158	 0.35837956766721 
1159	 0.358275755454237 
1160	 0.358172332921139 
1161	 0.358077171675187 
1162	 0.357964824413424 
1163	 0.357862694742451 
1164	 0.357773744295803 
1165	 0.357693596610456 
1166	 0.357610114038435 
1167	 0.357518469006657 
1168	 0.357439867315648 
1169	 0.357342918258229 
1170	 0.357218142817934 
1171	 0.35712470386042 
1172	 0.357047311162696 
1173	 0.3569472106644 
1174	 0.356860371077099 
1175	 0.356760249537155 
1176	 0.356629546151926 
1177	 0.356515090866331 
1178	 0.356417311226912 
1179	 0.356292842294761 
1180	 0.356174761319086 
1181	 0.356055098130006 
1182	 0.355908557108248 
1183	 0.355778059194876 
1184	 0.355651242223118 
1185	 0.355518786014702 
1186	 0.355408303798904 
1187	 0.355314422024323 
1188	 0.355223369969059 
1189	 0.355140959676776 
1190	 0.35507164539411 
1191	 0.355007312808566 
1192	 0.354963304320597 
1193	 0.354940614063247 
1194	 0.354914765234254 
1195	 0.354899250195631 
1196	 0.35488879848961 
1197	 0.354878972955451 
1198	 0.35487814156748 
1199	 0.354887143075291 
1200	 0.354914260296136 
1201	 0.354959759075287 
1202	 0.355015685984846 
1203	 0.355086122806272 
1204	 0.355179887617618 
1205	 0.355282375275543 
1206	 0.355371337983222 
1207	 0.355541274035221 
1208	 0.355740942827922 
1209	 0.355986245823641 
1210	 0.356292456165475 
1211	 0.356628174574847 
1212	 0.356992793088857 
1213	 0.35740902014088 
1214	 0.357875223061711 
1215	 0.358377197155987 
1216	 0.358936663537062 
1217	 0.359496596883463 
1218	 0.36008742993531 
1219	 0.360701217142666 
1220	 0.36130663505316 
1221	 0.361973969045918 
1222	 0.362634262345832 
1223	 0.363297595701424 
1224	 0.363939287084179 
1225	 0.364569212551244 
1226	 0.365186131007129 
1227	 0.365793300083441 
1228	 0.366386469382589 
1229	 0.366990943913381 
1230	 0.367536352967459 
1231	 0.368042069087153 
1232	 0.368539684294792 
1233	 0.368993776240508 
1234	 0.369441664413889 
1235	 0.369881376224287 
1236	 0.370308697063018 
1237	 0.37071030652299 
1238	 0.371110876393031 
1239	 0.37150037306069 
1240	 0.37189719548618 
1241	 0.372285168258997 
1242	 0.37263560161583 
1243	 0.373005676924305 
1244	 0.373375176323159 
1245	 0.37373645104626 
1246	 0.374106609935278 
1247	 0.374449440681696 
1248	 0.374771114283013 
1249	 0.375097861779315 
1250	 0.375417294287104 
1251	 0.375725115430175 
1252	 0.376031561596171 
1253	 0.376325232213897 
1254	 0.37660683806707 
1255	 0.376876998497541 
1256	 0.377138333450464 
1257	 0.37739215501087 
1258	 0.377628297160702 
1259	 0.377862359688909 
1260	 0.378100022362037 
1261	 0.378320746852628 
1262	 0.378528617626834 
1263	 0.378731798082863 
1264	 0.378915717824742 
1265	 0.379075468161072 
1266	 0.379250029492043 
1267	 0.379419240341192 
1268	 0.379585169138425 
1269	 0.379750611257413 
1270	 0.379921029604426 
1271	 0.380076446956129 
1272	 0.380255910799622 
1273	 0.380447638347742 
1274	 0.380650691025992 
1275	 0.380867448675648 
1276	 0.381088688735418 
1277	 0.381316452092356 
1278	 0.381558000467831 
1279	 0.381810006599057 
1280	 0.382067535091189 
1281	 0.38233432074812 
1282	 0.38261221075607 
1283	 0.382900337315229 
1284	 0.383189065366917 
1285	 0.383483572612464 
1286	 0.383787408234351 
1287	 0.384096792239539 
1288	 0.384405205457865 
1289	 0.384727972419142 
1290	 0.385069597575861 
1291	 0.3853984998894 
1292	 0.385724992877321 
1293	 0.38605773756226 
1294	 0.386388360704192 
1295	 0.386724487991387 
1296	 0.387062710942824 
1297	 0.387411759518826 
1298	 0.387780030041112 
1299	 0.388123364431398 
1300	 0.388474187229359 
1301	 0.388802045307137 
1302	 0.389094055895145 
1303	 0.389399195867187 
1304	 0.389710135671113 
1305	 0.390005185458574 
1306	 0.390288756392167 
1307	 0.390575777864521 
1308	 0.390841840679579 
1309	 0.39112859181952 
1310	 0.391407422102097 
1311	 0.391697685237387 
1312	 0.391965715865529 
1313	 0.392225663114967 
1314	 0.392477181933777 
1315	 0.392714813758944 
1316	 0.39295574933289 
1317	 0.393199886315471 
1318	 0.39342292068241 
1319	 0.393638934849697 
1320	 0.393843375583481 
1321	 0.394030697783406 
1322	 0.394211805489365 
1323	 0.394397690781357 
1324	 0.394551879277858 
1325	 0.394676770663535 
1326	 0.39480581187842 
1327	 0.394922278042401 
1328	 0.395028553974358 
1329	 0.395130115618967 
1330	 0.395226267843646 
1331	 0.395305138351238 
1332	 0.395384465240839 
1333	 0.395464597208377 
1334	 0.395548428574308 
1335	 0.395599419518787 
1336	 0.395636074196022 
1337	 0.395662108380172 
1338	 0.395668363988228 
1339	 0.395665827177265 
1340	 0.39565536743246 
1341	 0.395634873887591 
1342	 0.395599191785411 
1343	 0.395557529979941 
1344	 0.39551125519641 
1345	 0.395451637164026 
1346	 0.395390656318167 
1347	 0.395296234866244 
1348	 0.395179799344666 
1349	 0.395057248633884 
1350	 0.394901705431926 
1351	 0.394756200890031 
1352	 0.394607724633321 
1353	 0.394460722703997 
1354	 0.394311017297968 
1355	 0.394161567277914 
1356	 0.394014660711353 
1357	 0.393866338100875 
1358	 0.393705329917725 
1359	 0.393560451642819 
1360	 0.393431283733115 
1361	 0.393296670923628 
1362	 0.393153097992988 
1363	 0.393014222861105 
1364	 0.392866751888716 
1365	 0.392715602107063 
1366	 0.392534666911272 
1367	 0.392347073851754 
1368	 0.392144572121129 
1369	 0.391917728638872 
1370	 0.391674564057538 
1371	 0.391428294356172 
1372	 0.391158113023753 
1373	 0.390863196622391 
1374	 0.390548128814369 
1375	 0.390216788037586 
1376	 0.389868555591802 
1377	 0.389480015882424 
1378	 0.389102596388354 
1379	 0.388713577130182 
1380	 0.388335234961242 
1381	 0.387960258297578 
1382	 0.387580852961664 
1383	 0.387199689705494 
1384	 0.386826289516529 
1385	 0.38645167766707 
1386	 0.386084043283458 
1387	 0.385699704141354 
1388	 0.38536856066086 
1389	 0.385041706351128 
1390	 0.384765312953881 
1391	 0.384546021120494 
1392	 0.384345493099412 
1393	 0.384206410185826 
1394	 0.384095849428463 
1395	 0.383974562028885 
1396	 0.383903049927742 
1397	 0.383761964574197 
1398	 0.383617200661707 
1399	 0.38338895030327 
1400	 0.383133504319297 
1401	 0.382786339776746 
1402	 0.382367157207648 
1403	 0.381884639164163 
1404	 0.381325832601098 
1405	 0.380732099360759 
1406	 0.380061791020223 
1407	 0.379385319701677 
1408	 0.378646814490739 
1409	 0.377938723495918 
1410	 0.377209728410549 
1411	 0.376501851685958 
1412	 0.375792664886129 
1413	 0.375124759755149 
1414	 0.37445767915564 
1415	 0.373844003465254 
1416	 0.373280294721312 
1417	 0.372732830816093 
1418	 0.372234119067168 
1419	 0.371729768505497 
1420	 0.37124984360191 
1421	 0.370764043772293 
1422	 0.370283785920366 
1423	 0.369796439424122 
1424	 0.369305665129493 
1425	 0.368805701173079 
1426	 0.36833993036824 
1427	 0.367860817308638 
1428	 0.367398518203628 
1429	 0.366968118128812 
1430	 0.366495988453331 
1431	 0.366018611477587 
1432	 0.365509104708171 
1433	 0.364975645344317 
1434	 0.364423123926778 
1435	 0.363845607096749 
1436	 0.363256401303607 
1437	 0.362625757055431 
1438	 0.362047817288616 
1439	 0.361452644496826 
1440	 0.360922107376197 
1441	 0.360405224764905 
1442	 0.359984331019551 
1443	 0.359580459134729 
1444	 0.359325111426988 
1445	 0.359150906690761 
1446	 0.359124761084928 
1447	 0.359210560632077 
1448	 0.359439268064403 
1449	 0.359836178645955 
1450	 0.360302825895458 
1451	 0.360924226922227 
1452	 0.361572394967871 
1453	 0.36231940530785 
1454	 0.363073534084594 
1455	 0.363891918117313 
1456	 0.36470860629234 
1457	 0.365573176437874 
1458	 0.366408104437145 
1459	 0.367248697223361 
1460	 0.36807330569387 
1461	 0.368889458772099 
1462	 0.369672164465284 
1463	 0.370435377723609 
1464	 0.371183369411466 
1465	 0.37188069690435 
1466	 0.372608195871329 
1467	 0.373305737223087 
1468	 0.373983795108234 
1469	 0.37465431267617 
1470	 0.375280916028232 
1471	 0.375929318274934 
1472	 0.376581813692443 
1473	 0.377199664847088 
1474	 0.377822246766777 
1475	 0.378389630366548 
1476	 0.378918802246967 
1477	 0.379421424833168 
1478	 0.37989725923394 
1479	 0.380323765134336 
1480	 0.380711862250333 
1481	 0.381067507191475 
1482	 0.381366967956465 
1483	 0.381672340946506 
1484	 0.381941347718561 
1485	 0.382231216645769 
1486	 0.382519897316219 
1487	 0.382803154623175 
1488	 0.383075559241126 
1489	 0.383375845539495 
1490	 0.383650456572196 
1491	 0.384003681292354 
1492	 0.384390785266133 
1493	 0.38483518849809 
1494	 0.385349108402682 
1495	 0.38587417508385 
1496	 0.3864548820237 
1497	 0.387032743986423 
1498	 0.387646695662495 
1499	 0.388237530881222 
1500	 0.388838402442977 
1501	 0.389419318550672 
1502	 0.389982892856136 
1503	 0.390536491171091 
1504	 0.391091195624932 
1505	 0.391615776748007 
1506	 0.392130755876078 
1507	 0.39260937380235 
1508	 0.393059935862575 
1509	 0.393480186195945 
1510	 0.393866822469513 
1511	 0.39422661269619 
1512	 0.394546078679489 
1513	 0.394856511794424 
1514	 0.395145744132546 
1515	 0.395416402126749 
1516	 0.395667200000594 
1517	 0.395907455349981 
1518	 0.396133568838647 
1519	 0.396336543746923 
1520	 0.396526197687625 
1521	 0.396694204881518 
1522	 0.396837946757601 
1523	 0.396981464429902 
1524	 0.397109092832957 
1525	 0.397227503230112 
1526	 0.397336609824309 
1527	 0.397426464486563 
1528	 0.397527918177021 
1529	 0.397627407204352 
1530	 0.397726485723012 
1531	 0.397829022398125 
1532	 0.397923048647932 
1533	 0.398000444185733 
1534	 0.398115342512663 
1535	 0.398236801083608 
1536	 0.398374983401806 
1537	 0.398528419563043 
1538	 0.398718238446329 
1539	 0.398919313438734 
1540	 0.399160037151958 
1541	 0.399447638336773 
1542	 0.399746453896073 
1543	 0.400073191549455 
1544	 0.400399845698366 
1545	 0.400743147794486 
1546	 0.401104273160339 
1547	 0.401472554284805 
1548	 0.401859213553869 
1549	 0.402278867540816 
1550	 0.402689469000409 
1551	 0.40310658359543 
1552	 0.403520511987082 
1553	 0.40394283325565 
1554	 0.404354611460576 
1555	 0.404771490304741 
1556	 0.405161331186289 
1557	 0.405528378194678 
1558	 0.405907156393514 
1559	 0.406280583450608 
1560	 0.406639023978274 
1561	 0.406997149266603 
1562	 0.407350247523253 
1563	 0.407668300571268 
1564	 0.408021566415921 
1565	 0.408411547227383 
1566	 0.408766362131514 
1567	 0.409118992264607 
1568	 0.409461541322569 
1569	 0.409779752690476 
1570	 0.410103138308706 
1571	 0.410429068185533 
1572	 0.410747811485853 
1573	 0.411055727596 
1574	 0.411366857881722 
1575	 0.411683315848716 
1576	 0.411986858072159 
1577	 0.412280897379505 
1578	 0.412576920401807 
1579	 0.412871623135415 
1580	 0.413154635412982 
1581	 0.413430627825399 
1582	 0.413708006182117 
1583	 0.413963254750466 
1584	 0.414243498496142 
1585	 0.414543311086939 
1586	 0.41483746731535 
1587	 0.415145480962147 
1588	 0.415440964637369 
1589	 0.415731780697575 
1590	 0.41601562203888 
1591	 0.416289082494648 
1592	 0.416566772771867 
1593	 0.416829600055967 
1594	 0.417114257332559 
1595	 0.417410334602451 
1596	 0.41771101100191 
1597	 0.41803752144281 
1598	 0.418343367220169 
1599	 0.418649927363175 
1600	 0.418941554822188 
1601	 0.419215973781744 
1602	 0.419487927962619 
1603	 0.419746505850479 
1604	 0.420007332080073 
1605	 0.420258733786205 
1606	 0.420520460786857 
1607	 0.420799096956681 
1608	 0.421057029631389 
1609	 0.421310028208133 
1610	 0.421559483970769 
1611	 0.421800058278726 
1612	 0.422025972209494 
1613	 0.422250212368129 
1614	 0.422459086373558 
1615	 0.422637355993091 
1616	 0.422825709253535 
1617	 0.423011646028263 
1618	 0.423197508960462 
1619	 0.423398383235066 
1620	 0.423572627092999 
1621	 0.423727476692245 
1622	 0.42388499083066 
1623	 0.424029106582936 
1624	 0.424167570103457 
1625	 0.424300666692564 
1626	 0.424438904980833 
1627	 0.424573813303104 
1628	 0.424701546165523 
1629	 0.424829639738478 
1630	 0.424960854832129 
1631	 0.425084540242808 
1632	 0.425208980954446 
1633	 0.425341861692657 
1634	 0.425471901096565 
1635	 0.425590290290474 
1636	 0.425715466763539 
1637	 0.425863308718837 
1638	 0.425979036343528 
1639	 0.426078602190516 
1640	 0.426176176877047 
1641	 0.426254117000066 
1642	 0.426331252811639 
1643	 0.426435754502229 
1644	 0.426485445270387 
1645	 0.426500391645261 
1646	 0.426496568837692 
1647	 0.4264430023031 
1648	 0.426396417383504 
1649	 0.426350408769775 
1650	 0.426283619012334 
1651	 0.426196850247609 
1652	 0.426106164051271 
1653	 0.426018136773865 
1654	 0.425888978029556 
1655	 0.425749622558054 
1656	 0.425572159763041 
1657	 0.425360145705421 
1658	 0.425101196400524 
1659	 0.424815082571386 
1660	 0.424481039211913 
1661	 0.424105465185611 
1662	 0.423669801531476 
1663	 0.423176676965047 
1664	 0.422641358631641 
1665	 0.422055975535529 
1666	 0.421403562703747 
1667	 0.420720792375308 
1668	 0.419955000188628 
1669	 0.419096555934331 
1670	 0.418200809725769 
1671	 0.417241181544284 
1672	 0.416225496039403 
1673	 0.415177867313958 
1674	 0.414033115750971 
1675	 0.412821255023443 
1676	 0.411540871070067 
1677	 0.410164709654818 
1678	 0.408741844315895 
1679	 0.407237384005111 
1680	 0.405697217306361 
1681	 0.404126456476937 
1682	 0.402450320524741 
1683	 0.400730698950792 
1684	 0.398916226740549 
1685	 0.396992782711908 
1686	 0.395006764110224 
1687	 0.392909997775685 
1688	 0.390786670051558 
1689	 0.388607245545384 
1690	 0.386344221489631 
1691	 0.384034443683716 
1692	 0.381701597510592 
1693	 0.379303996123954 
1694	 0.376847686149818 
1695	 0.374342380861348 
1696	 0.37177480999944 
1697	 0.369111825615077 
1698	 0.366430039911969 
1699	 0.363704371062435 
1700	 0.36104161050508 
1701	 0.358329313647873 
1702	 0.355716551661697 
1703	 0.353127219174637 
1704	 0.350658868644222 
1705	 0.348236977310003 
1706	 0.345898383236379 
1707	 0.343810607189219 
1708	 0.341793381658984 
1709	 0.339900872327926 
1710	 0.338199965168315 
1711	 0.336521524298133 
1712	 0.33498078789947 
1713	 0.333501314743175 
1714	 0.332053078725378 
1715	 0.330764959125018 
1716	 0.329489562275174 
1717	 0.328285751372683 
1718	 0.327160587929146 
1719	 0.326048150093048 
1720	 0.325065645660332 
1721	 0.324188251171957 
1722	 0.323432725032843 
1723	 0.322889750474485 
1724	 0.322485474134445 
1725	 0.322242886222175 
1726	 0.322242370928725 
1727	 0.322438020062009 
1728	 0.322851352580211 
1729	 0.323524090924737 
1730	 0.324422960117946 
1731	 0.32545341318354 
1732	 0.326648653560857 
1733	 0.327918979817213 
1734	 0.329240369311194 
1735	 0.330601782241034 
1736	 0.331856016012789 
1737	 0.333001824148159 
1738	 0.333965334199919 
1739	 0.334703127797184 
1740	 0.335262836984858 
1741	 0.335630832681217 
1742	 0.335742154190441 
1743	 0.335780316223601 
1744	 0.335610125569645 
1745	 0.335418485534615 
1746	 0.335108228947007 
1747	 0.334809889896879 
1748	 0.334425435430557 
1749	 0.334128449157117 
1750	 0.33380768162537 
1751	 0.333606846933222 
1752	 0.333461321119079 
1753	 0.333436913825471 
1754	 0.333488412393441 
1755	 0.333684055887978 
1756	 0.334004385973618 
1757	 0.334419945649303 
1758	 0.335009130354602 
1759	 0.335700716064581 
1760	 0.336541736575106 
1761	 0.337554722970802 
1762	 0.33866390561724 
1763	 0.339979224189632 
1764	 0.341387188571246 
1765	 0.342902481235536 
1766	 0.344599057772142 
1767	 0.346265719119511 
1768	 0.348021353110568 
1769	 0.349831251186349 
1770	 0.351499999655681 
1771	 0.353155999996603 
1772	 0.35469840684669 
1773	 0.356103062362559 
1774	 0.357501922255232 
1775	 0.358776004814367 
1776	 0.360022120052212 
1777	 0.361227175197227 
1778	 0.362277883144884 
1779	 0.363310447991155 
1780	 0.364257928802416 
1781	 0.365113955209208 
1782	 0.365965491522279 
1783	 0.366715557871223 
1784	 0.367406741215115 
1785	 0.367996069125447 
1786	 0.368575225969002 
1787	 0.369145563864886 
1788	 0.36965957360124 
1789	 0.370117839912059 
1790	 0.370584775523577 
1791	 0.370998636125533 
1792	 0.371426435686223 
1793	 0.371860385212178 
1794	 0.372276653767831 
1795	 0.372674984461492 
1796	 0.373048131402725 
1797	 0.37345695314348 
1798	 0.373851641588353 
1799	 0.374228094879336 
1800	 0.374629706878897 
1801	 0.369075047020728 
1802	 0.369512622606208 
1803	 0.369953321949644 
1804	 0.37040119399587 
1805	 0.370869125101106 
1806	 0.371285638118965 
1807	 0.371693923087665 
1808	 0.372101615407987 
1809	 0.37247389280032 
1810	 0.372853398304582 
1811	 0.373239369622237 
1812	 0.373630328185026 
1813	 0.374014563187742 
1814	 0.374404092007986 
1815	 0.374783048241741 
1816	 0.375183809298645 
1817	 0.375573531153954 
1818	 0.37594812461856 
1819	 0.376323187410139 
1820	 0.376697189393605 
1821	 0.377079716849591 
1822	 0.377449982606474 
1823	 0.377849072433719 
1824	 0.378225099248203 
1825	 0.378613150416179 
1826	 0.379003780623019 
1827	 0.379381712662762 
1828	 0.379756380783082 
1829	 0.380156752391159 
1830	 0.38052921388572 
1831	 0.380869969427335 
1832	 0.381232655741234 
1833	 0.381589672147111 
1834	 0.381943944275377 
1835	 0.382275266369633 
1836	 0.382591494349183 
1837	 0.38292315065547 
1838	 0.383234538753377 
1839	 0.383568917998311 
1840	 0.38394983398399 
1841	 0.384288066765213 
1842	 0.384599564758167 
1843	 0.384937814194404 
1844	 0.385285484945689 
1845	 0.385571726080823 
1846	 0.385889011717666 
1847	 0.386196340109846 
1848	 0.386446195991966 
1849	 0.386649364701733 
1850	 0.386849567774439 
1851	 0.387037282447324 
1852	 0.387165343834261 
1853	 0.387267129936586 
1854	 0.387342921071931 
1855	 0.387331415881658 
1856	 0.387297445650096 
1857	 0.387233455503161 
1858	 0.387096850294964 
1859	 0.386942798182088 
1860	 0.386762127797415 
1861	 0.386526737945016 
1862	 0.386250387712987 
1863	 0.385954973009189 
1864	 0.385580177562084 
1865	 0.385149179554645 
1866	 0.384658522399178 
1867	 0.384084229866968 
1868	 0.383465077077679 
1869	 0.382772841917221 
1870	 0.382027111726158 
1871	 0.381226625787295 
1872	 0.380382587211496 
1873	 0.379480939303354 
1874	 0.378556991481967 
1875	 0.377584284457641 
1876	 0.376497080556153 
1877	 0.375399744330977 
1878	 0.374183876385017 
1879	 0.372842352746229 
1880	 0.371513081649382 
1881	 0.370065683634563 
1882	 0.368502296588075 
1883	 0.366890059105746 
1884	 0.3651920787265 
1885	 0.363280946781683 
1886	 0.361335863654053 
1887	 0.359242501079719 
1888	 0.357027846702783 
1889	 0.354923510407266 
1890	 0.35268835295293 
1891	 0.350431534474146 
1892	 0.348192604779926 
1893	 0.345881131519954 
1894	 0.343452799944483 
1895	 0.341127806952126 
1896	 0.33877483144298 
1897	 0.336420885517156 
1898	 0.334279273113055 
1899	 0.332089696408466 
1900	 0.329980025453841 
1901	 0.327995429392384 
1902	 0.325895424427521 
1903	 0.323934458621635 
1904	 0.322042587468672 
1905	 0.320196375947666 
1906	 0.318400557119619 
1907	 0.316834755696914 
1908	 0.315274480138863 
1909	 0.313792234840596 
1910	 0.312417150102007 
1911	 0.310987521639403 
1912	 0.309650450701589 
1913	 0.308338954863554 
1914	 0.30703351635392 
1915	 0.305813865764711 
1916	 0.304689075628707 
1917	 0.303540209852478 
1918	 0.30244314999336 
1919	 0.301386313201563 
1920	 0.300251372740956 
1921	 0.299152811784905 
1922	 0.298039494389321 
1923	 0.296898157652435 
1924	 0.295852458084536 
1925	 0.294803902806203 
1926	 0.293772674230152 
1927	 0.292784171036757 
1928	 0.291779123034726 
1929	 0.290746273861442 
1930	 0.289778328847869 
1931	 0.28883459809649 
1932	 0.287942652988168 
1933	 0.287210646639431 
1934	 0.286533896296251 
1935	 0.285938218008144 
1936	 0.285466631131611 
1937	 0.285052260988824 
1938	 0.284692765782568 
1939	 0.284453657324884 
1940	 0.284307450102772 
1941	 0.284250265570419 
1942	 0.284295282234166 
1943	 0.284414355859542 
1944	 0.284603119701765 
1945	 0.284869076163485 
1946	 0.285240198847412 
1947	 0.285685049707731 
1948	 0.286237091761917 
1949	 0.286891635904403 
1950	 0.28759580787412 
1951	 0.288383222326175 
1952	 0.289236587377818 
1953	 0.290146582064398 
1954	 0.291133141056117 
1955	 0.292241893843011 
1956	 0.293330023930028 
1957	 0.294467793316019 
1958	 0.29562455087691 
1959	 0.296654184317553 
1960	 0.297685919195655 
1961	 0.29861667153704 
1962	 0.299450615506389 
1963	 0.300241282985857 
1964	 0.300974167514456 
1965	 0.301621628791986 
1966	 0.302197635471303 
1967	 0.302740291306076 
1968	 0.303173585432028 
1969	 0.303609646920598 
1970	 0.304022071125794 
1971	 0.304422285814916 
1972	 0.304867061649977 
1973	 0.305333053844451 
1974	 0.305824897664169 
1975	 0.306359846933268 
1976	 0.306897325363953 
1977	 0.307443751915326 
1978	 0.308018719028016 
1979	 0.308604626746033 
1980	 0.309225836939221 
1981	 0.309912902296567 
1982	 0.31057259864169 
1983	 0.311287468599678 
1984	 0.312026412820521 
1985	 0.312720264596638 
1986	 0.313511016952477 
1987	 0.314339627033467 
1988	 0.315169779982464 
1989	 0.316116305291284 
1990	 0.317147603304214 
1991	 0.318223873865203 
1992	 0.31937421470316 
1993	 0.32062454795323 
1994	 0.321822330010537 
1995	 0.323111811938571 
1996	 0.324413343204526 
1997	 0.325714023835436 
1998	 0.327073211195732 
1999	 0.328525769873796 
2000	 0.329876038062159 
2001	 0.331293307366323 
2002	 0.332546611456645 
2003	 0.333689473272946 
2004	 0.334814569344057 
2005	 0.335836925055448 
2006	 0.336844348099238 
2007	 0.337844519931068 
2008	 0.338773958272564 
2009	 0.339639967235958 
2010	 0.34047922822214 
2011	 0.341214736338762 
2012	 0.341923786437897 
2013	 0.342574421368949 
2014	 0.343154164519033 
2015	 0.343706321836065 
2016	 0.344221633004878 
2017	 0.344677158808025 
2018	 0.345087731044312 
2019	 0.345450516504767 
2020	 0.345749495488682 
2021	 0.346021849272671 
2022	 0.346240031888313 
2023	 0.346419633587514 
2024	 0.346581245677593 
2025	 0.34667070347528 
2026	 0.34673331163176 
2027	 0.346756378151024 
2028	 0.346751448055115 
2029	 0.346688381697645 
2030	 0.346632864430652 
2031	 0.34655035196702 
2032	 0.346465279481995 
2033	 0.346354411413214 
2034	 0.346262137705998 
2035	 0.346175989415665 
2036	 0.346079492627178 
2037	 0.345982134879377 
2038	 0.34590665344029 
2039	 0.345839109430685 
2040	 0.345774736110854 
2041	 0.34571592941064 
2042	 0.345689084451531 
2043	 0.345626003764442 
2044	 0.345544884617037 
2045	 0.34547102821394 
2046	 0.345388960136157 
2047	 0.345303103321518 
2048	 0.345206324193068 
2049	 0.345122658203482 
2050	 0.345041523348294 
2051	 0.344964105561706 
2052	 0.344880187537342 
2053	 0.344799062185354 
2054	 0.344719401158519 
2055	 0.344627533520321 
2056	 0.344546883449102 
2057	 0.344485041632445 
2058	 0.344406027707681 
2059	 0.344320985724406 
2060	 0.344229395000068 
2061	 0.344118619278646 
2062	 0.344030502194818 
2063	 0.34394675395109 
2064	 0.343864014804749 
2065	 0.343787657881739 
2066	 0.343731833472265 
2067	 0.34365895279364 
2068	 0.343591350665425 
2069	 0.343515982981535 
2070	 0.343441166618762 
2071	 0.343360892331567 
2072	 0.343274302341048 
2073	 0.343183505544008 
2074	 0.343093736996419 
2075	 0.342996367546506 
2076	 0.342887525891469 
2077	 0.342783126541544 
2078	 0.342682961392191 
2079	 0.342569793896521 
2080	 0.342447312552478 
2081	 0.342322869949509 
2082	 0.34219032384687 
2083	 0.342068616035583 
2084	 0.341906377013878 
2085	 0.341734019870502 
2086	 0.341564864372595 
2087	 0.341364741362972 
2088	 0.341190198143993 
2089	 0.341048214494413 
2090	 0.340872912683223 
2091	 0.340683509571797 
2092	 0.340491250468225 
2093	 0.340297632757754 
2094	 0.340079111955024 
2095	 0.33985182064326 
2096	 0.339607243216689 
2097	 0.339346421060692 
2098	 0.339057367753886 
2099	 0.338757866847633 
2100	 0.3384541022998 
2101	 0.338107701685635 
2102	 0.337722944570474 
2103	 0.337346284826561 
2104	 0.336937926496717 
2105	 0.336541977848713 
2106	 0.336162780514593 
2107	 0.335746308815134 
2108	 0.335313638393098 
2109	 0.334870316874731 
2110	 0.334400692532488 
2111	 0.333931394756703 
2112	 0.333445584005015 
2113	 0.332963281601738 
2114	 0.332490932628998 
2115	 0.33199161142784 
2116	 0.331471792211045 
2117	 0.330966867719566 
2118	 0.330438267885094 
2119	 0.329866564993958 
2120	 0.329357730347058 
2121	 0.328851094515386 
2122	 0.328391338467509 
2123	 0.327969021341918 
2124	 0.327569642553912 
2125	 0.327180519907665 
2126	 0.326859227468985 
2127	 0.326598634800703 
2128	 0.32634735783729 
2129	 0.326141353076362 
2130	 0.325958555573172 
2131	 0.325802415311946 
2132	 0.325656482853618 
2133	 0.325539068463945 
2134	 0.325445244392188 
2135	 0.32536073726433 
2136	 0.325296460056754 
2137	 0.325219253934519 
2138	 0.325154542927186 
2139	 0.325098311145253 
2140	 0.325033887970718 
2141	 0.324979854310831 
2142	 0.324939256465374 
2143	 0.324917440902315 
2144	 0.32488912072846 
2145	 0.324894022958068 
2146	 0.324940257071418 
2147	 0.32498584216665 
2148	 0.325041635374273 
2149	 0.325107307382875 
2150	 0.325188656716978 
2151	 0.32527552901809 
2152	 0.325379618213943 
2153	 0.325478032745245 
2154	 0.325571129158987 
2155	 0.325678116480972 
2156	 0.32575768028811 
2157	 0.325829400425673 
2158	 0.325878265214166 
2159	 0.325921167723553 
2160	 0.325915583644628 
2161	 0.325872852993037 
2162	 0.325824815736443 
2163	 0.325744468776966 
2164	 0.325656096299181 
2165	 0.325560359268845 
2166	 0.325444055501951 
2167	 0.325282992511431 
2168	 0.325148735771732 
2169	 0.325019771408194 
2170	 0.324884750971375 
2171	 0.324730930134433 
2172	 0.324616927995108 
2173	 0.324520170667515 
2174	 0.324427682323821 
2175	 0.324349727388268 
2176	 0.324286263871833 
2177	 0.324223193842295 
2178	 0.324146872042948 
2179	 0.324092901765726 
2180	 0.324059446681044 
2181	 0.324033634815804 
2182	 0.324022036321696 
2183	 0.323994257765018 
2184	 0.324006612101469 
2185	 0.323944572449644 
2186	 0.323850511293625 
2187	 0.323718025124468 
2188	 0.323519957729611 
2189	 0.323337007692009 
2190	 0.323143486318429 
2191	 0.32291811891085 
2192	 0.322693047549054 
2193	 0.32242255705159 
2194	 0.322079020327278 
2195	 0.321762683820292 
2196	 0.3214463823191 
2197	 0.321104438134647 
2198	 0.320773302041866 
2199	 0.320419057247563 
2200	 0.3200259886952 
2201	 0.319600245411656 
2202	 0.31914311799901 
2203	 0.31865365288816 
2204	 0.318139984607431 
2205	 0.317570382556391 
2206	 0.317035936811324 
2207	 0.316495238545179 
2208	 0.315949356491653 
2209	 0.315414988349017 
2210	 0.314864936755173 
2211	 0.314308844804883 
2212	 0.313731969799745 
2213	 0.313107843129149 
2214	 0.312545305666437 
2215	 0.31199835560338 
2216	 0.311448342001471 
2217	 0.310961308689906 
2218	 0.310433979545929 
2219	 0.309860882129613 
2220	 0.309310272896324 
2221	 0.308767035434677 
2222	 0.308212422878475 
2223	 0.307696956297859 
2224	 0.307164432704653 
2225	 0.306627362427222 
2226	 0.306063334010069 
2227	 0.305383459118011 
2228	 0.304637430382011 
2229	 0.303824925738793 
2230	 0.302915451966406 
2231	 0.301958303054223 
2232	 0.300973525538861 
2233	 0.299850665500089 
2234	 0.298669018027519 
2235	 0.297305431775609 
2236	 0.295805502259563 
2237	 0.294188753121686 
2238	 0.292359702580262 
2239	 0.290534650096813 
2240	 0.288655077716638 
2241	 0.286637110340163 
2242	 0.28459293644578 
2243	 0.282351426799011 
2244	 0.279907580714018 
2245	 0.277412252181497 
2246	 0.274690084663387 
2247	 0.272025156758241 
2248	 0.269345433618594 
2249	 0.266597577913196 
2250	 0.263828859651204 
2251	 0.261055887224851 
2252	 0.25805553295393 
2253	 0.255107819366908 
2254	 0.25208568465042 
2255	 0.249036063052067 
2256	 0.246240874687376 
2257	 0.2434217801491 
2258	 0.24066831243155 
2259	 0.238061451527244 
2260	 0.235358600346649 
2261	 0.232596248614706 
2262	 0.229959520262431 
2263	 0.227296620550454 
2264	 0.224807147874961 
2265	 0.222467985612579 
2266	 0.220108090090073 
2267	 0.217896707304768 
2268	 0.215594221270719 
2269	 0.213229579774153 
2270	 0.210969769472159 
2271	 0.208666381789642 
2272	 0.206511015093397 
2273	 0.204528547318478 
2274	 0.202480303516316 
2275	 0.20057092190056 
2276	 0.198505667501206 
2277	 0.19634763509846 
2278	 0.194196435148037 
2279	 0.1919449845178 
2280	 0.189712624136607 
2281	 0.187537451146698 
2282	 0.185250577884846 
2283	 0.1828997331192 
2284	 0.18056037732844 
2285	 0.178010502693065 
2286	 0.175452188744344 
2287	 0.172785092242332 
2288	 0.170037642114829 
2289	 0.167480441446331 
2290	 0.164780545388553 
2291	 0.162080753894844 
2292	 0.159402346018306 
2293	 0.15648654262879 
2294	 0.153681331661554 
2295	 0.150952969283246 
2296	 0.1482694555327 
2297	 0.145904418270927 
2298	 0.143718846731533 
2299	 0.141799554509586 
2300	 0.140144750192172 
2301	 0.138752690815894 
2302	 0.137560937259581 
2303	 0.136784457173454 
2304	 0.136340473879535 
2305	 0.136209552901206 
2306	 0.136479598568726 
2307	 0.137007433189393 
2308	 0.137838845431837 
2309	 0.138997931441564 
2310	 0.14056447944681 
2311	 0.1422819848625 
2312	 0.144441696082655 
2313	 0.146525307253972 
2314	 0.148809253454459 
2315	 0.151056091457022 
2316	 0.153420036448209 
2317	 0.155597251050002 
2318	 0.157870649746848 
2319	 0.15977141475865 
2320	 0.161491072831143 
2321	 0.162935089598711 
2322	 0.164047023789639 
2323	 0.165016568934581 
2324	 0.165726839221712 
2325	 0.166272542411139 
2326	 0.166638277905871 
2327	 0.166813980517423 
2328	 0.166757696352138 
2329	 0.166551124935992 
2330	 0.166148609584423 
2331	 0.165568494345569 
2332	 0.164851478857593 
2333	 0.16396782886053 
2334	 0.162852433721129 
2335	 0.161603777817641 
2336	 0.160171074752512 
2337	 0.158590085369041 
2338	 0.157068580916223 
2339	 0.155436278675408 
2340	 0.153836794938598 
2341	 0.152327816333446 
2342	 0.15075575414121 
2343	 0.149363095967417 
2344	 0.148172802963114 
2345	 0.147222529023546 
2346	 0.146699859482027 
2347	 0.146561163932526 
2348	 0.146707232666847 
2349	 0.147282230287287 
2350	 0.148164585888186 
2351	 0.149309400115433 
2352	 0.15075821102242 
2353	 0.152363822975786 
2354	 0.153925129842313 
2355	 0.155482886842317 
2356	 0.156909995883722 
2357	 0.158122855830909 
2358	 0.159209937702793 
2359	 0.16001911227266 
2360	 0.160659855435735 
2361	 0.161071069858808 
2362	 0.161282509286694 
2363	 0.161414076328687 
2364	 0.161397938914571 
2365	 0.161288625038681 
2366	 0.16116672255425 
2367	 0.160985073947165 
2368	 0.160792710234541 
2369	 0.160667800787247 
2370	 0.160566020857174 
2371	 0.16052299839429 
2372	 0.160489415616875 
2373	 0.160394996951409 
2374	 0.160274565424706 
2375	 0.160138521539891 
2376	 0.160017600109717 
2377	 0.159962698234603 
2378	 0.159941653295066 
2379	 0.159915970045517 
2380	 0.159928891161105 
2381	 0.159904204412923 
2382	 0.159905060103913 
2383	 0.159953706346632 
2384	 0.159955795568023 
2385	 0.159950303256003 
2386	 0.159919410746886 
2387	 0.159807469874859 
2388	 0.159779651871713 
2389	 0.159763720145492 
2390	 0.159786393016357 
2391	 0.159914349160229 
2392	 0.159955967686702 
2393	 0.159944353704541 
2394	 0.159996889666209 
2395	 0.160106771077198 
2396	 0.160080019171569 
2397	 0.159991798466311 
2398	 0.159982507387293 
2399	 0.159871853552579 
2400	 0.159820944691882 
2401	 0.159921873270129 
2402	 0.159879455101552 
2403	 0.159833047811316 
2404	 0.159910750474365 
2405	 0.159983713104942 
2406	 0.15995702467081 
2407	 0.15996710683787 
2408	 0.15993353904035 
2409	 0.159877920032163 
2410	 0.159912641962622 
2411	 0.159908399155829 
2412	 0.159918420292674 
2413	 0.159909662253099 
2414	 0.159846629544989 
2415	 0.159853048640641 
2416	 0.159848933095126 
2417	 0.159830354365543 
2418	 0.159824067990499 
2419	 0.159797134700574 
2420	 0.159827826133807 
2421	 0.159877552124118 
2422	 0.159872203585987 
2423	 0.159815411997555 
2424	 0.159709090101956 
2425	 0.159647309030841 
2426	 0.159636853085575 
2427	 0.159602467285287 
2428	 0.159554831089709 
2429	 0.159449846205834 
2430	 0.159363153177594 
2431	 0.159393821767904 
2432	 0.159397678194461 
2433	 0.159342169974151 
2434	 0.159275122306202 
2435	 0.159191317519974 
2436	 0.159182075491124 
2437	 0.159134291747151 
2438	 0.158944917536424 
2439	 0.158773192886414 
2440	 0.158590313326615 
2441	 0.158410207784303 
2442	 0.158411339583618 
2443	 0.158501088441903 
2444	 0.158498722070106 
2445	 0.158474042481368 
2446	 0.158486096264231 
2447	 0.158327349863835 
2448	 0.158095757404981 
2449	 0.158037056112591 
2450	 0.158036181753269 
2451	 0.158038907482548 
2452	 0.158067158101896 
2453	 0.158023940081612 
2454	 0.157943198370312 
2455	 0.157868516099506 
2456	 0.157800562227246 
2457	 0.15776825851944 
2458	 0.157558915384013 
2459	 0.157381296157793 
2460	 0.157379234946762 
2461	 0.157312386711458 
2462	 0.15736714832155 
2463	 0.157407155836001 
2464	 0.157278949575247 
2465	 0.157275725902619 
2466	 0.157390842808614 
2467	 0.157465184228421 
2468	 0.157581919883516 
2469	 0.157614483754248 
2470	 0.157612416749317 
2471	 0.15778079912019 
2472	 0.157953632922633 
2473	 0.158252607978971 
2474	 0.158395709288606 
2475	 0.158287301438015 
2476	 0.158345534903336 
2477	 0.158408078579067 
2478	 0.158577877359676 
2479	 0.15896104774374 
2480	 0.159267768194824 
2481	 0.15956643067985 
2482	 0.160047636671594 
2483	 0.160104072463715 
2484	 0.160257124919796 
2485	 0.160567336785057 
2486	 0.160744348891998 
2487	 0.161262831544574 
2488	 0.161924878129853 
2489	 0.162285301555727 
2490	 0.162870747215406 
2491	 0.163360793576376 
2492	 0.163662548422432 
2493	 0.164356480549332 
2494	 0.164953834028917 
2495	 0.165555320458519 
2496	 0.166266579561293 
2497	 0.1667944809617 
2498	 0.167392836378789 
2499	 0.167878801699634 
2500	 0.168460966518165 
