Wavelength	spectrum00024.asd
350	 3.46249721621403E-02 
351	 3.58078671575837E-02 
352	 3.50036019191029E-02 
353	 0.031420243258431 
354	 3.42545694948392E-02 
355	 3.42728678880875E-02 
356	 3.29064310849755E-02 
357	 3.25981797174694E-02 
358	 3.12155013122632E-02 
359	 0.03084269464133 
360	 0.031667226510716 
361	 3.26147591214286E-02 
362	 3.15238275828244E-02 
363	 0.029935270306052 
364	 2.91455465498803E-02 
365	 2.96065859275125E-02 
366	 3.02879351448122E-02 
367	 3.04098442936199E-02 
368	 3.00355934704227E-02 
369	 3.17167517991681E-02 
370	 3.24633954612371E-02 
371	 3.17472202703221E-02 
372	 3.06594628103109E-02 
373	 3.02687441305594E-02 
374	 3.13315826930768E-02 
375	 3.29341057627676E-02 
376	 3.19802542787327E-02 
377	 3.10969560306724E-02 
378	 3.06439363424071E-02 
379	 3.05496247599545E-02 
380	 3.15207588545947E-02 
381	 3.21323270835076E-02 
382	 3.16817659780739E-02 
383	 3.03476139062504E-02 
384	 3.14480109131589E-02 
385	 3.27589590830815E-02 
386	 3.26502627414684E-02 
387	 0.031315273360726 
388	 3.11140718773372E-02 
389	 3.13459227457815E-02 
390	 3.08936719941599E-02 
391	 3.05371568211605E-02 
392	 0.03065962940409 
393	 3.13126015781926E-02 
394	 3.21962531056936E-02 
395	 3.18785588224439E-02 
396	 3.14282982395941E-02 
397	 3.16210361356952E-02 
398	 3.22824715045941E-02 
399	 3.20109120555871E-02 
400	 3.13799380173523E-02 
401	 3.12486639527358E-02 
402	 3.08172234185163E-02 
403	 3.13231319463637E-02 
404	 3.20914778769711E-02 
405	 3.12504589750156E-02 
406	 3.13208338012498E-02 
407	 3.16480887029155E-02 
408	 3.15840164488305E-02 
409	 3.13941119776057E-02 
410	 3.12578166296037E-02 
411	 3.12989479808411E-02 
412	 3.15523510517358E-02 
413	 3.19030913706548E-02 
414	 3.16799317519021E-02 
415	 3.10999764396925E-02 
416	 3.11331241473987E-02 
417	 3.11899746006739E-02 
418	 3.13309244961104E-02 
419	 3.15333269470531E-02 
420	 3.12887818570622E-02 
421	 3.11936707825054E-02 
422	 3.12992481090371E-02 
423	 3.13967215524162E-02 
424	 3.12366931974609E-02 
425	 3.10343983623382E-02 
426	 3.09605581912811E-02 
427	 3.10857591361137E-02 
428	 3.10886989923812E-02 
429	 3.11034015737337E-02 
430	 3.12218577995111E-02 
431	 3.10535627276897E-02 
432	 3.10402236141242E-02 
433	 3.11103874147572E-02 
434	 3.09592317791093E-02 
435	 0.03104455830358 
436	 0.031130225371185 
437	 3.10781127636337E-02 
438	 3.10165709903719E-02 
439	 3.10469395872386E-02 
440	 3.10593204374688E-02 
441	 3.09412210658567E-02 
442	 3.08433222159237E-02 
443	 3.08538925996102E-02 
444	 3.09649546851099E-02 
445	 3.10867313669513E-02 
446	 3.11235273463411E-02 
447	 3.10556326712306E-02 
448	 3.09391705927538E-02 
449	 3.09546615260869E-02 
450	 3.10373940866811E-02 
451	 3.10690752114357E-02 
452	 3.09623343461661E-02 
453	 3.09652437525399E-02 
454	 3.10355907349002E-02 
455	 3.10511739721157E-02 
456	 3.08400324186329E-02 
457	 0.031010626887971 
458	 3.11255716005102E-02 
459	 3.08581441816697E-02 
460	 3.09444398148742E-02 
461	 3.09587451867322E-02 
462	 3.08666391745883E-02 
463	 3.08496418985241E-02 
464	 3.09450091242614E-02 
465	 3.09449912363327E-02 
466	 3.08126027188601E-02 
467	 3.08128092267957E-02 
468	 3.08536314635332E-02 
469	 3.08442280823714E-02 
470	 3.07744775924025E-02 
471	 3.10109222583132E-02 
472	 3.10196990491018E-02 
473	 0.030811598181253 
474	 3.08323088396866E-02 
475	 3.08748562060966E-02 
476	 3.08144605741909E-02 
477	 3.06642733525038E-02 
478	 3.07195784028148E-02 
479	 3.07777990674966E-02 
480	 3.07904450209519E-02 
481	 3.07803678725752E-02 
482	 3.08331654892463E-02 
483	 3.08682843937405E-02 
484	 3.08555940619412E-02 
485	 3.08367559286996E-02 
486	 3.08365045857938E-02 
487	 3.08057278504446E-02 
488	 3.07321037148127E-02 
489	 3.07776890825366E-02 
490	 0.030788647621436 
491	 3.07848978786821E-02 
492	 3.08670906040104E-02 
493	 3.08460673466118E-02 
494	 3.07940206568148E-02 
495	 3.07828441370025E-02 
496	 3.08362380068843E-02 
497	 3.08165000237979E-02 
498	 3.07956421522155E-02 
499	 3.08575710331473E-02 
500	 3.08168403605608E-02 
501	 3.07584831092895E-02 
502	 3.07166622697448E-02 
503	 3.06752178620621E-02 
504	 3.07513048238306E-02 
505	 3.08222064715646E-02 
506	 3.07979945773193E-02 
507	 3.07719986498653E-02 
508	 3.07109973802346E-02 
509	 3.06937615522302E-02 
510	 0.030796187782657 
511	 3.07103933954238E-02 
512	 3.07121602419454E-02 
513	 0.030847358527175 
514	 3.08048610458051E-02 
515	 3.06800974657791E-02 
516	 3.05938299625562E-02 
517	 3.06219249193738E-02 
518	 3.06586945321032E-02 
519	 3.06361696844014E-02 
520	 3.06044677815557E-02 
521	 0.030680052865547 
522	 3.07315628008306E-02 
523	 3.07195991986121E-02 
524	 3.06663777362697E-02 
525	 3.06915430188491E-02 
526	 3.06543640033868E-02 
527	 3.06276917959284E-02 
528	 0.030710626531718 
529	 0.030702272023967 
530	 3.06750894476487E-02 
531	 3.06787155354323E-02 
532	 0.030717328670346 
533	 3.06858443464068E-02 
534	 3.06575149133953E-02 
535	 0.030682682385766 
536	 3.06161792940182E-02 
537	 3.06140468944043E-02 
538	 3.06646519017853E-02 
539	 3.06654124837224E-02 
540	 3.06168092935148E-02 
541	 3.06111762903791E-02 
542	 3.06592750182424E-02 
543	 3.06225541963322E-02 
544	 3.06121866707277E-02 
545	 3.05987428532692E-02 
546	 3.05397865142142E-02 
547	 3.05291034161419E-02 
548	 3.05424513787104E-02 
549	 3.05502722101084E-02 
550	 3.05259904691566E-02 
551	 3.05166979875172E-02 
552	 3.05161244246662E-02 
553	 3.05136103556513E-02 
554	 0.030514274959696 
555	 3.05178131255212E-02 
556	 3.05264737050276E-02 
557	 3.05414260165735E-02 
558	 3.05454105140004E-02 
559	 3.05711629302513E-02 
560	 3.06115796202985E-02 
561	 3.05989849519238E-02 
562	 3.05767168930067E-02 
563	 3.05996157438849E-02 
564	 3.06771239650499E-02 
565	 3.06385320016896E-02 
566	 3.05962791073011E-02 
567	 3.05850317995737E-02 
568	 3.05762176349026E-02 
569	 3.05869603906129E-02 
570	 3.05599793232118E-02 
571	 3.04842459352532E-02 
572	 3.04689466338164E-02 
573	 3.04616403142568E-02 
574	 3.04478394568253E-02 
575	 0.030435235069775 
576	 3.04945086183507E-02 
577	 3.04916986620184E-02 
578	 3.04196146839874E-02 
579	 3.04275195941466E-02 
580	 3.04619516001387E-02 
581	 3.04722403099706E-02 
582	 3.04387818825674E-02 
583	 3.04371363546523E-02 
584	 3.04619518951025E-02 
585	 3.04924680876639E-02 
586	 3.05017729314829E-02 
587	 3.05117022412374E-02 
588	 3.05183646309867E-02 
589	 3.05137562267936E-02 
590	 3.04881218559006E-02 
591	 3.04398960783175E-02 
592	 3.04086524648829E-02 
593	 3.04234872235251E-02 
594	 0.030413389342621 
595	 3.03932084841902E-02 
596	 3.03885726994269E-02 
597	 3.04257081380279E-02 
598	 0.030411862313073 
599	 3.03917916902171E-02 
600	 3.04051776811463E-02 
601	 0.030419278735006 
602	 3.04222043094191E-02 
603	 3.04170022484353E-02 
604	 3.04145399858608E-02 
605	 0.030418683218663 
606	 3.04194422148431E-02 
607	 0.030418842598652 
608	 3.04350744882695E-02 
609	 3.04173287699225E-02 
610	 3.03971502385157E-02 
611	 3.04084298118147E-02 
612	 3.04239038660122E-02 
613	 3.04193071880373E-02 
614	 3.03910273953243E-02 
615	 3.03538789646615E-02 
616	 3.03478664585554E-02 
617	 3.03664019651347E-02 
618	 3.03920658577205E-02 
619	 3.04020222313599E-02 
620	 0.030400857548055 
621	 3.04045525102078E-02 
622	 3.04183488581163E-02 
623	 3.03704073275401E-02 
624	 3.03459974216136E-02 
625	 3.03680751548553E-02 
626	 3.03930712800416E-02 
627	 3.03792844636062E-02 
628	 3.03643972395185E-02 
629	 3.03724072331831E-02 
630	 3.03500041652468E-02 
631	 3.03342235317934E-02 
632	 3.03382368970816E-02 
633	 3.03568580933837E-02 
634	 3.03374807612612E-02 
635	 3.03285542932964E-02 
636	 3.03499391977484E-02 
637	 3.03750481347971E-02 
638	 3.03529638852534E-02 
639	 3.03293867661605E-02 
640	 3.03416229510776E-02 
641	 3.03117720663878E-02 
642	 3.02920257317718E-02 
643	 3.02998413582616E-02 
644	 3.03239710815802E-02 
645	 3.03075102438048E-02 
646	 3.02977007485115E-02 
647	 3.03162652196313E-02 
648	 0.030321647077365 
649	 3.03298226226895E-02 
650	 3.03311008971361E-02 
651	 3.03169602287447E-02 
652	 3.03153942848173E-02 
653	 3.02975310469593E-02 
654	 3.02694373725936E-02 
655	 3.02645908275706E-02 
656	 3.02676166262973E-02 
657	 3.02692376673671E-02 
658	 3.02664627092971E-02 
659	 3.02669070650302E-02 
660	 3.02768394208398E-02 
661	 0.030286952211266 
662	 3.02858551540882E-02 
663	 3.02922708445115E-02 
664	 3.02638459470268E-02 
665	 3.02132269249549E-02 
666	 3.02085270721123E-02 
667	 3.02166821077935E-02 
668	 3.02247157139002E-02 
669	 3.02262442502533E-02 
670	 3.02245420475548E-02 
671	 3.01995485796705E-02 
672	 3.01810802357132E-02 
673	 3.02090626623097E-02 
674	 3.02270941082158E-02 
675	 3.02235980053287E-02 
676	 3.02066208910747E-02 
677	 3.02020685568672E-02 
678	 3.01896826069167E-02 
679	 3.01894497473537E-02 
680	 3.02085656115536E-02 
681	 3.01854989261365E-02 
682	 3.01847129964846E-02 
683	 3.02035278385842E-02 
684	 3.02034981504315E-02 
685	 3.01836910641837E-02 
686	 0.030184964337331 
687	 3.02043616407356E-02 
688	 3.01722134804343E-02 
689	 3.01530936748926E-02 
690	 3.01502674961366E-02 
691	 3.01558032797403E-02 
692	 3.01885989205189E-02 
693	 3.01830350529765E-02 
694	 3.01592979858417E-02 
695	 3.01819217659486E-02 
696	 3.01748050017503E-02 
697	 3.01442558927291E-02 
698	 3.01130763946706E-02 
699	 3.01125609934358E-02 
700	 3.01345155519064E-02 
701	 3.01446528534119E-02 
702	 0.030120204721635 
703	 3.01058606040707E-02 
704	 3.01365369783423E-02 
705	 0.030164624492065 
706	 3.01046430896758E-02 
707	 3.01051338224885E-02 
708	 3.01169396724891E-02 
709	 3.01001607664424E-02 
710	 3.00731673725037E-02 
711	 3.00837735807321E-02 
712	 3.01042478284114E-02 
713	 0.030100566754177 
714	 0.030119142564792 
715	 3.01210422856997E-02 
716	 3.01010186461259E-02 
717	 3.00822851725367E-02 
718	 3.01008942141432E-02 
719	 3.01146029869621E-02 
720	 3.01046171111925E-02 
721	 3.01109338972403E-02 
722	 3.01070520045621E-02 
723	 3.01019698885162E-02 
724	 3.01067844794324E-02 
725	 3.00975228712975E-02 
726	 3.00939005612249E-02 
727	 3.01004286664777E-02 
728	 3.01084341383105E-02 
729	 3.01006876690036E-02 
730	 3.00929959721891E-02 
731	 3.00941763326357E-02 
732	 0.030093684776368 
733	 3.01045488526253E-02 
734	 3.01107266376973E-02 
735	 3.00997789905678E-02 
736	 3.01032687290207E-02 
737	 0.030122720380721 
738	 3.01328120735947E-02 
739	 3.01009834508121E-02 
740	 3.00957405541809E-02 
741	 3.01046026591193E-02 
742	 3.01089798792852E-02 
743	 3.00968020722394E-02 
744	 3.01085877579117E-02 
745	 3.01294811120213E-02 
746	 3.01360663532679E-02 
747	 3.01307583041582E-02 
748	 3.01253736422508E-02 
749	 3.01218614788304E-02 
750	 3.01178655693798E-02 
751	 3.01291412327935E-02 
752	 3.01368863889364E-02 
753	 0.030133780508207 
754	 3.01318019769103E-02 
755	 3.01265237072143E-02 
756	 0.030123804737901 
757	 0.030124598176076 
758	 3.01083876968039E-02 
759	 3.01020850671766E-02 
760	 3.00997270372131E-02 
761	 3.00859334200739E-02 
762	 0.030094987258162 
763	 3.00941755032066E-02 
764	 0.030081535430183 
765	 3.00910873847253E-02 
766	 3.01003280284782E-02 
767	 3.00908283563126E-02 
768	 3.00690135079587E-02 
769	 3.00992342644579E-02 
770	 3.01077697272233E-02 
771	 3.00984523616659E-02 
772	 3.00985391843016E-02 
773	 3.00981402495512E-02 
774	 3.00917434218402E-02 
775	 3.00902513673134E-02 
776	 3.01123321015144E-02 
777	 3.01059877987042E-02 
778	 3.01016943107051E-02 
779	 3.01106320088451E-02 
780	 3.00906587225013E-02 
781	 3.00750793835343E-02 
782	 3.00716958577834E-02 
783	 0.030079662818637 
784	 3.00967504801257E-02 
785	 0.030110718834911 
786	 3.01117470710536E-02 
787	 3.00981783798697E-02 
788	 3.01119606333964E-02 
789	 3.01072241481425E-02 
790	 0.030081031716304 
791	 3.00881841081938E-02 
792	 3.00919018823517E-02 
793	 3.00881841139198E-02 
794	 3.00835240135358E-02 
795	 3.00948528866311E-02 
796	 3.00953620683653E-02 
797	 3.00984074080552E-02 
798	 0.030118398437788 
799	 3.00984237861725E-02 
800	 3.00816044165404E-02 
801	 3.00795825842074E-02 
802	 3.00760436898756E-02 
803	 0.030069473983524 
804	 3.00651096129155E-02 
805	 3.00636310942967E-02 
806	 0.030057280092407 
807	 3.00742055437652E-02 
808	 3.00793017687404E-02 
809	 3.00499881107876E-02 
810	 3.00468461377817E-02 
811	 3.00524613251909E-02 
812	 3.00524314047308E-02 
813	 3.00407154969335E-02 
814	 0.03005403476913 
815	 3.00692424252002E-02 
816	 3.00752827163825E-02 
817	 3.00756992677374E-02 
818	 3.00708816101806E-02 
819	 3.00665166330494E-02 
820	 3.00638735536378E-02 
821	 3.00559510973566E-02 
822	 0.030048842944738 
823	 3.00531908015134E-02 
824	 3.00705647110676E-02 
825	 3.00740746467241E-02 
826	 3.00620938530829E-02 
827	 3.00522631742493E-02 
828	 3.00652693678938E-02 
829	 0.030084263955703 
830	 3.00800171430938E-02 
831	 0.030068966629193 
832	 3.00996230626785E-02 
833	 3.01089484903832E-02 
834	 3.00925872118221E-02 
835	 3.00717599828466E-02 
836	 0.030090685237697 
837	 3.00986697909712E-02 
838	 3.01030509024078E-02 
839	 3.01162448072214E-02 
840	 0.030124616892358 
841	 0.030112491057896 
842	 3.00964956069024E-02 
843	 3.00967281541842E-02 
844	 3.00743661276763E-02 
845	 3.00752837765258E-02 
846	 3.00912660964309E-02 
847	 3.00785548655789E-02 
848	 3.00755644068337E-02 
849	 3.00767368266646E-02 
850	 3.00798224938737E-02 
851	 3.00913250648065E-02 
852	 3.00683180068798E-02 
853	 3.00571960941379E-02 
854	 3.00823132779747E-02 
855	 0.030082412955275 
856	 3.00772959357941E-02 
857	 3.00710660979568E-02 
858	 3.00662525290945E-02 
859	 3.00748424628671E-02 
860	 3.00687470932962E-02 
861	 3.00566837171218E-02 
862	 3.00627232922945E-02 
863	 3.00746388549485E-02 
864	 0.030092874693075 
865	 3.01082830328012E-02 
866	 3.01034465224331E-02 
867	 3.00572740365437E-02 
868	 3.00587451019699E-02 
869	 3.01109123231493E-02 
870	 3.00858976907996E-02 
871	 3.00745032659971E-02 
872	 3.00777665018777E-02 
873	 3.00836191952589E-02 
874	 3.00957884251533E-02 
875	 3.00812189901991E-02 
876	 3.00697571601669E-02 
877	 3.00949577761664E-02 
878	 3.01323276821795E-02 
879	 3.01375225011875E-02 
880	 3.01183707858415E-02 
881	 3.01072436081209E-02 
882	 3.01065788193206E-02 
883	 3.00918170518778E-02 
884	 3.00786186178912E-02 
885	 3.01046595312132E-02 
886	 3.01125833798536E-02 
887	 3.01120433145202E-02 
888	 3.01218756336297E-02 
889	 3.01572784938764E-02 
890	 3.01574559975981E-02 
891	 3.01254298451504E-02 
892	 3.00873362056598E-02 
893	 3.00832733191547E-02 
894	 0.03012770316542 
895	 3.01570748142748E-02 
896	 3.01308178016741E-02 
897	 3.01148498956845E-02 
898	 3.01557005490596E-02 
899	 3.01773615805284E-02 
900	 3.01129729498271E-02 
901	 3.01022214623004E-02 
902	 3.01051858882077E-02 
903	 0.030128214573163 
904	 0.030178140912605 
905	 3.01401636494197E-02 
906	 3.01342567593869E-02 
907	 3.01552370811692E-02 
908	 3.01157777978789E-02 
909	 3.01063118606351E-02 
910	 3.01239130141346E-02 
911	 3.01477074682747E-02 
912	 3.01511112831426E-02 
913	 3.01403689934591E-02 
914	 3.01419279301644E-02 
915	 3.01550440884336E-02 
916	 3.01403496111924E-02 
917	 3.01241141753951E-02 
918	 3.01272789191049E-02 
919	 0.030160005688825 
920	 3.02165848131435E-02 
921	 0.030188006438729 
922	 3.01310450822948E-02 
923	 0.030118463091177 
924	 3.01408237546242E-02 
925	 3.01748002263579E-02 
926	 3.01862829506122E-02 
927	 3.01609242699727E-02 
928	 3.01489589148314E-02 
929	 3.01878869706897E-02 
930	 3.02077986196245E-02 
931	 3.01429611692607E-02 
932	 3.01489103759795E-02 
933	 3.01765967640554E-02 
934	 3.01874021124851E-02 
935	 3.01656856405128E-02 
936	 3.01645960664773E-02 
937	 3.01751439387349E-02 
938	 3.01791142657383E-02 
939	 3.01675265520544E-02 
940	 3.02226329690668E-02 
941	 3.02381079899598E-02 
942	 3.02184230287576E-02 
943	 3.02621249787364E-02 
944	 3.02940887397145E-02 
945	 3.02887705385939E-02 
946	 3.02535263538764E-02 
947	 3.02265743965534E-02 
948	 3.02623180361383E-02 
949	 3.02754556988644E-02 
950	 3.02526690120146E-02 
951	 3.02877352325254E-02 
952	 3.02731413279848E-02 
953	 3.02848843555165E-02 
954	 3.03393698033601E-02 
955	 3.03249293933023E-02 
956	 3.02970696482261E-02 
957	 3.02803183248486E-02 
958	 3.02890819918054E-02 
959	 3.03278101931694E-02 
960	 0.030308463727163 
961	 3.02818603182807E-02 
962	 3.03094830363187E-02 
963	 0.030402782842397 
964	 0.03034986946046 
965	 3.02918253490515E-02 
966	 3.03466552630621E-02 
967	 3.03622244673865E-02 
968	 3.02933063468508E-02 
969	 3.02589965879371E-02 
970	 0.030322738087912 
971	 3.02809568875246E-02 
972	 3.02623720011705E-02 
973	 3.02822806655084E-02 
974	 3.03085402218279E-02 
975	 3.02756847991712E-02 
976	 0.03027989841464 
977	 0.030353360820412 
978	 3.04301772713743E-02 
979	 3.02127539135036E-02 
980	 3.02173565341656E-02 
981	 3.03064540210152E-02 
982	 3.02361933036848E-02 
983	 3.01915159041566E-02 
984	 3.02291126663496E-02 
985	 3.03131772885406E-02 
986	 3.03834337554027E-02 
987	 3.04519137100807E-02 
988	 3.04069999759905E-02 
989	 3.04129745675976E-02 
990	 3.05565924122718E-02 
991	 3.03086133681314E-02 
992	 3.02614839815797E-02 
993	 3.03583071046966E-02 
994	 3.03751575444503E-02 
995	 3.04160390653766E-02 
996	 3.04771441284911E-02 
997	 0.030457569270409 
998	 0.030340779755165 
999	 3.04955487803661E-02 
1000	 3.05934562520036E-02 
1001	 0.03142073684139 
1002	 3.14160355397627E-02 
1003	 3.14302877417637E-02 
1004	 3.14459331257298E-02 
1005	 3.14180584725786E-02 
1006	 3.14169253963108E-02 
1007	 3.14659833254407E-02 
1008	 3.14969059085156E-02 
1009	 3.15025689776791E-02 
1010	 3.15113899451549E-02 
1011	 3.15502952358951E-02 
1012	 3.15560146054308E-02 
1013	 3.15232224546612E-02 
1014	 3.15180770437477E-02 
1015	 3.15266301108782E-02 
1016	 3.15129340524886E-02 
1017	 3.15109874238507E-02 
1018	 3.15104962339262E-02 
1019	 3.15110702210583E-02 
1020	 3.15012366812896E-02 
1021	 3.15091804968689E-02 
1022	 3.15398961042659E-02 
1023	 3.15336326830579E-02 
1024	 3.15126008360648E-02 
1025	 3.15178210126803E-02 
1026	 0.031511390124727 
1027	 3.15126003543144E-02 
1028	 3.15527251502597E-02 
1029	 3.15608634195746E-02 
1030	 3.14920342154915E-02 
1031	 3.14576072069098E-02 
1032	 3.14455679642515E-02 
1033	 3.14029089329621E-02 
1034	 3.14298601634982E-02 
1035	 3.14642506488658E-02 
1036	 0.031463561440602 
1037	 3.14506938729593E-02 
1038	 3.14310595118693E-02 
1039	 0.031380490126788 
1040	 3.13552746359034E-02 
1041	 3.13118176839951E-02 
1042	 0.031308758324411 
1043	 3.13471948924306E-02 
1044	 3.13698800113621E-02 
1045	 3.13609899157422E-02 
1046	 3.13663788974794E-02 
1047	 3.13583636180018E-02 
1048	 3.13421853566761E-02 
1049	 3.13649375941148E-02 
1050	 0.031402414865987 
1051	 3.14001617433159E-02 
1052	 3.13899187901826E-02 
1053	 3.13916976959394E-02 
1054	 3.13804302339377E-02 
1055	 3.13946092944933E-02 
1056	 3.14478327799234E-02 
1057	 0.031462568892032 
1058	 3.14711843166487E-02 
1059	 3.14663475872543E-02 
1060	 3.14622199137387E-02 
1061	 3.14615669133752E-02 
1062	 3.14461956745334E-02 
1063	 3.14417249372006E-02 
1064	 3.14510305694766E-02 
1065	 3.14468860462195E-02 
1066	 3.14522319608832E-02 
1067	 3.14730489315698E-02 
1068	 0.031488946652989 
1069	 3.14911824782096E-02 
1070	 3.14925667712609E-02 
1071	 3.15002531161548E-02 
1072	 3.15071465054343E-02 
1073	 3.15046715398101E-02 
1074	 3.15043687287226E-02 
1075	 3.15146854355593E-02 
1076	 3.15457452342208E-02 
1077	 3.15463758927071E-02 
1078	 3.15357431741511E-02 
1079	 3.15487329710704E-02 
1080	 3.15378887700278E-02 
1081	 3.15441655490877E-02 
1082	 3.15859185800249E-02 
1083	 0.031620676332377 
1084	 3.16496498059713E-02 
1085	 3.16604694446336E-02 
1086	 3.16571673636404E-02 
1087	 3.16290169504128E-02 
1088	 3.16083368984166E-02 
1089	 3.16039250170042E-02 
1090	 3.16055648223572E-02 
1091	 3.16279373184391E-02 
1092	 3.16414488548916E-02 
1093	 3.16293540703404E-02 
1094	 3.16257066254143E-02 
1095	 3.16448511705423E-02 
1096	 3.16683029165617E-02 
1097	 0.031679893776898 
1098	 3.16885315648475E-02 
1099	 3.16932328496958E-02 
1100	 3.16941333640937E-02 
1101	 3.16951272175031E-02 
1102	 0.03170253942193 
1103	 3.17095890206526E-02 
1104	 3.17131375644049E-02 
1105	 3.17058757243496E-02 
1106	 3.17075814700444E-02 
1107	 0.031711137002964 
1108	 3.17032896428723E-02 
1109	 3.16925284616222E-02 
1110	 3.16976115009211E-02 
1111	 3.17106095678608E-02 
1112	 3.17142343392511E-02 
1113	 3.17193078401817E-02 
1114	 3.17216600322836E-02 
1115	 3.17162027449769E-02 
1116	 3.17219164679995E-02 
1117	 3.17145109103199E-02 
1118	 3.17044098223053E-02 
1119	 3.16833585798327E-02 
1120	 3.16808331795337E-02 
1121	 3.16785110280244E-02 
1122	 3.16842447300856E-02 
1123	 3.17028492388154E-02 
1124	 3.17084591868286E-02 
1125	 3.17086675279132E-02 
1126	 3.17005314216717E-02 
1127	 3.16962058367652E-02 
1128	 3.16986867114976E-02 
1129	 3.16931412639734E-02 
1130	 0.031702377256798 
1131	 3.17112687224039E-02 
1132	 3.16996187465695E-02 
1133	 3.16838433302428E-02 
1134	 3.16750638317966E-02 
1135	 3.16647245970504E-02 
1136	 0.031645532246128 
1137	 0.031642766995228 
1138	 3.16538484456007E-02 
1139	 3.16548875810636E-02 
1140	 3.16562312736612E-02 
1141	 3.16667619295209E-02 
1142	 3.16744161875725E-02 
1143	 3.16625456351206E-02 
1144	 3.16556230987164E-02 
1145	 3.16511590429704E-02 
1146	 3.16312607636263E-02 
1147	 3.16199489396879E-02 
1148	 3.16115920009633E-02 
1149	 0.031614242146318 
1150	 3.16298340313744E-02 
1151	 3.16336834526815E-02 
1152	 3.16296776582793E-02 
1153	 3.16210960641005E-02 
1154	 3.16107806765916E-02 
1155	 3.15797340824792E-02 
1156	 3.15698844983056E-02 
1157	 3.15766217881981E-02 
1158	 3.15741523666905E-02 
1159	 3.15676533823397E-02 
1160	 3.15768153401869E-02 
1161	 3.15870554835922E-02 
1162	 3.15785395366959E-02 
1163	 3.15772003262651E-02 
1164	 0.031581719655705 
1165	 3.15604411032023E-02 
1166	 0.031541492369573 
1167	 3.15428272495982E-02 
1168	 3.15349573427253E-02 
1169	 3.15378752815307E-02 
1170	 3.15641612588097E-02 
1171	 3.15707381370414E-02 
1172	 3.15724497714891E-02 
1173	 3.15707320717817E-02 
1174	 0.03155363942515 
1175	 3.15508150456539E-02 
1176	 3.15519310478038E-02 
1177	 3.15509675049352E-02 
1178	 3.15513497408498E-02 
1179	 3.15640943610466E-02 
1180	 3.15700511181706E-02 
1181	 3.15786711562366E-02 
1182	 3.15865416237729E-02 
1183	 0.031582833719997 
1184	 3.15844482477103E-02 
1185	 3.15833161037871E-02 
1186	 3.15815350278614E-02 
1187	 0.031584581464395 
1188	 3.15844217705787E-02 
1189	 3.15753579827046E-02 
1190	 3.15746989141431E-02 
1191	 3.15769630374275E-02 
1192	 3.15839455234716E-02 
1193	 3.16022868048697E-02 
1194	 3.16072832632247E-02 
1195	 0.031610808789778 
1196	 0.031612269219369 
1197	 3.16066065092967E-02 
1198	 3.15948191824521E-02 
1199	 3.15932204358395E-02 
1200	 3.15880586447747E-02 
1201	 3.15879955319098E-02 
1202	 0.03160707695491 
1203	 3.16214178687456E-02 
1204	 3.16280646920198E-02 
1205	 3.16329278762929E-02 
1206	 3.16254042380194E-02 
1207	 3.16297223532387E-02 
1208	 3.16441919421729E-02 
1209	 3.16464633994955E-02 
1210	 3.16470474362888E-02 
1211	 3.16461783512163E-02 
1212	 3.16329962666495E-02 
1213	 3.16299469131639E-02 
1214	 3.16333053022867E-02 
1215	 3.16350865791779E-02 
1216	 3.16399373271743E-02 
1217	 3.16426887827549E-02 
1218	 3.16425668463265E-02 
1219	 0.031647131662233 
1220	 3.16580817843473E-02 
1221	 0.031656636789617 
1222	 0.031654357951064 
1223	 3.16552441113274E-02 
1224	 3.16495181598966E-02 
1225	 3.16292970394951E-02 
1226	 3.16322370707227E-02 
1227	 3.16493988478524E-02 
1228	 3.16506552910272E-02 
1229	 3.16509338398389E-02 
1230	 3.16594368692401E-02 
1231	 3.16632117059064E-02 
1232	 3.16673930363533E-02 
1233	 3.16878308861592E-02 
1234	 3.16971181458768E-02 
1235	 3.16944572770706E-02 
1236	 3.16922574394371E-02 
1237	 3.16875016523925E-02 
1238	 3.16848373920333E-02 
1239	 0.031679610790034 
1240	 3.16707254755656E-02 
1241	 3.16743287497998E-02 
1242	 3.16815329813187E-02 
1243	 3.16930388829929E-02 
1244	 3.17162621417652E-02 
1245	 3.17208589835769E-02 
1246	 3.17268389857881E-02 
1247	 0.031718838442661 
1248	 3.16842071655571E-02 
1249	 3.16765168193132E-02 
1250	 3.16736945833312E-02 
1251	 3.16736483422776E-02 
1252	 3.16938786324919E-02 
1253	 3.16959003268855E-02 
1254	 3.16887705582073E-02 
1255	 0.031682597311359 
1256	 3.16713133065567E-02 
1257	 3.16594326969867E-02 
1258	 3.16379115712598E-02 
1259	 3.16297308467287E-02 
1260	 3.16298458317811E-02 
1261	 3.16268837980975E-02 
1262	 3.16308787127933E-02 
1263	 0.031637691704976 
1264	 3.16369193976231E-02 
1265	 3.16277169586522E-02 
1266	 3.16227072927359E-02 
1267	 3.16195470235517E-02 
1268	 3.16124799859496E-02 
1269	 3.15981106865709E-02 
1270	 0.031597558874463 
1271	 3.16020465187806E-02 
1272	 3.16050192543024E-02 
1273	 3.16154474722902E-02 
1274	 3.16235879448861E-02 
1275	 3.16300178712396E-02 
1276	 3.16360905967223E-02 
1277	 3.16441170110169E-02 
1278	 3.16526591120119E-02 
1279	 3.16537127858441E-02 
1280	 3.16639383972197E-02 
1281	 3.16847884086543E-02 
1282	 3.17006850364448E-02 
1283	 3.17204299702475E-02 
1284	 3.17364456260981E-02 
1285	 0.031749966251764 
1286	 3.17592905715766E-02 
1287	 3.17701334227407E-02 
1288	 3.17794118614929E-02 
1289	 3.17906244290763E-02 
1290	 0.031801703792554 
1291	 3.18129906940692E-02 
1292	 3.18236980386599E-02 
1293	 3.18382911553575E-02 
1294	 3.18552975885308E-02 
1295	 3.18705598964132E-02 
1296	 3.18903944667711E-02 
1297	 0.031904336846398 
1298	 3.19139532505061E-02 
1299	 0.031923743740526 
1300	 3.19338945956451E-02 
1301	 3.19394716258188E-02 
1302	 3.19366225479292E-02 
1303	 3.19423341282458E-02 
1304	 3.19527959871318E-02 
1305	 3.19579030495135E-02 
1306	 3.19633240275494E-02 
1307	 3.19714617622302E-02 
1308	 3.19703711943275E-02 
1309	 3.19807279109369E-02 
1310	 0.03198951989384 
1311	 3.20097011067387E-02 
1312	 3.20108097696925E-02 
1313	 3.19998557775454E-02 
1314	 3.20031710431875E-02 
1315	 3.20054656570217E-02 
1316	 3.20067420788063E-02 
1317	 3.20159897590712E-02 
1318	 3.20212319383784E-02 
1319	 3.20224617236534E-02 
1320	 3.20195497756221E-02 
1321	 0.032020003017324 
1322	 3.20142966045041E-02 
1323	 3.19887806665038E-02 
1324	 3.19843528731349E-02 
1325	 3.19927143156772E-02 
1326	 3.19955520238121E-02 
1327	 3.20080564396279E-02 
1328	 3.20144907200486E-02 
1329	 3.20186249129242E-02 
1330	 3.20166160426557E-02 
1331	 3.20078801637989E-02 
1332	 3.20023388053243E-02 
1333	 3.19919311246049E-02 
1334	 3.19807177533404E-02 
1335	 3.19789348535434E-02 
1336	 3.19886480514337E-02 
1337	 3.19823011733675E-02 
1338	 3.19692510866798E-02 
1339	 3.19689094262097E-02 
1340	 3.19658725704756E-02 
1341	 3.19670436446446E-02 
1342	 3.19828802016805E-02 
1343	 3.19867238260635E-02 
1344	 3.19842863384337E-02 
1345	 0.031980203373998 
1346	 3.19736672798581E-02 
1347	 3.19684009747701E-02 
1348	 3.19594197362314E-02 
1349	 3.19507010076015E-02 
1350	 3.19421843052064E-02 
1351	 3.19364055106687E-02 
1352	 3.19296484494462E-02 
1353	 3.19244633834099E-02 
1354	 3.19244470479834E-02 
1355	 3.19213820844775E-02 
1356	 3.19178239311923E-02 
1357	 3.19121027788537E-02 
1358	 3.19065147863588E-02 
1359	 3.18978402451221E-02 
1360	 0.031885224609181 
1361	 3.18682181801004E-02 
1362	 3.18608419400908E-02 
1363	 3.18650066988578E-02 
1364	 3.18656490679953E-02 
1365	 3.18741502298341E-02 
1366	 3.18790066657662E-02 
1367	 3.18834961859852E-02 
1368	 3.18832459938986E-02 
1369	 3.18832655229572E-02 
1370	 3.18825055694831E-02 
1371	 3.18765546158606E-02 
1372	 3.18711298507553E-02 
1373	 3.18681070676411E-02 
1374	 3.18629812917934E-02 
1375	 3.18528984062315E-02 
1376	 3.18459133504282E-02 
1377	 3.18397007572375E-02 
1378	 3.18355076705061E-02 
1379	 3.18331085163456E-02 
1380	 3.18296472565209E-02 
1381	 3.18296871181927E-02 
1382	 3.18262431183949E-02 
1383	 3.18187956219568E-02 
1384	 3.18127766893944E-02 
1385	 3.18045967986811E-02 
1386	 3.17994760876198E-02 
1387	 3.17977449131636E-02 
1388	 3.17945618779771E-02 
1389	 3.17957488499147E-02 
1390	 3.17906992783263E-02 
1391	 3.17775246935655E-02 
1392	 3.17670161367174E-02 
1393	 3.17638875702739E-02 
1394	 3.17669079827702E-02 
1395	 3.17688336723935E-02 
1396	 3.17836422366728E-02 
1397	 3.17808526936519E-02 
1398	 0.031765363614048 
1399	 0.031762098889394 
1400	 3.17593866412644E-02 
1401	 3.17557210026791E-02 
1402	 3.17567584431486E-02 
1403	 3.17550289265094E-02 
1404	 3.17472126458707E-02 
1405	 3.17463731705225E-02 
1406	 3.17531205188179E-02 
1407	 3.17529736390255E-02 
1408	 3.17513298814709E-02 
1409	 0.031749951095334 
1410	 3.17410268929316E-02 
1411	 0.031742413587045 
1412	 3.17527340392336E-02 
1413	 3.17565338654174E-02 
1414	 3.17650400824281E-02 
1415	 3.17680130163553E-02 
1416	 3.17630898493399E-02 
1417	 3.17607683224172E-02 
1418	 0.03175763305456 
1419	 0.031755284957791 
1420	 3.17501717828923E-02 
1421	 3.17499347247155E-02 
1422	 3.17565099144227E-02 
1423	 3.17582332040331E-02 
1424	 3.17589326187126E-02 
1425	 3.17613799360342E-02 
1426	 0.03176756456569 
1427	 3.17612577806562E-02 
1428	 3.17581392368981E-02 
1429	 3.17671863278135E-02 
1430	 0.031770546804768 
1431	 3.17734590050211E-02 
1432	 3.17745865285801E-02 
1433	 3.17739364501476E-02 
1434	 0.031779101629388 
1435	 3.17864136279628E-02 
1436	 3.17893011951434E-02 
1437	 3.17969949202087E-02 
1438	 3.17965900404803E-02 
1439	 3.17849219400876E-02 
1440	 3.17829932047549E-02 
1441	 3.17803822192133E-02 
1442	 3.17869810222302E-02 
1443	 3.18060476674602E-02 
1444	 3.18115009987387E-02 
1445	 3.18190187604637E-02 
1446	 3.18189984282182E-02 
1447	 3.18046862875002E-02 
1448	 3.17990287872176E-02 
1449	 3.17951077858992E-02 
1450	 3.17913678553623E-02 
1451	 0.031786750083885 
1452	 3.17862199361046E-02 
1453	 3.17886830776856E-02 
1454	 3.17912730034576E-02 
1455	 3.17996065696099E-02 
1456	 3.18035744806779E-02 
1457	 3.18077799775201E-02 
1458	 3.18075894019029E-02 
1459	 3.17951136793523E-02 
1460	 3.17944553772845E-02 
1461	 3.17975442399083E-02 
1462	 3.18021690472698E-02 
1463	 3.18251738852994E-02 
1464	 3.18331831209754E-02 
1465	 3.18359749832696E-02 
1466	 3.18262482627685E-02 
1467	 3.18179190902098E-02 
1468	 0.03181531733708 
1469	 3.18141904512632E-02 
1470	 3.18166468368779E-02 
1471	 3.18158250860847E-02 
1472	 3.18098567396784E-02 
1473	 3.18134438098068E-02 
1474	 3.18247915386006E-02 
1475	 3.18254203524015E-02 
1476	 3.18246088900565E-02 
1477	 3.18263149880017E-02 
1478	 3.18217940595811E-02 
1479	 3.18224496993212E-02 
1480	 3.18346895005598E-02 
1481	 3.18318592445336E-02 
1482	 3.18171339323089E-02 
1483	 3.18118886173778E-02 
1484	 3.18025120678205E-02 
1485	 0.031801505394755 
1486	 0.031812968244864 
1487	 0.031813661179009 
1488	 3.18127664568124E-02 
1489	 3.18099970109487E-02 
1490	 3.17990739351392E-02 
1491	 0.031796284300247 
1492	 3.17954949680177E-02 
1493	 3.17970263160259E-02 
1494	 3.18094368303507E-02 
1495	 3.18076147289129E-02 
1496	 3.17965329753432E-02 
1497	 3.17936396981683E-02 
1498	 3.17861494190942E-02 
1499	 3.17812011081287E-02 
1500	 3.17810007207672E-02 
1501	 3.17843742548729E-02 
1502	 3.17858816424194E-02 
1503	 0.031792170347414 
1504	 3.18124201844602E-02 
1505	 3.18223318307907E-02 
1506	 3.18270274673962E-02 
1507	 3.18324544124538E-02 
1508	 3.18364021661418E-02 
1509	 3.18376317881646E-02 
1510	 3.18392247577306E-02 
1511	 3.18361968750409E-02 
1512	 3.18206942856725E-02 
1513	 3.18159732510787E-02 
1514	 3.18168743910953E-02 
1515	 3.18157337355479E-02 
1516	 3.18196849440386E-02 
1517	 3.18235418009742E-02 
1518	 0.031825946120186 
1519	 3.18270792164583E-02 
1520	 3.18293994097859E-02 
1521	 3.18347437495131E-02 
1522	 3.18272385308995E-02 
1523	 3.18145251700141E-02 
1524	 3.18121299905368E-02 
1525	 0.031808331040262 
1526	 3.18105120322378E-02 
1527	 3.18242923897575E-02 
1528	 3.18258319610232E-02 
1529	 3.18225961938354E-02 
1530	 3.18223011627778E-02 
1531	 0.031819185691405 
1532	 3.18196096739152E-02 
1533	 3.18230131507131E-02 
1534	 3.18251170140404E-02 
1535	 3.18294746818066E-02 
1536	 3.18258174665121E-02 
1537	 3.18147880396954E-02 
1538	 0.0318165440678 
1539	 3.18200430403514E-02 
1540	 3.18218491196287E-02 
1541	 3.18328959500844E-02 
1542	 3.18366121016572E-02 
1543	 3.18304492612364E-02 
1544	 0.031832547075601 
1545	 3.18386747948542E-02 
1546	 3.18464928982411E-02 
1547	 3.18605672358718E-02 
1548	 3.18632069167313E-02 
1549	 3.18627312526358E-02 
1550	 3.18631570926422E-02 
1551	 3.18543329266642E-02 
1552	 3.18526232647308E-02 
1553	 3.18590977925804E-02 
1554	 3.18586368113206E-02 
1555	 3.18512815047036E-02 
1556	 3.18527892297598E-02 
1557	 3.18605086307594E-02 
1558	 0.031860549911161 
1559	 3.18616037144039E-02 
1560	 3.18613253763504E-02 
1561	 3.18523419146012E-02 
1562	 0.031850400472166 
1563	 3.18543021687233E-02 
1564	 3.18561693428583E-02 
1565	 3.18592733577529E-02 
1566	 3.18599820996054E-02 
1567	 3.18584877178965E-02 
1568	 3.18602498562349E-02 
1569	 3.18615706662127E-02 
1570	 3.18641242736798E-02 
1571	 3.18733123100677E-02 
1572	 3.18747706653289E-02 
1573	 0.031870658161476 
1574	 3.18693713966746E-02 
1575	 3.18686112553714E-02 
1576	 3.18625307677767E-02 
1577	 3.18527340298928E-02 
1578	 3.18466735984194E-02 
1579	 3.18341601746134E-02 
1580	 3.18299885463257E-02 
1581	 3.18339043793269E-02 
1582	 0.031837531957457 
1583	 3.18486692647452E-02 
1584	 3.18503707307311E-02 
1585	 3.18488858218593E-02 
1586	 3.18476470184096E-02 
1587	 3.18365009041256E-02 
1588	 3.18339038499101E-02 
1589	 3.18392065292297E-02 
1590	 3.18397589225253E-02 
1591	 3.18410292908022E-02 
1592	 3.18422893935553E-02 
1593	 3.18415679999133E-02 
1594	 3.18407288843576E-02 
1595	 3.18421614966993E-02 
1596	 3.18398651855992E-02 
1597	 3.18280279196517E-02 
1598	 3.18290051544164E-02 
1599	 3.18411247611701E-02 
1600	 3.18431940720837E-02 
1601	 3.18506360237738E-02 
1602	 3.18513590624485E-02 
1603	 3.18302207056137E-02 
1604	 3.18282712293513E-02 
1605	 3.18399300480091E-02 
1606	 3.18454754072621E-02 
1607	 3.18619809102214E-02 
1608	 3.18697143524122E-02 
1609	 3.18690078829339E-02 
1610	 3.18666512312181E-02 
1611	 3.18598388034288E-02 
1612	 3.18530783357943E-02 
1613	 3.18358033911073E-02 
1614	 3.18337721365829E-02 
1615	 3.18425816999866E-02 
1616	 3.18475002392209E-02 
1617	 3.18688120503559E-02 
1618	 3.18719419786928E-02 
1619	 3.18540865211274E-02 
1620	 3.18509742673459E-02 
1621	 3.18445438893692E-02 
1622	 3.18430003628369E-02 
1623	 3.18595861889987E-02 
1624	 3.18633740871906E-02 
1625	 3.18538946205717E-02 
1626	 3.18564004131479E-02 
1627	 3.18632551400224E-02 
1628	 3.18657449908452E-02 
1629	 3.18814083357351E-02 
1630	 3.18814420302141E-02 
1631	 3.18528670497345E-02 
1632	 3.18518590838163E-02 
1633	 3.18706021332941E-02 
1634	 3.18685326528287E-02 
1635	 3.18687697517515E-02 
1636	 3.18730456448067E-02 
1637	 3.18633859718829E-02 
1638	 3.18535465644048E-02 
1639	 3.18514686590108E-02 
1640	 0.031850083215962 
1641	 3.18334678893169E-02 
1642	 3.18331019614005E-02 
1643	 3.18617631397606E-02 
1644	 3.18667471551306E-02 
1645	 3.18610937766968E-02 
1646	 3.18582399686082E-02 
1647	 3.18411276145806E-02 
1648	 3.18331801622639E-02 
1649	 0.031828249064144 
1650	 3.18314272104746E-02 
1651	 3.18479086738728E-02 
1652	 3.18533109242796E-02 
1653	 3.18643848821885E-02 
1654	 3.18666314029163E-02 
1655	 3.18516191685636E-02 
1656	 3.18437764242632E-02 
1657	 3.18357957537794E-02 
1658	 0.031831626631195 
1659	 3.18300702114482E-02 
1660	 3.18306705268655E-02 
1661	 3.18364878540962E-02 
1662	 3.18375632191325E-02 
1663	 3.18362130171713E-02 
1664	 3.18383761086628E-02 
1665	 3.18404589457572E-02 
1666	 3.18428847620942E-02 
1667	 3.18534285350347E-02 
1668	 3.18514861936632E-02 
1669	 3.18407586131729E-02 
1670	 3.18345217686274E-02 
1671	 3.18187991483874E-02 
1672	 3.18153802651626E-02 
1673	 3.18192220726675E-02 
1674	 3.18238226907662E-02 
1675	 3.18396951527056E-02 
1676	 3.18433157446871E-02 
1677	 3.18437388536619E-02 
1678	 3.18446730797364E-02 
1679	 3.18437188159856E-02 
1680	 3.18325278065714E-02 
1681	 3.18010109747708E-02 
1682	 3.18023577683334E-02 
1683	 3.18200467375258E-02 
1684	 3.18212484105975E-02 
1685	 3.18428988278399E-02 
1686	 3.18465200003842E-02 
1687	 3.18206670830253E-02 
1688	 3.18069928670403E-02 
1689	 3.17982994488889E-02 
1690	 3.17923959755017E-02 
1691	 3.17803680091237E-02 
1692	 3.17831374396641E-02 
1693	 3.18066301126994E-02 
1694	 3.18109520105936E-02 
1695	 3.18106448101844E-02 
1696	 0.031808490531535 
1697	 3.17890469866862E-02 
1698	 3.17967424584556E-02 
1699	 3.18283602395887E-02 
1700	 3.18276820754822E-02 
1701	 3.18259230819271E-02 
1702	 3.18170696645938E-02 
1703	 3.17791630102941E-02 
1704	 3.17656136079674E-02 
1705	 3.17651397432217E-02 
1706	 3.17762663664294E-02 
1707	 3.17850254673394E-02 
1708	 3.17992577302724E-02 
1709	 3.18020620688111E-02 
1710	 3.17842583745242E-02 
1711	 3.17714251711775E-02 
1712	 3.17595356900632E-02 
1713	 0.031738955799272 
1714	 3.17398107556473E-02 
1715	 3.17318942235367E-02 
1716	 3.17286245420662E-02 
1717	 3.17449773434037E-02 
1718	 3.17391080340321E-02 
1719	 3.17360998236752E-02 
1720	 3.17341409041839E-02 
1721	 3.17287468572303E-02 
1722	 3.17385083723569E-02 
1723	 3.17476955205515E-02 
1724	 3.17422419738594E-02 
1725	 3.17351766508134E-02 
1726	 3.17419253417278E-02 
1727	 3.17479402140096E-02 
1728	 3.17582372180206E-02 
1729	 3.17657328953154E-02 
1730	 3.17542723796943E-02 
1731	 3.17443577344007E-02 
1732	 3.17425535013345E-02 
1733	 3.17353703688468E-02 
1734	 3.17270485993641E-02 
1735	 3.17184888117324E-02 
1736	 3.17025523883679E-02 
1737	 3.17064188974308E-02 
1738	 3.17147333932722E-02 
1739	 3.17151615856767E-02 
1740	 3.17235736082283E-02 
1741	 3.17196334948792E-02 
1742	 3.17026241651944E-02 
1743	 3.16934008253132E-02 
1744	 3.16732957023856E-02 
1745	 3.16687258829513E-02 
1746	 3.16800830483599E-02 
1747	 3.16805572376481E-02 
1748	 3.16901311990016E-02 
1749	 3.16901055258366E-02 
1750	 3.16735070835117E-02 
1751	 3.16717768867225E-02 
1752	 3.16742773188096E-02 
1753	 3.16758346848476E-02 
1754	 3.16835543374088E-02 
1755	 3.16847176208469E-02 
1756	 3.16807227886645E-02 
1757	 3.16944374203038E-02 
1758	 3.17042629196067E-02 
1759	 3.17032375789265E-02 
1760	 3.16957822971099E-02 
1761	 3.16736285576695E-02 
1762	 3.16526002753583E-02 
1763	 3.16512432839603E-02 
1764	 3.16446812242732E-02 
1765	 3.16505423870167E-02 
1766	 0.0316652111947 
1767	 3.16586649725079E-02 
1768	 3.16568732103754E-02 
1769	 3.16509012510131E-02 
1770	 3.16429026336116E-02 
1771	 3.16513198997112E-02 
1772	 3.16572880006209E-02 
1773	 3.16715332699114E-02 
1774	 3.16730755578312E-02 
1775	 3.16636114186686E-02 
1776	 3.16670177278007E-02 
1777	 3.16608811406439E-02 
1778	 3.16488300878454E-02 
1779	 3.16357588913379E-02 
1780	 3.16289875779865E-02 
1781	 3.16354614913475E-02 
1782	 3.16417308819462E-02 
1783	 3.16437644405526E-02 
1784	 3.16520029311502E-02 
1785	 3.16496018602951E-02 
1786	 0.031643622391318 
1787	 3.16577056259128E-02 
1788	 3.16577945113165E-02 
1789	 3.16283857947682E-02 
1790	 3.16317371181186E-02 
1791	 3.16508077338487E-02 
1792	 3.16543826874832E-02 
1793	 0.031664627060361 
1794	 3.16551303177621E-02 
1795	 3.16645222954519E-02 
1796	 3.16535105566386E-02 
1797	 3.16526640665211E-02 
1798	 3.16462018268852E-02 
1799	 3.16262051984605E-02 
1800	 3.16501808104953E-02 
1801	 3.13168946660968E-02 
1802	 3.13479358112347E-02 
1803	 3.13638703869335E-02 
1804	 3.13784524683029E-02 
1805	 3.13986352115096E-02 
1806	 3.14066104902409E-02 
1807	 3.13989711690133E-02 
1808	 3.14030679486624E-02 
1809	 3.14042009479981E-02 
1810	 3.14135392925176E-02 
1811	 3.14401067882673E-02 
1812	 0.031448762547488 
1813	 3.14516245776119E-02 
1814	 3.14519055948626E-02 
1815	 3.14504476264007E-02 
1816	 3.14492176388064E-02 
1817	 3.14574949334501E-02 
1818	 3.14851314919391E-02 
1819	 3.14948625458498E-02 
1820	 3.15042597371965E-02 
1821	 3.15063382370783E-02 
1822	 3.15008499041907E-02 
1823	 3.14855941038137E-02 
1824	 3.14777306877047E-02 
1825	 3.14700726948347E-02 
1826	 3.14728963176018E-02 
1827	 3.14892837350805E-02 
1828	 3.14956163174102E-02 
1829	 3.15066441230253E-02 
1830	 3.15080777684972E-02 
1831	 3.14939925105189E-02 
1832	 3.14924054238318E-02 
1833	 3.15076131089732E-02 
1834	 3.15208977914737E-02 
1835	 3.15358256205389E-02 
1836	 3.15516541026762E-02 
1837	 3.15582975723052E-02 
1838	 3.15496979772668E-02 
1839	 3.15465016159965E-02 
1840	 3.15412907144166E-02 
1841	 3.15396905272935E-02 
1842	 3.15291063810125E-02 
1843	 3.15356116543329E-02 
1844	 3.15599660803596E-02 
1845	 3.15807478402474E-02 
1846	 3.15931221967257E-02 
1847	 3.16013832299657E-02 
1848	 3.16092891172861E-02 
1849	 0.031609722536831 
1850	 3.16124372267463E-02 
1851	 0.031617464054379 
1852	 3.16189546113827E-02 
1853	 3.16196989502858E-02 
1854	 3.16171770970596E-02 
1855	 0.031610693710269 
1856	 3.16142029754648E-02 
1857	 0.031630928147552 
1858	 3.16322367870227E-02 
1859	 3.16365215746103E-02 
1860	 3.16469457423097E-02 
1861	 3.16575332654194E-02 
1862	 0.031665187649842 
1863	 3.16708993790446E-02 
1864	 3.16796659616075E-02 
1865	 0.031691799511993 
1866	 3.16899178737994E-02 
1867	 3.16843107708483E-02 
1868	 3.16917253712443E-02 
1869	 3.16899274735622E-02 
1870	 0.031687865909813 
1871	 3.16888368820084E-02 
1872	 3.16864364306446E-02 
1873	 0.031679526270844 
1874	 3.16725773759458E-02 
1875	 3.16586877966014E-02 
1876	 3.16541258301219E-02 
1877	 3.16690274507512E-02 
1878	 3.16742288825204E-02 
1879	 0.031674199784825 
1880	 3.16816071253662E-02 
1881	 3.16828651011692E-02 
1882	 3.16697828961375E-02 
1883	 3.16620654198006E-02 
1884	 3.16788760368429E-02 
1885	 3.16928891135608E-02 
1886	 3.16910748376961E-02 
1887	 3.16881209300517E-02 
1888	 3.16924314075697E-02 
1889	 3.16866476416014E-02 
1890	 3.16760793012185E-02 
1891	 3.16740654724467E-02 
1892	 3.16623944123924E-02 
1893	 3.16532969393416E-02 
1894	 3.16386541349043E-02 
1895	 3.16399286267234E-02 
1896	 3.16409346146738E-02 
1897	 3.16344995966838E-02 
1898	 3.16190121953647E-02 
1899	 3.15902325589001E-02 
1900	 3.15642351352335E-02 
1901	 3.15479052972651E-02 
1902	 3.15359647256041E-02 
1903	 3.15355327207163E-02 
1904	 3.15343064081653E-02 
1905	 3.15377964871957E-02 
1906	 0.031536340899466 
1907	 3.15372487594689E-02 
1908	 3.15447456415203E-02 
1909	 3.15556080680139E-02 
1910	 3.15501372052052E-02 
1911	 3.15395789673177E-02 
1912	 3.15409841619914E-02 
1913	 3.15325804961726E-02 
1914	 0.031522926906375 
1915	 3.15199995452562E-02 
1916	 3.15265328762576E-02 
1917	 3.15180631580481E-02 
1918	 3.15154097130557E-02 
1919	 3.15204088657622E-02 
1920	 3.15180530486971E-02 
1921	 3.15193812159482E-02 
1922	 0.031509680861986 
1923	 3.14970642719371E-02 
1924	 3.15044338045293E-02 
1925	 3.15075795934517E-02 
1926	 3.15133561143338E-02 
1927	 3.15391965970482E-02 
1928	 3.15482539682992E-02 
1929	 0.031548716924058 
1930	 3.15422745875118E-02 
1931	 0.03153665487686 
1932	 3.15272259085697E-02 
1933	 3.15294488796507E-02 
1934	 3.15317886502467E-02 
1935	 3.15386125817206E-02 
1936	 3.15443886492192E-02 
1937	 3.15481827420128E-02 
1938	 3.15492744765329E-02 
1939	 3.15575370398001E-02 
1940	 3.15727941639879E-02 
1941	 3.15730319225698E-02 
1942	 3.15768316111482E-02 
1943	 3.15816420222947E-02 
1944	 3.15649678096947E-02 
1945	 3.15566003663597E-02 
1946	 3.15612254036624E-02 
1947	 3.15621748921033E-02 
1948	 3.15810615693691E-02 
1949	 3.16088914699684E-02 
1950	 3.16242899975979E-02 
1951	 3.16340144306637E-02 
1952	 3.16456374183795E-02 
1953	 3.16536912719498E-02 
1954	 3.16581999163991E-02 
1955	 3.16616906352551E-02 
1956	 3.16708800952802E-02 
1957	 3.16731616847636E-02 
1958	 3.16737344183915E-02 
1959	 3.16882206491546E-02 
1960	 3.17044438525201E-02 
1961	 3.17181786363239E-02 
1962	 3.17368597187741E-02 
1963	 3.17510954987938E-02 
1964	 3.17583282802261E-02 
1965	 0.03176736961094 
1966	 3.17778977822876E-02 
1967	 3.17871755473049E-02 
1968	 3.17859060430703E-02 
1969	 3.17933797933284E-02 
1970	 3.17995175307932E-02 
1971	 3.18066822468131E-02 
1972	 3.18210963246456E-02 
1973	 3.18346560837592E-02 
1974	 3.18482271118295E-02 
1975	 3.18647784102548E-02 
1976	 3.18713381854841E-02 
1977	 3.18716616132044E-02 
1978	 3.18793011100934E-02 
1979	 3.18846055271016E-02 
1980	 3.18905032612686E-02 
1981	 3.18990472564506E-02 
1982	 3.19011073407126E-02 
1983	 3.19137856202124E-02 
1984	 3.19296546938304E-02 
1985	 3.19427531331771E-02 
1986	 0.031960445163274 
1987	 3.19776173610273E-02 
1988	 3.19887006894058E-02 
1989	 3.20036564371104E-02 
1990	 3.20283543492728E-02 
1991	 3.20450353924206E-02 
1992	 3.20571574804787E-02 
1993	 3.20621501232389E-02 
1994	 3.20807108648188E-02 
1995	 3.21070797083996E-02 
1996	 0.032131443828342 
1997	 3.21441347997974E-02 
1998	 3.21600194667116E-02 
1999	 3.21668055525415E-02 
2000	 3.21812633232932E-02 
2001	 3.22059545565444E-02 
2002	 3.22227616253686E-02 
2003	 3.22330579065049E-02 
2004	 3.22478701294293E-02 
2005	 3.22632501220066E-02 
2006	 3.22768135902822E-02 
2007	 3.22950427186028E-02 
2008	 3.23029744315627E-02 
2009	 3.23164704553824E-02 
2010	 0.032341257349038 
2011	 3.23466808908876E-02 
2012	 0.032351453204816 
2013	 3.23655645204017E-02 
2014	 3.23758677163616E-02 
2015	 3.23845586316263E-02 
2016	 3.24022276618265E-02 
2017	 3.24203922612717E-02 
2018	 0.032431779823157 
2019	 0.032447351595977 
2020	 3.24716488966891E-02 
2021	 3.24972993464255E-02 
2022	 3.25122326956628E-02 
2023	 3.25176611789001E-02 
2024	 3.25244073643677E-02 
2025	 3.25406862618647E-02 
2026	 3.25556696749294E-02 
2027	 3.25762592364873E-02 
2028	 3.25893871492046E-02 
2029	 3.25984719206693E-02 
2030	 3.26098724502596E-02 
2031	 3.26189957691801E-02 
2032	 3.26311186694625E-02 
2033	 3.26544992803451E-02 
2034	 0.032664396778425 
2035	 0.032666335914025 
2036	 3.26604704789082E-02 
2037	 3.26769722652195E-02 
2038	 3.26851400731621E-02 
2039	 3.26962087016504E-02 
2040	 3.27230591185271E-02 
2041	 3.27396159039231E-02 
2042	 3.27432984159748E-02 
2043	 3.27550384099902E-02 
2044	 3.27746039849646E-02 
2045	 3.27876267209046E-02 
2046	 3.28000037328235E-02 
2047	 3.28071244062889E-02 
2048	 3.28076499572841E-02 
2049	 0.032812816608242 
2050	 3.28138546506528E-02 
2051	 3.28151350388016E-02 
2052	 3.28310810000381E-02 
2053	 3.28482421503983E-02 
2054	 3.28612700166217E-02 
2055	 3.28769131297486E-02 
2056	 3.28871207042109E-02 
2057	 3.28923395675416E-02 
2058	 3.29002160061629E-02 
2059	 3.29074131990208E-02 
2060	 3.29155904815264E-02 
2061	 3.29259097014119E-02 
2062	 3.29309395320517E-02 
2063	 3.29310553745099E-02 
2064	 3.29362178950427E-02 
2065	 0.032942104029412 
2066	 3.29452270786333E-02 
2067	 3.29509784330929E-02 
2068	 3.29592159108557E-02 
2069	 3.29722623925714E-02 
2070	 3.29880224865744E-02 
2071	 3.30013486319941E-02 
2072	 3.30179736099365E-02 
2073	 3.30365342683788E-02 
2074	 3.30599482792796E-02 
2075	 3.30702780508603E-02 
2076	 3.30761361812258E-02 
2077	 3.30848336314691E-02 
2078	 3.30793545374792E-02 
2079	 3.30833267699864E-02 
2080	 3.31000255490517E-02 
2081	 3.31134346998973E-02 
2082	 3.31244308491054E-02 
2083	 3.31384910123667E-02 
2084	 3.31575379806379E-02 
2085	 3.31641007560915E-02 
2086	 0.033167874580842 
2087	 3.31604089111803E-02 
2088	 3.31675532142269E-02 
2089	 0.033175071505753 
2090	 3.31859563484391E-02 
2091	 3.32120138196971E-02 
2092	 3.32245552529167E-02 
2093	 3.32234716448461E-02 
2094	 3.32344091938018E-02 
2095	 3.32529700795676E-02 
2096	 3.32627463213379E-02 
2097	 3.32686043727299E-02 
2098	 3.32859542625388E-02 
2099	 3.32887603000641E-02 
2100	 3.32904854813558E-02 
2101	 3.32981670394952E-02 
2102	 3.33115630176034E-02 
2103	 3.33226303358935E-02 
2104	 3.33353133166134E-02 
2105	 3.33433638614705E-02 
2106	 3.33512545229414E-02 
2107	 3.33569560390512E-02 
2108	 3.33549773882465E-02 
2109	 3.33626733043503E-02 
2110	 3.33720058789167E-02 
2111	 3.33839568496007E-02 
2112	 3.33947466107666E-02 
2113	 3.34185779057175E-02 
2114	 3.34689908367644E-02 
2115	 3.34933316289637E-02 
2116	 3.35133026106358E-02 
2117	 3.35275288269802E-02 
2118	 3.35397634008988E-02 
2119	 3.35267276098798E-02 
2120	 3.35402057759916E-02 
2121	 3.35749198688062E-02 
2122	 3.35890616627666E-02 
2123	 3.35996643285957E-02 
2124	 3.36095452022971E-02 
2125	 3.36114412184236E-02 
2126	 3.36161275445421E-02 
2127	 3.36153694470828E-02 
2128	 3.36236807975576E-02 
2129	 3.36395249746138E-02 
2130	 3.36497897645285E-02 
2131	 3.36699662931017E-02 
2132	 3.36808380312042E-02 
2133	 0.03367534621449 
2134	 3.36781922069227E-02 
2135	 3.36976058380684E-02 
2136	 0.033700238485404 
2137	 3.37062749006869E-02 
2138	 3.37223694460221E-02 
2139	 3.37182351536493E-02 
2140	 3.36946345125387E-02 
2141	 3.36886351893047E-02 
2142	 0.033683109363503 
2143	 3.36755541804094E-02 
2144	 3.36687612760284E-02 
2145	 3.36718035185324E-02 
2146	 3.36810950577169E-02 
2147	 3.36811330679771E-02 
2148	 3.37018583082684E-02 
2149	 3.36920802081141E-02 
2150	 3.36381692748107E-02 
2151	 3.36170823541965E-02 
2152	 3.36035817887801E-02 
2153	 3.35819721563026E-02 
2154	 3.35926027697019E-02 
2155	 3.35941285568849E-02 
2156	 0.033589194324933 
2157	 3.35815179199597E-02 
2158	 3.35620276050949E-02 
2159	 3.35315395030022E-02 
2160	 3.35081906491104E-02 
2161	 3.34714895906311E-02 
2162	 0.033450560373773 
2163	 3.34445053443981E-02 
2164	 3.34313766446542E-02 
2165	 3.34242128234617E-02 
2166	 3.34051393079326E-02 
2167	 3.33718808083519E-02 
2168	 3.33526398547487E-02 
2169	 3.33404659147787E-02 
2170	 3.33193814817278E-02 
2171	 3.33030478493082E-02 
2172	 3.32829949831874E-02 
2173	 3.32535252945438E-02 
2174	 3.32177337991273E-02 
2175	 3.31948765009048E-02 
2176	 3.31760873763272E-02 
2177	 3.31617208983149E-02 
2178	 3.31507599139165E-02 
2179	 3.31381920575167E-02 
2180	 3.31365586745526E-02 
2181	 0.033119302136507 
2182	 3.30876388061474E-02 
2183	 3.30749564725242E-02 
2184	 3.30648074940629E-02 
2185	 3.30537291293238E-02 
2186	 3.30541847367809E-02 
2187	 3.30465840333163E-02 
2188	 3.30334700782674E-02 
2189	 3.30176307923648E-02 
2190	 0.033006413343236 
2191	 3.29874984060166E-02 
2192	 3.29483234275835E-02 
2193	 0.032926683385212 
2194	 3.29041586882377E-02 
2195	 3.28930868121829E-02 
2196	 3.28945230179975E-02 
2197	 3.29125509148782E-02 
2198	 3.29137089094634E-02 
2199	 3.29011520714454E-02 
2200	 3.28938874689111E-02 
2201	 0.032878350453916 
2202	 3.28604187480001E-02 
2203	 3.28402613578581E-02 
2204	 3.28301239841123E-02 
2205	 3.28123678964832E-02 
2206	 3.28066290845995E-02 
2207	 3.28233528329053E-02 
2208	 3.28233347003467E-02 
2209	 3.28196854810401E-02 
2210	 3.28066917826773E-02 
2211	 0.032778478648355 
2212	 3.27699944694659E-02 
2213	 3.27592887929006E-02 
2214	 3.27603630958173E-02 
2215	 3.27830889640824E-02 
2216	 0.032793064695319 
2217	 3.28122044805018E-02 
2218	 3.28131102549821E-02 
2219	 0.032792170309121 
2220	 3.27885197978599E-02 
2221	 3.27893354934885E-02 
2222	 3.27684712032298E-02 
2223	 3.27821608910966E-02 
2224	 3.28134439715991E-02 
2225	 3.28190885992692E-02 
2226	 3.28190152330694E-02 
2227	 0.032815886032212 
2228	 3.27959719881053E-02 
2229	 3.27900350869161E-02 
2230	 3.27811853606109E-02 
2231	 3.27948532552587E-02 
2232	 0.032830038808083 
2233	 0.032839906111291 
2234	 3.28620699899631E-02 
2235	 3.28644120091389E-02 
2236	 3.28397469957833E-02 
2237	 3.28234929972601E-02 
2238	 3.27901878367091E-02 
2239	 0.032788237427115 
2240	 3.28047771329711E-02 
2241	 3.28094011607822E-02 
2242	 3.28443035190936E-02 
2243	 3.28472868187119E-02 
2244	 3.28042734079471E-02 
2245	 3.27955974672509E-02 
2246	 3.28079216643781E-02 
2247	 3.27981129029317E-02 
2248	 3.27839330347218E-02 
2249	 3.27812574503763E-02 
2250	 3.27687411795321E-02 
2251	 3.27539640663082E-02 
2252	 3.27701786722024E-02 
2253	 3.27873517173524E-02 
2254	 3.27659292563898E-02 
2255	 3.27564217482662E-02 
2256	 3.27519854060779E-02 
2257	 0.032722945119678 
2258	 3.27111488828756E-02 
2259	 3.27050836797426E-02 
2260	 3.27044346972724E-02 
2261	 3.27114146011824E-02 
2262	 3.27149477252803E-02 
2263	 3.27298841385187E-02 
2264	 3.27251613917542E-02 
2265	 3.26983590485159E-02 
2266	 3.26947397715577E-02 
2267	 3.26950778607068E-02 
2268	 3.26941756983982E-02 
2269	 3.27170541162664E-02 
2270	 3.27089676059151E-02 
2271	 3.26761924228575E-02 
2272	 0.032657287643624 
2273	 3.26222065489147E-02 
2274	 3.26105295586259E-02 
2275	 3.26131108488836E-02 
2276	 0.032617569981821 
2277	 3.26416584554616E-02 
2278	 3.26527412139271E-02 
2279	 3.26717187050581E-02 
2280	 3.26729085643002E-02 
2281	 3.26577183149098E-02 
2282	 3.26415268866762E-02 
2283	 0.032608122043262 
2284	 3.25812532775746E-02 
2285	 3.25632824190963E-02 
2286	 3.25690272798296E-02 
2287	 3.26104120657138E-02 
2288	 3.26189979294973E-02 
2289	 3.26162589286436E-02 
2290	 3.26094750767218E-02 
2291	 3.25758570980751E-02 
2292	 3.25657190380265E-02 
2293	 0.032579139750118 
2294	 3.25827566873371E-02 
2295	 3.25703574745417E-02 
2296	 3.25512188288824E-02 
2297	 3.25466388200697E-02 
2298	 0.032538262689614 
2299	 3.25347112965612E-02 
2300	 3.25510381611259E-02 
2301	 3.25518785123667E-02 
2302	 3.25337212085013E-02 
2303	 3.25228976553812E-02 
2304	 3.25147860140697E-02 
2305	 0.032523715733018 
2306	 3.25317123763851E-02 
2307	 3.25557876676903E-02 
2308	 0.032599918024256 
2309	 3.26343078573728E-02 
2310	 3.26755175114805E-02 
2311	 3.27205521723085E-02 
2312	 3.27772174813907E-02 
2313	 0.032818295197343 
2314	 3.28582901481617E-02 
2315	 3.28863630439316E-02 
2316	 3.28870607521438E-02 
2317	 3.29138345723394E-02 
2318	 3.29560536534778E-02 
2319	 3.29761255764834E-02 
2320	 3.30064942673848E-02 
2321	 3.30144453227302E-02 
2322	 3.29889735590196E-02 
2323	 3.29772242019228E-02 
2324	 3.29387843174797E-02 
2325	 3.29492398300191E-02 
2326	 3.30172120938486E-02 
2327	 3.30399762698955E-02 
2328	 3.30631989391583E-02 
2329	 3.30851516239245E-02 
2330	 3.30856081680909E-02 
2331	 3.30572276517655E-02 
2332	 3.30760556538672E-02 
2333	 3.31288711422933E-02 
2334	 3.31621461978627E-02 
2335	 3.31607143485188E-02 
2336	 3.31204151987009E-02 
2337	 3.30897413752127E-02 
2338	 3.30811362852183E-02 
2339	 3.30717057783971E-02 
2340	 0.033075062725749 
2341	 3.30877762088959E-02 
2342	 3.30839500253154E-02 
2343	 3.30860438540227E-02 
2344	 0.033123063861927 
2345	 3.31709313959894E-02 
2346	 3.32013728386574E-02 
2347	 3.32238110849854E-02 
2348	 3.32434558172528E-02 
2349	 3.32533787651833E-02 
2350	 3.32557496379609E-02 
2351	 3.32252871801291E-02 
2352	 3.32038552093132E-02 
2353	 3.32010296473668E-02 
2354	 3.31993175608667E-02 
2355	 3.32609462005894E-02 
2356	 3.33302036308233E-02 
2357	 3.33616045881239E-02 
2358	 3.33443084629727E-02 
2359	 3.33062608005664E-02 
2360	 3.32643040699504E-02 
2361	 3.32148448190035E-02 
2362	 3.32430587918737E-02 
2363	 3.33026505155371E-02 
2364	 3.33405463232994E-02 
2365	 3.33566371581285E-02 
2366	 3.33908618168281E-02 
2367	 3.33999511511037E-02 
2368	 0.033347442683245 
2369	 3.33579083722544E-02 
2370	 3.33627216398158E-02 
2371	 3.33292813152939E-02 
2372	 0.033334946443365 
2373	 3.33528818154111E-02 
2374	 3.33693547929761E-02 
2375	 0.033410173049091 
2376	 3.34300663804063E-02 
2377	 3.34536059983615E-02 
2378	 3.35336028201206E-02 
2379	 3.35451775614958E-02 
2380	 3.35637410232712E-02 
2381	 3.35837743024377E-02 
2382	 3.35484670450717E-02 
2383	 3.34196979337631E-02 
2384	 3.33897984011165E-02 
2385	 3.33699525709847E-02 
2386	 3.33405207713452E-02 
2387	 3.33268237917982E-02 
2388	 3.33084147744724E-02 
2389	 3.32908905031531E-02 
2390	 3.33278078414001E-02 
2391	 3.34076367118015E-02 
2392	 3.34741277646188E-02 
2393	 3.35670279847203E-02 
2394	 3.35625459046969E-02 
2395	 3.35053795709759E-02 
2396	 3.34868225964251E-02 
2397	 3.34547199722543E-02 
2398	 3.34509939979116E-02 
2399	 3.34822491926127E-02 
2400	 3.34608678666697E-02 
2401	 3.33785736072078E-02 
2402	 3.32201164173636E-02 
2403	 3.32315631170862E-02 
2404	 3.33005195955984E-02 
2405	 3.33450686304963E-02 
2406	 3.34299527278741E-02 
2407	 3.34251559723895E-02 
2408	 3.33849890671973E-02 
2409	 0.033395645230873 
2410	 0.033470466124568 
2411	 3.34855471512583E-02 
2412	 3.33713174885241E-02 
2413	 3.32986125466935E-02 
2414	 0.03319775947904 
2415	 3.31496585149068E-02 
2416	 0.033200088980377 
2417	 3.32881696436104E-02 
2418	 3.33536885041813E-02 
2419	 3.33746232675256E-02 
2420	 3.34496582631114E-02 
2421	 3.34278114637555E-02 
2422	 3.33502692955192E-02 
2423	 3.32775270393613E-02 
2424	 3.32410089845003E-02 
2425	 0.03332005248938 
2426	 3.33488483865712E-02 
2427	 3.33681578442549E-02 
2428	 3.33340776280398E-02 
2429	 3.32428050355647E-02 
2430	 3.32170060695352E-02 
2431	 3.31883814729166E-02 
2432	 0.033203036622532 
2433	 3.32111107684549E-02 
2434	 3.32293201609761E-02 
2435	 3.33116598096479E-02 
2436	 3.34012929756851E-02 
2437	 3.34086984613405E-02 
2438	 3.33083524479983E-02 
2439	 3.32891078231555E-02 
2440	 3.33075516372365E-02 
2441	 3.33325287792391E-02 
2442	 3.34009458002832E-02 
2443	 3.33921238408681E-02 
2444	 3.33403545655599E-02 
2445	 3.32054106701748E-02 
2446	 3.31714513052987E-02 
2447	 3.32613489996801E-02 
2448	 3.31997469900825E-02 
2449	 3.31426176936759E-02 
2450	 3.31280816081789E-02 
2451	 0.033069574559313 
2452	 3.30038041758152E-02 
2453	 0.033133027525993 
2454	 3.32160840918405E-02 
2455	 3.30654663343842E-02 
2456	 3.30759519382084E-02 
2457	 3.30629062965386E-02 
2458	 3.30292964887298E-02 
2459	 3.32015335583027E-02 
2460	 3.33246492564807E-02 
2461	 3.34201529088448E-02 
2462	 3.34929938432055E-02 
2463	 3.33804158093942E-02 
2464	 3.33372175467854E-02 
2465	 3.33337540747749E-02 
2466	 3.32909910367103E-02 
2467	 3.33110498192322E-02 
2468	 3.31413577464541E-02 
2469	 3.29142123402155E-02 
2470	 3.27742077318134E-02 
2471	 3.27567620406906E-02 
2472	 3.29181950146579E-02 
2473	 3.30297742296205E-02 
2474	 0.032981194336255 
2475	 3.28786979925079E-02 
2476	 3.29350328829795E-02 
2477	 3.30086845932233E-02 
2478	 3.30603850549917E-02 
2479	 3.32446406436456E-02 
2480	 3.31781693390086E-02 
2481	 3.31297162474479E-02 
2482	 3.32266194795686E-02 
2483	 3.29669532910894E-02 
2484	 0.033065476352359 
2485	 0.033474849590055 
2486	 3.34787407805561E-02 
2487	 3.34928049872877E-02 
2488	 3.34176805791183E-02 
2489	 3.29316490010084E-02 
2490	 3.28114072919862E-02 
2491	 0.033120519029302 
2492	 0.033231031466369 
2493	 3.34934065933657E-02 
2494	 3.37146442042986E-02 
2495	 0.033525032301697 
2496	 3.33423149245955E-02 
2497	 3.33309874341069E-02 
2498	 3.34432590357168E-02 
2499	 3.35154523310022E-02 
2500	 3.35748880268148E-02 
