Wavelength	spectrum00023.asd
350	 4.26936269317197E-02 
351	 4.08181649797633E-02 
352	 3.82675168557329E-02 
353	 3.76921369082299E-02 
354	 0.039734879626966 
355	 4.07034639623811E-02 
356	 4.03515806641024E-02 
357	 3.92003364035125E-02 
358	 0.036967972987554 
359	 3.60609465454987E-02 
360	 0.036863625013278 
361	 3.83949468682186E-02 
362	 3.89105767507759E-02 
363	 3.76433456636207E-02 
364	 3.55355563542913E-02 
365	 3.54733969451026E-02 
366	 3.57416309873023E-02 
367	 3.59250340917322E-02 
368	 3.60349649622186E-02 
369	 3.64973828732724E-02 
370	 3.66668524977347E-02 
371	 3.67285630473116E-02 
372	 3.71802749888316E-02 
373	 3.66516119469641E-02 
374	 3.67759143734205E-02 
375	 3.76700624123366E-02 
376	 3.68774104247943E-02 
377	 3.65666081467643E-02 
378	 3.61773325076165E-02 
379	 0.035268628000889 
380	 3.63064449329246E-02 
381	 3.75973057629242E-02 
382	 3.78630935343791E-02 
383	 3.65725424971787E-02 
384	 3.67211643087282E-02 
385	 3.72706538605369E-02 
386	 0.037393538721439 
387	 3.73491989478444E-02 
388	 3.71251490470017E-02 
389	 3.70363841428079E-02 
390	 3.72391165578934E-02 
391	 3.70010567718233E-02 
392	 3.70004250878644E-02 
393	 3.73524455375477E-02 
394	 3.77375457216588E-02 
395	 0.037701021502711 
396	 3.75965821663655E-02 
397	 0.037730261874709 
398	 3.81846060813228E-02 
399	 0.038209128560811 
400	 3.82374251340226E-02 
401	 3.86360584399426E-02 
402	 3.78646147922489E-02 
403	 3.76083423745047E-02 
404	 3.80828400769975E-02 
405	 0.038349901933317 
406	 3.86607772977949E-02 
407	 3.86486324033058E-02 
408	 3.83479170705751E-02 
409	 3.87579678671316E-02 
410	 3.86851254804384E-02 
411	 0.038320586999036 
412	 3.82550849479178E-02 
413	 3.86435439336982E-02 
414	 3.87360187604086E-02 
415	 3.85482298129307E-02 
416	 3.87823967724936E-02 
417	 3.90107388971882E-02 
418	 3.90842466003105E-02 
419	 0.039005436744805 
420	 3.89812692573897E-02 
421	 3.90697230479361E-02 
422	 3.91823172942865E-02 
423	 3.92131617569686E-02 
424	 3.94224212133614E-02 
425	 3.95302276936059E-02 
426	 3.95357828578091E-02 
427	 3.97936643876462E-02 
428	 3.98427131961395E-02 
429	 3.98657169956541E-02 
430	 4.00300063861452E-02 
431	 3.99715045744896E-02 
432	 4.01785875601369E-02 
433	 4.04606137947882E-02 
434	 4.03490540129109E-02 
435	 4.06415894600034E-02 
436	 4.09389526173637E-02 
437	 4.10054047326567E-02 
438	 4.10607369548813E-02 
439	 0.041204327204044 
440	 4.13715088196016E-02 
441	 0.041474825087636 
442	 4.15857362122013E-02 
443	 4.16802152067494E-02 
444	 0.041741649027395 
445	 4.17708642994888E-02 
446	 4.18933919075143E-02 
447	 4.21005246951386E-02 
448	 4.23478995539082E-02 
449	 4.25973848563954E-02 
450	 4.25926815069366E-02 
451	 4.25578724633644E-02 
452	 4.28073870660669E-02 
453	 4.29286363207929E-02 
454	 4.29846989508405E-02 
455	 4.30737052025433E-02 
456	 4.32894117035175E-02 
457	 4.34509204868101E-02 
458	 4.34722044311791E-02 
459	 4.34149409924865E-02 
460	 4.37070488604785E-02 
461	 4.39486545497552E-02 
462	 4.40218999211883E-02 
463	 4.39982598899852E-02 
464	 4.40540216604897E-02 
465	 4.41910697823031E-02 
466	 4.43382310514299E-02 
467	 4.43444848529764E-02 
468	 4.44734188307721E-02 
469	 4.46577024812303E-02 
470	 4.47707170518795E-02 
471	 4.48907116398338E-02 
472	 4.49287913581452E-02 
473	 4.49727378427141E-02 
474	 4.52262867881637E-02 
475	 4.54005679074408E-02 
476	 4.54610748703791E-02 
477	 4.54632412215211E-02 
478	 4.55583650804393E-02 
479	 0.045640814635481 
480	 4.57513614852009E-02 
481	 4.59516507370337E-02 
482	 4.60752949647347E-02 
483	 4.62132241792252E-02 
484	 4.63983809404766E-02 
485	 4.65755539989935E-02 
486	 4.67253824223187E-02 
487	 4.67888345779965E-02 
488	 4.67949023751494E-02 
489	 4.70663192991653E-02 
490	 4.73208681944445E-02 
491	 4.74620271106599E-02 
492	 4.75267068291924E-02 
493	 4.76405305452232E-02 
494	 4.77954195029726E-02 
495	 0.047970222191568 
496	 4.81591852588084E-02 
497	 0.048291277603238 
498	 4.83988210908386E-02 
499	 4.85478846744032E-02 
500	 0.048795551758216 
501	 4.89956948868604E-02 
502	 4.91231623999811E-02 
503	 4.92656777178767E-02 
504	 4.93999466943511E-02 
505	 4.95873945855682E-02 
506	 4.98536012022991E-02 
507	 5.01270754221458E-02 
508	 5.02778748878498E-02 
509	 5.03925336624718E-02 
510	 5.06181389890803E-02 
511	 5.07401524451521E-02 
512	 5.09081321461495E-02 
513	 5.11646880662034E-02 
514	 5.13788044805054E-02 
515	 5.14977406392857E-02 
516	 0.051633662959516 
517	 5.18648837432817E-02 
518	 0.051979793568419 
519	 5.21264013841458E-02 
520	 5.23050439183314E-02 
521	 5.24213395543618E-02 
522	 5.26034556199499E-02 
523	 0.052789018468846 
524	 5.29303645320179E-02 
525	 5.30597349189637E-02 
526	 5.31946120720751E-02 
527	 5.33602862686807E-02 
528	 5.35648037025463E-02 
529	 5.37297384862803E-02 
530	 5.38262349973095E-02 
531	 5.39120043290597E-02 
532	 5.41241212486242E-02 
533	 5.42581971265063E-02 
534	 5.43735529783705E-02 
535	 5.45268415405876E-02 
536	 5.45841865010061E-02 
537	 5.46809911840999E-02 
538	 5.48334311099249E-02 
539	 5.49879130865311E-02 
540	 5.51301107953378E-02 
541	 0.055259979327851 
542	 5.53769018456079E-02 
543	 5.54722335471528E-02 
544	 5.55876578958333E-02 
545	 5.56921583471225E-02 
546	 5.57607942412205E-02 
547	 5.59109118326268E-02 
548	 5.60174272421008E-02 
549	 5.60706518014062E-02 
550	 0.056168175702204 
551	 5.62488761116305E-02 
552	 5.63380003612915E-02 
553	 5.64499231042489E-02 
554	 5.65332202218233E-02 
555	 5.66100660310256E-02 
556	 5.66978515205045E-02 
557	 5.68063018580276E-02 
558	 5.68978413014967E-02 
559	 5.70122881613843E-02 
560	 5.71447802487789E-02 
561	 5.72194411853643E-02 
562	 5.73016692371235E-02 
563	 5.74035796686227E-02 
564	 5.75144212773467E-02 
565	 5.75997131050264E-02 
566	 5.76628123646441E-02 
567	 0.057699319493183 
568	 5.77050501614602E-02 
569	 5.77650307574966E-02 
570	 5.77968480426055E-02 
571	 5.77596653123285E-02 
572	 5.77524663949468E-02 
573	 5.77812136934776E-02 
574	 5.78345049929967E-02 
575	 0.057891837187427 
576	 5.79576245528971E-02 
577	 5.80034364712676E-02 
578	 5.80287321251434E-02 
579	 5.80656543864697E-02 
580	 5.80774585471792E-02 
581	 5.80904549922373E-02 
582	 5.81288125361987E-02 
583	 0.05816620424843 
584	 5.81962420451137E-02 
585	 5.82127281188688E-02 
586	 5.82165828155576E-02 
587	 5.82640203780799E-02 
588	 5.83005789727579E-02 
589	 5.82966924285603E-02 
590	 5.82836431343841E-02 
591	 5.82782321335562E-02 
592	 5.82829204219123E-02 
593	 5.82847111716831E-02 
594	 5.82254527604622E-02 
595	 5.82105385223692E-02 
596	 5.82551359939311E-02 
597	 5.82902531841189E-02 
598	 5.83067528046295E-02 
599	 0.058303198310216 
600	 5.82872164565348E-02 
601	 5.82783241365748E-02 
602	 5.82778469012743E-02 
603	 5.82712445450851E-02 
604	 5.82406496391571E-02 
605	 5.81994833803406E-02 
606	 5.81687539724904E-02 
607	 5.81619389686217E-02 
608	 5.81825612411535E-02 
609	 5.81407156417565E-02 
610	 5.80958245637046E-02 
611	 5.81084736860012E-02 
612	 5.81124348081827E-02 
613	 5.80961533885369E-02 
614	 5.80712382028196E-02 
615	 5.80586304029457E-02 
616	 5.79964388304588E-02 
617	 5.79491256124469E-02 
618	 0.057950069058557 
619	 0.05795227224149 
620	 5.79144440224087E-02 
621	 5.78782485116785E-02 
622	 5.78875117972753E-02 
623	 0.057840795741341 
624	 5.78010424720133E-02 
625	 5.77852847990322E-02 
626	 5.77614919508324E-02 
627	 5.77301554637077E-02 
628	 5.77080500734985E-02 
629	 5.77026769466512E-02 
630	 5.76910736751838E-02 
631	 5.76760925559951E-02 
632	 5.76521006440925E-02 
633	 0.057613883661896 
634	 5.75796494018178E-02 
635	 5.75417191971269E-02 
636	 5.75037706070893E-02 
637	 5.74860533723249E-02 
638	 5.74703614323345E-02 
639	 5.74379964159092E-02 
640	 5.73875067323724E-02 
641	 5.73732246836783E-02 
642	 5.73474224164979E-02 
643	 5.73059810899589E-02 
644	 5.72718942977513E-02 
645	 5.72447849070237E-02 
646	 5.72162472005092E-02 
647	 5.71914225960102E-02 
648	 5.72018768593477E-02 
649	 0.057181690773704 
650	 0.057121698201422 
651	 5.70468071766671E-02 
652	 5.70353133684974E-02 
653	 0.057033115714509 
654	 5.70145479974358E-02 
655	 5.69819405659087E-02 
656	 5.69373284143026E-02 
657	 0.056893601123982 
658	 5.68624938993153E-02 
659	 5.68524282939939E-02 
660	 0.056836001048183 
661	 5.68139713396947E-02 
662	 5.67976118982488E-02 
663	 5.67952049652182E-02 
664	 5.67536264238929E-02 
665	 5.66835030571245E-02 
666	 5.66599302560017E-02 
667	 5.66548537816767E-02 
668	 5.66326983699156E-02 
669	 5.65809905136347E-02 
670	 0.056552090012929 
671	 5.65045674100414E-02 
672	 5.64647357938202E-02 
673	 5.64763924396458E-02 
674	 5.64860132210251E-02 
675	 5.64646118251561E-02 
676	 5.64230403611687E-02 
677	 5.64154116753023E-02 
678	 5.64065791207538E-02 
679	 5.63871907734468E-02 
680	 5.63582110513594E-02 
681	 0.056330115706466 
682	 5.63286070040162E-02 
683	 5.63256122321191E-02 
684	 5.62743981168503E-02 
685	 0.056234166349385 
686	 0.0562324050705 
687	 5.62565919403207E-02 
688	 5.62457936983409E-02 
689	 5.62028631830049E-02 
690	 5.61490488803594E-02 
691	 5.61145456140383E-02 
692	 5.61394654410854E-02 
693	 5.61500822398221E-02 
694	 5.61478267154307E-02 
695	 5.61741296164463E-02 
696	 5.61505471849116E-02 
697	 5.61347787212289E-02 
698	 0.056145765475858 
699	 5.61146688862287E-02 
700	 5.61368653040884E-02 
701	 5.61679743503847E-02 
702	 5.61501650797063E-02 
703	 5.61309648432224E-02 
704	 5.61453610332417E-02 
705	 5.61737515109744E-02 
706	 5.61663048634396E-02 
707	 5.61847286809317E-02 
708	 0.056201307147953 
709	 5.61954469537934E-02 
710	 5.61750806260128E-02 
711	 5.62045405536461E-02 
712	 5.62435082459287E-02 
713	 5.62474459833084E-02 
714	 5.62967955460193E-02 
715	 0.05633506592456 
716	 5.63491513745338E-02 
717	 5.63612054865159E-02 
718	 5.63864262560313E-02 
719	 5.64286827368525E-02 
720	 5.64772859156888E-02 
721	 5.65005077232106E-02 
722	 5.65364399601328E-02 
723	 5.65849192066934E-02 
724	 5.66314914610029E-02 
725	 5.66550069731442E-02 
726	 5.66816943603331E-02 
727	 5.67303933543974E-02 
728	 5.68064194922967E-02 
729	 5.68512550166393E-02 
730	 5.68886386200564E-02 
731	 5.69381522423727E-02 
732	 5.69927495555304E-02 
733	 5.70641040458375E-02 
734	 5.71386837318544E-02 
735	 5.72033698145696E-02 
736	 5.72765624953604E-02 
737	 5.73424917682173E-02 
738	 5.73981762698475E-02 
739	 5.74531767529207E-02 
740	 5.75457172204979E-02 
741	 5.76329561370725E-02 
742	 5.76972339717172E-02 
743	 5.77735639096199E-02 
744	 0.057847819514444 
745	 5.79381756409906E-02 
746	 5.80543512411588E-02 
747	 5.81521730490329E-02 
748	 5.82566690115428E-02 
749	 5.83537364820923E-02 
750	 5.84170965904592E-02 
751	 5.85107860881604E-02 
752	 5.86195764584751E-02 
753	 5.87310011917735E-02 
754	 5.88474044933986E-02 
755	 5.89547788574161E-02 
756	 5.90529593752906E-02 
757	 5.91502330694043E-02 
758	 5.92682947245759E-02 
759	 5.93797345976132E-02 
760	 5.94915785760495E-02 
761	 5.96205575815371E-02 
762	 5.97339974102036E-02 
763	 5.98440790174708E-02 
764	 5.99679621456893E-02 
765	 6.01213439941164E-02 
766	 6.02549475761503E-02 
767	 6.03712339056849E-02 
768	 0.060487769090941 
769	 6.06321207346008E-02 
770	 6.07739201809824E-02 
771	 6.09044400393964E-02 
772	 6.10286255363869E-02 
773	 6.11742798183467E-02 
774	 6.13189173280445E-02 
775	 0.061456041838561 
776	 6.15924216878191E-02 
777	 6.16989987342777E-02 
778	 6.18405183356253E-02 
779	 0.062021166451234 
780	 6.21218506533265E-02 
781	 6.22360634762618E-02 
782	 6.23764783342917E-02 
783	 6.25280090480293E-02 
784	 6.26635186198686E-02 
785	 6.28060425108767E-02 
786	 6.29508929621617E-02 
787	 6.30813705693564E-02 
788	 6.32220662461372E-02 
789	 6.33586459509013E-02 
790	 6.34826200138064E-02 
791	 6.35977814403659E-02 
792	 6.37288973292743E-02 
793	 0.063851871732542 
794	 0.063958916870055 
795	 0.064110632584815 
796	 6.42374981862054E-02 
797	 6.43546703388521E-02 
798	 6.44925185697025E-02 
799	 6.45929751129019E-02 
800	 6.46828189372989E-02 
801	 6.47769148609454E-02 
802	 6.48781144325045E-02 
803	 6.49986355350995E-02 
804	 6.51085518993187E-02 
805	 6.52024830422616E-02 
806	 6.53194097874934E-02 
807	 6.54154808459097E-02 
808	 6.54938689541887E-02 
809	 6.55732570069687E-02 
810	 6.56821696409456E-02 
811	 6.57750107987993E-02 
812	 6.58466420776739E-02 
813	 6.59139701279899E-02 
814	 6.59969332201612E-02 
815	 6.60834734603052E-02 
816	 6.61600510586825E-02 
817	 0.066218284468783 
818	 6.63041288130292E-02 
819	 6.63765369131237E-02 
820	 0.06642034074217 
821	 6.64838306664634E-02 
822	 6.65451934042236E-02 
823	 6.66046681644996E-02 
824	 6.66628743845044E-02 
825	 6.67049825423216E-02 
826	 6.67442667935756E-02 
827	 6.67845657563466E-02 
828	 6.68272115216208E-02 
829	 0.066890300604522 
830	 6.69246453768744E-02 
831	 6.69433687327757E-02 
832	 6.70063175912764E-02 
833	 6.70184998455186E-02 
834	 6.70190765676888E-02 
835	 6.70369464327003E-02 
836	 6.70538054305204E-02 
837	 0.067093184082812 
838	 6.71362770045445E-02 
839	 0.067159332374049 
840	 6.71540972951094E-02 
841	 6.71527090486548E-02 
842	 6.71554897467653E-02 
843	 6.71537583129916E-02 
844	 6.71692784231987E-02 
845	 6.71678207873085E-02 
846	 6.71598785748326E-02 
847	 6.71812460757477E-02 
848	 6.71706072808954E-02 
849	 6.71466652095513E-02 
850	 6.71323323756751E-02 
851	 0.067141382518776 
852	 6.71459543866716E-02 
853	 6.71661536994073E-02 
854	 6.72003476695255E-02 
855	 6.71805751161587E-02 
856	 6.71554248622782E-02 
857	 6.71401074410395E-02 
858	 6.71370673019599E-02 
859	 6.71449715937504E-02 
860	 6.71291875013758E-02 
861	 6.71207606222945E-02 
862	 6.71618401083306E-02 
863	 6.71450368034356E-02 
864	 6.71254911961515E-02 
865	 0.067123670308782 
866	 6.71173601228774E-02 
867	 6.70656122230748E-02 
868	 6.70536189754695E-02 
869	 6.70944925764087E-02 
870	 6.70832775105623E-02 
871	 6.70623097031057E-02 
872	 6.70505270779234E-02 
873	 6.70489196962612E-02 
874	 6.70264574560276E-02 
875	 6.70320468996942E-02 
876	 6.70441370371122E-02 
877	 6.70340287240005E-02 
878	 6.70311875144445E-02 
879	 6.70376001636008E-02 
880	 6.70366532404442E-02 
881	 6.70106978854111E-02 
882	 6.69844532945552E-02 
883	 6.69895584013806E-02 
884	 6.70069396449951E-02 
885	 6.69910424340313E-02 
886	 6.70225431322182E-02 
887	 6.70526125646028E-02 
888	 6.70573826577599E-02 
889	 6.70603691593882E-02 
890	 6.70943294258226E-02 
891	 6.70953077667029E-02 
892	 6.70496571833548E-02 
893	 6.70553665080314E-02 
894	 6.71125619094313E-02 
895	 6.71508676707573E-02 
896	 6.71314481702429E-02 
897	 6.71475384683922E-02 
898	 6.71415514575249E-02 
899	 6.71453487890997E-02 
900	 6.71912605725408E-02 
901	 6.71970637087803E-02 
902	 6.72268311382459E-02 
903	 6.72868019915698E-02 
904	 6.73455620540367E-02 
905	 6.73513014139147E-02 
906	 6.73726477387843E-02 
907	 0.067414360269728 
908	 6.74354527480762E-02 
909	 6.74656587897653E-02 
910	 6.74891664589537E-02 
911	 6.75164075903066E-02 
912	 6.75812000932814E-02 
913	 6.76304726969088E-02 
914	 0.067670763091639 
915	 6.77035007794371E-02 
916	 6.77134467598421E-02 
917	 6.77624696354866E-02 
918	 6.78264844365763E-02 
919	 6.78843181239497E-02 
920	 6.79561775683869E-02 
921	 6.79889677670551E-02 
922	 6.80081947872452E-02 
923	 6.80546537379506E-02 
924	 6.81531483130983E-02 
925	 6.82278950957426E-02 
926	 6.82808276785974E-02 
927	 6.83376008062068E-02 
928	 6.84020318817928E-02 
929	 6.84919203189739E-02 
930	 6.85712112036437E-02 
931	 6.85957069737089E-02 
932	 6.85791846147579E-02 
933	 0.068651137312093 
934	 0.068769645149615 
935	 6.88184940326667E-02 
936	 6.88468128536794E-02 
937	 6.89371146986835E-02 
938	 6.90410194181835E-02 
939	 0.069059677579048 
940	 6.92220520942218E-02 
941	 0.069317265819856 
942	 6.93213318432142E-02 
943	 6.93928152645716E-02 
944	 6.95067190778531E-02 
945	 6.95728436820588E-02 
946	 6.96088272425686E-02 
947	 6.97318915578641E-02 
948	 6.97608416346327E-02 
949	 6.97922422046013E-02 
950	 6.98739497188266E-02 
951	 6.99454944540562E-02 
952	 7.00849742179949E-02 
953	 7.01999548435229E-02 
954	 7.02412758904667E-02 
955	 7.02697659166074E-02 
956	 7.03343662389796E-02 
957	 7.04383252193842E-02 
958	 7.05454013734876E-02 
959	 7.05811070040459E-02 
960	 7.06333056261134E-02 
961	 7.07203336100204E-02 
962	 7.08269195703745E-02 
963	 7.09110753254827E-02 
964	 7.09049142138273E-02 
965	 7.09084491239791E-02 
966	 7.09968103655043E-02 
967	 7.10844280493162E-02 
968	 7.11758583917138E-02 
969	 7.12432934901221E-02 
970	 0.071287661984081 
971	 7.13991210532107E-02 
972	 0.071426061195829 
973	 7.14571955935332E-02 
974	 7.15775500934239E-02 
975	 7.16499330150754E-02 
976	 0.071687356213737 
977	 7.17949106911531E-02 
978	 7.19821553961033E-02 
979	 7.18657567615621E-02 
980	 7.19646215916593E-02 
981	 7.21055984898439E-02 
982	 7.20390833862743E-02 
983	 0.072071062993671 
984	 7.20999130380296E-02 
985	 7.22098256454167E-02 
986	 7.24390585570004E-02 
987	 7.24896207387396E-02 
988	 7.25214286835398E-02 
989	 7.25633539170054E-02 
990	 7.26023611976949E-02 
991	 0.07264994968494 
992	 7.26774384085696E-02 
993	 7.26905936669192E-02 
994	 7.27182214106189E-02 
995	 7.28124544762433E-02 
996	 7.29432964943591E-02 
997	 7.30494509789101E-02 
998	 7.30871639489731E-02 
999	 7.30864694132115E-02 
1000	 7.32678401194001E-02 
1001	 7.36304934951782E-02 
1002	 0.073679638524094 
1003	 7.37347207023737E-02 
1004	 0.073765242987845 
1005	 0.073753113629768 
1006	 7.37917175652623E-02 
1007	 7.38469764093142E-02 
1008	 7.38942312778855E-02 
1009	 7.39635833326582E-02 
1010	 7.40117412954723E-02 
1011	 7.40361493770928E-02 
1012	 7.40804376767975E-02 
1013	 7.41441221386997E-02 
1014	 7.41849433828319E-02 
1015	 7.42242996607649E-02 
1016	 7.42565884117307E-02 
1017	 7.42725755614759E-02 
1018	 7.42676374077046E-02 
1019	 0.074291022550551 
1020	 7.43241137790564E-02 
1021	 7.43607723372477E-02 
1022	 7.44178680722034E-02 
1023	 7.44621656377115E-02 
1024	 7.44994345868639E-02 
1025	 7.45323515342793E-02 
1026	 7.45647116470146E-02 
1027	 7.45899491548362E-02 
1028	 7.45938967085115E-02 
1029	 7.46319554101477E-02 
1030	 7.47024168045212E-02 
1031	 7.47442541490815E-02 
1032	 0.074753215729158 
1033	 7.47927675558922E-02 
1034	 0.074804602492397 
1035	 7.47864777928438E-02 
1036	 0.074791431997176 
1037	 0.074808884022618 
1038	 7.48338600075148E-02 
1039	 7.48764757770154E-02 
1040	 7.48958523735277E-02 
1041	 7.49190606166113E-02 
1042	 7.49330490554095E-02 
1043	 7.49252891282475E-02 
1044	 0.074913037910201 
1045	 7.49182779827368E-02 
1046	 7.49473576828824E-02 
1047	 7.49767316823211E-02 
1048	 7.50111231831282E-02 
1049	 7.50628782882317E-02 
1050	 0.075103715331678 
1051	 7.51350884060932E-02 
1052	 0.075175746193616 
1053	 7.52107307202257E-02 
1054	 7.52408593728295E-02 
1055	 7.52607273694593E-02 
1056	 0.0752728993645 
1057	 0.075296967665819 
1058	 7.53121630636039E-02 
1059	 7.53338105207095E-02 
1060	 7.53720306043117E-02 
1061	 7.54128252144187E-02 
1062	 7.54690904948399E-02 
1063	 7.55293159300291E-02 
1064	 7.55801129550152E-02 
1065	 7.56224090106334E-02 
1066	 7.56367669504994E-02 
1067	 7.56456062663251E-02 
1068	 7.56995202247841E-02 
1069	 0.075750893854346 
1070	 7.57836926202697E-02 
1071	 7.58040480932312E-02 
1072	 7.58475241156355E-02 
1073	 7.58840289268557E-02 
1074	 7.59091648098405E-02 
1075	 7.59503233930031E-02 
1076	 7.59953905107778E-02 
1077	 7.60320032042995E-02 
1078	 7.60831388834832E-02 
1079	 7.61776873247378E-02 
1080	 7.62544956259877E-02 
1081	 7.63028192125361E-02 
1082	 7.63616153513916E-02 
1083	 7.63887085304651E-02 
1084	 7.64193375920816E-02 
1085	 7.64662419453171E-02 
1086	 7.65056244189419E-02 
1087	 7.65349742056989E-02 
1088	 7.65875688673028E-02 
1089	 7.66453098447587E-02 
1090	 7.66950687025452E-02 
1091	 7.67640539816817E-02 
1092	 0.076814641321046 
1093	 7.68582301384526E-02 
1094	 7.69325162215777E-02 
1095	 7.69878578956676E-02 
1096	 7.70288798007108E-02 
1097	 7.70731243743082E-02 
1098	 7.71117672102342E-02 
1099	 7.71545012269172E-02 
1100	 7.72232301800947E-02 
1101	 7.73291438526668E-02 
1102	 7.74117687037421E-02 
1103	 7.74804568580412E-02 
1104	 0.077546241466486 
1105	 7.76080747290562E-02 
1106	 7.76480814923665E-02 
1107	 7.77064090050154E-02 
1108	 7.77746167610345E-02 
1109	 7.78456109820398E-02 
1110	 0.077900366726925 
1111	 7.79417617097457E-02 
1112	 7.79933660294808E-02 
1113	 7.80541495686323E-02 
1114	 7.81265922115937E-02 
1115	 7.82069014165119E-02 
1116	 7.82959948183206E-02 
1117	 7.83797069317366E-02 
1118	 0.078465500227831 
1119	 7.85588334147836E-02 
1120	 7.86412506454948E-02 
1121	 7.87181643654347E-02 
1122	 7.88006293906504E-02 
1123	 7.88592374424464E-02 
1124	 0.07893014216847 
1125	 7.90235950905359E-02 
1126	 7.90987351635016E-02 
1127	 7.91924616971857E-02 
1128	 7.92839531720401E-02 
1129	 7.93601024056744E-02 
1130	 7.94596212018284E-02 
1131	 7.95567532876338E-02 
1132	 7.96418987979517E-02 
1133	 7.97224262552048E-02 
1134	 7.97911718074697E-02 
1135	 7.98766083030974E-02 
1136	 7.99706145122699E-02 
1137	 0.080063867948365 
1138	 8.01722360611963E-02 
1139	 8.02723749185075E-02 
1140	 8.03665995925814E-02 
1141	 8.04538485851131E-02 
1142	 8.05593919258311E-02 
1143	 0.080653500881305 
1144	 8.07515153997167E-02 
1145	 8.08616624336544E-02 
1146	 8.09520733104197E-02 
1147	 8.10492367802972E-02 
1148	 8.11471793898159E-02 
1149	 8.12443772865921E-02 
1150	 8.13729815427249E-02 
1151	 8.14951881760623E-02 
1152	 8.16062290610134E-02 
1153	 8.17159216695833E-02 
1154	 8.18268419810256E-02 
1155	 8.19195532514382E-02 
1156	 0.082027917754335 
1157	 0.082151831960075 
1158	 8.22625178568689E-02 
1159	 8.23631096564695E-02 
1160	 8.24794667713902E-02 
1161	 8.26014258262313E-02 
1162	 8.27304699972433E-02 
1163	 8.28633226671533E-02 
1164	 8.30096602100352E-02 
1165	 8.31411979108981E-02 
1166	 8.32534811569482E-02 
1167	 8.33746734674812E-02 
1168	 8.34871224245823E-02 
1169	 8.36095128085012E-02 
1170	 8.37345400320983E-02 
1171	 8.38704691687667E-02 
1172	 8.40216056129629E-02 
1173	 8.41575807668797E-02 
1174	 8.42861563344056E-02 
1175	 8.44240830999003E-02 
1176	 8.45634079662668E-02 
1177	 8.46971515168492E-02 
1178	 8.48267672576917E-02 
1179	 8.49786561062956E-02 
1180	 8.51188267470083E-02 
1181	 8.52514034439414E-02 
1182	 8.54017043464463E-02 
1183	 8.55476782361525E-02 
1184	 8.56886109682317E-02 
1185	 8.58340928984574E-02 
1186	 8.59839767993955E-02 
1187	 8.61457478117669E-02 
1188	 8.62938041186436E-02 
1189	 8.64275310933545E-02 
1190	 8.65860222404508E-02 
1191	 8.67522186030217E-02 
1192	 8.69152771026227E-02 
1193	 0.087098389690857 
1194	 8.72689084773276E-02 
1195	 8.74208086215141E-02 
1196	 8.75847433581831E-02 
1197	 8.77492559343062E-02 
1198	 8.79279399000164E-02 
1199	 8.81008834853279E-02 
1200	 8.82883043476636E-02 
1201	 8.84807027914345E-02 
1202	 8.86514031195166E-02 
1203	 8.88274325295028E-02 
1204	 8.90290896064854E-02 
1205	 8.92319557895943E-02 
1206	 8.94454827455065E-02 
1207	 8.96578885002715E-02 
1208	 8.98802510354793E-02 
1209	 9.00923153603338E-02 
1210	 9.02933356633003E-02 
1211	 0.090511749071825 
1212	 9.07432308402754E-02 
1213	 9.09657146049032E-02 
1214	 9.11819493410401E-02 
1215	 9.14181577977588E-02 
1216	 9.16640636078928E-02 
1217	 9.19018074647443E-02 
1218	 9.21536490883194E-02 
1219	 9.23995225312202E-02 
1220	 9.26334620722336E-02 
1221	 9.28863248808572E-02 
1222	 9.31411531849587E-02 
1223	 9.34103794005111E-02 
1224	 9.36779686862753E-02 
1225	 9.39534161043847E-02 
1226	 9.42071370549872E-02 
1227	 9.44508476200423E-02 
1228	 9.47078607954292E-02 
1229	 9.49567883156752E-02 
1230	 9.52106725313552E-02 
1231	 9.54849639995589E-02 
1232	 9.57454194345674E-02 
1233	 9.59817833178952E-02 
1234	 9.62389443990733E-02 
1235	 9.65134292490143E-02 
1236	 9.67762996658292E-02 
1237	 9.70482001271739E-02 
1238	 9.73086135466203E-02 
1239	 0.097553564046014 
1240	 9.77960420095269E-02 
1241	 9.80646348405236E-02 
1242	 9.83179128422791E-02 
1243	 9.85728377792355E-02 
1244	 0.098833600778714 
1245	 9.90939906103931E-02 
1246	 9.93505608780837E-02 
1247	 9.96024735202547E-02 
1248	 9.98580104839861E-02 
1249	 0.10011395307522 
1250	 0.100352652736631 
1251	 0.100610250289054 
1252	 0.100886433646059 
1253	 0.101155387865864 
1254	 0.101433017633442 
1255	 0.101699738440237 
1256	 0.10196702631472 
1257	 0.102225055867095 
1258	 0.102464529743098 
1259	 0.102714331199675 
1260	 0.102958022269348 
1261	 0.103211613280593 
1262	 0.103465922056756 
1263	 0.103746220766675 
1264	 0.104010435614184 
1265	 0.104275515009994 
1266	 0.104546308164856 
1267	 0.104817833081212 
1268	 0.105084640954853 
1269	 0.105354457360308 
1270	 0.105624267667378 
1271	 0.105889227555526 
1272	 0.106154738670829 
1273	 0.106412041549115 
1274	 0.106694437676998 
1275	 0.106984647634233 
1276	 0.107276418149136 
1277	 0.107602093262851 
1278	 0.107898530916873 
1279	 0.108165616552449 
1280	 0.108452632161215 
1281	 0.108739258635331 
1282	 0.109028048571896 
1283	 0.109331447194007 
1284	 0.109625988612027 
1285	 0.10991636189576 
1286	 0.110195080524101 
1287	 0.110492261106936 
1288	 0.110795418317462 
1289	 0.111094122583468 
1290	 0.111398627399188 
1291	 0.111701341399636 
1292	 0.111995996140039 
1293	 0.112300002294769 
1294	 0.112610694022839 
1295	 0.112921620059775 
1296	 0.113239256845792 
1297	 0.113546522441369 
1298	 0.113851810456123 
1299	 0.114155372697287 
1300	 0.11445056832831 
1301	 0.114747453253905 
1302	 0.115039040952324 
1303	 0.1153411758789 
1304	 0.115650278544738 
1305	 0.115954041692787 
1306	 0.116257504014256 
1307	 0.116568484430016 
1308	 0.116875895911344 
1309	 0.117191213071511 
1310	 0.117501519727204 
1311	 0.117819723895794 
1312	 0.118133498438681 
1313	 0.118437444537965 
1314	 0.118753008439146 
1315	 0.119080116082487 
1316	 0.119395530155262 
1317	 0.119712570271265 
1318	 0.120019136268081 
1319	 0.120307604520824 
1320	 0.120617505824724 
1321	 0.120940052588052 
1322	 0.121244226464885 
1323	 0.121545986407323 
1324	 0.121854293204771 
1325	 0.122155332783014 
1326	 0.122453334548202 
1327	 0.122762174362064 
1328	 0.123063932826664 
1329	 0.123346059736729 
1330	 0.123638472621231 
1331	 0.123937988896435 
1332	 0.124238196712826 
1333	 0.12453030751677 
1334	 0.124844344109674 
1335	 0.125145654506383 
1336	 0.125449688651728 
1337	 0.125748166028767 
1338	 0.126046299044993 
1339	 0.126332063511648 
1340	 0.126605186684539 
1341	 0.126894820071552 
1342	 0.127185374264509 
1343	 0.127471728529164 
1344	 0.127770573881772 
1345	 0.128056279079894 
1346	 0.128330065331519 
1347	 0.128602382606821 
1348	 0.128869958174822 
1349	 0.129142540662267 
1350	 0.129419062970991 
1351	 0.129683135156256 
1352	 0.129937375376649 
1353	 0.130205652519857 
1354	 0.130476579775626 
1355	 0.130737116039591 
1356	 0.13100098619721 
1357	 0.131270074487907 
1358	 0.131528727506931 
1359	 0.131792190905873 
1360	 0.132070243888942 
1361	 0.132343881159433 
1362	 0.132625030082503 
1363	 0.132877206446709 
1364	 0.133137320559443 
1365	 0.133397447881047 
1366	 0.133654940130657 
1367	 0.1339063622619 
1368	 0.134156216330475 
1369	 0.134407625570412 
1370	 0.134652949717151 
1371	 0.134894135224289 
1372	 0.135126111244265 
1373	 0.135369218307365 
1374	 0.135571551562475 
1375	 0.135742678001587 
1376	 0.135923834722522 
1377	 0.136092882444272 
1378	 0.136250581096181 
1379	 0.136414594842942 
1380	 0.136555575397282 
1381	 0.136679758371984 
1382	 0.136783660127302 
1383	 0.136894324985051 
1384	 0.136951162718548 
1385	 0.136970864748084 
1386	 0.136959937744035 
1387	 0.136886937439194 
1388	 0.136825358545776 
1389	 0.136725046284375 
1390	 0.136654403739126 
1391	 0.136587486660533 
1392	 0.136533724523085 
1393	 0.13652132749709 
1394	 0.13653059966437 
1395	 0.136584649938287 
1396	 0.136687434750059 
1397	 0.136785779131062 
1398	 0.136923698375487 
1399	 0.137032835207983 
1400	 0.13714737498185 
1401	 0.13724023901177 
1402	 0.137331858753345 
1403	 0.137390865581935 
1404	 0.137428046188915 
1405	 0.137452104206936 
1406	 0.137438397607861 
1407	 0.137447179602168 
1408	 0.137451065674101 
1409	 0.137461274267926 
1410	 0.137467117645836 
1411	 0.137498370029689 
1412	 0.137524193372141 
1413	 0.137590745353036 
1414	 0.137686973108847 
1415	 0.137805802837187 
1416	 0.137950767641689 
1417	 0.138119748712617 
1418	 0.138318616636332 
1419	 0.138531216758521 
1420	 0.13877443088831 
1421	 0.139018207429369 
1422	 0.139273952176375 
1423	 0.139537462561691 
1424	 0.139797275608729 
1425	 0.140091167966388 
1426	 0.140377596139574 
1427	 0.140672109584588 
1428	 0.140986519026723 
1429	 0.141275727280422 
1430	 0.141576442804171 
1431	 0.141884211063093 
1432	 0.142184419517849 
1433	 0.142479562502864 
1434	 0.142780560620572 
1435	 0.143080872965975 
1436	 0.14338804538839 
1437	 0.143696375892112 
1438	 0.144010583535716 
1439	 0.144329237454035 
1440	 0.144653428790852 
1441	 0.144976560845655 
1442	 0.145323622791335 
1443	 0.145680296666913 
1444	 0.146055705734031 
1445	 0.146455363342304 
1446	 0.146855278305583 
1447	 0.14724934878038 
1448	 0.147685548350331 
1449	 0.148153712529034 
1450	 0.1486212968541 
1451	 0.149125413104135 
1452	 0.149616447588232 
1453	 0.150092684379364 
1454	 0.150585809252315 
1455	 0.151105547904477 
1456	 0.151602807089979 
1457	 0.152103050791519 
1458	 0.152589930388908 
1459	 0.153042950106815 
1460	 0.153519927422172 
1461	 0.154008327638773 
1462	 0.154487904352397 
1463	 0.154980431460794 
1464	 0.15546150145639 
1465	 0.155912942869903 
1466	 0.156399989912661 
1467	 0.156859786724472 
1468	 0.157317628975889 
1469	 0.157793334093318 
1470	 0.158240953786304 
1471	 0.158711862147728 
1472	 0.159197814216345 
1473	 0.159671034490337 
1474	 0.16014910173057 
1475	 0.160611189450848 
1476	 0.161062474978839 
1477	 0.161516608254155 
1478	 0.161967882879993 
1479	 0.162402112557068 
1480	 0.162828871271164 
1481	 0.163255071901024 
1482	 0.163666114864266 
1483	 0.164083316509474 
1484	 0.164506072593436 
1485	 0.164923701408 
1486	 0.165335320372347 
1487	 0.165744452321334 
1488	 0.166146092514434 
1489	 0.166563251982535 
1490	 0.166983122892396 
1491	 0.167405741670332 
1492	 0.167838895376928 
1493	 0.168275370496163 
1494	 0.16871409531294 
1495	 0.169149392983121 
1496	 0.169586734816889 
1497	 0.170031725852667 
1498	 0.170480051299948 
1499	 0.170924033374926 
1500	 0.171379987351021 
1501	 0.171824455181494 
1502	 0.172251493641544 
1503	 0.172685263703858 
1504	 0.173124291324196 
1505	 0.173557666648345 
1506	 0.173994297804876 
1507	 0.174420516404884 
1508	 0.174834290720036 
1509	 0.175250697825005 
1510	 0.175677041294983 
1511	 0.176075569394507 
1512	 0.17645145979736 
1513	 0.176836388098271 
1514	 0.177205104915352 
1515	 0.177576066802848 
1516	 0.177959569628949 
1517	 0.178336887753519 
1518	 0.178710488565825 
1519	 0.179071075429363 
1520	 0.17941804075342 
1521	 0.179772008383958 
1522	 0.180127307026311 
1523	 0.180485585323498 
1524	 0.180824893736481 
1525	 0.181166540944076 
1526	 0.181506770558046 
1527	 0.181826255353248 
1528	 0.182157002576198 
1529	 0.182502583114827 
1530	 0.182838449419489 
1531	 0.183166337918214 
1532	 0.183489101114678 
1533	 0.183811311148991 
1534	 0.184139416706614 
1535	 0.184451690294533 
1536	 0.184788989899991 
1537	 0.185148851758617 
1538	 0.185498289369352 
1539	 0.185851463405313 
1540	 0.186203783277284 
1541	 0.186553486679833 
1542	 0.186912206630262 
1543	 0.187273149244022 
1544	 0.187640381926701 
1545	 0.188019729181555 
1546	 0.188389268562096 
1547	 0.188754022338973 
1548	 0.189130069666654 
1549	 0.189503603097636 
1550	 0.189889770306694 
1551	 0.190296978752687 
1552	 0.190685732542178 
1553	 0.191071630706774 
1554	 0.191456758878663 
1555	 0.191832024009157 
1556	 0.192215044957106 
1557	 0.192598317182234 
1558	 0.192991061081635 
1559	 0.193394164550232 
1560	 0.193787600119846 
1561	 0.194182816265294 
1562	 0.194579343875246 
1563	 0.194979852773631 
1564	 0.195360551146181 
1565	 0.195721628947066 
1566	 0.196111373635774 
1567	 0.196500066388724 
1568	 0.196890610411091 
1569	 0.197311216569103 
1570	 0.197713632534378 
1571	 0.19809829938455 
1572	 0.198485403006952 
1573	 0.198875675022897 
1574	 0.199263185970543 
1575	 0.199648198972094 
1576	 0.200023649687951 
1577	 0.200387560959262 
1578	 0.200766693597671 
1579	 0.201143696415478 
1580	 0.201521791662473 
1581	 0.201914177154718 
1582	 0.202301967567947 
1583	 0.202680150034847 
1584	 0.203065904808072 
1585	 0.20345930428617 
1586	 0.203853288712077 
1587	 0.204256769200287 
1588	 0.20464295514027 
1589	 0.205019578537379 
1590	 0.205401152712815 
1591	 0.205773354902989 
1592	 0.206147511334242 
1593	 0.20652582631394 
1594	 0.206907708397647 
1595	 0.20728808614757 
1596	 0.207666734191078 
1597	 0.208052845105031 
1598	 0.208433069340616 
1599	 0.208804620449236 
1600	 0.209180352452813 
1601	 0.209560388525176 
1602	 0.209935972850119 
1603	 0.210313213946169 
1604	 0.210680133262247 
1605	 0.211031950415078 
1606	 0.211397482955929 
1607	 0.211768674968821 
1608	 0.212133326284263 
1609	 0.212510928788948 
1610	 0.212870469838727 
1611	 0.213212321335454 
1612	 0.213552066790919 
1613	 0.21387839821819 
1614	 0.214212221105731 
1615	 0.214546073715147 
1616	 0.214880794865231 
1617	 0.215222198708254 
1618	 0.215557680237431 
1619	 0.215898333942292 
1620	 0.216218386596372 
1621	 0.216522796535506 
1622	 0.21682958052439 
1623	 0.21712171545417 
1624	 0.217416695681336 
1625	 0.217709866684097 
1626	 0.218009986513159 
1627	 0.218317428580382 
1628	 0.218613712571709 
1629	 0.218909732753364 
1630	 0.219204438730926 
1631	 0.219484214642499 
1632	 0.219774034327123 
1633	 0.220072565977166 
1634	 0.220373121672867 
1635	 0.220675925361956 
1636	 0.220976661182365 
1637	 0.221278181313965 
1638	 0.221582898185539 
1639	 0.221897408475523 
1640	 0.222198467473321 
1641	 0.222502598241546 
1642	 0.222791406945776 
1643	 0.223058030750198 
1644	 0.22332493412732 
1645	 0.223587652310518 
1646	 0.223844157585556 
1647	 0.224101427006113 
1648	 0.224345779429726 
1649	 0.224586907567861 
1650	 0.224804232988539 
1651	 0.224997952875013 
1652	 0.225187573766771 
1653	 0.225355331314763 
1654	 0.225526488967041 
1655	 0.225708109819746 
1656	 0.225865115582784 
1657	 0.226023556256546 
1658	 0.226144332463755 
1659	 0.226232478480557 
1660	 0.226301273153022 
1661	 0.226343688701609 
1662	 0.226363610195875 
1663	 0.226372823851701 
1664	 0.22634132255451 
1665	 0.226269874891802 
1666	 0.226179625070413 
1667	 0.226069520422327 
1668	 0.225912885291703 
1669	 0.225730145717324 
1670	 0.225505523228983 
1671	 0.225218728578864 
1672	 0.224922470857284 
1673	 0.224607780305108 
1674	 0.224251665803562 
1675	 0.223870940729398 
1676	 0.223455589537251 
1677	 0.223008830983512 
1678	 0.222511165441279 
1679	 0.221955737978597 
1680	 0.221391904329463 
1681	 0.220785809172402 
1682	 0.220162395444434 
1683	 0.219545829279409 
1684	 0.218872063547206 
1685	 0.218151255288779 
1686	 0.217406742459254 
1687	 0.216616420698598 
1688	 0.215800237244566 
1689	 0.214951405591622 
1690	 0.21407696585962 
1691	 0.213174057371303 
1692	 0.212267535540013 
1693	 0.211351657448698 
1694	 0.210398399231735 
1695	 0.209413299966276 
1696	 0.208404981891159 
1697	 0.207353385720353 
1698	 0.206297185049721 
1699	 0.205215895593832 
1700	 0.204182368397805 
1701	 0.203139548115376 
1702	 0.202143860747133 
1703	 0.201166218951126 
1704	 0.200248724609066 
1705	 0.1993499264522 
1706	 0.198541014596398 
1707	 0.197842151801445 
1708	 0.197205496458422 
1709	 0.19663253365539 
1710	 0.196116284034842 
1711	 0.195625537178188 
1712	 0.195184268756655 
1713	 0.194752415950296 
1714	 0.194337102720956 
1715	 0.193979666147905 
1716	 0.193613886758721 
1717	 0.193265969322434 
1718	 0.192978522342995 
1719	 0.192708926277509 
1720	 0.192492929505759 
1721	 0.192357059474081 
1722	 0.19225940862974 
1723	 0.192218843988948 
1724	 0.192252823712097 
1725	 0.192365309527907 
1726	 0.192608131759984 
1727	 0.192968380382775 
1728	 0.193402612947809 
1729	 0.193946517914151 
1730	 0.19458577141305 
1731	 0.195243414265388 
1732	 0.195988736251183 
1733	 0.196745985221934 
1734	 0.197458655854475 
1735	 0.198194482099785 
1736	 0.198879920222512 
1737	 0.199516632560909 
1738	 0.200072006324326 
1739	 0.20052558038005 
1740	 0.200871143285814 
1741	 0.201168585843878 
1742	 0.201385031487934 
1743	 0.201563518724899 
1744	 0.201664818808015 
1745	 0.2017635229327 
1746	 0.201803144507852 
1747	 0.201860156319087 
1748	 0.201889892740586 
1749	 0.201970463926214 
1750	 0.20205059198969 
1751	 0.202200487313302 
1752	 0.202395013801298 
1753	 0.202647583592522 
1754	 0.202941610415755 
1755	 0.203310380600676 
1756	 0.203739645411856 
1757	 0.204227499027416 
1758	 0.204804945747049 
1759	 0.20539883918502 
1760	 0.206095528530836 
1761	 0.206880134765786 
1762	 0.207659498852055 
1763	 0.208538280762993 
1764	 0.209453027421744 
1765	 0.210402906389763 
1766	 0.211476592082969 
1767	 0.212528846290404 
1768	 0.213599220094974 
1769	 0.214672114084104 
1770	 0.215639610492933 
1771	 0.216623978323744 
1772	 0.217579972119162 
1773	 0.218453248482993 
1774	 0.219323170262283 
1775	 0.22012280202218 
1776	 0.220863238367498 
1777	 0.221579390584767 
1778	 0.222225426110406 
1779	 0.222846917606392 
1780	 0.223448928907865 
1781	 0.224000407755873 
1782	 0.224549765857298 
1783	 0.225073573734143 
1784	 0.225548894628758 
1785	 0.22598556947442 
1786	 0.226410194186041 
1787	 0.226790845363457 
1788	 0.227172124282851 
1789	 0.227558004993585 
1790	 0.227920217300775 
1791	 0.228256998773466 
1792	 0.228611168972588 
1793	 0.228946292870793 
1794	 0.22928167365912 
1795	 0.229616660081104 
1796	 0.229879293720825 
1797	 0.230197950597297 
1798	 0.230547022070363 
1799	 0.230866735589008 
1800	 0.231237538945261 
1801	 0.22990174410659 
1802	 0.230253678538698 
1803	 0.23061993033024 
1804	 0.230989095510253 
1805	 0.231382213939681 
1806	 0.231746941711265 
1807	 0.232124929921628 
1808	 0.232477243834421 
1809	 0.232792660187592 
1810	 0.233129367130042 
1811	 0.233468706744104 
1812	 0.233810814896888 
1813	 0.234146980269307 
1814	 0.234513663745892 
1815	 0.234870651436226 
1816	 0.235220364236617 
1817	 0.235583312670018 
1818	 0.235952897126967 
1819	 0.236319174074721 
1820	 0.236688037805005 
1821	 0.237063139670077 
1822	 0.237434342154453 
1823	 0.237831661450873 
1824	 0.238198622775691 
1825	 0.238570006686475 
1826	 0.238935371107485 
1827	 0.239280210627163 
1828	 0.239627095057237 
1829	 0.239975698014847 
1830	 0.240328549939563 
1831	 0.240670375757106 
1832	 0.241039556215863 
1833	 0.241382469667103 
1834	 0.241730661699194 
1835	 0.242086580748848 
1836	 0.242407372815854 
1837	 0.242747897747373 
1838	 0.243101822083143 
1839	 0.243449144319324 
1840	 0.243793090397946 
1841	 0.244143821368951 
1842	 0.244501074142239 
1843	 0.244860452339084 
1844	 0.245215165633038 
1845	 0.245514917663537 
1846	 0.245812787670575 
1847	 0.246108292473022 
1848	 0.246394085616207 
1849	 0.246686234036641 
1850	 0.246950748153268 
1851	 0.247210606529231 
1852	 0.24743521615 
1853	 0.247621738034761 
1854	 0.247764450727419 
1855	 0.247871451014353 
1856	 0.247961747872019 
1857	 0.248058019947572 
1858	 0.248139410371247 
1859	 0.248183102740409 
1860	 0.24822128749947 
1861	 0.248209079264448 
1862	 0.248152706777672 
1863	 0.248065511795636 
1864	 0.247964103320533 
1865	 0.247826869150267 
1866	 0.247636103009605 
1867	 0.247396905811835 
1868	 0.247127858175209 
1869	 0.246816447314934 
1870	 0.246469131565583 
1871	 0.246102182904848 
1872	 0.245693476683222 
1873	 0.245247575456167 
1874	 0.244754736613716 
1875	 0.244242432281565 
1876	 0.243633597839805 
1877	 0.242996084494422 
1878	 0.242273032630137 
1879	 0.241441773817227 
1880	 0.240595526711256 
1881	 0.239612125048179 
1882	 0.238512618246659 
1883	 0.237335279230193 
1884	 0.236066312475732 
1885	 0.234602752891177 
1886	 0.233096983888161 
1887	 0.231439540664011 
1888	 0.229605537360117 
1889	 0.227786262045967 
1890	 0.22579391520476 
1891	 0.223748372998563 
1892	 0.221654364988349 
1893	 0.21943834747421 
1894	 0.217063681735431 
1895	 0.214730778054451 
1896	 0.212326386127589 
1897	 0.209864352438589 
1898	 0.207581514778955 
1899	 0.205241430903701 
1900	 0.202959895113983 
1901	 0.200821878865071 
1902	 0.198619271325018 
1903	 0.196576961117066 
1904	 0.194663942555716 
1905	 0.192832323902683 
1906	 0.19113696038234 
1907	 0.189717216391574 
1908	 0.188381152467611 
1909	 0.18718363329004 
1910	 0.186163427041494 
1911	 0.185190905456521 
1912	 0.184376055148979 
1913	 0.183693934118968 
1914	 0.183098860817561 
1915	 0.182625724213485 
1916	 0.182288481073661 
1917	 0.182035433179252 
1918	 0.181858737286775 
1919	 0.181775031235396 
1920	 0.181746086077029 
1921	 0.181764899472639 
1922	 0.181848834434268 
1923	 0.181982057770981 
1924	 0.182141750318827 
1925	 0.182328254188228 
1926	 0.182539202863851 
1927	 0.182768774749522 
1928	 0.183025719825165 
1929	 0.183321154275801 
1930	 0.183622587102832 
1931	 0.183937154488442 
1932	 0.18427231671757 
1933	 0.184597360807872 
1934	 0.184954067759509 
1935	 0.185332821834401 
1936	 0.185719214489349 
1937	 0.186131557911006 
1938	 0.186562622845472 
1939	 0.187016214228082 
1940	 0.187495623575872 
1941	 0.18799475932208 
1942	 0.188477557015733 
1943	 0.189008490104637 
1944	 0.189529569756654 
1945	 0.190039165200182 
1946	 0.190616796726314 
1947	 0.191181090986658 
1948	 0.191772076688335 
1949	 0.192405579038706 
1950	 0.193005660152919 
1951	 0.193594422211936 
1952	 0.194201260368219 
1953	 0.19479943427101 
1954	 0.195393773974216 
1955	 0.196057603633098 
1956	 0.196709874805074 
1957	 0.197381818559587 
1958	 0.198070767812394 
1959	 0.198700537705884 
1960	 0.199342084813805 
1961	 0.199964278047275 
1962	 0.200554822437998 
1963	 0.201157442205318 
1964	 0.201766048232884 
1965	 0.202346631429599 
1966	 0.202921212938077 
1967	 0.203486469190653 
1968	 0.20400516152188 
1969	 0.204543309004129 
1970	 0.205071712484299 
1971	 0.205597435441889 
1972	 0.206154205213654 
1973	 0.20668190081571 
1974	 0.207214870477313 
1975	 0.207756022360434 
1976	 0.208286875936559 
1977	 0.208807299587559 
1978	 0.209338575929513 
1979	 0.209875174615049 
1980	 0.210387956766265 
1981	 0.210950686909076 
1982	 0.211484116264145 
1983	 0.212022073840652 
1984	 0.212589484733241 
1985	 0.213104216466234 
1986	 0.213624425942963 
1987	 0.21415200312946 
1988	 0.214665514460827 
1989	 0.215206548165044 
1990	 0.215761905562772 
1991	 0.216323805268682 
1992	 0.216903245869812 
1993	 0.217500752898974 
1994	 0.218060754678159 
1995	 0.218644363312027 
1996	 0.219198004323193 
1997	 0.219714498784587 
1998	 0.220271221449454 
1999	 0.220850085707715 
2000	 0.221390948627225 
2001	 0.221959710084287 
2002	 0.222474121799163 
2003	 0.222932242158198 
2004	 0.223394473968884 
2005	 0.22384188879851 
2006	 0.224270489882806 
2007	 0.224688706740502 
2008	 0.225083009488284 
2009	 0.225460406694922 
2010	 0.225819347358747 
2011	 0.226130566652099 
2012	 0.226443607834054 
2013	 0.226729709759379 
2014	 0.226985109795391 
2015	 0.227226809020432 
2016	 0.227467826754447 
2017	 0.227658905634742 
2018	 0.227811760937263 
2019	 0.227949514986423 
2020	 0.228043838461219 
2021	 0.228136731255389 
2022	 0.22822239541709 
2023	 0.228299968889409 
2024	 0.22836205875464 
2025	 0.228387666074801 
2026	 0.228406871134238 
2027	 0.228403875494845 
2028	 0.228393305538981 
2029	 0.228376814405941 
2030	 0.228336923414818 
2031	 0.228258765553054 
2032	 0.228200426873821 
2033	 0.228132090763888 
2034	 0.228067193086667 
2035	 0.228009371605683 
2036	 0.227960959634383 
2037	 0.227891597987044 
2038	 0.22781639513293 
2039	 0.227751587860133 
2040	 0.227684720470008 
2041	 0.227631881885997 
2042	 0.227598804120693 
2043	 0.227544443914891 
2044	 0.227482073001761 
2045	 0.227428545456715 
2046	 0.22736853766043 
2047	 0.227312573155598 
2048	 0.227262172464438 
2049	 0.227219574232947 
2050	 0.227175398561455 
2051	 0.227136642384561 
2052	 0.227110425965041 
2053	 0.227091754546167 
2054	 0.227072270628133 
2055	 0.227062417551683 
2056	 0.227029663411088 
2057	 0.226991093256764 
2058	 0.226950630578595 
2059	 0.226881249203803 
2060	 0.226839031100026 
2061	 0.226814838873016 
2062	 0.226787704663816 
2063	 0.226772907950385 
2064	 0.226749739829128 
2065	 0.226731026807298 
2066	 0.226698050186544 
2067	 0.226651758886853 
2068	 0.226602899444626 
2069	 0.226557712754703 
2070	 0.226505951919733 
2071	 0.226455636437655 
2072	 0.226413585180865 
2073	 0.226360719869383 
2074	 0.226303428357283 
2075	 0.226236714576426 
2076	 0.226162575099373 
2077	 0.226086691690362 
2078	 0.225996863254777 
2079	 0.225913447695249 
2080	 0.225836652867389 
2081	 0.225751667584804 
2082	 0.225670732953448 
2083	 0.225576975302582 
2084	 0.225466368765531 
2085	 0.225356160431833 
2086	 0.225237157232351 
2087	 0.225097824055931 
2088	 0.224980012247807 
2089	 0.224872127966836 
2090	 0.224750941100226 
2091	 0.224638671212183 
2092	 0.224510536019536 
2093	 0.224372062560303 
2094	 0.224224234663357 
2095	 0.224058811120271 
2096	 0.22390039054828 
2097	 0.223741771692525 
2098	 0.223571154954902 
2099	 0.223409688042301 
2100	 0.223236850656014 
2101	 0.223024800020233 
2102	 0.222782401049335 
2103	 0.222537563746881 
2104	 0.222258445606985 
2105	 0.221994553203157 
2106	 0.221737017011073 
2107	 0.22145977842634 
2108	 0.221182643502656 
2109	 0.220879565604982 
2110	 0.22055167684407 
2111	 0.220220812997215 
2112	 0.219863480028314 
2113	 0.219515947499426 
2114	 0.219163472398367 
2115	 0.218815572326091 
2116	 0.218482028620005 
2117	 0.218132854526832 
2118	 0.21777232888378 
2119	 0.217397052813008 
2120	 0.217051121850234 
2121	 0.216683560367186 
2122	 0.216370773196575 
2123	 0.216101123758308 
2124	 0.215831817208576 
2125	 0.215585035118063 
2126	 0.215347313171765 
2127	 0.215118306479359 
2128	 0.214911415134104 
2129	 0.214709525376293 
2130	 0.214543823640409 
2131	 0.214408363770833 
2132	 0.214290169680756 
2133	 0.21419338026746 
2134	 0.214137173545395 
2135	 0.214086517761871 
2136	 0.214029078039329 
2137	 0.214000181773846 
2138	 0.213989176104291 
2139	 0.213985790730367 
2140	 0.213996209181737 
2141	 0.214027701594073 
2142	 0.214070461935278 
2143	 0.214131367221299 
2144	 0.214215539393791 
2145	 0.214312174686354 
2146	 0.214414373864203 
2147	 0.214547038404881 
2148	 0.214715225028699 
2149	 0.214882433573875 
2150	 0.215064392136404 
2151	 0.215259218418284 
2152	 0.215472414605763 
2153	 0.215681127897594 
2154	 0.215884023944277 
2155	 0.216111174269307 
2156	 0.216328378575004 
2157	 0.216541166963109 
2158	 0.216745995093785 
2159	 0.216961466202367 
2160	 0.217151462011105 
2161	 0.217323617623514 
2162	 0.217483710680747 
2163	 0.217638001265566 
2164	 0.217770471886237 
2165	 0.217879932488798 
2166	 0.217982918356289 
2167	 0.218059724194892 
2168	 0.21814864626144 
2169	 0.218232469902605 
2170	 0.218315026918967 
2171	 0.218407869191677 
2172	 0.218488805854569 
2173	 0.21855215282323 
2174	 0.218628045567819 
2175	 0.218708835700988 
2176	 0.218768170522767 
2177	 0.218825314046045 
2178	 0.218875002977783 
2179	 0.218934693730201 
2180	 0.218998614129771 
2181	 0.219038258271645 
2182	 0.219085740789856 
2183	 0.219104222254419 
2184	 0.219084319469584 
2185	 0.21907322589411 
2186	 0.219062177547677 
2187	 0.219032952430711 
2188	 0.219006069184805 
2189	 0.218939882440064 
2190	 0.218843628392781 
2191	 0.218738072127974 
2192	 0.218606370944044 
2193	 0.21846050026518 
2194	 0.218301382701823 
2195	 0.218130747082057 
2196	 0.21794556013299 
2197	 0.217724949247304 
2198	 0.217524342957886 
2199	 0.217328715201668 
2200	 0.217115113519101 
2201	 0.216911840914353 
2202	 0.216652300714641 
2203	 0.216364982939877 
2204	 0.216053268526531 
2205	 0.215683172856459 
2206	 0.215351417761924 
2207	 0.215015684055251 
2208	 0.214679866405832 
2209	 0.214352591234596 
2210	 0.214022714235444 
2211	 0.213701067316791 
2212	 0.213354749917626 
2213	 0.212994931634936 
2214	 0.21264094330178 
2215	 0.212274046185549 
2216	 0.211897516729216 
2217	 0.211561815577719 
2218	 0.211157210541654 
2219	 0.210707852474052 
2220	 0.210237305877375 
2221	 0.209732581108326 
2222	 0.209182522803899 
2223	 0.208635329079984 
2224	 0.208057326568867 
2225	 0.207437143247566 
2226	 0.206769550345 
2227	 0.20602165006663 
2228	 0.205218469621013 
2229	 0.204328333198333 
2230	 0.203342219308432 
2231	 0.202327161359629 
2232	 0.20124829480041 
2233	 0.200103887710175 
2234	 0.198937411486809 
2235	 0.197645245274038 
2236	 0.196250470273372 
2237	 0.194795425866847 
2238	 0.193199499739729 
2239	 0.191621814340203 
2240	 0.190024168158774 
2241	 0.188341693102244 
2242	 0.186637326264464 
2243	 0.18484442305046 
2244	 0.182927328337792 
2245	 0.181013211966066 
2246	 0.178991138775004 
2247	 0.177036203419523 
2248	 0.17510491409118 
2249	 0.173146044642469 
2250	 0.171210674104756 
2251	 0.169286490471454 
2252	 0.1671977790355 
2253	 0.165208095246561 
2254	 0.163194778360443 
2255	 0.161182505550052 
2256	 0.159393233424234 
2257	 0.157577860689613 
2258	 0.155841821243591 
2259	 0.15422828904235 
2260	 0.152562150791607 
2261	 0.150890036056615 
2262	 0.149288770700722 
2263	 0.147684247011277 
2264	 0.14618051401965 
2265	 0.144782193121427 
2266	 0.143349883294412 
2267	 0.141978300197141 
2268	 0.140577882202266 
2269	 0.139154412756428 
2270	 0.137777100577798 
2271	 0.136403909299976 
2272	 0.135070721171278 
2273	 0.133792056568375 
2274	 0.132485684279621 
2275	 0.13124280086408 
2276	 0.129915668823797 
2277	 0.128546167972038 
2278	 0.127161275679353 
2279	 0.125693294074875 
2280	 0.124251203810296 
2281	 0.122835123432891 
2282	 0.121361057121446 
2283	 0.119876285465281 
2284	 0.118376051070088 
2285	 0.116706682741621 
2286	 0.115072201358633 
2287	 0.113367095148143 
2288	 0.111622694717349 
2289	 0.11004241767887 
2290	 0.108416466814555 
2291	 0.106850244704256 
2292	 0.10538057602621 
2293	 0.103840628220063 
2294	 0.102400872760607 
2295	 0.101066043780155 
2296	 0.099855551366095 
2297	 0.098840804022971 
2298	 9.80205435485746E-02 
2299	 9.73100433231066E-02 
2300	 9.67534842211768E-02 
2301	 9.63596957440516E-02 
2302	 0.096102402072246 
2303	 9.60617760319198E-02 
2304	 9.62372473089466E-02 
2305	 9.65270940787634E-02 
2306	 9.70357168544295E-02 
2307	 9.76179104875052E-02 
2308	 9.83313755278058E-02 
2309	 9.91556900846027E-02 
2310	 0.100148536966991 
2311	 0.101135154217774 
2312	 0.102273723923781 
2313	 0.103345985693683 
2314	 0.104435239556099 
2315	 0.10551882329819 
2316	 0.106651464755535 
2317	 0.107642771951453 
2318	 0.10860275790501 
2319	 0.109443368100626 
2320	 0.110188821122715 
2321	 0.110815636552964 
2322	 0.111337467518275 
2323	 0.111759110270432 
2324	 0.112036352614764 
2325	 0.112221819890407 
2326	 0.112317351210648 
2327	 0.112314802930098 
2328	 0.112176848717956 
2329	 0.111974255031298 
2330	 0.111709529677673 
2331	 0.111288351231824 
2332	 0.110777352940801 
2333	 0.110161670310625 
2334	 0.109416867133925 
2335	 0.108636276910045 
2336	 0.10777630961961 
2337	 0.10688686142671 
2338	 0.106064728341074 
2339	 0.105191636673269 
2340	 0.104385817274343 
2341	 0.103661762781975 
2342	 0.102904346809874 
2343	 0.102317712554563 
2344	 0.10189367819338 
2345	 0.101593868238229 
2346	 0.101516326874065 
2347	 0.101608971319448 
2348	 0.101855068067172 
2349	 0.102382089683616 
2350	 0.10305016092222 
2351	 0.103805358571182 
2352	 0.104658023894631 
2353	 0.1055008866488 
2354	 0.106310795096357 
2355	 0.107128597946075 
2356	 0.107878593872672 
2357	 0.108469400130307 
2358	 0.109008542132479 
2359	 0.109459684906829 
2360	 0.109772229287339 
2361	 0.11003160233185 
2362	 0.110262401256097 
2363	 0.110332524271084 
2364	 0.110316588529432 
2365	 0.110317483027281 
2366	 0.110225330022315 
2367	 0.110113876013829 
2368	 0.110139640824423 
2369	 0.110201507732074 
2370	 0.110214764658586 
2371	 0.110292409662861 
2372	 0.110319100658025 
2373	 0.110282953406579 
2374	 0.110343752591279 
2375	 0.110451013944861 
2376	 0.110552149298576 
2377	 0.11062350851242 
2378	 0.11069045605508 
2379	 0.110717819455897 
2380	 0.110759179074948 
2381	 0.110883151137476 
2382	 0.110959632514346 
2383	 0.111025998680314 
2384	 0.111115314477755 
2385	 0.111171350471197 
2386	 0.11126744327593 
2387	 0.111427893572091 
2388	 0.111496874023733 
2389	 0.111563993559611 
2390	 0.111619040901689 
2391	 0.111602448099964 
2392	 0.111638137781351 
2393	 0.1116727082151 
2394	 0.111721567366394 
2395	 0.111795822879357 
2396	 0.111844662530055 
2397	 0.111901048524597 
2398	 0.111976126926953 
2399	 0.112055969271118 
2400	 0.112140606478982 
2401	 0.112233676433483 
2402	 0.112303825033631 
2403	 0.112338577566806 
2404	 0.112404985352616 
2405	 0.112539397317421 
2406	 0.112619112580697 
2407	 0.112678601248244 
2408	 0.112679475857436 
2409	 0.112699896423152 
2410	 0.112742308536583 
2411	 0.112747184991903 
2412	 0.112766430065303 
2413	 0.112766447389063 
2414	 0.112777518809908 
2415	 0.112787123535988 
2416	 0.112744550190619 
2417	 0.112701002093193 
2418	 0.112639176947555 
2419	 0.112481435148898 
2420	 0.112372661903815 
2421	 0.11238318178848 
2422	 0.112344159625667 
2423	 0.112366622520734 
2424	 0.112452062274424 
2425	 0.112390404186497 
2426	 0.112333413559135 
2427	 0.112290719213131 
2428	 0.11218740807903 
2429	 0.112156942696036 
2430	 0.112100014680751 
2431	 0.111973607675163 
2432	 0.111822510251625 
2433	 0.111623577514891 
2434	 0.111368797261137 
2435	 0.111138093382009 
2436	 0.111046043453561 
2437	 0.110962998136834 
2438	 0.110803930700607 
2439	 0.110672366139696 
2440	 0.110544369665284 
2441	 0.110368945878919 
2442	 0.110263870840327 
2443	 0.110153422065863 
2444	 0.109950107590307 
2445	 0.109720701177452 
2446	 0.109497040676911 
2447	 0.109207516343798 
2448	 0.10880341874418 
2449	 0.10840272841218 
2450	 0.108132009676305 
2451	 0.107946849420634 
2452	 0.107784159134664 
2453	 0.107689790334678 
2454	 0.107375451093171 
2455	 0.107058174096469 
2456	 0.106790107437782 
2457	 0.106369492293155 
2458	 0.106259293654473 
2459	 0.106170741417199 
2460	 0.105998081762411 
2461	 0.105854063260485 
2462	 0.105512928361453 
2463	 0.105148116134448 
2464	 0.104869848881848 
2465	 0.104802040454172 
2466	 0.104760287249885 
2467	 0.104505170724926 
2468	 0.10428509375583 
2469	 0.104064747719521 
2470	 0.103744182682627 
2471	 0.103687737506307 
2472	 0.103745584579816 
2473	 0.103687999769503 
2474	 0.103721934678114 
2475	 0.103588090238775 
2476	 0.103369232777781 
2477	 0.103273254821268 
2478	 0.103141686201463 
2479	 0.103114839267259 
2480	 0.103048671031215 
2481	 0.103032252033875 
2482	 0.103089902391836 
2483	 0.103168838316865 
2484	 0.10346206731541 
2485	 0.103618218371402 
2486	 0.103598570137006 
2487	 0.103720728076945 
2488	 0.103729349785293 
2489	 0.103694966978518 
2490	 0.103877449756697 
2491	 0.104216444857 
2492	 0.104293386660408 
2493	 0.104286282317057 
2494	 0.104644977394896 
2495	 0.104724547183012 
2496	 0.104910468070988 
2497	 0.105703782528685 
2498	 0.10597431178112 
2499	 0.106022981913007 
2500	 0.106563959536669 
