Wavelength	spectrum00003.asd
350	 6.55035969717968E-02 
351	 6.76101873324011E-02 
352	 6.61220735243352E-02 
353	 5.98329188153059E-02 
354	 5.89063176858981E-02 
355	 5.98749276490595E-02 
356	 6.01888945271054E-02 
357	 5.84104061625214E-02 
358	 5.53454099196953E-02 
359	 5.50345208996288E-02 
360	 5.64778498546995E-02 
361	 0.056238464904682 
362	 5.47752608748196E-02 
363	 5.23227508181545E-02 
364	 5.02720403698403E-02 
365	 5.14637090978122E-02 
366	 5.15577544562855E-02 
367	 5.05691715538901E-02 
368	 4.98154795394397E-02 
369	 5.12297662907068E-02 
370	 5.14353637612262E-02 
371	 5.03926957833468E-02 
372	 0.049967764555397 
373	 4.99320106005107E-02 
374	 5.02259773351742E-02 
375	 5.05846503234536E-02 
376	 5.04678234996476E-02 
377	 5.07022227358855E-02 
378	 5.06977579995827E-02 
379	 4.99854890115196E-02 
380	 4.96917613218699E-02 
381	 5.01993609214703E-02 
382	 5.04943685409419E-02 
383	 4.91984241012167E-02 
384	 4.98155501750847E-02 
385	 5.10266904839175E-02 
386	 5.12391147913219E-02 
387	 0.049247095588513 
388	 4.89530460870486E-02 
389	 4.91738066239176E-02 
390	 4.83095388433207E-02 
391	 4.88761944186653E-02 
392	 4.92540031039245E-02 
393	 4.91108340254047E-02 
394	 4.90922865261245E-02 
395	 5.00696337292873E-02 
396	 0.050204368131341 
397	 4.92363315867921E-02 
398	 5.00728850398579E-02 
399	 5.03893598987915E-02 
400	 0.050203922658773 
401	 5.00993052735278E-02 
402	 4.98990940770288E-02 
403	 5.04024273114861E-02 
404	 5.13812319496097E-02 
405	 5.18694029602523E-02 
406	 0.051905636814644 
407	 0.051976735494639 
408	 5.22608518534603E-02 
409	 5.21872954899656E-02 
410	 5.22056200581493E-02 
411	 5.26165893966829E-02 
412	 5.34736346242636E-02 
413	 5.40424633898525E-02 
414	 5.39362156637759E-02 
415	 5.37477100016339E-02 
416	 5.47888764725853E-02 
417	 5.53639017889299E-02 
418	 5.56313773498064E-02 
419	 5.60310643171094E-02 
420	 5.68713448421661E-02 
421	 5.75956403665488E-02 
422	 5.82463263113134E-02 
423	 5.90441635419018E-02 
424	 0.059554494783914 
425	 6.02910987634857E-02 
426	 6.12614735052029E-02 
427	 0.0618304099434 
428	 6.24000624266311E-02 
429	 6.32844577037197E-02 
430	 6.45041159072758E-02 
431	 6.52826262658658E-02 
432	 6.61921467897785E-02 
433	 6.72281098252925E-02 
434	 6.81087697219475E-02 
435	 6.92543687697507E-02 
436	 7.03962820927743E-02 
437	 7.14090613037054E-02 
438	 7.24952743212008E-02 
439	 0.073783917232473 
440	 7.50645785446443E-02 
441	 7.61754712354875E-02 
442	 7.76134096788186E-02 
443	 7.90979947777475E-02 
444	 8.04961527048685E-02 
445	 0.081829293964432 
446	 8.32294844621038E-02 
447	 8.46771512378667E-02 
448	 8.61740223976195E-02 
449	 8.78446757696338E-02 
450	 8.94922927171855E-02 
451	 9.11225860985925E-02 
452	 9.28233423611609E-02 
453	 9.46284968617339E-02 
454	 9.66084920249554E-02 
455	 9.86191354211075E-02 
456	 0.100305676458131 
457	 0.102177631237808 
458	 0.104170344391187 
459	 0.106156959044898 
460	 0.108235555092386 
461	 0.110231357624112 
462	 0.112276209540747 
463	 0.114616399606173 
464	 0.11688116518089 
465	 0.119175268133293 
466	 0.121488768458688 
467	 0.12354337011691 
468	 0.125809500143736 
469	 0.128241648698123 
470	 0.130691555997297 
471	 0.133308286492503 
472	 0.135660806849003 
473	 0.137907974347632 
474	 0.140633582593457 
475	 0.143216214197771 
476	 0.145713892222967 
477	 0.148246929947602 
478	 0.150810590093431 
479	 0.153475818452457 
480	 0.15619650627902 
481	 0.158884935239884 
482	 0.161525057276031 
483	 0.164244878500278 
484	 0.16703135988819 
485	 0.169696916120956 
486	 0.17246114539877 
487	 0.175215569303728 
488	 0.177863138870403 
489	 0.180593887072407 
490	 0.183271023544354 
491	 0.185979525759987 
492	 0.188874196459106 
493	 0.19141916054041 
494	 0.193937430198801 
495	 0.196651033319259 
496	 0.199450046656624 
497	 0.202073851521519 
498	 0.204656356335369 
499	 0.207372755881637 
500	 0.20996749855946 
501	 0.212483995545255 
502	 0.214981279241267 
503	 0.217518054467898 
504	 0.220110685161739 
505	 0.222655351187196 
506	 0.225091154941351 
507	 0.227501765891002 
508	 0.229922801631816 
509	 0.232313580522163 
510	 0.234618362225385 
511	 0.236986355098698 
512	 0.23931621446465 
513	 0.241564507941216 
514	 0.243800422459452 
515	 0.245966171400284 
516	 0.248096675142051 
517	 0.250235193128226 
518	 0.252384279403186 
519	 0.254417385788248 
520	 0.256397780807801 
521	 0.258499131084227 
522	 0.260550412014641 
523	 0.262537180012168 
524	 0.264467971924371 
525	 0.266344363089708 
526	 0.268283372771839 
527	 0.270235437216317 
528	 0.272110720917222 
529	 0.273975832061034 
530	 0.27581024441859 
531	 0.277621482960555 
532	 0.279446557491015 
533	 0.281275945074936 
534	 0.283076287926891 
535	 0.28483891831619 
536	 0.286656576842526 
537	 0.28844550726306 
538	 0.290188336274735 
539	 0.29190337498356 
540	 0.293519538744562 
541	 0.295185451286552 
542	 0.296931233125619 
543	 0.298560825917417 
544	 0.300097812308911 
545	 0.301582262754959 
546	 0.303054986674528 
547	 0.304511392547658 
548	 0.305928556355684 
549	 0.307287510749249 
550	 0.308578478510566 
551	 0.309897756262812 
552	 0.311231286755569 
553	 0.312552967797382 
554	 0.313867336086973 
555	 0.315124787340922 
556	 0.316342489049286 
557	 0.317570616981316 
558	 0.318845844814487 
559	 0.320068186642107 
560	 0.321225587297702 
561	 0.322443971744994 
562	 0.32370865108873 
563	 0.324958342130782 
564	 0.326133853480769 
565	 0.327245122315572 
566	 0.328362186572492 
567	 0.329492142538163 
568	 0.330591425932612 
569	 0.331645503251333 
570	 0.332705260222327 
571	 0.333791467311595 
572	 0.334819849861386 
573	 0.336001405873946 
574	 0.337315482115506 
575	 0.338668399134856 
576	 0.340144491659363 
577	 0.341659655279885 
578	 0.343138917639992 
579	 0.344530709140784 
580	 0.345968463787218 
581	 0.347364088708608 
582	 0.34865136728737 
583	 0.349990091267247 
584	 0.351329525852996 
585	 0.352652515864823 
586	 0.353948974440783 
587	 0.355082149472489 
588	 0.356125800859076 
589	 0.357151712265954 
590	 0.358186749071281 
591	 0.35910390628276 
592	 0.359951404871583 
593	 0.360807631010453 
594	 0.361622578183743 
595	 0.362358993313365 
596	 0.363040296122923 
597	 0.363737382764583 
598	 0.364429901593848 
599	 0.365093442095856 
600	 0.365717505823493 
601	 0.366319975673375 
602	 0.366932574982371 
603	 0.367488839745924 
604	 0.367914218974026 
605	 0.36840424604191 
606	 0.368854683314298 
607	 0.369235065425431 
608	 0.369635684023448 
609	 0.370004632787582 
610	 0.370355205560819 
611	 0.37071016997915 
612	 0.3710736825175 
613	 0.371387466710969 
614	 0.371670352254723 
615	 0.371985864339058 
616	 0.372282464223019 
617	 0.372566335136872 
618	 0.372848920224835 
619	 0.373139505213607 
620	 0.373410946702834 
621	 0.373673949509579 
622	 0.373940155551085 
623	 0.374158341122115 
624	 0.37437143828871 
625	 0.37459826269656 
626	 0.374830372364247 
627	 0.37504770363792 
628	 0.375284305690404 
629	 0.375544729318445 
630	 0.375729265335464 
631	 0.375939312435674 
632	 0.376161661659715 
633	 0.376335909502532 
634	 0.37645095997151 
635	 0.376635672540191 
636	 0.376921426363925 
637	 0.377204213717647 
638	 0.377355370970826 
639	 0.377460257742649 
640	 0.377617101570324 
641	 0.377756424808323 
642	 0.377965466799354 
643	 0.378186999900428 
644	 0.378296637175105 
645	 0.378440365515133 
646	 0.378618769220257 
647	 0.378813185201915 
648	 0.37900540201737 
649	 0.379199839051287 
650	 0.37933454594126 
651	 0.37938533922904 
652	 0.379561813793193 
653	 0.379749992311879 
654	 0.379899041574089 
655	 0.38002588212582 
656	 0.380234868172254 
657	 0.380428170771991 
658	 0.380543630705938 
659	 0.380664719115398 
660	 0.380752130623757 
661	 0.380871457553569 
662	 0.381083820045905 
663	 0.381220978699854 
664	 0.381343587152348 
665	 0.381462728003798 
666	 0.381529713062802 
667	 0.381612773584486 
668	 0.381740154498986 
669	 0.381899100724216 
670	 0.382000392341247 
671	 0.382070640506363 
672	 0.38217170843381 
673	 0.38235180368933 
674	 0.382447539452382 
675	 0.382500751097861 
676	 0.382572879215855 
677	 0.38272313857079 
678	 0.382847736583357 
679	 0.38295250125914 
680	 0.383038499779877 
681	 0.382986338968238 
682	 0.383060506115065 
683	 0.383226991638553 
684	 0.383299992581811 
685	 0.383349087030259 
686	 0.383433810915826 
687	 0.383561710392119 
688	 0.383670145350857 
689	 0.383718435993305 
690	 0.383739918482296 
691	 0.383784487150662 
692	 0.383882181638688 
693	 0.383926468338081 
694	 0.383983355647387 
695	 0.384185878005351 
696	 0.384193278136969 
697	 0.384175268580349 
698	 0.384237535665221 
699	 0.384285441742512 
700	 0.384358310402724 
701	 0.384396825138691 
702	 0.384369731994814 
703	 0.384451587583735 
704	 0.384522807256508 
705	 0.384554758080455 
706	 0.38458779339026 
707	 0.384639344255229 
708	 0.384667585680259 
709	 0.384673302944892 
710	 0.384742255034912 
711	 0.384798662122183 
712	 0.384824633191541 
713	 0.38483562867824 
714	 0.384911857714478 
715	 0.384918942951612 
716	 0.384887626926554 
717	 0.38495704327736 
718	 0.385041780528373 
719	 0.385092873241425 
720	 0.385099401009329 
721	 0.385103074102276 
722	 0.385125077295622 
723	 0.385199444605751 
724	 0.385315560883358 
725	 0.385281872800628 
726	 0.385307234136268 
727	 0.385390578661739 
728	 0.38538961286187 
729	 0.385422310578499 
730	 0.38543018908452 
731	 0.385415688906092 
732	 0.385519853544171 
733	 0.3855532077917 
734	 0.385564706210219 
735	 0.385636661206201 
736	 0.385698926535068 
737	 0.385748202390225 
738	 0.385773088845073 
739	 0.385769931949192 
740	 0.385856162758907 
741	 0.385915121634281 
742	 0.385888458913554 
743	 0.385845194015608 
744	 0.385902310932835 
745	 0.386021722476 
746	 0.3861317203512 
747	 0.386224885032189 
748	 0.386262315098931 
749	 0.38628372337169 
750	 0.386355628142624 
751	 0.38636000139218 
752	 0.386390442982987 
753	 0.386464661455947 
754	 0.386478090138039 
755	 0.386559330112944 
756	 0.386667909646774 
757	 0.386746040567652 
758	 0.3868034252807 
759	 0.386866793917548 
760	 0.38696219997332 
761	 0.387090794708682 
762	 0.387118890776539 
763	 0.387126485428075 
764	 0.387169031733322 
765	 0.38725615879745 
766	 0.387435817689675 
767	 0.387532718924986 
768	 0.387495020817837 
769	 0.387653225845419 
770	 0.387788580077377 
771	 0.387905374129565 
772	 0.388054190064783 
773	 0.388115668964421 
774	 0.388133918624566 
775	 0.388176117539151 
776	 0.388306516815477 
777	 0.388414007641957 
778	 0.38851010423753 
779	 0.38861076006498 
780	 0.388708428242322 
781	 0.388759652913186 
782	 0.388808314680522 
783	 0.388908822495606 
784	 0.389057379039503 
785	 0.389225687250976 
786	 0.389347811533113 
787	 0.389370199243461 
788	 0.389469956535763 
789	 0.389605620401418 
790	 0.389720175363175 
791	 0.389770526896782 
792	 0.389840962315762 
793	 0.389942902785562 
794	 0.390062868934809 
795	 0.3901744378396 
796	 0.390237638256636 
797	 0.390285430870686 
798	 0.39037342352832 
799	 0.390505253490698 
800	 0.390682286536381 
801	 0.390822529253902 
802	 0.390814056151848 
803	 0.390901382298057 
804	 0.390998254851674 
805	 0.391050429543279 
806	 0.391120081653732 
807	 0.391157056184552 
808	 0.391184569983369 
809	 0.391241558209842 
810	 0.391361039155245 
811	 0.391467065002323 
812	 0.391563262029836 
813	 0.391678062990083 
814	 0.39175422688425 
815	 0.391802516321166 
816	 0.391877955491008 
817	 0.392047765558726 
818	 0.392107443870241 
819	 0.392086019971127 
820	 0.392066665197061 
821	 0.39215370106652 
822	 0.392159822969651 
823	 0.392184238892315 
824	 0.392317312759452 
825	 0.392376342533915 
826	 0.392449985429031 
827	 0.392498373318284 
828	 0.392454449019712 
829	 0.392436025108442 
830	 0.392436132528947 
831	 0.392503035797233 
832	 0.392707784785474 
833	 0.392789796141798 
834	 0.392725033198505 
835	 0.392583253032365 
836	 0.392508262161099 
837	 0.392552986309851 
838	 0.392634837199869 
839	 0.392667391143144 
840	 0.392669915799966 
841	 0.392650657007573 
842	 0.39260751751024 
843	 0.392553602753986 
844	 0.392589236865058 
845	 0.392665152920142 
846	 0.392697823103418 
847	 0.392610644941268 
848	 0.392542926588944 
849	 0.392498149622816 
850	 0.392473180559421 
851	 0.392476658956876 
852	 0.392513709821429 
853	 0.392527721921479 
854	 0.392502101516209 
855	 0.392536569428184 
856	 0.392450496562835 
857	 0.392321090537434 
858	 0.39227423708653 
859	 0.392293080852181 
860	 0.392277433186938 
861	 0.392234872629373 
862	 0.392224420467961 
863	 0.392233111648678 
864	 0.392185130060016 
865	 0.392092802320747 
866	 0.392041799314784 
867	 0.392003235117544 
868	 0.391989136351037 
869	 0.391981777912938 
870	 0.391920171603624 
871	 0.391763334738073 
872	 0.391653964365977 
873	 0.391666698273126 
874	 0.391643187055898 
875	 0.391570180564077 
876	 0.391484871135271 
877	 0.391436675046384 
878	 0.391441394071267 
879	 0.391421868332308 
880	 0.39138015478255 
881	 0.391344711117808 
882	 0.391250142984151 
883	 0.391112685459107 
884	 0.391019710228066 
885	 0.391073886932538 
886	 0.391092389008085 
887	 0.391095919552511 
888	 0.3910658223275 
889	 0.390923811005157 
890	 0.390784052767912 
891	 0.39069721561935 
892	 0.390648435898648 
893	 0.390539042505284 
894	 0.390452032520573 
895	 0.390424003909118 
896	 0.390445632384853 
897	 0.390427816351739 
898	 0.39040753838266 
899	 0.390356484439904 
900	 0.390255579091458 
901	 0.390195686775122 
902	 0.390116580007761 
903	 0.390039115340665 
904	 0.390009683066797 
905	 0.389986307076146 
906	 0.389880938099534 
907	 0.389773952788539 
908	 0.389820057555116 
909	 0.389762503453562 
910	 0.389697397173088 
911	 0.389682383571638 
912	 0.389692663965365 
913	 0.389656125834483 
914	 0.389615265860379 
915	 0.389581169837951 
916	 0.389501496944763 
917	 0.389470171408052 
918	 0.389420302557369 
919	 0.389341223106696 
920	 0.389383889266535 
921	 0.38932243718191 
922	 0.389234473193976 
923	 0.389212367659747 
924	 0.389170459889474 
925	 0.389177458850766 
926	 0.389190477960758 
927	 0.389159335983102 
928	 0.389133302841806 
929	 0.389120412233037 
930	 0.389121556277115 
931	 0.389144612081974 
932	 0.389260793746706 
933	 0.389260740889861 
934	 0.389213552438483 
935	 0.389285457195929 
936	 0.389242040200513 
937	 0.389254223741294 
938	 0.38929823518864 
939	 0.389242712152933 
940	 0.389295967708986 
941	 0.389381069849034 
942	 0.389423682195705 
943	 0.389400717687266 
944	 0.389503558044133 
945	 0.389511995480915 
946	 0.389409738680958 
947	 0.389429327261654 
948	 0.389546124336479 
949	 0.389596686760789 
950	 0.389553463558257 
951	 0.389578489421662 
952	 0.389622177289155 
953	 0.389633478947218 
954	 0.389596804958123 
955	 0.389551894753684 
956	 0.38951536309297 
957	 0.389494460033446 
958	 0.389486860239701 
959	 0.389480672471398 
960	 0.38941907948732 
961	 0.389409169096554 
962	 0.389503972151122 
963	 0.38957905836992 
964	 0.389457322780365 
965	 0.389356495345653 
966	 0.389431832754475 
967	 0.389449987902798 
968	 0.389486374740862 
969	 0.389513284636771 
970	 0.389498864276026 
971	 0.389462185794032 
972	 0.389457416331314 
973	 0.389486377512206 
974	 0.389514810215561 
975	 0.389463191756647 
976	 0.389468433421339 
977	 0.38949599423354 
978	 0.389484146128878 
979	 0.389467444042713 
980	 0.389511303907671 
981	 0.389535509168921 
982	 0.389464949627895 
983	 0.389399221048313 
984	 0.389422967541845 
985	 0.389517186374737 
986	 0.389604895770532 
987	 0.389586728619855 
988	 0.38947556457907 
989	 0.389419884236541 
990	 0.389496776649506 
991	 0.389380548863962 
992	 0.389335124053437 
993	 0.389386640375481 
994	 0.389448194290802 
995	 0.389386176076824 
996	 0.389335328465624 
997	 0.389298883313552 
998	 0.389266280447512 
999	 0.389332076768034 
1000	 0.389638069502295 
1001	 0.388823885511048 
1002	 0.388802001352845 
1003	 0.388791677568129 
1004	 0.388755884791867 
1005	 0.388684169497037 
1006	 0.388650865232954 
1007	 0.38860908383862 
1008	 0.388590080851706 
1009	 0.388607401364957 
1010	 0.38860441524167 
1011	 0.38861310851391 
1012	 0.388599437566842 
1013	 0.388563059225279 
1014	 0.38853706426221 
1015	 0.388480889679712 
1016	 0.38847235910261 
1017	 0.388492823557777 
1018	 0.388512726704931 
1019	 0.388565042921837 
1020	 0.388580917812802 
1021	 0.388575353338305 
1022	 0.388532514239536 
1023	 0.38851506370976 
1024	 0.38848517228817 
1025	 0.388464804555989 
1026	 0.388469221477304 
1027	 0.38846127882411 
1028	 0.388451546286801 
1029	 0.388418637042882 
1030	 0.388397906576197 
1031	 0.38835703701294 
1032	 0.388320349723193 
1033	 0.388308277482542 
1034	 0.388278236083408 
1035	 0.388228372227814 
1036	 0.388185478925035 
1037	 0.388126921885415 
1038	 0.388075866547157 
1039	 0.388045230573756 
1040	 0.387991059056205 
1041	 0.387902445847345 
1042	 0.387836461580998 
1043	 0.3877695769855 
1044	 0.387719814328495 
1045	 0.387671894661087 
1046	 0.387654950044471 
1047	 0.387632083550386 
1048	 0.3875815794856 
1049	 0.387508256410961 
1050	 0.387438720231432 
1051	 0.387419644825864 
1052	 0.387400527725477 
1053	 0.387351001650475 
1054	 0.387310120129659 
1055	 0.387254070037356 
1056	 0.387116617653801 
1057	 0.38707712166459 
1058	 0.387098887401139 
1059	 0.387115301201232 
1060	 0.387109967362866 
1061	 0.387086420450498 
1062	 0.387023124193794 
1063	 0.386970501013956 
1064	 0.38694121787509 
1065	 0.386926239495793 
1066	 0.386893947321849 
1067	 0.386841772614146 
1068	 0.386810684052198 
1069	 0.386775323939765 
1070	 0.38675695430634 
1071	 0.386743462969129 
1072	 0.386765489206452 
1073	 0.386782871755313 
1074	 0.386777395432024 
1075	 0.386741452063268 
1076	 0.386704626377088 
1077	 0.386679851221046 
1078	 0.386662849968927 
1079	 0.386685871752563 
1080	 0.386704139434357 
1081	 0.386693604278629 
1082	 0.386698306667094 
1083	 0.38672717962856 
1084	 0.38673850509915 
1085	 0.386721991781868 
1086	 0.386727202102002 
1087	 0.386740194782278 
1088	 0.386744963385104 
1089	 0.386740805505388 
1090	 0.386764676738113 
1091	 0.386783411177766 
1092	 0.38677081345772 
1093	 0.386786183736377 
1094	 0.386825758552323 
1095	 0.386820992293382 
1096	 0.386806175011878 
1097	 0.386796537886426 
1098	 0.386773910199612 
1099	 0.386779905638613 
1100	 0.386803672395861 
1101	 0.386812561221832 
1102	 0.386809274602743 
1103	 0.386802851606841 
1104	 0.386784437345728 
1105	 0.386768037893782 
1106	 0.386763140854655 
1107	 0.386764519683435 
1108	 0.386767445013463 
1109	 0.386786297761508 
1110	 0.386810062812554 
1111	 0.386819279691113 
1112	 0.386833464071238 
1113	 0.386857327507244 
1114	 0.386874675985187 
1115	 0.386875950312735 
1116	 0.386882621624712 
1117	 0.386902693248421 
1118	 0.386919954585543 
1119	 0.386939684786978 
1120	 0.386961320131346 
1121	 0.387001469311338 
1122	 0.386999169949524 
1123	 0.386973627556624 
1124	 0.386958792482793 
1125	 0.386943213179471 
1126	 0.386941980482587 
1127	 0.386950776052981 
1128	 0.386968776122202 
1129	 0.386975700019141 
1130	 0.386940106245323 
1131	 0.386912052983543 
1132	 0.386887989041054 
1133	 0.386851383673352 
1134	 0.386836727472191 
1135	 0.386822989735667 
1136	 0.386810511880198 
1137	 0.386809387477058 
1138	 0.386831187123605 
1139	 0.386821238386553 
1140	 0.386806851360135 
1141	 0.386793924375569 
1142	 0.386743943259899 
1143	 0.386701407566214 
1144	 0.386657626149994 
1145	 0.386600241074777 
1146	 0.386550851404859 
1147	 0.386488363601689 
1148	 0.386430656541503 
1149	 0.386386296249472 
1150	 0.386347586535872 
1151	 0.386304080644286 
1152	 0.38624985665775 
1153	 0.386203063226282 
1154	 0.386134228085214 
1155	 0.38603911439186 
1156	 0.385955772204258 
1157	 0.385849340061452 
1158	 0.385771694881044 
1159	 0.385709016149859 
1160	 0.385653594870526 
1161	 0.385600074237411 
1162	 0.385554515447158 
1163	 0.385483047423883 
1164	 0.385404846214848 
1165	 0.385341102731419 
1166	 0.385290041834741 
1167	 0.385258620053354 
1168	 0.385226059462331 
1169	 0.3851683280518 
1170	 0.385094583623294 
1171	 0.385021923762428 
1172	 0.384931622211122 
1173	 0.384844774752918 
1174	 0.384765193361782 
1175	 0.38468124865081 
1176	 0.384584466706273 
1177	 0.384491068318719 
1178	 0.384397079028406 
1179	 0.384308869250502 
1180	 0.384218262537773 
1181	 0.384126655806686 
1182	 0.384042735057456 
1183	 0.383948966523187 
1184	 0.38383536135902 
1185	 0.383737276580957 
1186	 0.383655531953582 
1187	 0.383582938845501 
1188	 0.383501296392378 
1189	 0.383437074950475 
1190	 0.383367871389248 
1191	 0.383278574602656 
1192	 0.383211423884485 
1193	 0.383153078081387 
1194	 0.383111200956801 
1195	 0.383077862132542 
1196	 0.383054474328646 
1197	 0.383055947936683 
1198	 0.383058273416206 
1199	 0.383034042577212 
1200	 0.383029244035885 
1201	 0.383036429370154 
1202	 0.38304350346753 
1203	 0.383066101736778 
1204	 0.383111983915594 
1205	 0.383173033943665 
1206	 0.383244703520677 
1207	 0.383334539047294 
1208	 0.383444110038521 
1209	 0.383571553342176 
1210	 0.383692810658751 
1211	 0.383870808104186 
1212	 0.384083724624415 
1213	 0.384331613378892 
1214	 0.384638963755513 
1215	 0.384947025689025 
1216	 0.385285090107702 
1217	 0.385620413777779 
1218	 0.385963534461692 
1219	 0.386311096006196 
1220	 0.386682756829834 
1221	 0.387092494817017 
1222	 0.387493678734165 
1223	 0.387898787017462 
1224	 0.38829377924967 
1225	 0.388676189305737 
1226	 0.389055168706393 
1227	 0.389445221350947 
1228	 0.38980565641696 
1229	 0.390155343005117 
1230	 0.390480085212656 
1231	 0.390778478611713 
1232	 0.391071273696273 
1233	 0.391344715669533 
1234	 0.391607726367009 
1235	 0.391867913656021 
1236	 0.392105255144172 
1237	 0.392316185657185 
1238	 0.392526166808461 
1239	 0.392713721329631 
1240	 0.392904995718064 
1241	 0.393117137376534 
1242	 0.393311997920508 
1243	 0.393510744327082 
1244	 0.393713745331149 
1245	 0.393915628078714 
1246	 0.394116456164474 
1247	 0.394308011908654 
1248	 0.394502787313011 
1249	 0.394686362539349 
1250	 0.394852305474288 
1251	 0.395024822306152 
1252	 0.395200756810404 
1253	 0.395371500791302 
1254	 0.39554262230578 
1255	 0.395703566646004 
1256	 0.395857828494939 
1257	 0.396009047806621 
1258	 0.396143522013184 
1259	 0.396289992544322 
1260	 0.396454639610643 
1261	 0.396597690909222 
1262	 0.39673490773617 
1263	 0.396872275262032 
1264	 0.396986334010247 
1265	 0.397071740624494 
1266	 0.397174648288949 
1267	 0.3972760211633 
1268	 0.397370764201254 
1269	 0.39746067969998 
1270	 0.397558949923184 
1271	 0.397646772619634 
1272	 0.397751989068193 
1273	 0.397875924012739 
1274	 0.397992763125176 
1275	 0.398116105871152 
1276	 0.398231677191018 
1277	 0.398339970161289 
1278	 0.39845444661043 
1279	 0.39856332137447 
1280	 0.398681314842192 
1281	 0.3988033472099 
1282	 0.398933803548337 
1283	 0.399081614421702 
1284	 0.399216704784476 
1285	 0.39934936345534 
1286	 0.399482358931673 
1287	 0.399619453948871 
1288	 0.399746992330039 
1289	 0.399889029963207 
1290	 0.400042541580733 
1291	 0.400195736952164 
1292	 0.400350766047649 
1293	 0.400507978079671 
1294	 0.400678285686508 
1295	 0.400831240262831 
1296	 0.40098296262835 
1297	 0.401120894869572 
1298	 0.40122635933374 
1299	 0.401367222317957 
1300	 0.401522271907203 
1301	 0.401668802198527 
1302	 0.40183567791898 
1303	 0.401989528107535 
1304	 0.402131412650525 
1305	 0.402267677688884 
1306	 0.402395174875745 
1307	 0.402530317274439 
1308	 0.402660741785436 
1309	 0.402793049165592 
1310	 0.402921027488012 
1311	 0.403051959337757 
1312	 0.403189628711067 
1313	 0.403324454619414 
1314	 0.403458929610776 
1315	 0.4036098624516 
1316	 0.403738848148708 
1317	 0.403847799476866 
1318	 0.403969506308826 
1319	 0.404095978843681 
1320	 0.404211588210529 
1321	 0.404331480478684 
1322	 0.404434340934673 
1323	 0.404512970952078 
1324	 0.404608327490455 
1325	 0.404700874192911 
1326	 0.40479904017743 
1327	 0.404916253669232 
1328	 0.40501528445353 
1329	 0.405113366266247 
1330	 0.405196973649783 
1331	 0.405249680025248 
1332	 0.40532528453411 
1333	 0.405411545392181 
1334	 0.405482966195065 
1335	 0.405571226203213 
1336	 0.405682249865095 
1337	 0.405766558758213 
1338	 0.40584814933579 
1339	 0.405909660837742 
1340	 0.405956847282613 
1341	 0.406000853295659 
1342	 0.4060325367214 
1343	 0.406058405612243 
1344	 0.406079157297604 
1345	 0.406093699999096 
1346	 0.406100162303809 
1347	 0.406098050285218 
1348	 0.40608516768222 
1349	 0.406078526610655 
1350	 0.406071471444495 
1351	 0.406053131459298 
1352	 0.406034133909585 
1353	 0.406009710478437 
1354	 0.405956798227478 
1355	 0.40593054487272 
1356	 0.405936680868165 
1357	 0.405913319985014 
1358	 0.405890574940458 
1359	 0.40585582802818 
1360	 0.405790654194985 
1361	 0.405727010519251 
1362	 0.405692489350522 
1363	 0.405657329516189 
1364	 0.405618347850254 
1365	 0.405601075077869 
1366	 0.405537191192424 
1367	 0.40545076958367 
1368	 0.405359477786764 
1369	 0.40525030013192 
1370	 0.405129152770705 
1371	 0.405004898002437 
1372	 0.40485634963558 
1373	 0.404688473744485 
1374	 0.404503438590125 
1375	 0.40429603494382 
1376	 0.404083809836438 
1377	 0.403853728597624 
1378	 0.40361654875825 
1379	 0.403365116465314 
1380	 0.403117973659592 
1381	 0.402854652298841 
1382	 0.402605554204051 
1383	 0.402367888233945 
1384	 0.402127433199102 
1385	 0.401894460995773 
1386	 0.401654695822589 
1387	 0.401392065485634 
1388	 0.401164441876594 
1389	 0.40094391840954 
1390	 0.400743452740276 
1391	 0.400569746210467 
1392	 0.400406649208274 
1393	 0.400278657333059 
1394	 0.400158224162343 
1395	 0.400053452648509 
1396	 0.399990117547922 
1397	 0.399887646847528 
1398	 0.399794123686259 
1399	 0.399647012675659 
1400	 0.399490515693047 
1401	 0.399267282435443 
1402	 0.399003999650523 
1403	 0.398686253846352 
1404	 0.398303155662359 
1405	 0.39791372566608 
1406	 0.397470302645776 
1407	 0.397036537526342 
1408	 0.39658733336505 
1409	 0.396134255333604 
1410	 0.395665181767191 
1411	 0.395203109411748 
1412	 0.394708104620939 
1413	 0.394277766981355 
1414	 0.393859136707171 
1415	 0.393485637039626 
1416	 0.393170401464585 
1417	 0.392865420246106 
1418	 0.392595160672303 
1419	 0.392329960330126 
1420	 0.392087547473373 
1421	 0.391850915151028 
1422	 0.391634578220989 
1423	 0.391405473474812 
1424	 0.391172810429185 
1425	 0.390942570532819 
1426	 0.390731895810638 
1427	 0.39052693035816 
1428	 0.390340709690262 
1429	 0.390176627912526 
1430	 0.39001035169011 
1431	 0.389840236457259 
1432	 0.389690669108401 
1433	 0.389560075759537 
1434	 0.389426751547343 
1435	 0.389306017564924 
1436	 0.389171157448312 
1437	 0.389024005801782 
1438	 0.388906041327173 
1439	 0.388789140873676 
1440	 0.388688642033049 
1441	 0.38860865423286 
1442	 0.388541588777763 
1443	 0.38846478487231 
1444	 0.388442209668573 
1445	 0.388439911750271 
1446	 0.388492114626525 
1447	 0.388574420093269 
1448	 0.38872120069568 
1449	 0.388931842148168 
1450	 0.389175003008123 
1451	 0.389474652200723 
1452	 0.389803553171888 
1453	 0.390172362374356 
1454	 0.390565669097238 
1455	 0.391016475435849 
1456	 0.391455404665039 
1457	 0.391909606122986 
1458	 0.392374496496577 
1459	 0.392845507338683 
1460	 0.393324925628753 
1461	 0.39383725732162 
1462	 0.394322235628518 
1463	 0.394795424492104 
1464	 0.395268047019078 
1465	 0.395725845866036 
1466	 0.396190451195971 
1467	 0.396632032497591 
1468	 0.397073002547381 
1469	 0.397508575568825 
1470	 0.397911359652469 
1471	 0.398333668029329 
1472	 0.398762900589195 
1473	 0.399183949889664 
1474	 0.399608616069713 
1475	 0.400011912167861 
1476	 0.400410727780876 
1477	 0.400788703047956 
1478	 0.401144719098077 
1479	 0.401494064829683 
1480	 0.40183312999762 
1481	 0.402157622474564 
1482	 0.40246810378373 
1483	 0.402771677057108 
1484	 0.403054495629848 
1485	 0.403349152269326 
1486	 0.403647504624061 
1487	 0.403928802286469 
1488	 0.404201772379429 
1489	 0.404480758278666 
1490	 0.404749553019475 
1491	 0.405020765248989 
1492	 0.405286122342792 
1493	 0.405578035295122 
1494	 0.405870891380325 
1495	 0.406181138163781 
1496	 0.406532696553834 
1497	 0.406861687241477 
1498	 0.407187207163133 
1499	 0.40751155540143 
1500	 0.407842046382002 
1501	 0.408153662632211 
1502	 0.408455101121933 
1503	 0.408748983630086 
1504	 0.409024324005886 
1505	 0.409300676522079 
1506	 0.409578790627676 
1507	 0.409845880980318 
1508	 0.410119550388493 
1509	 0.410361721042816 
1510	 0.410574540372179 
1511	 0.410788697821145 
1512	 0.410978766429962 
1513	 0.411170575881978 
1514	 0.41137462712171 
1515	 0.411558934602247 
1516	 0.41171603588849 
1517	 0.411885952803459 
1518	 0.412068830729777 
1519	 0.412224040840072 
1520	 0.412372994624833 
1521	 0.412511048401264 
1522	 0.41262835566045 
1523	 0.412737578837308 
1524	 0.41285287166757 
1525	 0.412977159611123 
1526	 0.413084861908517 
1527	 0.413182320795385 
1528	 0.413278753295166 
1529	 0.413368667618482 
1530	 0.413460293838462 
1531	 0.413547320132746 
1532	 0.413639716280853 
1533	 0.413731044678148 
1534	 0.41383101825835 
1535	 0.413935809978909 
1536	 0.414042421985009 
1537	 0.414151341605468 
1538	 0.414271238139659 
1539	 0.414387903464089 
1540	 0.414533455644482 
1541	 0.414705483822506 
1542	 0.41486540710641 
1543	 0.415040461668625 
1544	 0.415204664130932 
1545	 0.415355529061598 
1546	 0.415522161671271 
1547	 0.415698625980591 
1548	 0.415870034817457 
1549	 0.416042230328193 
1550	 0.416220130074953 
1551	 0.416391336105894 
1552	 0.416583121818291 
1553	 0.416791697671998 
1554	 0.41699743157418 
1555	 0.417225344115328 
1556	 0.41742365237457 
1557	 0.417609411349604 
1558	 0.417793314677818 
1559	 0.417962944183625 
1560	 0.418131440052794 
1561	 0.418284954491631 
1562	 0.418465664572248 
1563	 0.418644196593359 
1564	 0.418844506555642 
1565	 0.419088449674354 
1566	 0.419301112751891 
1567	 0.419507594618604 
1568	 0.419713739068095 
1569	 0.419916386685215 
1570	 0.420105795973893 
1571	 0.42029433775551 
1572	 0.420469755943565 
1573	 0.420612418582897 
1574	 0.420781462652814 
1575	 0.420952472032816 
1576	 0.421136103508502 
1577	 0.42134349372859 
1578	 0.421538061777299 
1579	 0.421742651899575 
1580	 0.421928136945328 
1581	 0.422091236794007 
1582	 0.422269684353592 
1583	 0.422447710745477 
1584	 0.422623176902619 
1585	 0.422798521309914 
1586	 0.422986722264702 
1587	 0.423188121338361 
1588	 0.423368136990079 
1589	 0.423558193887702 
1590	 0.423727721271104 
1591	 0.423855365866216 
1592	 0.424007537920763 
1593	 0.424164155340348 
1594	 0.424326633244663 
1595	 0.424488771499043 
1596	 0.424670663183218 
1597	 0.42487557332793 
1598	 0.42506766550649 
1599	 0.42528057239971 
1600	 0.42546939500255 
1601	 0.425629636770343 
1602	 0.425801836187138 
1603	 0.425973571948683 
1604	 0.426140336993778 
1605	 0.426311487751615 
1606	 0.42647442914913 
1607	 0.426630455395921 
1608	 0.426779666856064 
1609	 0.426922963152777 
1610	 0.427062365140356 
1611	 0.427201723762157 
1612	 0.427321571554773 
1613	 0.427430210757007 
1614	 0.427531533517409 
1615	 0.427607609217511 
1616	 0.427694519026761 
1617	 0.427782469482756 
1618	 0.427870208836324 
1619	 0.427954067063782 
1620	 0.428046402287741 
1621	 0.428144551570979 
1622	 0.428242010254923 
1623	 0.428362435723198 
1624	 0.428450928209376 
1625	 0.42851684213547 
1626	 0.428587050563414 
1627	 0.42863468477074 
1628	 0.428691919135899 
1629	 0.428759717533184 
1630	 0.428822480948952 
1631	 0.428875981443393 
1632	 0.42894267773316 
1633	 0.429019542573728 
1634	 0.429090982960498 
1635	 0.429175276990798 
1636	 0.429241409601084 
1637	 0.429291464604755 
1638	 0.429345702481078 
1639	 0.429400223898752 
1640	 0.429441713328801 
1641	 0.429481568039462 
1642	 0.429511094045959 
1643	 0.429531053749691 
1644	 0.429533707976021 
1645	 0.429527655754683 
1646	 0.429503817453938 
1647	 0.429450943385861 
1648	 0.429403888799567 
1649	 0.429349976685625 
1650	 0.429294124214988 
1651	 0.429244958142122 
1652	 0.429171606597905 
1653	 0.429103729159937 
1654	 0.428989991349288 
1655	 0.428842159172703 
1656	 0.428675411293315 
1657	 0.428479437388565 
1658	 0.428254010450016 
1659	 0.428001253479389 
1660	 0.427730279722709 
1661	 0.427437254730186 
1662	 0.427106209857752 
1663	 0.426752323144802 
1664	 0.426364280667638 
1665	 0.425956111718238 
1666	 0.425473848120888 
1667	 0.42494812585523 
1668	 0.424371034179107 
1669	 0.423722218022224 
1670	 0.423036382038794 
1671	 0.42231402901843 
1672	 0.421532931118253 
1673	 0.420686949801102 
1674	 0.419806376855733 
1675	 0.418895372082429 
1676	 0.417926912763015 
1677	 0.41689827198293 
1678	 0.415840624489477 
1679	 0.414722132310369 
1680	 0.413574787891248 
1681	 0.412419761411074 
1682	 0.411174140851099 
1683	 0.409878065061348 
1684	 0.408524267250984 
1685	 0.40709031274537 
1686	 0.405620210181358 
1687	 0.404084836062416 
1688	 0.402511201154241 
1689	 0.400887516028758 
1690	 0.399216981600068 
1691	 0.397504505606458 
1692	 0.395781711326364 
1693	 0.394032160015719 
1694	 0.392234208671433 
1695	 0.390397743108569 
1696	 0.388502819560103 
1697	 0.386535101414005 
1698	 0.384548078934176 
1699	 0.382507050626483 
1700	 0.380548771625818 
1701	 0.378570033671785 
1702	 0.376670965016782 
1703	 0.374801904489691 
1704	 0.373026044062618 
1705	 0.371278476459846 
1706	 0.369641253699017 
1707	 0.368216909499569 
1708	 0.366830823935348 
1709	 0.365547356874637 
1710	 0.364395506665221 
1711	 0.363228782557026 
1712	 0.362166862101379 
1713	 0.361153165405145 
1714	 0.360122193337493 
1715	 0.359217771925786 
1716	 0.358346932031152 
1717	 0.357527879673181 
1718	 0.356795393353147 
1719	 0.356056704620546 
1720	 0.355417849553858 
1721	 0.354883945858552 
1722	 0.354422744038198 
1723	 0.354125512647907 
1724	 0.353921942512355 
1725	 0.353826925323066 
1726	 0.353955827104375 
1727	 0.354257650453588 
1728	 0.354724313476647 
1729	 0.355408780483838 
1730	 0.356248950043682 
1731	 0.357174829493676 
1732	 0.358268964940359 
1733	 0.359397202762057 
1734	 0.360521951066341 
1735	 0.361691684774175 
1736	 0.362773590020675 
1737	 0.363725174344546 
1738	 0.364548857861329 
1739	 0.365207971670878 
1740	 0.365705666373618 
1741	 0.366067513815395 
1742	 0.36626380692759 
1743	 0.366354297005748 
1744	 0.366251099346494 
1745	 0.366156662693276 
1746	 0.365970599428302 
1747	 0.365774784186749 
1748	 0.365515062527553 
1749	 0.365300583341152 
1750	 0.365025124036335 
1751	 0.364879899448261 
1752	 0.364795427503364 
1753	 0.364790925829719 
1754	 0.364864635600221 
1755	 0.365015440013449 
1756	 0.365220098166171 
1757	 0.365557983922574 
1758	 0.366022711870922 
1759	 0.366561929148614 
1760	 0.367243357334318 
1761	 0.368075789019569 
1762	 0.368952469438007 
1763	 0.369974631995666 
1764	 0.371080608621985 
1765	 0.372234379041671 
1766	 0.37354411423335 
1767	 0.374864592201617 
1768	 0.376255312005087 
1769	 0.377671175526642 
1770	 0.378936361029519 
1771	 0.380189964783263 
1772	 0.381359087249701 
1773	 0.382421585965898 
1774	 0.383502832364237 
1775	 0.384488980064446 
1776	 0.38539797784846 
1777	 0.38624818017831 
1778	 0.386973221763793 
1779	 0.387694057443735 
1780	 0.388411584164433 
1781	 0.389059273536562 
1782	 0.389685529533736 
1783	 0.390226621574542 
1784	 0.390704508131939 
1785	 0.391134555293602 
1786	 0.39152930441251 
1787	 0.391882143582049 
1788	 0.392205648451982 
1789	 0.392479407225471 
1790	 0.392769197761933 
1791	 0.39304225802526 
1792	 0.393313508492051 
1793	 0.393574621200784 
1794	 0.393822877296881 
1795	 0.394089452411516 
1796	 0.394365376613 
1797	 0.394614448805733 
1798	 0.394870096926114 
1799	 0.395127541185043 
1800	 0.395389334120764 
1801	 0.392101007364476 
1802	 0.392404796716335 
1803	 0.392699779143925 
1804	 0.392997985405289 
1805	 0.393313585856199 
1806	 0.393586746393488 
1807	 0.393843254452994 
1808	 0.394107424206931 
1809	 0.394350369536801 
1810	 0.394596362296652 
1811	 0.3948485105732 
1812	 0.395105345319385 
1813	 0.395351453556216 
1814	 0.395603665650818 
1815	 0.395867559843248 
1816	 0.396149498427868 
1817	 0.396442585733308 
1818	 0.396745416111147 
1819	 0.397049038907711 
1820	 0.397380933592308 
1821	 0.397688319386937 
1822	 0.397961368523824 
1823	 0.398295672691186 
1824	 0.398599374956818 
1825	 0.398888533080042 
1826	 0.399209385893109 
1827	 0.3995492435898 
1828	 0.399866107500818 
1829	 0.400209172776911 
1830	 0.400515598341542 
1831	 0.400791206958126 
1832	 0.401078937519034 
1833	 0.401351156554837 
1834	 0.401629132393182 
1835	 0.40190648902804 
1836	 0.402164259201356 
1837	 0.402441682226141 
1838	 0.402713557451334 
1839	 0.402995548033696 
1840	 0.403300765909716 
1841	 0.403594782056878 
1842	 0.403871385575084 
1843	 0.404183256410321 
1844	 0.40450812744073 
1845	 0.404782241080387 
1846	 0.405061772164709 
1847	 0.405316886934015 
1848	 0.405562839965618 
1849	 0.405790401307318 
1850	 0.406016105924553 
1851	 0.406245962175541 
1852	 0.406448230950595 
1853	 0.406613553266965 
1854	 0.406744322655279 
1855	 0.406831190157705 
1856	 0.406887502797573 
1857	 0.406930054199429 
1858	 0.406951426882656 
1859	 0.406959243827185 
1860	 0.406965588586777 
1861	 0.406925569122419 
1862	 0.406860507073118 
1863	 0.406773796710414 
1864	 0.406635217264963 
1865	 0.406460396163665 
1866	 0.406241199423 
1867	 0.405980163257464 
1868	 0.405690248269549 
1869	 0.405352142716412 
1870	 0.404987921858696 
1871	 0.404593691910711 
1872	 0.40417449199978 
1873	 0.40372590814741 
1874	 0.40326339365462 
1875	 0.402764092932051 
1876	 0.402172448675265 
1877	 0.401542892006657 
1878	 0.400823484065009 
1879	 0.400011846127729 
1880	 0.399195319144926 
1881	 0.398280676278353 
1882	 0.397278875857816 
1883	 0.396220543002153 
1884	 0.39508698630257 
1885	 0.393785296698999 
1886	 0.392418858453519 
1887	 0.390934297804903 
1888	 0.389321404014019 
1889	 0.387746230944143 
1890	 0.386083448365578 
1891	 0.384394919840218 
1892	 0.382689543548834 
1893	 0.380922657538479 
1894	 0.379061757191698 
1895	 0.37725530792071 
1896	 0.375418002823967 
1897	 0.373605265948888 
1898	 0.371958527263582 
1899	 0.370282366465454 
1900	 0.368695039021889 
1901	 0.367220526380543 
1902	 0.365678831304842 
1903	 0.364263184358247 
1904	 0.36291684564677 
1905	 0.361618707095359 
1906	 0.360382941694502 
1907	 0.359336546816502 
1908	 0.35833212896763 
1909	 0.357409078914286 
1910	 0.356564685622541 
1911	 0.355717154547209 
1912	 0.354962420085791 
1913	 0.354268157117013 
1914	 0.353611638140727 
1915	 0.353025730603781 
1916	 0.352527879978795 
1917	 0.352044690596311 
1918	 0.351591610801488 
1919	 0.351199569964236 
1920	 0.350824235148435 
1921	 0.350483843527096 
1922	 0.350186320745533 
1923	 0.349917599816328 
1924	 0.34968629138269 
1925	 0.34947758471688 
1926	 0.3492884198907 
1927	 0.349124791820023 
1928	 0.348978530289756 
1929	 0.348852515380981 
1930	 0.348738302882077 
1931	 0.34866403182523 
1932	 0.348603095315952 
1933	 0.348566320746683 
1934	 0.348582855720391 
1935	 0.348614506957005 
1936	 0.348694551892839 
1937	 0.348820385527132 
1938	 0.34899408193695 
1939	 0.349193599210584 
1940	 0.349438127294268 
1941	 0.349710581363507 
1942	 0.349992850710207 
1943	 0.350326404662799 
1944	 0.350682150488818 
1945	 0.351049606029641 
1946	 0.35147194831362 
1947	 0.351895283412979 
1948	 0.352343374840707 
1949	 0.352832368181092 
1950	 0.353321330504421 
1951	 0.353822167899012 
1952	 0.354350799579324 
1953	 0.354898652341033 
1954	 0.355447743492668 
1955	 0.356050238829536 
1956	 0.356634162493893 
1957	 0.357239093449362 
1958	 0.357869488896423 
1959	 0.358458888735301 
1960	 0.359049886846863 
1961	 0.359610309841911 
1962	 0.360138221220599 
1963	 0.360660244182446 
1964	 0.361171930728541 
1965	 0.361653272959312 
1966	 0.362118498677615 
1967	 0.362571143888316 
1968	 0.362963626570832 
1969	 0.363354960312518 
1970	 0.363738919770352 
1971	 0.364107936922571 
1972	 0.364504122568843 
1973	 0.364896431883054 
1974	 0.365302505044733 
1975	 0.365722847100836 
1976	 0.366141068841297 
1977	 0.366574968069288 
1978	 0.367001717881543 
1979	 0.367424542388241 
1980	 0.367838366539809 
1981	 0.368299207790075 
1982	 0.368716212021709 
1983	 0.369132017322417 
1984	 0.369583068806743 
1985	 0.369985149092932 
1986	 0.370428257429618 
1987	 0.370884613692332 
1988	 0.371347086949402 
1989	 0.371841514106219 
1990	 0.372371168488991 
1991	 0.372892667569771 
1992	 0.373425679085003 
1993	 0.374001618563568 
1994	 0.374535635301044 
1995	 0.375098637732719 
1996	 0.375669720266766 
1997	 0.376219156517868 
1998	 0.376771105082835 
1999	 0.377340525707162 
2000	 0.377853584393192 
2001	 0.378349606302052 
2002	 0.378821471257732 
2003	 0.37925178620734 
2004	 0.379675558336573 
2005	 0.380100942984679 
2006	 0.380477703708798 
2007	 0.380825622660864 
2008	 0.381135389985136 
2009	 0.381420946150284 
2010	 0.381680584244887 
2011	 0.381916636306097 
2012	 0.382150338259381 
2013	 0.382340238498385 
2014	 0.382493050222659 
2015	 0.382632608203232 
2016	 0.38275690675157 
2017	 0.382832329198651 
2018	 0.382866427893168 
2019	 0.382891853080649 
2020	 0.382889437512346 
2021	 0.382847421707128 
2022	 0.382797750125261 
2023	 0.38275101378271 
2024	 0.382673955939785 
2025	 0.382568202171622 
2026	 0.382434459806118 
2027	 0.382280881070338 
2028	 0.382097725061768 
2029	 0.381863596130137 
2030	 0.381640498842549 
2031	 0.381396144575926 
2032	 0.381158137335527 
2033	 0.380901137361537 
2034	 0.380675119207065 
2035	 0.380464297474812 
2036	 0.380248756601278 
2037	 0.380076398878169 
2038	 0.37988429604754 
2039	 0.379701292438273 
2040	 0.379525698416696 
2041	 0.379351644563105 
2042	 0.379185556484812 
2043	 0.379011230089021 
2044	 0.378834269442493 
2045	 0.37865514569533 
2046	 0.378470857816365 
2047	 0.378285002646659 
2048	 0.378080756170219 
2049	 0.377907299546486 
2050	 0.377747460263841 
2051	 0.377594957776253 
2052	 0.37743924430975 
2053	 0.377311977216643 
2054	 0.377184007285691 
2055	 0.377055309949639 
2056	 0.376923365859464 
2057	 0.376817052568325 
2058	 0.37668220596067 
2059	 0.376515182843865 
2060	 0.376373142540516 
2061	 0.376227520967099 
2062	 0.376095213025706 
2063	 0.375987081421061 
2064	 0.375867790931514 
2065	 0.375763057204922 
2066	 0.375635063366753 
2067	 0.375488145883065 
2068	 0.375339179368698 
2069	 0.375195329474406 
2070	 0.375034046794483 
2071	 0.374905136272915 
2072	 0.37480705753959 
2073	 0.374675916588216 
2074	 0.37454191255146 
2075	 0.374412591936197 
2076	 0.374266369472324 
2077	 0.374127600776427 
2078	 0.37400336254247 
2079	 0.373871546498215 
2080	 0.373716211286068 
2081	 0.37358774013115 
2082	 0.373480768631838 
2083	 0.373380452610512 
2084	 0.373252773560616 
2085	 0.373126253854212 
2086	 0.372978852966601 
2087	 0.372780432170353 
2088	 0.372632138817696 
2089	 0.372507488837603 
2090	 0.372366590654056 
2091	 0.372244303084177 
2092	 0.372102067259084 
2093	 0.371939242524195 
2094	 0.371781784956568 
2095	 0.371634614103398 
2096	 0.371461379412466 
2097	 0.371277532077691 
2098	 0.371078265072055 
2099	 0.370869549831031 
2100	 0.370663633799786 
2101	 0.370425904723018 
2102	 0.370174791087516 
2103	 0.369921360382077 
2104	 0.369640983175981 
2105	 0.369361320514637 
2106	 0.369095675707375 
2107	 0.368793980251233 
2108	 0.368463070984758 
2109	 0.368130785912889 
2110	 0.367783695950494 
2111	 0.367432233265753 
2112	 0.367070407623946 
2113	 0.366700421301313 
2114	 0.366319676527186 
2115	 0.365933159081836 
2116	 0.365537761237351 
2117	 0.365141596062629 
2118	 0.364732485660086 
2119	 0.364304745890391 
2120	 0.363906851425049 
2121	 0.363486177928509 
2122	 0.363132791835265 
2123	 0.362813327796758 
2124	 0.362524920912054 
2125	 0.362280122579524 
2126	 0.362056382449188 
2127	 0.361858897667451 
2128	 0.361691029888974 
2129	 0.361549338421433 
2130	 0.3614406988566 
2131	 0.361383372643118 
2132	 0.361325064093606 
2133	 0.361286516015364 
2134	 0.36127180114796 
2135	 0.361259893442613 
2136	 0.361245083130288 
2137	 0.36125414362477 
2138	 0.361279668346747 
2139	 0.361319904429517 
2140	 0.361381458105051 
2141	 0.36144011243353 
2142	 0.361500211440037 
2143	 0.361588024196264 
2144	 0.361682568065176 
2145	 0.36180048236312 
2146	 0.361955585137613 
2147	 0.362109101278481 
2148	 0.362273032292802 
2149	 0.362442874987008 
2150	 0.362620743309858 
2151	 0.36280956982322 
2152	 0.36301372505155 
2153	 0.363216178592417 
2154	 0.363427207524709 
2155	 0.36362929691127 
2156	 0.363814019459744 
2157	 0.363993655432511 
2158	 0.36414446837782 
2159	 0.364283046852869 
2160	 0.364385242007328 
2161	 0.364459900525881 
2162	 0.364511303063473 
2163	 0.364520187137895 
2164	 0.364537026042203 
2165	 0.364542944373532 
2166	 0.364530012816883 
2167	 0.364507410518818 
2168	 0.36447168267263 
2169	 0.364413502434903 
2170	 0.364345952777206 
2171	 0.36424765830772 
2172	 0.36417663413816 
2173	 0.364097055557994 
2174	 0.364031289282275 
2175	 0.364018101970668 
2176	 0.364016604623641 
2177	 0.364009202135694 
2178	 0.364027553165554 
2179	 0.364012749993965 
2180	 0.363977300864564 
2181	 0.363957816669504 
2182	 0.363937076666774 
2183	 0.36391041455297 
2184	 0.363903454721027 
2185	 0.363857300237824 
2186	 0.36379824983924 
2187	 0.363707690608057 
2188	 0.363589720661816 
2189	 0.363450211816265 
2190	 0.363274829395784 
2191	 0.363093514602563 
2192	 0.362888767960009 
2193	 0.362681257122934 
2194	 0.362461503066169 
2195	 0.362239524859404 
2196	 0.362009218743124 
2197	 0.361779324112206 
2198	 0.361546414500212 
2199	 0.361261292877662 
2200	 0.360978275241181 
2201	 0.360683790951062 
2202	 0.360354132367367 
2203	 0.359998281907036 
2204	 0.359643503794971 
2205	 0.359251098558354 
2206	 0.358876756045016 
2207	 0.358517899622238 
2208	 0.358135394443229 
2209	 0.35774569152723 
2210	 0.357342958196624 
2211	 0.356936989212104 
2212	 0.356498773241461 
2213	 0.3560204676498 
2214	 0.355563580675372 
2215	 0.355094319684533 
2216	 0.354622781369713 
2217	 0.35419793917299 
2218	 0.353706741604717 
2219	 0.35316107218987 
2220	 0.352626387786651 
2221	 0.352083512130438 
2222	 0.351491245376764 
2223	 0.350910845826923 
2224	 0.350290494353306 
2225	 0.349649276554932 
2226	 0.348954248724961 
2227	 0.348177782412604 
2228	 0.34736671628383 
2229	 0.346460510735245 
2230	 0.345436751084031 
2231	 0.344404004045529 
2232	 0.343349256148434 
2233	 0.342165841621768 
2234	 0.340938882730213 
2235	 0.339559795842704 
2236	 0.338046643663378 
2237	 0.336455921834515 
2238	 0.334703200985199 
2239	 0.332953950059515 
2240	 0.331171654373218 
2241	 0.329256734346968 
2242	 0.327339664880658 
2243	 0.325212937140279 
2244	 0.322855083540326 
2245	 0.320498285486204 
2246	 0.317933096053824 
2247	 0.315450917852703 
2248	 0.31301430375155 
2249	 0.310494578808498 
2250	 0.307946842491889 
2251	 0.305423700008349 
2252	 0.302657597974215 
2253	 0.299979186315173 
2254	 0.297303456879898 
2255	 0.294592039152892 
2256	 0.292132337409881 
2257	 0.289654902420435 
2258	 0.287226496704774 
2259	 0.284881719405816 
2260	 0.282535060418738 
2261	 0.280197257622209 
2262	 0.277923852808111 
2263	 0.275653410605856 
2264	 0.273509689953564 
2265	 0.271450085785833 
2266	 0.269418137421205 
2267	 0.267529827098416 
2268	 0.265573707838461 
2269	 0.263598345043095 
2270	 0.261671501549032 
2271	 0.259731160459698 
2272	 0.257858538083232 
2273	 0.256059437653543 
2274	 0.254248529179726 
2275	 0.252539409688751 
2276	 0.250712066394476 
2277	 0.248827828666953 
2278	 0.246945016021398 
2279	 0.244984573631748 
2280	 0.24302512649747 
2281	 0.241103441915319 
2282	 0.239109095012035 
2283	 0.237072164401504 
2284	 0.235018368819526 
2285	 0.232808289794459 
2286	 0.230590193066716 
2287	 0.228222187777397 
2288	 0.22576002207112 
2289	 0.223458169147707 
2290	 0.221021199772646 
2291	 0.218618836528753 
2292	 0.216274257656601 
2293	 0.213727393549069 
2294	 0.211270351387422 
2295	 0.208914045300572 
2296	 0.206630175501577 
2297	 0.204637580935535 
2298	 0.202847851709052 
2299	 0.201288238408506 
2300	 0.199941038407168 
2301	 0.198890557399237 
2302	 0.198058357957017 
2303	 0.19759784782607 
2304	 0.197486730340512 
2305	 0.197623697760779 
2306	 0.198109632375218 
2307	 0.198832914334765 
2308	 0.19983581968198 
2309	 0.201116975921136 
2310	 0.20278379069744 
2311	 0.204512848405899 
2312	 0.206591941398684 
2313	 0.20858577809334 
2314	 0.210713168586125 
2315	 0.21279027973115 
2316	 0.214949649784476 
2317	 0.216938463785424 
2318	 0.21899078733234 
2319	 0.220688746518041 
2320	 0.222217845604371 
2321	 0.223472593496289 
2322	 0.224390331875615 
2323	 0.225174006240822 
2324	 0.225706699332414 
2325	 0.226102314684946 
2326	 0.226308679607766 
2327	 0.226357243930744 
2328	 0.226229714940181 
2329	 0.225937018215198 
2330	 0.22545765229983 
2331	 0.224811407175156 
2332	 0.224024965052982 
2333	 0.223058751072583 
2334	 0.221876631988648 
2335	 0.220622690141332 
2336	 0.219210610878211 
2337	 0.217654683114317 
2338	 0.216156180174624 
2339	 0.214549351201298 
2340	 0.21303032652324 
2341	 0.211631644768515 
2342	 0.210222161889401 
2343	 0.20908750611448 
2344	 0.208139701333904 
2345	 0.207420891569165 
2346	 0.207129162332787 
2347	 0.207153790156656 
2348	 0.207441255073708 
2349	 0.208134838109593 
2350	 0.209124564045621 
2351	 0.210337446996061 
2352	 0.211782547137983 
2353	 0.213406891181582 
2354	 0.214941354665801 
2355	 0.216415789790645 
2356	 0.217803225636035 
2357	 0.218927784455832 
2358	 0.219966437969142 
2359	 0.220777246020583 
2360	 0.221386762848537 
2361	 0.221822944987738 
2362	 0.222036474911392 
2363	 0.222201848415293 
2364	 0.222257004401687 
2365	 0.222195362416428 
2366	 0.222171042208015 
2367	 0.222064113570757 
2368	 0.221970999333023 
2369	 0.22197898152789 
2370	 0.221946322282061 
2371	 0.221918639151656 
2372	 0.221896378944493 
2373	 0.221856539053636 
2374	 0.221815062239527 
2375	 0.221837983982777 
2376	 0.22189775978234 
2377	 0.221926568645709 
2378	 0.221932237358025 
2379	 0.221940022570886 
2380	 0.222041266372092 
2381	 0.222191036435994 
2382	 0.222312967505337 
2383	 0.22251299723371 
2384	 0.222647277990513 
2385	 0.222702308670723 
2386	 0.222803174028067 
2387	 0.22292227811445 
2388	 0.223053617032525 
2389	 0.223162058218016 
2390	 0.223324445870241 
2391	 0.223584776492458 
2392	 0.223758200062455 
2393	 0.223931911620915 
2394	 0.224033301957439 
2395	 0.224006566669136 
2396	 0.224074333506906 
2397	 0.224173396364979 
2398	 0.224259078232426 
2399	 0.224397719829774 
2400	 0.224476068465336 
2401	 0.224473915113828 
2402	 0.224495042395026 
2403	 0.224565630718993 
2404	 0.224680964905062 
2405	 0.224820254678501 
2406	 0.224935245509767 
2407	 0.224993954364027 
2408	 0.225014608633889 
2409	 0.225063165721426 
2410	 0.225132008533699 
2411	 0.225201985795892 
2412	 0.2252354268806 
2413	 0.225194813184126 
2414	 0.225162704178534 
2415	 0.225143190026706 
2416	 0.225138260695188 
2417	 0.225169582288362 
2418	 0.225169960587356 
2419	 0.22520826957415 
2420	 0.225297821438324 
2421	 0.225355790902205 
2422	 0.225372230803311 
2423	 0.225254823499004 
2424	 0.225092389503955 
2425	 0.225061325352034 
2426	 0.22507355824953 
2427	 0.225129632775498 
2428	 0.225231775944198 
2429	 0.225182285032458 
2430	 0.22505585534029 
2431	 0.224976544999917 
2432	 0.224913224497899 
2433	 0.22490772822595 
2434	 0.224857272175599 
2435	 0.224740465737725 
2436	 0.224602524183689 
2437	 0.22447139137947 
2438	 0.224413250599775 
2439	 0.224341729777024 
2440	 0.224246978796909 
2441	 0.224122617945642 
2442	 0.22398780436396 
2443	 0.223918893888483 
2444	 0.223860059242028 
2445	 0.223766425732358 
2446	 0.223585246887027 
2447	 0.223398211892402 
2448	 0.22327279681834 
2449	 0.223039461814 
2450	 0.222889103294766 
2451	 0.222822523009706 
2452	 0.222549629699423 
2453	 0.222399339908461 
2454	 0.222211591493028 
2455	 0.221841308688877 
2456	 0.221824030685567 
2457	 0.221780573749623 
2458	 0.221629470156399 
2459	 0.221663598913331 
2460	 0.22147710519987 
2461	 0.221251683567157 
2462	 0.221087705467251 
2463	 0.220854202683428 
2464	 0.220793381442427 
2465	 0.22074605917716 
2466	 0.220838104670937 
2467	 0.221070818354323 
2468	 0.220979071877976 
2469	 0.220938840862964 
2470	 0.221086696394669 
2471	 0.221167912619772 
2472	 0.221419205761306 
2473	 0.221696831429549 
2474	 0.2217251589872 
2475	 0.221598948942668 
2476	 0.221490947187449 
2477	 0.221486289348411 
2478	 0.221398727177203 
2479	 0.221486351338308 
2480	 0.221606520990617 
2481	 0.221802512074954 
2482	 0.222209888889637 
2483	 0.222473722067602 
2484	 0.223045863729709 
2485	 0.223468343522501 
2486	 0.223802759541348 
2487	 0.224312123762982 
2488	 0.22463995551957 
2489	 0.224912143080575 
2490	 0.225257152327091 
2491	 0.225317329212806 
2492	 0.225370052232295 
2493	 0.225781209912162 
2494	 0.226163279245144 
2495	 0.226751184503687 
2496	 0.22747817632322 
2497	 0.227991288596673 
2498	 0.228630283453172 
2499	 0.22910302541145 
2500	 0.229662053484322 
