Wavelength	spectrum00001.asd
350	 5.68530004799536E-02 
351	 5.48782184882126E-02 
352	 0.052044517268297 
353	 4.99920608132422E-02 
354	 5.00387803561672E-02 
355	 4.96415291508652E-02 
356	 0.048882688498162 
357	 4.79924246689976E-02 
358	 4.53644635440027E-02 
359	 4.48051518587425E-02 
360	 4.56772249299767E-02 
361	 4.53174738342162E-02 
362	 4.53984196849398E-02 
363	 4.45668823765202E-02 
364	 4.28686909973536E-02 
365	 4.24625446836261E-02 
366	 4.23316996952324E-02 
367	 4.21681820472059E-02 
368	 4.21206555244821E-02 
369	 4.34840010029562E-02 
370	 4.37908739607063E-02 
371	 4.30590728736069E-02 
372	 4.26165056257119E-02 
373	 4.10600054123798E-02 
374	 4.12343712740932E-02 
375	 4.30396125357984E-02 
376	 4.16592496183666E-02 
377	 4.17183714970036E-02 
378	 4.22530454798394E-02 
379	 4.16784962438903E-02 
380	 4.13995090501892E-02 
381	 4.18396147876071E-02 
382	 4.20206109390274E-02 
383	 4.05665051928266E-02 
384	 0.040760009113963 
385	 4.12511865401795E-02 
386	 4.10895341775279E-02 
387	 0.040776091844224 
388	 4.01250998477691E-02 
389	 0.039704908537232 
390	 3.99137511084475E-02 
391	 3.98629549152957E-02 
392	 3.98026706851522E-02 
393	 3.99516748082538E-02 
394	 4.03790031349355E-02 
395	 3.99416479719683E-02 
396	 3.97137725492019E-02 
397	 4.00786631773756E-02 
398	 3.98144647269743E-02 
399	 3.96542930498056E-02 
400	 3.96093880773143E-02 
401	 3.95429042310055E-02 
402	 3.95679709476956E-02 
403	 3.97963584422154E-02 
404	 3.98192458116626E-02 
405	 3.90026959479861E-02 
406	 3.90484033604151E-02 
407	 3.91687106897214E-02 
408	 3.89023763706491E-02 
409	 3.92177764800235E-02 
410	 3.88704755599657E-02 
411	 3.85787000556854E-02 
412	 3.92571782089202E-02 
413	 3.95205929429868E-02 
414	 3.91278997583963E-02 
415	 3.85436848806845E-02 
416	 3.87239226891517E-02 
417	 3.88362232395284E-02 
418	 3.89007182291619E-02 
419	 3.89533676918567E-02 
420	 3.86548135213174E-02 
421	 3.85609982710233E-02 
422	 0.038755698761399 
423	 3.90572488839024E-02 
424	 3.90563493062777E-02 
425	 3.89644561398899E-02 
426	 3.90016694359241E-02 
427	 0.039328394069761 
428	 3.94497339591005E-02 
429	 3.95224964354828E-02 
430	 0.039713588952538 
431	 3.97179413806186E-02 
432	 3.98966520203147E-02 
433	 4.01680107324276E-02 
434	 4.02471552892989E-02 
435	 4.04832643879732E-02 
436	 4.07580849613291E-02 
437	 4.09847673096519E-02 
438	 4.12057996708458E-02 
439	 4.14582996461603E-02 
440	 4.16925138192859E-02 
441	 4.18594383287885E-02 
442	 0.041999585110674 
443	 4.23386831621024E-02 
444	 4.27972744908359E-02 
445	 4.30574154441292E-02 
446	 4.31067448000971E-02 
447	 4.31311852084768E-02 
448	 4.32839098292598E-02 
449	 4.35870644750669E-02 
450	 4.38639592536584E-02 
451	 4.40687774858786E-02 
452	 4.42171102127178E-02 
453	 4.43272237232655E-02 
454	 4.44144381394808E-02 
455	 4.44997800582581E-02 
456	 4.46093473217065E-02 
457	 4.46829593726214E-02 
458	 4.46871861593145E-02 
459	 4.46542526064238E-02 
460	 4.47975419378977E-02 
461	 4.48448230800646E-02 
462	 4.48537978904583E-02 
463	 4.50185610156375E-02 
464	 4.49560828954736E-02 
465	 4.49690321658883E-02 
466	 4.51122737781714E-02 
467	 4.49305489503981E-02 
468	 4.49950303838957E-02 
469	 4.51342159226297E-02 
470	 4.50935664756383E-02 
471	 0.045263989699546 
472	 4.52751862357381E-02 
473	 4.51705952608229E-02 
474	 4.53070365255163E-02 
475	 4.52659835496087E-02 
476	 4.53003093344191E-02 
477	 4.55343846509494E-02 
478	 4.55755466532283E-02 
479	 4.55605533559322E-02 
480	 4.56227922529939E-02 
481	 4.58388679058538E-02 
482	 4.58810863333123E-02 
483	 4.60154680623569E-02 
484	 4.62753747824424E-02 
485	 4.63854431902416E-02 
486	 0.046589920090511 
487	 4.67366235119402E-02 
488	 4.67393436013134E-02 
489	 4.69885794772086E-02 
490	 4.72998155616694E-02 
491	 4.75753349290576E-02 
492	 4.77817228121523E-02 
493	 4.79544910487018E-02 
494	 4.82089932507689E-02 
495	 4.85636742549349E-02 
496	 4.88722707184564E-02 
497	 4.90758780676025E-02 
498	 4.93396936011909E-02 
499	 4.98156472787955E-02 
500	 5.02637136927491E-02 
501	 5.06050869049787E-02 
502	 5.09113667999752E-02 
503	 5.13686632409245E-02 
504	 5.18716055201211E-02 
505	 5.23474461423204E-02 
506	 0.052788245087277 
507	 5.33271775121266E-02 
508	 5.38833805466585E-02 
509	 5.44313737313014E-02 
510	 0.05497535924519 
511	 5.55422212405391E-02 
512	 5.62059680891273E-02 
513	 5.69427205375873E-02 
514	 5.76047290993742E-02 
515	 0.05826828205392 
516	 5.89527904118257E-02 
517	 5.96786440211003E-02 
518	 6.05219122630703E-02 
519	 6.13790893860156E-02 
520	 6.22301070894667E-02 
521	 6.31193480314057E-02 
522	 6.41096801063375E-02 
523	 6.51114605652093E-02 
524	 6.60748106737515E-02 
525	 6.70677567925328E-02 
526	 6.81276404926911E-02 
527	 6.92587093215998E-02 
528	 7.04511552039945E-02 
529	 7.17192631506559E-02 
530	 7.29782622544895E-02 
531	 7.42566066052898E-02 
532	 7.56986128409692E-02 
533	 7.71079253339764E-02 
534	 0.07856493782672 
535	 8.01512792050308E-02 
536	 8.17869166467686E-02 
537	 8.34500700812332E-02 
538	 8.51530813788093E-02 
539	 8.69255496731992E-02 
540	 8.87146439334573E-02 
541	 9.05925611698715E-02 
542	 0.0925710962663 
543	 9.45385988161471E-02 
544	 9.65829648175633E-02 
545	 9.86617945839878E-02 
546	 0.10072123088398 
547	 0.102844627327546 
548	 0.104996868138418 
549	 0.107175778433772 
550	 0.109410706952385 
551	 0.111701639240253 
552	 0.114032481763105 
553	 0.116394104856841 
554	 0.118797253575616 
555	 0.121224394458303 
556	 0.123684624004238 
557	 0.126190205001999 
558	 0.128702329922459 
559	 0.131221471850861 
560	 0.133731542715813 
561	 0.136190423759796 
562	 0.138643261950956 
563	 0.141092039126362 
564	 0.143521646938518 
565	 0.145913917316331 
566	 0.148245660055243 
567	 0.15052679240738 
568	 0.152792176336896 
569	 0.155081621259798 
570	 0.157273961681115 
571	 0.159317988225175 
572	 0.161354211270686 
573	 0.163390228002119 
574	 0.165377449045011 
575	 0.167270001731788 
576	 0.169209431720445 
577	 0.171099535111893 
578	 0.172877147242951 
579	 0.174533749003129 
580	 0.176177897281131 
581	 0.177758212367574 
582	 0.179237623789293 
583	 0.180747277925637 
584	 0.182187935715286 
585	 0.183550572190066 
586	 0.184871077487231 
587	 0.186037539246732 
588	 0.187134911134889 
589	 0.188220788952705 
590	 0.189272439906524 
591	 0.190201269778383 
592	 0.191035250557214 
593	 0.191825785101878 
594	 0.192537073516114 
595	 0.193208280944271 
596	 0.193837663294833 
597	 0.194386434619475 
598	 0.194885734623375 
599	 0.195359876003178 
600	 0.195811343118041 
601	 0.196190915999919 
602	 0.196524190866805 
603	 0.196817144034361 
604	 0.197063635992682 
605	 0.197237679757908 
606	 0.197359271803903 
607	 0.197461790087187 
608	 0.197588581331156 
609	 0.197603551408919 
610	 0.197587372018418 
611	 0.197624235782959 
612	 0.197623082389368 
613	 0.197566724720063 
614	 0.197477902807563 
615	 0.197398603376453 
616	 0.197264215150097 
617	 0.197152849889532 
618	 0.197086520895975 
619	 0.196956868968961 
620	 0.196802422021279 
621	 0.196650539500815 
622	 0.196516774083221 
623	 0.196365958467829 
624	 0.196219578745795 
625	 0.19607390096252 
626	 0.195902067756894 
627	 0.195743820840686 
628	 0.195592183854763 
629	 0.195448412794739 
630	 0.195365731829165 
631	 0.195242131495024 
632	 0.19509984173948 
633	 0.194998010198116 
634	 0.194813868849686 
635	 0.194692508745206 
636	 0.194660092858788 
637	 0.194570535458762 
638	 0.194475787848868 
639	 0.194382185731561 
640	 0.194290643511807 
641	 0.194207401806406 
642	 0.19417020342244 
643	 0.19416731963884 
644	 0.194158293355758 
645	 0.194159025383304 
646	 0.194151133422191 
647	 0.194138448909817 
648	 0.194165662427916 
649	 0.194228171458263 
650	 0.194272898426645 
651	 0.194272397813061 
652	 0.194375530082029 
653	 0.194473336262566 
654	 0.194550612843131 
655	 0.194671109551307 
656	 0.194798546723627 
657	 0.1949429178927 
658	 0.195105989261846 
659	 0.195257388296619 
660	 0.195412482554858 
661	 0.195601597830579 
662	 0.195849024776455 
663	 0.196119226537437 
664	 0.196371046775753 
665	 0.196601738035913 
666	 0.196847909343309 
667	 0.197134009902726 
668	 0.19744970414834 
669	 0.197783603837588 
670	 0.198149895180114 
671	 0.198496504153223 
672	 0.198871274363126 
673	 0.199339324422765 
674	 0.199747896448779 
675	 0.200118056301018 
676	 0.20049847853507 
677	 0.200948986390501 
678	 0.201415406011865 
679	 0.201929103134221 
680	 0.202490197931305 
681	 0.202934500464555 
682	 0.203482509731235 
683	 0.204095457199347 
684	 0.204613668163544 
685	 0.205171994072534 
686	 0.205760480314622 
687	 0.206376827874859 
688	 0.207051449583974 
689	 0.207717465122568 
690	 0.208372641686647 
691	 0.209041074372884 
692	 0.209769398220296 
693	 0.210475065989181 
694	 0.211197946561074 
695	 0.212030446395373 
696	 0.212787196003162 
697	 0.213507169431106 
698	 0.214252009882165 
699	 0.215070087357124 
700	 0.215945890924156 
701	 0.21680437482498 
702	 0.217601747177612 
703	 0.218473725596299 
704	 0.21936705669931 
705	 0.220253748143503 
706	 0.221133019291309 
707	 0.222057258049529 
708	 0.22298969571905 
709	 0.22391450067537 
710	 0.224871750231755 
711	 0.22583039490589 
712	 0.226801615915579 
713	 0.22780261559554 
714	 0.228836494950088 
715	 0.229804431897961 
716	 0.230750073253302 
717	 0.231800644020957 
718	 0.232801569485596 
719	 0.233799469116801 
720	 0.23481906506752 
721	 0.23579629943685 
722	 0.236809041827821 
723	 0.23786583224275 
724	 0.238927324695525 
725	 0.23986298005817 
726	 0.240860630986829 
727	 0.241908915829618 
728	 0.24286546312337 
729	 0.243872297658224 
730	 0.244884932723669 
731	 0.2458681906665 
732	 0.246844466557769 
733	 0.247776640241287 
734	 0.248718672400089 
735	 0.249700257181012 
736	 0.25054703544203 
737	 0.251425739139648 
738	 0.252328868235386 
739	 0.253147666674878 
740	 0.254041826072971 
741	 0.254892536632121 
742	 0.255647053824684 
743	 0.256402856996824 
744	 0.257128159031518 
745	 0.257882260496988 
746	 0.258677916489089 
747	 0.259300631218584 
748	 0.259899707984224 
749	 0.260521737338125 
750	 0.261141281998269 
751	 0.261700206593706 
752	 0.262236315978365 
753	 0.262760353760501 
754	 0.263234937127059 
755	 0.263656954445583 
756	 0.264065118913735 
757	 0.264476222217721 
758	 0.264815641084743 
759	 0.265111712054865 
760	 0.26538920543436 
761	 0.265657976834055 
762	 0.265843748511373 
763	 0.266006372018766 
764	 0.266160028231143 
765	 0.266262210898759 
766	 0.266358104932226 
767	 0.266404227404004 
768	 0.266387297991678 
769	 0.266405591153885 
770	 0.266363585947172 
771	 0.266278763596543 
772	 0.266190541271419 
773	 0.266031771979462 
774	 0.265830079050314 
775	 0.265625354346293 
776	 0.265450104506788 
777	 0.265186916554119 
778	 0.264846687132084 
779	 0.264472979478742 
780	 0.26412838219854 
781	 0.263751250940549 
782	 0.263336787853673 
783	 0.262900212420037 
784	 0.262466485920473 
785	 0.262013544585964 
786	 0.261522144343823 
787	 0.260983860837904 
788	 0.260440029380602 
789	 0.259902845490097 
790	 0.259352167325441 
791	 0.258736193696201 
792	 0.258068881571857 
793	 0.257418964850759 
794	 0.25681860134893 
795	 0.256192330647782 
796	 0.255511866441556 
797	 0.254781047659378 
798	 0.254029777511986 
799	 0.253315881249269 
800	 0.252653270957518 
801	 0.251971114491317 
802	 0.251160612899691 
803	 0.250385713286462 
804	 0.249642494107483 
805	 0.2488946497257 
806	 0.24809420271866 
807	 0.247298783392421 
808	 0.246494117647754 
809	 0.24567103518318 
810	 0.24489028946067 
811	 0.244114773264011 
812	 0.243306919236368 
813	 0.242451438799197 
814	 0.241656443004889 
815	 0.240862045951473 
816	 0.240065850472619 
817	 0.239314669592081 
818	 0.238486565014064 
819	 0.237612954755808 
820	 0.236753786090489 
821	 0.235971615263135 
822	 0.235160708115571 
823	 0.234344753697945 
824	 0.233550986959483 
825	 0.232694868912718 
826	 0.231918695573405 
827	 0.231172269237517 
828	 0.230344250494542 
829	 0.229532578835505 
830	 0.228727308151983 
831	 0.227953424123096 
832	 0.227254115896714 
833	 0.226487298465634 
834	 0.225676858634943 
835	 0.224871014591308 
836	 0.224109646799626 
837	 0.223382384424221 
838	 0.222649526330222 
839	 0.221890332485492 
840	 0.221152281945009 
841	 0.220445751177189 
842	 0.219753201483257 
843	 0.219045864427434 
844	 0.218311549094908 
845	 0.217608351147881 
846	 0.216937278620657 
847	 0.216257815715655 
848	 0.21558741091923 
849	 0.214937348081718 
850	 0.214301966970257 
851	 0.213659638899327 
852	 0.213040010862606 
853	 0.212436406479017 
854	 0.211839755448252 
855	 0.211254282876827 
856	 0.210654493936696 
857	 0.210045835349717 
858	 0.20944928866529 
859	 0.208898780087939 
860	 0.208330914330499 
861	 0.207768376319284 
862	 0.207262111355944 
863	 0.206739657757155 
864	 0.206197835451536 
865	 0.205653779645176 
866	 0.205135539020228 
867	 0.20463860942163 
868	 0.204187382976035 
869	 0.203760923179041 
870	 0.203277751595146 
871	 0.202768123962324 
872	 0.202296668747597 
873	 0.201890055637207 
874	 0.201479713863312 
875	 0.201034637538762 
876	 0.200599098011611 
877	 0.200217098901708 
878	 0.199836989430162 
879	 0.199471596295053 
880	 0.199098655959671 
881	 0.198698919381627 
882	 0.19836078252255 
883	 0.198007236586821 
884	 0.197640825013421 
885	 0.197323565660648 
886	 0.197018011872061 
887	 0.196710639288915 
888	 0.196403195370352 
889	 0.196109715040709 
890	 0.195776407431618 
891	 0.195478769624239 
892	 0.195248637298125 
893	 0.195006365223613 
894	 0.194760315574085 
895	 0.194497047825659 
896	 0.19421854923258 
897	 0.193970506191062 
898	 0.193764552499808 
899	 0.193555263435868 
900	 0.193314102093654 
901	 0.193159129486929 
902	 0.192995848285928 
903	 0.192826421332843 
904	 0.192689932451631 
905	 0.192537066261695 
906	 0.19235645015956 
907	 0.192176579235495 
908	 0.192045523575783 
909	 0.191946842273754 
910	 0.191827582988955 
911	 0.191695406276277 
912	 0.191614152537903 
913	 0.191526220287486 
914	 0.19141164419523 
915	 0.191305888098825 
916	 0.191299202053274 
917	 0.191206964567769 
918	 0.191111491362428 
919	 0.191080390017519 
920	 0.191050028051481 
921	 0.190964125197606 
922	 0.190875051260592 
923	 0.190839709677427 
924	 0.190846943462926 
925	 0.190846172492056 
926	 0.190824031287013 
927	 0.190797547508891 
928	 0.190833248761537 
929	 0.190841754261516 
930	 0.190838119831744 
931	 0.190872235530972 
932	 0.190934967480396 
933	 0.190979456554237 
934	 0.191003563608338 
935	 0.191032112896634 
936	 0.191075753070439 
937	 0.191130465729012 
938	 0.191176014642405 
939	 0.191200242395093 
940	 0.191311466937971 
941	 0.191419091370537 
942	 0.191508693286345 
943	 0.191638160974995 
944	 0.191763898662811 
945	 0.191809695855411 
946	 0.191848190151515 
947	 0.192071651124216 
948	 0.192218885973663 
949	 0.192326768247075 
950	 0.192440359817803 
951	 0.192556448290027 
952	 0.192652908033007 
953	 0.192818965301021 
954	 0.193045336845033 
955	 0.193163213789079 
956	 0.193271246977248 
957	 0.193400984099018 
958	 0.193558485037839 
959	 0.193728231905478 
960	 0.193914782892911 
961	 0.194114867228167 
962	 0.194337606430989 
963	 0.194620758246264 
964	 0.194710252141766 
965	 0.194825058474148 
966	 0.195138384979792 
967	 0.195432551527385 
968	 0.195668445273702 
969	 0.195866184132597 
970	 0.196064919586845 
971	 0.196280464478275 
972	 0.196549258332213 
973	 0.196828950123442 
974	 0.197082121254587 
975	 0.197356771880155 
976	 0.197641708198866 
977	 0.197979668370083 
978	 0.198344055977065 
979	 0.198446389518902 
980	 0.198696829809125 
981	 0.19903894660798 
982	 0.199327331426277 
983	 0.199697663118322 
984	 0.200002808276298 
985	 0.200276525611633 
986	 0.200600681418596 
987	 0.200986522533667 
988	 0.20134029064811 
989	 0.201634899748919 
990	 0.201911780836782 
991	 0.202325248780791 
992	 0.202802641163283 
993	 0.203202232814775 
994	 0.203478017374297 
995	 0.203981328470025 
996	 0.204359322261343 
997	 0.204661069564151 
998	 0.20504239534362 
999	 0.205483763464647 
1000	 0.205917612871122 
1001	 0.206728042996988 
1002	 0.207136663467149 
1003	 0.207524685512509 
1004	 0.207931115284534 
1005	 0.208384909859591 
1006	 0.208792735836007 
1007	 0.209141063953833 
1008	 0.209555939097865 
1009	 0.209990766615403 
1010	 0.210424749070479 
1011	 0.210885164893056 
1012	 0.211340432182702 
1013	 0.211791282292603 
1014	 0.212257757783897 
1015	 0.212723611910428 
1016	 0.213201029961441 
1017	 0.213765275501587 
1018	 0.214292218327471 
1019	 0.214817129964162 
1020	 0.215396815357888 
1021	 0.215944182421775 
1022	 0.216456368581189 
1023	 0.216986790429411 
1024	 0.217523765163851 
1025	 0.218081010845978 
1026	 0.218632903222255 
1027	 0.219203505214266 
1028	 0.219806171080974 
1029	 0.220414682481479 
1030	 0.220987602279452 
1031	 0.221590629902582 
1032	 0.222207584558227 
1033	 0.222794605587364 
1034	 0.223422954821091 
1035	 0.224064112180936 
1036	 0.224698737225708 
1037	 0.225360995652618 
1038	 0.225992638109693 
1039	 0.226601373276707 
1040	 0.227226598979505 
1041	 0.227804248252476 
1042	 0.228449735344688 
1043	 0.229143953889303 
1044	 0.229840654442379 
1045	 0.230539480159219 
1046	 0.23125020181715 
1047	 0.231903005888142 
1048	 0.232575440224915 
1049	 0.23323684720641 
1050	 0.233929569604539 
1051	 0.234669468666796 
1052	 0.235361597954138 
1053	 0.236104904366713 
1054	 0.236916945728201 
1055	 0.237669757501894 
1056	 0.238395409890412 
1057	 0.239174007305166 
1058	 0.239954990013606 
1059	 0.240710910767744 
1060	 0.241550858565695 
1061	 0.242380629937235 
1062	 0.243188333782927 
1063	 0.24400717399223 
1064	 0.244779390335302 
1065	 0.245581972999806 
1066	 0.246390632310279 
1067	 0.24718999392494 
1068	 0.248042375483103 
1069	 0.248869472799309 
1070	 0.249715364472402 
1071	 0.250562956107974 
1072	 0.251438439564024 
1073	 0.252287865133307 
1074	 0.253172421664258 
1075	 0.25402903821683 
1076	 0.254854370193056 
1077	 0.255756068137833 
1078	 0.256640456291204 
1079	 0.257562803621205 
1080	 0.258535706891151 
1081	 0.259414641124133 
1082	 0.260302506117293 
1083	 0.261184598495302 
1084	 0.262052528781494 
1085	 0.263015105553888 
1086	 0.263960028420867 
1087	 0.26491773285459 
1088	 0.265878982137588 
1089	 0.26685403640469 
1090	 0.267771988720565 
1091	 0.268724117357432 
1092	 0.269683418273477 
1093	 0.270649856136574 
1094	 0.271677153412037 
1095	 0.272650500831594 
1096	 0.273659039190892 
1097	 0.274700896049215 
1098	 0.275656440643079 
1099	 0.276654189511812 
1100	 0.277633046536012 
1101	 0.27858890637906 
1102	 0.279632615091667 
1103	 0.28065689170497 
1104	 0.281688339560631 
1105	 0.282755772946065 
1106	 0.283814456797419 
1107	 0.284806517316845 
1108	 0.285874040526212 
1109	 0.286903600423499 
1110	 0.287914813095919 
1111	 0.289002545593419 
1112	 0.290041032464153 
1113	 0.291132972444118 
1114	 0.292271683257762 
1115	 0.293340928790998 
1116	 0.294420047030799 
1117	 0.295462565883208 
1118	 0.296528030208529 
1119	 0.297601813362668 
1120	 0.298685354101336 
1121	 0.299766238839826 
1122	 0.300892705837753 
1123	 0.30201618653123 
1124	 0.303065457664174 
1125	 0.3041804886808 
1126	 0.305267051731852 
1127	 0.306329305633787 
1128	 0.30746845289162 
1129	 0.308539751766904 
1130	 0.309624597301056 
1131	 0.310746461711877 
1132	 0.311787623199351 
1133	 0.312855808293408 
1134	 0.31391173224055 
1135	 0.3149783744223 
1136	 0.316058411977803 
1137	 0.317125433362698 
1138	 0.318191055504844 
1139	 0.31926696057185 
1140	 0.320356144893274 
1141	 0.321370552475826 
1142	 0.322428522764744 
1143	 0.323450831868198 
1144	 0.324442687582756 
1145	 0.325485753526818 
1146	 0.326482931758756 
1147	 0.327516428170712 
1148	 0.328565180213756 
1149	 0.329517488322216 
1150	 0.330512912686831 
1151	 0.331506347701103 
1152	 0.332496139884674 
1153	 0.333499315298376 
1154	 0.334486486131735 
1155	 0.335458347805058 
1156	 0.336433588561883 
1157	 0.337389659625341 
1158	 0.338337234910143 
1159	 0.339288452732292 
1160	 0.34024272660272 
1161	 0.341176847393384 
1162	 0.342141008850914 
1163	 0.34306184530393 
1164	 0.343989946753786 
1165	 0.344928740789883 
1166	 0.345795572744087 
1167	 0.346676382643736 
1168	 0.347546632117361 
1169	 0.348414824990805 
1170	 0.349270725890074 
1171	 0.350130321520904 
1172	 0.351000104667515 
1173	 0.351850122000305 
1174	 0.352671924811291 
1175	 0.353496638484037 
1176	 0.354333548888782 
1177	 0.35514056901085 
1178	 0.355929009481696 
1179	 0.356733491776248 
1180	 0.357460840010525 
1181	 0.358194553617873 
1182	 0.358944626868938 
1183	 0.359627383356349 
1184	 0.360348720304758 
1185	 0.361069313433899 
1186	 0.361783113847753 
1187	 0.362492993473629 
1188	 0.36320956430272 
1189	 0.363933594381514 
1190	 0.364642420246273 
1191	 0.365340970746908 
1192	 0.366032073200871 
1193	 0.366718214008706 
1194	 0.367392542507268 
1195	 0.368061646822318 
1196	 0.368729747317123 
1197	 0.369374398233653 
1198	 0.37004221450485 
1199	 0.370739601917547 
1200	 0.371391670936253 
1201	 0.372053716988096 
1202	 0.372709788440964 
1203	 0.373351831921389 
1204	 0.374037558265273 
1205	 0.374712173313833 
1206	 0.375403205410452 
1207	 0.376092194205805 
1208	 0.376763784048657 
1209	 0.377466808097802 
1210	 0.37818436981535 
1211	 0.378922688205879 
1212	 0.3797054762554 
1213	 0.380463372254995 
1214	 0.381207827612591 
1215	 0.381988504347215 
1216	 0.38278771704377 
1217	 0.38356412902275 
1218	 0.38436018629601 
1219	 0.38515495376405 
1220	 0.385904798937984 
1221	 0.386681450528522 
1222	 0.387447516399957 
1223	 0.38822701952842 
1224	 0.38898984180428 
1225	 0.389739944768133 
1226	 0.390480576746254 
1227	 0.391218676536694 
1228	 0.391940326108716 
1229	 0.392662126916334 
1230	 0.393349609182142 
1231	 0.394018115048179 
1232	 0.394670524129987 
1233	 0.395289438125508 
1234	 0.395894350210492 
1235	 0.39647595740319 
1236	 0.397063393695232 
1237	 0.397646457788012 
1238	 0.398211744175274 
1239	 0.398764232328962 
1240	 0.399325256259738 
1241	 0.399877167397313 
1242	 0.400360964547505 
1243	 0.400863264321857 
1244	 0.401356504187824 
1245	 0.401850754470152 
1246	 0.402333596908581 
1247	 0.402822588743351 
1248	 0.403327493658615 
1249	 0.403800528114852 
1250	 0.404250912010566 
1251	 0.404710750161451 
1252	 0.40515450500469 
1253	 0.40560997214494 
1254	 0.406085590599722 
1255	 0.406540972138055 
1256	 0.406993392212002 
1257	 0.407435490938392 
1258	 0.407878442090121 
1259	 0.408293347017349 
1260	 0.408686087601453 
1261	 0.409073469096714 
1262	 0.40943836425552 
1263	 0.409794022454536 
1264	 0.410153876740713 
1265	 0.410521948430669 
1266	 0.410859767133632 
1267	 0.411178421776255 
1268	 0.411504305130925 
1269	 0.411814647410263 
1270	 0.412128441974746 
1271	 0.412457500266662 
1272	 0.412757786756525 
1273	 0.413026502890176 
1274	 0.413318868376494 
1275	 0.41360846188591 
1276	 0.413898790808596 
1277	 0.41421969081159 
1278	 0.414499833784766 
1279	 0.414746822471514 
1280	 0.415003687379031 
1281	 0.415244367253339 
1282	 0.415485550592967 
1283	 0.415733968823324 
1284	 0.415973264443896 
1285	 0.416205549042717 
1286	 0.41642254530866 
1287	 0.416654276342587 
1288	 0.416888339043902 
1289	 0.417119974186965 
1290	 0.417360760888467 
1291	 0.417582126144828 
1292	 0.417795195828287 
1293	 0.418001101161374 
1294	 0.418188611826839 
1295	 0.418389341543791 
1296	 0.418591471890181 
1297	 0.418790383942628 
1298	 0.418992739911293 
1299	 0.419191943701287 
1300	 0.419386632679367 
1301	 0.419579915238139 
1302	 0.419772768052051 
1303	 0.419964916803318 
1304	 0.420155248759012 
1305	 0.42034225523059 
1306	 0.420529932847705 
1307	 0.420713463484924 
1308	 0.420891621692172 
1309	 0.421066819512456 
1310	 0.421243414606813 
1311	 0.421414095444986 
1312	 0.421600268037461 
1313	 0.421796704303137 
1314	 0.421979585473403 
1315	 0.422167944788705 
1316	 0.422346953274127 
1317	 0.422514015422347 
1318	 0.42268218438105 
1319	 0.422849116152721 
1320	 0.423017026837385 
1321	 0.423175380201881 
1322	 0.423344412476501 
1323	 0.423526930027185 
1324	 0.423696515834344 
1325	 0.423861260913799 
1326	 0.424029437882108 
1327	 0.424201473846733 
1328	 0.424359200942164 
1329	 0.42451310645428 
1330	 0.424663494068049 
1331	 0.424789897322501 
1332	 0.424932373592412 
1333	 0.425081014996795 
1334	 0.425242779618751 
1335	 0.425384519141084 
1336	 0.42552834603122 
1337	 0.425658278983696 
1338	 0.425770976666086 
1339	 0.425891567679266 
1340	 0.426014328120758 
1341	 0.426126147272292 
1342	 0.426237828015755 
1343	 0.426334306027611 
1344	 0.426424045916746 
1345	 0.426497408798289 
1346	 0.42655836845082 
1347	 0.426609135191788 
1348	 0.426646888372798 
1349	 0.426675099421412 
1350	 0.426684434198635 
1351	 0.426702007355066 
1352	 0.426718647150501 
1353	 0.426725206509083 
1354	 0.426735265745135 
1355	 0.426733644345067 
1356	 0.426713452707679 
1357	 0.426696096820512 
1358	 0.426672052031093 
1359	 0.426652528952826 
1360	 0.42663754868995 
1361	 0.426617684064427 
1362	 0.426590189954702 
1363	 0.426558236767012 
1364	 0.426520227006447 
1365	 0.426469915546907 
1366	 0.426421745826002 
1367	 0.426380740426518 
1368	 0.426314405080368 
1369	 0.426242870926536 
1370	 0.426143853430382 
1371	 0.426023952319093 
1372	 0.425892387737731 
1373	 0.42574865220283 
1374	 0.425578550929196 
1375	 0.425386483513677 
1376	 0.425182693567988 
1377	 0.424950482223435 
1378	 0.424715916066292 
1379	 0.424468645588743 
1380	 0.424221422306242 
1381	 0.423967130423302 
1382	 0.423705767815371 
1383	 0.423439359121906 
1384	 0.423170802073396 
1385	 0.42290281573201 
1386	 0.422618992407377 
1387	 0.422329783190466 
1388	 0.422034937273861 
1389	 0.421722560010668 
1390	 0.421409899380252 
1391	 0.421100954854593 
1392	 0.420773030640043 
1393	 0.420451009030713 
1394	 0.420130219510678 
1395	 0.419824615253358 
1396	 0.419524830769039 
1397	 0.419244661794032 
1398	 0.418992703611696 
1399	 0.418706588219939 
1400	 0.418442242988363 
1401	 0.418108877367558 
1402	 0.41776864323658 
1403	 0.417325960695182 
1404	 0.416840473957559 
1405	 0.416261920903583 
1406	 0.415589252102597 
1407	 0.414868500868168 
1408	 0.414051398441123 
1409	 0.413235632317379 
1410	 0.41233239532076 
1411	 0.411490054668022 
1412	 0.410607251240842 
1413	 0.409830276836326 
1414	 0.409065236969283 
1415	 0.408423030397006 
1416	 0.40786589863008 
1417	 0.407397079903506 
1418	 0.407060986923686 
1419	 0.406741487580286 
1420	 0.406521419991725 
1421	 0.406290439739573 
1422	 0.406103669340421 
1423	 0.405895045322358 
1424	 0.405704486567864 
1425	 0.405484906099681 
1426	 0.405229881124584 
1427	 0.404948692460136 
1428	 0.404632792598971 
1429	 0.404307351191476 
1430	 0.403978275004021 
1431	 0.403636950275901 
1432	 0.403297442398507 
1433	 0.402939276191473 
1434	 0.402616224944653 
1435	 0.402295853590411 
1436	 0.402001544353583 
1437	 0.401731704901949 
1438	 0.401477151892918 
1439	 0.401239379498428 
1440	 0.401013196752981 
1441	 0.400794037885121 
1442	 0.400614514308523 
1443	 0.400429370352472 
1444	 0.400328435706914 
1445	 0.400250360788682 
1446	 0.400285578456216 
1447	 0.400381992389437 
1448	 0.400588532016013 
1449	 0.400913932342194 
1450	 0.401293198766223 
1451	 0.401798002788049 
1452	 0.402295388983752 
1453	 0.402883850091561 
1454	 0.403417826894762 
1455	 0.403944045880538 
1456	 0.404469335778914 
1457	 0.404949374951628 
1458	 0.405481553211772 
1459	 0.406020389322879 
1460	 0.406608707852812 
1461	 0.407252822631921 
1462	 0.407899771566296 
1463	 0.408596505239352 
1464	 0.409278859611555 
1465	 0.40995819316395 
1466	 0.410659282605127 
1467	 0.41131540041127 
1468	 0.411965617527827 
1469	 0.412563674876053 
1470	 0.413096615792046 
1471	 0.413616866251659 
1472	 0.414093368817666 
1473	 0.41456042329192 
1474	 0.415009345546479 
1475	 0.415427652764249 
1476	 0.41582561671292 
1477	 0.416184245744403 
1478	 0.416506121496892 
1479	 0.416808191594192 
1480	 0.417077807341603 
1481	 0.417327570762688 
1482	 0.41753406795646 
1483	 0.417772717469151 
1484	 0.417994968594895 
1485	 0.4182381093034 
1486	 0.418512903805097 
1487	 0.418762918226597 
1488	 0.41899181521081 
1489	 0.41925112541947 
1490	 0.419514434864058 
1491	 0.419792501824329 
1492	 0.420087111187447 
1493	 0.420396931256398 
1494	 0.420721096646172 
1495	 0.421048559544639 
1496	 0.421395722123253 
1497	 0.421742657089892 
1498	 0.422106325648468 
1499	 0.422444624956801 
1500	 0.422781777853514 
1501	 0.423107044490644 
1502	 0.423404277565543 
1503	 0.423706151031169 
1504	 0.424016082728096 
1505	 0.424308057805948 
1506	 0.424591149282783 
1507	 0.424861101790688 
1508	 0.425125301120151 
1509	 0.425366009249662 
1510	 0.42558714101746 
1511	 0.425795518623615 
1512	 0.425965007642614 
1513	 0.426153131109802 
1514	 0.426352206431349 
1515	 0.426533663316436 
1516	 0.426717967688111 
1517	 0.426890695259833 
1518	 0.427044003711611 
1519	 0.427190003344188 
1520	 0.427324569368786 
1521	 0.427460389428282 
1522	 0.427591297896157 
1523	 0.427729082452454 
1524	 0.427862108719718 
1525	 0.428005151979659 
1526	 0.428129902553935 
1527	 0.428243495011106 
1528	 0.428353498137057 
1529	 0.428456367106286 
1530	 0.428559362473221 
1531	 0.428657422964396 
1532	 0.428752688867281 
1533	 0.428843454302618 
1534	 0.428940749713962 
1535	 0.429033781261214 
1536	 0.429134761855683 
1537	 0.429237898905332 
1538	 0.429357699692979 
1539	 0.429486195862353 
1540	 0.429617953385544 
1541	 0.429762303816077 
1542	 0.429910914652382 
1543	 0.430049551601737 
1544	 0.430226246476029 
1545	 0.430433770005248 
1546	 0.430631720588804 
1547	 0.4308448426104 
1548	 0.431060096318096 
1549	 0.43126047377881 
1550	 0.431501917448056 
1551	 0.431773180122689 
1552	 0.432043413029765 
1553	 0.432341904720555 
1554	 0.432622586655621 
1555	 0.432906406350412 
1556	 0.433175764723507 
1557	 0.433435943694374 
1558	 0.433694211722669 
1559	 0.433940893072603 
1560	 0.434190665369451 
1561	 0.434440965259799 
1562	 0.434688160572377 
1563	 0.434923712502603 
1564	 0.435177021720592 
1565	 0.435450453300572 
1566	 0.435697350623852 
1567	 0.435945421017196 
1568	 0.436181320453599 
1569	 0.436395608930383 
1570	 0.43660703374779 
1571	 0.436823823668792 
1572	 0.437017807295104 
1573	 0.437172886245196 
1574	 0.437360643926599 
1575	 0.437558084700811 
1576	 0.437746908841131 
1577	 0.437946968289244 
1578	 0.43814450670486 
1579	 0.438334948255718 
1580	 0.43851951282628 
1581	 0.438709366953848 
1582	 0.438893214919361 
1583	 0.43906342650879 
1584	 0.439234611745602 
1585	 0.439409852068485 
1586	 0.439579068963529 
1587	 0.439737586325251 
1588	 0.439899847305723 
1589	 0.440062363761429 
1590	 0.44022575136531 
1591	 0.440388683899528 
1592	 0.440552006719605 
1593	 0.440713512384553 
1594	 0.44088113172807 
1595	 0.441055755308599 
1596	 0.441223850703498 
1597	 0.441394501017241 
1598	 0.441561569925917 
1599	 0.441724243136932 
1600	 0.441882091585585 
1601	 0.442046697113267 
1602	 0.442192313540744 
1603	 0.442325297526663 
1604	 0.442449413525803 
1605	 0.442540928146811 
1606	 0.442659790585162 
1607	 0.442804869699839 
1608	 0.442916832019864 
1609	 0.443029503696199 
1610	 0.443130747112938 
1611	 0.443195559220573 
1612	 0.443269761048761 
1613	 0.443357315532878 
1614	 0.443426980459993 
1615	 0.443479528971248 
1616	 0.443533826912957 
1617	 0.443578008077698 
1618	 0.443626778797804 
1619	 0.443684916566144 
1620	 0.443726850470475 
1621	 0.443766380339592 
1622	 0.443793221350139 
1623	 0.44380512051888 
1624	 0.443809554675572 
1625	 0.443793344572382 
1626	 0.443791989336936 
1627	 0.443779545383466 
1628	 0.44378721616796 
1629	 0.443826083327264 
1630	 0.443844682481192 
1631	 0.443863621656493 
1632	 0.44387886733715 
1633	 0.443878179727145 
1634	 0.443888889993481 
1635	 0.443901156672646 
1636	 0.443920484712311 
1637	 0.443948272232248 
1638	 0.44397213125375 
1639	 0.444002382034602 
1640	 0.444030588768689 
1641	 0.444065257166403 
1642	 0.444084269914567 
1643	 0.444113286569489 
1644	 0.444102698369518 
1645	 0.444058545258628 
1646	 0.444008357251306 
1647	 0.443934788922164 
1648	 0.44385122680483 
1649	 0.44374583313774 
1650	 0.443653459470263 
1651	 0.443557050276227 
1652	 0.443453122374925 
1653	 0.443375556395931 
1654	 0.443256437042867 
1655	 0.44311148791752 
1656	 0.442942856912247 
1657	 0.442745582510627 
1658	 0.442529271960956 
1659	 0.442298364480484 
1660	 0.442034078777452 
1661	 0.44175583954697 
1662	 0.441427905064601 
1663	 0.441049420264102 
1664	 0.440651622351027 
1665	 0.440235274348463 
1666	 0.439750867670497 
1667	 0.439235183416454 
1668	 0.438662035924407 
1669	 0.438014643053428 
1670	 0.437338556501949 
1671	 0.436615295868857 
1672	 0.435855665437988 
1673	 0.435071583292976 
1674	 0.434206076024445 
1675	 0.433284582359341 
1676	 0.432335023522369 
1677	 0.431314951347527 
1678	 0.430274011743873 
1679	 0.429206450061685 
1680	 0.428085081758217 
1681	 0.426911387481496 
1682	 0.425700755150376 
1683	 0.424473516027322 
1684	 0.423178876140796 
1685	 0.42182993599133 
1686	 0.420424976692126 
1687	 0.418921665298773 
1688	 0.417430084696681 
1689	 0.415914115888984 
1690	 0.41435035683646 
1691	 0.412782021092532 
1692	 0.411171815564526 
1693	 0.409509705761356 
1694	 0.407813419119871 
1695	 0.406076873764421 
1696	 0.404294427750258 
1697	 0.402443879264432 
1698	 0.400593547630498 
1699	 0.398701305331923 
1700	 0.396892466715082 
1701	 0.395082927823369 
1702	 0.393342920908529 
1703	 0.391625590872229 
1704	 0.390008145876928 
1705	 0.388442100214177 
1706	 0.386943793228384 
1707	 0.385632218921473 
1708	 0.384371819592405 
1709	 0.383172953704153 
1710	 0.382088891119339 
1711	 0.38101722429049 
1712	 0.380015061498454 
1713	 0.379047715694936 
1714	 0.37811334501966 
1715	 0.377291222955071 
1716	 0.376486187991986 
1717	 0.375711657472865 
1718	 0.37498714745035 
1719	 0.374264427057611 
1720	 0.373626558823729 
1721	 0.373099902155087 
1722	 0.372642450889138 
1723	 0.372297282803421 
1724	 0.372054464855768 
1725	 0.3719280776391 
1726	 0.371991626893173 
1727	 0.372202451290809 
1728	 0.372534915232778 
1729	 0.37302024685698 
1730	 0.373620320341405 
1731	 0.374292515728541 
1732	 0.375090395406229 
1733	 0.375864345406907 
1734	 0.376592104199956 
1735	 0.377325036995912 
1736	 0.377950699161422 
1737	 0.378489781065271 
1738	 0.37888357515432 
1739	 0.379162492102264 
1740	 0.379296560009226 
1741	 0.379365254962045 
1742	 0.379330325081711 
1743	 0.379236453152956 
1744	 0.379024205989644 
1745	 0.378814787262748 
1746	 0.378525331969962 
1747	 0.378285128556432 
1748	 0.378038658889969 
1749	 0.377828203163416 
1750	 0.377607263748276 
1751	 0.377485319093971 
1752	 0.377394078750486 
1753	 0.377408011797215 
1754	 0.377497603523756 
1755	 0.377700555454486 
1756	 0.377991367875884 
1757	 0.378403438503842 
1758	 0.378962302887395 
1759	 0.379562929098112 
1760	 0.380270321594419 
1761	 0.381104247330671 
1762	 0.381985905463282 
1763	 0.383025022974775 
1764	 0.384124546654743 
1765	 0.385249078638367 
1766	 0.386487801599325 
1767	 0.387709727471933 
1768	 0.388987428776596 
1769	 0.390266064142421 
1770	 0.39140181524596 
1771	 0.392523167146131 
1772	 0.393551912402498 
1773	 0.394504512390199 
1774	 0.39549499979117 
1775	 0.396382336714694 
1776	 0.397216406473829 
1777	 0.398009978571128 
1778	 0.398665321833841 
1779	 0.399299917930031 
1780	 0.399911859694992 
1781	 0.400462436505484 
1782	 0.401030740733535 
1783	 0.401559081552764 
1784	 0.402028349921083 
1785	 0.402462634394021 
1786	 0.402862116400716 
1787	 0.403203491931096 
1788	 0.403554339701176 
1789	 0.403897247705964 
1790	 0.404220068696267 
1791	 0.404529660636505 
1792	 0.404830944785087 
1793	 0.405089874457425 
1794	 0.405368639632699 
1795	 0.405654463101476 
1796	 0.405929076608472 
1797	 0.406206186945217 
1798	 0.406455032601138 
1799	 0.406715629791781 
1800	 0.407002262571851 
1801	 0.403206243215831 
1802	 0.403467705306689 
1803	 0.403737336322258 
1804	 0.403996772050659 
1805	 0.404294277906219 
1806	 0.404557418540959 
1807	 0.40481787116174 
1808	 0.405076680519521 
1809	 0.405328983796157 
1810	 0.405565058698525 
1811	 0.405787135564205 
1812	 0.406029863277313 
1813	 0.406270250962361 
1814	 0.406498335451271 
1815	 0.406761302795445 
1816	 0.407054767579121 
1817	 0.407324744175499 
1818	 0.407589380665392 
1819	 0.407859095120761 
1820	 0.408117272152806 
1821	 0.408387227111671 
1822	 0.408656242751824 
1823	 0.408955458352987 
1824	 0.409236030923431 
1825	 0.409537220390642 
1826	 0.40982070845699 
1827	 0.410091181161387 
1828	 0.410367524818436 
1829	 0.410649878533769 
1830	 0.410916082102929 
1831	 0.411174052399849 
1832	 0.411443904262658 
1833	 0.411681543944619 
1834	 0.411922812272183 
1835	 0.412160678057269 
1836	 0.412384653508567 
1837	 0.41261570466964 
1838	 0.412845217907565 
1839	 0.413070742138623 
1840	 0.413302423921065 
1841	 0.413525457718636 
1842	 0.413737941852044 
1843	 0.413956778041462 
1844	 0.414193220157375 
1845	 0.414383434431732 
1846	 0.414569738986552 
1847	 0.414754044652041 
1848	 0.414909204097453 
1849	 0.415045880716027 
1850	 0.415159240123824 
1851	 0.415259385510351 
1852	 0.415327139794384 
1853	 0.415365234734248 
1854	 0.415358416035735 
1855	 0.415326497925106 
1856	 0.415253005562371 
1857	 0.415134291817627 
1858	 0.414992489245997 
1859	 0.414828193237949 
1860	 0.4146470082907 
1861	 0.41441800828071 
1862	 0.41415820267111 
1863	 0.413870961744765 
1864	 0.413535235015364 
1865	 0.413146666703231 
1866	 0.412722251017984 
1867	 0.412247621173753 
1868	 0.411727768717546 
1869	 0.411149340025134 
1870	 0.410531623022086 
1871	 0.409875050566373 
1872	 0.40918625742479 
1873	 0.408448241906497 
1874	 0.407702444500295 
1875	 0.406946328640947 
1876	 0.406061609426211 
1877	 0.40516676541298 
1878	 0.40418458835294 
1879	 0.403077966186849 
1880	 0.401985648776268 
1881	 0.400790435063647 
1882	 0.399500863447789 
1883	 0.398157106992909 
1884	 0.396750520258918 
1885	 0.395181507672994 
1886	 0.393602376312033 
1887	 0.391930712237509 
1888	 0.390136520795136 
1889	 0.38843258760987 
1890	 0.386649754472594 
1891	 0.384856742233526 
1892	 0.38311345144791 
1893	 0.38134153772387 
1894	 0.379512054257408 
1895	 0.377773424964356 
1896	 0.376045275444448 
1897	 0.374362469915318 
1898	 0.372845512460951 
1899	 0.371321060170821 
1900	 0.369865345639809 
1901	 0.368503130887286 
1902	 0.367106553307947 
1903	 0.365836918600897 
1904	 0.364629025296282 
1905	 0.363482721329079 
1906	 0.362388093794532 
1907	 0.361439703710148 
1908	 0.360504131396775 
1909	 0.359621092418986 
1910	 0.35879551693767 
1911	 0.357939452076482 
1912	 0.357136775134028 
1913	 0.356352093045741 
1914	 0.355572592496736 
1915	 0.35483070591084 
1916	 0.354148289129337 
1917	 0.353429082424632 
1918	 0.352714825736989 
1919	 0.35202310667453 
1920	 0.351304421914062 
1921	 0.350630275748838 
1922	 0.349961929285528 
1923	 0.349293670008901 
1924	 0.348682278460541 
1925	 0.348037805341208 
1926	 0.347411485133016 
1927	 0.34680562376491 
1928	 0.346199312787019 
1929	 0.345571073097358 
1930	 0.345002345245351 
1931	 0.344459816697189 
1932	 0.343929559553722 
1933	 0.343502829481929 
1934	 0.343120613854143 
1935	 0.342771397502635 
1936	 0.342520938453571 
1937	 0.342316160967433 
1938	 0.342155142971298 
1939	 0.342065327476196 
1940	 0.3420516793682 
1941	 0.342074650847483 
1942	 0.342143847540938 
1943	 0.342281336980466 
1944	 0.342457543338553 
1945	 0.342710376838993 
1946	 0.343060430559307 
1947	 0.343442841713813 
1948	 0.343903597974747 
1949	 0.344423680279563 
1950	 0.344966882463539 
1951	 0.345558343859835 
1952	 0.346187133876834 
1953	 0.346850834794441 
1954	 0.34754465061807 
1955	 0.348305194189137 
1956	 0.349040779611344 
1957	 0.349792033561124 
1958	 0.350545114297685 
1959	 0.351222835729466 
1960	 0.351878168190522 
1961	 0.352481298939064 
1962	 0.353026294378306 
1963	 0.353541408661822 
1964	 0.354026157833762 
1965	 0.354451301479643 
1966	 0.354821944523876 
1967	 0.355175382641412 
1968	 0.355475572194337 
1969	 0.355753974213953 
1970	 0.356011146625732 
1971	 0.356248599660875 
1972	 0.356509668121255 
1973	 0.356774470883312 
1974	 0.357061159961529 
1975	 0.357383013375702 
1976	 0.357707112063405 
1977	 0.358032958509305 
1978	 0.358382386642884 
1979	 0.35875208170143 
1980	 0.359122344465405 
1981	 0.35954297133479 
1982	 0.359936523429016 
1983	 0.360372031410645 
1984	 0.360844385952398 
1985	 0.361285658840577 
1986	 0.361801968005685 
1987	 0.362338775622428 
1988	 0.362889940754016 
1989	 0.363495952293387 
1990	 0.364145087730096 
1991	 0.364822113094762 
1992	 0.365550370961195 
1993	 0.366314248706982 
1994	 0.367033883478678 
1995	 0.367802591316926 
1996	 0.368551806647554 
1997	 0.369260182092741 
1998	 0.370010878282397 
1999	 0.370810609209484 
2000	 0.371541795693186 
2001	 0.37228529873193 
2002	 0.372966666946232 
2003	 0.37359829599559 
2004	 0.374199270396512 
2005	 0.374752100262853 
2006	 0.375287969044616 
2007	 0.375800402377501 
2008	 0.376272336273673 
2009	 0.376722083087415 
2010	 0.377136212879171 
2011	 0.377471175726302 
2012	 0.37779775581531 
2013	 0.378079215418062 
2014	 0.378302512697431 
2015	 0.378523401826802 
2016	 0.37873619616365 
2017	 0.378887410809631 
2018	 0.378988899979739 
2019	 0.379090529209011 
2020	 0.379163657710637 
2021	 0.379198563469124 
2022	 0.379224544154081 
2023	 0.379227014105531 
2024	 0.379180090717012 
2025	 0.379104424975214 
2026	 0.379026989886339 
2027	 0.37893619712651 
2028	 0.378838045136011 
2029	 0.378724366814343 
2030	 0.378599777455785 
2031	 0.378459542598139 
2032	 0.378322525392848 
2033	 0.378161645646888 
2034	 0.378025559566722 
2035	 0.377906983593178 
2036	 0.377777840628214 
2037	 0.377659175116948 
2038	 0.377551988554723 
2039	 0.377450901572824 
2040	 0.377352212641135 
2041	 0.377266402637415 
2042	 0.377195975612392 
2043	 0.377127152238883 
2044	 0.377067990506694 
2045	 0.377008397446887 
2046	 0.376961246165731 
2047	 0.376899056532007 
2048	 0.376805633615862 
2049	 0.376755965539665 
2050	 0.376724077030941 
2051	 0.376700571719447 
2052	 0.376688258594102 
2053	 0.376674357397769 
2054	 0.376646091445849 
2055	 0.376589576624516 
2056	 0.376551926064855 
2057	 0.376526730951737 
2058	 0.376488819592176 
2059	 0.3764445263356 
2060	 0.376399997453884 
2061	 0.376350739874823 
2062	 0.376301746055064 
2063	 0.376250131527681 
2064	 0.376203031495861 
2065	 0.376163529021652 
2066	 0.3761146277742 
2067	 0.376054073590316 
2068	 0.375981993220232 
2069	 0.375917299404341 
2070	 0.375833813437971 
2071	 0.375776966833688 
2072	 0.37574869378447 
2073	 0.375690724420795 
2074	 0.375632463809568 
2075	 0.375561112293927 
2076	 0.375474168063955 
2077	 0.375383311433611 
2078	 0.375275797103979 
2079	 0.375178686628735 
2080	 0.375085421963474 
2081	 0.374981526776652 
2082	 0.374879918700397 
2083	 0.37478013806156 
2084	 0.374648902972622 
2085	 0.374507507384859 
2086	 0.374371505509871 
2087	 0.374221241643412 
2088	 0.374090541108404 
2089	 0.373976227166035 
2090	 0.373845043313525 
2091	 0.373722687462635 
2092	 0.373581428402663 
2093	 0.373428412275807 
2094	 0.373266058790671 
2095	 0.37308725923004 
2096	 0.37290655203847 
2097	 0.372732979813539 
2098	 0.372524977102395 
2099	 0.372309183143274 
2100	 0.372090589088471 
2101	 0.37182026075468 
2102	 0.371504132089919 
2103	 0.371202718644692 
2104	 0.37087096362024 
2105	 0.370547980981322 
2106	 0.370242917337873 
2107	 0.369891681224501 
2108	 0.369519780414501 
2109	 0.369129481645074 
2110	 0.368709132605266 
2111	 0.368283980803369 
2112	 0.367844550094329 
2113	 0.367388552888515 
2114	 0.366892230076602 
2115	 0.366419944642088 
2116	 0.365958562897718 
2117	 0.36548463931642 
2118	 0.36499951977103 
2119	 0.364522291980407 
2120	 0.364041093737542 
2121	 0.36351927017754 
2122	 0.363054514771069 
2123	 0.362620067361337 
2124	 0.362188138452849 
2125	 0.361775888418047 
2126	 0.361371402883542 
2127	 0.360966465731303 
2128	 0.360595966812122 
2129	 0.360244855034109 
2130	 0.359913042813098 
2131	 0.359616252909486 
2132	 0.359324542592503 
2133	 0.35905517248067 
2134	 0.358789269338758 
2135	 0.358510892902088 
2136	 0.358237535132944 
2137	 0.357967918434256 
2138	 0.357669188726502 
2139	 0.357441791553554 
2140	 0.357252367246736 
2141	 0.3570669560523 
2142	 0.356930845436774 
2143	 0.356768640823641 
2144	 0.356589713932248 
2145	 0.356444076573286 
2146	 0.356315285576022 
2147	 0.356187064232987 
2148	 0.356083120642333 
2149	 0.355968896703019 
2150	 0.355858085577969 
2151	 0.355737705703694 
2152	 0.355607957909692 
2153	 0.355490458647986 
2154	 0.355366941733806 
2155	 0.355215109442818 
2156	 0.355079030752845 
2157	 0.354960099051717 
2158	 0.354797386368 
2159	 0.354617324740243 
2160	 0.354429882541065 
2161	 0.354219115641013 
2162	 0.353995540340233 
2163	 0.353757407766696 
2164	 0.353525077522184 
2165	 0.353274884844428 
2166	 0.353027490775706 
2167	 0.352785888287996 
2168	 0.352545001394539 
2169	 0.352299308171431 
2170	 0.352046294585299 
2171	 0.351776176557111 
2172	 0.351535898994533 
2173	 0.35129347588228 
2174	 0.351075931591791 
2175	 0.350870900446275 
2176	 0.350672847740915 
2177	 0.350467716476135 
2178	 0.350250538571831 
2179	 0.35004373095144 
2180	 0.349835914460025 
2181	 0.34965657530506 
2182	 0.349487122685437 
2183	 0.349324302110495 
2184	 0.349209311217068 
2185	 0.349041293684427 
2186	 0.348857208964176 
2187	 0.348657133832887 
2188	 0.348432994699286 
2189	 0.348196360994695 
2190	 0.34794881726284 
2191	 0.347679919550359 
2192	 0.34740430527998 
2193	 0.347087606077362 
2194	 0.346727075818415 
2195	 0.346369195906485 
2196	 0.345989958935382 
2197	 0.345585925586362 
2198	 0.345191205841749 
2199	 0.344775485961686 
2200	 0.344349102612147 
2201	 0.343913223509486 
2202	 0.343432710314687 
2203	 0.342910206039421 
2204	 0.342428194299664 
2205	 0.341898964206045 
2206	 0.341439956139228 
2207	 0.341028994706936 
2208	 0.340641880449942 
2209	 0.340277536353576 
2210	 0.339949322883108 
2211	 0.339685234604655 
2212	 0.339396335044127 
2213	 0.339120104435004 
2214	 0.338849027688191 
2215	 0.338598197369373 
2216	 0.338314929010715 
2217	 0.338053073440678 
2218	 0.337737717315012 
2219	 0.33737160821351 
2220	 0.336999064684547 
2221	 0.336615674464117 
2222	 0.33617248467642 
2223	 0.335753202433136 
2224	 0.335316459751193 
2225	 0.334823991436827 
2226	 0.334323344785393 
2227	 0.333729688424643 
2228	 0.333075794742906 
2229	 0.332353335988366 
2230	 0.331566515981917 
2231	 0.330696444985663 
2232	 0.329759886815404 
2233	 0.328732936821924 
2234	 0.327660347701628 
2235	 0.326415170559313 
2236	 0.325062975408529 
2237	 0.323582180484192 
2238	 0.321890838399874 
2239	 0.320193242211972 
2240	 0.31842709438533 
2241	 0.316551089151007 
2242	 0.314671589302538 
2243	 0.312570379001814 
2244	 0.310240825377536 
2245	 0.30791150320342 
2246	 0.305321848486235 
2247	 0.302871088743789 
2248	 0.300494883068172 
2249	 0.29806635121909 
2250	 0.2956335081906 
2251	 0.293265525682274 
2252	 0.290727246577367 
2253	 0.288271932680682 
2254	 0.2858226709477 
2255	 0.283384927773032 
2256	 0.281155512241101 
2257	 0.278901607051913 
2258	 0.276674930264798 
2259	 0.274543830078441 
2260	 0.272332903538735 
2261	 0.270059667052026 
2262	 0.267885548167706 
2263	 0.26569077281852 
2264	 0.263618700201321 
2265	 0.261632358210699 
2266	 0.259678872000642 
2267	 0.257791269816207 
2268	 0.255979033451106 
2269	 0.254187002070276 
2270	 0.252556371093632 
2271	 0.251038925219775 
2272	 0.249613706109294 
2273	 0.24836508949407 
2274	 0.247096043301037 
2275	 0.245977800548868 
2276	 0.244731483781787 
2277	 0.243463175199938 
2278	 0.242163279144104 
2279	 0.240782876417896 
2280	 0.239384350821148 
2281	 0.237999760521624 
2282	 0.236531321360427 
2283	 0.23501359539025 
2284	 0.233451920540638 
2285	 0.231698202325639 
2286	 0.229967972860291 
2287	 0.228135684690917 
2288	 0.226219400851041 
2289	 0.224441108534616 
2290	 0.222550127621054 
2291	 0.220685098814924 
2292	 0.218893707423884 
2293	 0.217020013902164 
2294	 0.215242623709369 
2295	 0.213518441638207 
2296	 0.211881390850032 
2297	 0.21050247536017 
2298	 0.209282122322117 
2299	 0.20830744162859 
2300	 0.20757463190415 
2301	 0.207044630574859 
2302	 0.206734847610827 
2303	 0.206647701274296 
2304	 0.206807170142065 
2305	 0.207150543256858 
2306	 0.207717436029849 
2307	 0.208499850039088 
2308	 0.209540843468199 
2309	 0.210714058442915 
2310	 0.212164598333301 
2311	 0.213630837541551 
2312	 0.215333800492194 
2313	 0.216901592737709 
2314	 0.218557245265111 
2315	 0.220065794542468 
2316	 0.221493861827927 
2317	 0.222810882633036 
2318	 0.224095601128535 
2319	 0.225164461604548 
2320	 0.226101732671169 
2321	 0.226850608315063 
2322	 0.227386364360443 
2323	 0.227785304442767 
2324	 0.227989016708268 
2325	 0.228092069747297 
2326	 0.228031486108387 
2327	 0.227850340074852 
2328	 0.227526853517018 
2329	 0.227094657860541 
2330	 0.226522392070373 
2331	 0.225836316263432 
2332	 0.225061909346867 
2333	 0.224130963003519 
2334	 0.223024162550257 
2335	 0.221828133055623 
2336	 0.220493270745837 
2337	 0.219092760808302 
2338	 0.217775852937393 
2339	 0.216466950164183 
2340	 0.215219043379409 
2341	 0.214077489382605 
2342	 0.213006072152573 
2343	 0.212066653254786 
2344	 0.211344491168033 
2345	 0.210919294680992 
2346	 0.210709614113292 
2347	 0.210826267472933 
2348	 0.211215393174375 
2349	 0.211804270300723 
2350	 0.212625970718943 
2351	 0.213549397835682 
2352	 0.214521026024854 
2353	 0.215623658055757 
2354	 0.216713882222705 
2355	 0.217743829363669 
2356	 0.218698429304955 
2357	 0.219431803996281 
2358	 0.220054216427819 
2359	 0.220538284255337 
2360	 0.220900013860418 
2361	 0.221166992618019 
2362	 0.221270247296396 
2363	 0.221290674313099 
2364	 0.221297874218849 
2365	 0.221246382015334 
2366	 0.221165872980347 
2367	 0.221072599292969 
2368	 0.220964240386375 
2369	 0.220895435621125 
2370	 0.220833956225884 
2371	 0.220749739254666 
2372	 0.220653404873258 
2373	 0.220565732996392 
2374	 0.220534494608399 
2375	 0.220547386487089 
2376	 0.220544890397049 
2377	 0.22050445803916 
2378	 0.220425920938859 
2379	 0.220369226972738 
2380	 0.220354071720243 
2381	 0.220330164011687 
2382	 0.2203053404854 
2383	 0.220286697933877 
2384	 0.220268768099883 
2385	 0.220245800956849 
2386	 0.220249453124632 
2387	 0.220273792697736 
2388	 0.22027702079937 
2389	 0.220265318731938 
2390	 0.220270141926586 
2391	 0.220311885258597 
2392	 0.220285775178344 
2393	 0.220246458143954 
2394	 0.22019835949865 
2395	 0.220072729548117 
2396	 0.219998936296978 
2397	 0.219961211010795 
2398	 0.219898398141254 
2399	 0.219827766576771 
2400	 0.219720373867954 
2401	 0.219575624694405 
2402	 0.219498242751289 
2403	 0.219491418432278 
2404	 0.219605692183723 
2405	 0.219650939429764 
2406	 0.219581164127225 
2407	 0.219552236414069 
2408	 0.219472875982436 
2409	 0.219345254785919 
2410	 0.219368385577819 
2411	 0.219358356741053 
2412	 0.219325004430077 
2413	 0.219316361442336 
2414	 0.219148325605288 
2415	 0.219047587786282 
2416	 0.219041163263891 
2417	 0.219002137725375 
2418	 0.219028015433023 
2419	 0.218985414644722 
2420	 0.218883850279038 
2421	 0.218898977224029 
2422	 0.218918263349715 
2423	 0.218906591338218 
2424	 0.218850556949486 
2425	 0.218738046328903 
2426	 0.218750309362627 
2427	 0.218841257456883 
2428	 0.21900999935994 
2429	 0.219121369831686 
2430	 0.219028391925602 
2431	 0.219023244282178 
2432	 0.218984219365288 
2433	 0.218950496018673 
2434	 0.219025435071428 
2435	 0.218856779920531 
2436	 0.218744702382554 
2437	 0.218735981005592 
2438	 0.218595360788444 
2439	 0.218601033041024 
2440	 0.218671483984752 
2441	 0.218629526058539 
2442	 0.218565865991707 
2443	 0.218534893510139 
2444	 0.218406067699459 
2445	 0.218155414445661 
2446	 0.217943179741821 
2447	 0.217771745649204 
2448	 0.217566777951788 
2449	 0.21736266281089 
2450	 0.2172016406836 
2451	 0.216907461649596 
2452	 0.216554682187343 
2453	 0.216243154128457 
2454	 0.215870948098252 
2455	 0.215692469998743 
2456	 0.215640647851547 
2457	 0.215450740875078 
2458	 0.215335172498365 
2459	 0.215108210218313 
2460	 0.214719495769231 
2461	 0.214469533720284 
2462	 0.214256538498295 
2463	 0.214124582833707 
2464	 0.213880478533151 
2465	 0.213591174222925 
2466	 0.213438725384248 
2467	 0.213127477717042 
2468	 0.213021146679328 
2469	 0.213080647976622 
2470	 0.21289434719645 
2471	 0.212719578442386 
2472	 0.212466351321422 
2473	 0.212118871408073 
2474	 0.21176501400063 
2475	 0.211500906602667 
2476	 0.211584846047081 
2477	 0.21164245681821 
2478	 0.211620736338193 
2479	 0.211697997529129 
2480	 0.211265399665271 
2481	 0.211066351332793 
2482	 0.211091027566575 
2483	 0.210933632280407 
2484	 0.210934779840898 
2485	 0.21096920918353 
2486	 0.210906435675348 
2487	 0.211168133984442 
2488	 0.211365353170974 
2489	 0.211442418827331 
2490	 0.211634533620078 
2491	 0.211680486020191 
2492	 0.2117862986054 
2493	 0.212072644729541 
2494	 0.212372492111655 
2495	 0.212608283546619 
2496	 0.212847043321682 
2497	 0.213262720370836 
2498	 0.213504052968222 
2499	 0.213751711662414 
2500	 0.214423856013887 
