Wavelength	spectrum00002.asd
350	 7.73643440939601E-02 
351	 7.21548491186435E-02 
352	 6.76811060169227E-02 
353	 6.85360439702723E-02 
354	 6.85022083772862E-02 
355	 6.69409849804474E-02 
356	 6.59851574214632E-02 
357	 6.66181607364611E-02 
358	 0.064224325329144 
359	 6.22356060933901E-02 
360	 6.16052670875372E-02 
361	 6.18522888601776E-02 
362	 0.063125021512085 
363	 6.22473408435845E-02 
364	 5.91793432771413E-02 
365	 5.81749302012282E-02 
366	 5.92724543923293E-02 
367	 5.96546984302723E-02 
368	 5.78358889213404E-02 
369	 5.90643214204406E-02 
370	 5.99107840746561E-02 
371	 5.97436414946825E-02 
372	 5.95721738639003E-02 
373	 5.91990201718559E-02 
374	 5.93519305438049E-02 
375	 5.96823530917298E-02 
376	 5.81824413821036E-02 
377	 5.89400341716648E-02 
378	 5.99323696095232E-02 
379	 5.87812387392777E-02 
380	 5.74378869130051E-02 
381	 5.80628840399942E-02 
382	 5.89502449807611E-02 
383	 5.68607642121677E-02 
384	 5.79621570089929E-02 
385	 5.94461641542464E-02 
386	 5.94578252979546E-02 
387	 5.91591056540663E-02 
388	 0.058588744976017 
389	 5.83239137257251E-02 
390	 5.86046920005297E-02 
391	 5.80466529228197E-02 
392	 5.79129400331067E-02 
393	 5.81857600066066E-02 
394	 5.80312412291574E-02 
395	 5.78395464212494E-02 
396	 5.83343901776718E-02 
397	 5.91636446860867E-02 
398	 5.80807515683654E-02 
399	 5.79223582594369E-02 
400	 5.84751785190671E-02 
401	 5.87339324945458E-02 
402	 5.84481041647426E-02 
403	 5.84394928525759E-02 
404	 5.85609571063975E-02 
405	 5.80360678909978E-02 
406	 5.82812355184223E-02 
407	 5.83543356492935E-02 
408	 5.79197962157346E-02 
409	 0.058560295151486 
410	 5.85282128562544E-02 
411	 5.83021730037755E-02 
412	 5.87592776207603E-02 
413	 5.89517764789098E-02 
414	 5.86607307193032E-02 
415	 5.83058051112364E-02 
416	 0.058754888635293 
417	 5.88818539978093E-02 
418	 5.90146954343069E-02 
419	 0.059411888370892 
420	 0.059568072962903 
421	 0.059571713696611 
422	 5.97122297584207E-02 
423	 6.02367642620219E-02 
424	 6.05409551198645E-02 
425	 6.08436274798746E-02 
426	 6.11600064115571E-02 
427	 0.061202170232888 
428	 6.13303597047173E-02 
429	 6.16178118681992E-02 
430	 6.20384777184995E-02 
431	 6.25194014824807E-02 
432	 6.29284084571068E-02 
433	 6.32706051921397E-02 
434	 6.36300592361482E-02 
435	 6.39861037799209E-02 
436	 6.44173875025152E-02 
437	 6.49214100496595E-02 
438	 6.53552863512207E-02 
439	 6.58184603126462E-02 
440	 6.63695743330608E-02 
441	 6.70150241236217E-02 
442	 6.75960048300993E-02 
443	 6.82490038477064E-02 
444	 6.89368558799238E-02 
445	 6.95084095103514E-02 
446	 7.03876536114813E-02 
447	 0.071275360298258 
448	 7.20010249647249E-02 
449	 7.29483867132577E-02 
450	 7.38460419963909E-02 
451	 7.46909275709916E-02 
452	 7.55924064059328E-02 
453	 7.66671452460964E-02 
454	 7.78337418494506E-02 
455	 7.90444741380948E-02 
456	 8.03139659879499E-02 
457	 8.17437842078744E-02 
458	 8.31799889886628E-02 
459	 8.45223884322997E-02 
460	 8.59718168175288E-02 
461	 8.75943150858106E-02 
462	 8.93613712035811E-02 
463	 9.11738893582355E-02 
464	 9.28614911536933E-02 
465	 9.48216177755278E-02 
466	 9.70550450882075E-02 
467	 9.88475104823873E-02 
468	 0.101025537305587 
469	 0.103426190983018 
470	 0.105731058104214 
471	 0.108252936296551 
472	 0.110815325422193 
473	 0.113427670523322 
474	 0.116249116103322 
475	 0.119213934054929 
476	 0.122271757104339 
477	 0.125411660992031 
478	 0.128727767850654 
479	 0.131963973922538 
480	 0.13525079962205 
481	 0.138819180291177 
482	 0.142469293025303 
483	 0.146172863178635 
484	 0.149960246216079 
485	 0.153901752412846 
486	 0.157799875954681 
487	 0.161691139318134 
488	 0.165654501809872 
489	 0.169736997706944 
490	 0.17379773861161 
491	 0.177884357372909 
492	 0.182122566801308 
493	 0.186201697814692 
494	 0.190171344333795 
495	 0.194125291801249 
496	 0.198142162634418 
497	 0.202166891376057 
498	 0.206114720557252 
499	 0.209940526124796 
500	 0.213865709404844 
501	 0.217599313344563 
502	 0.221085718184764 
503	 0.224501379102645 
504	 0.228039505022438 
505	 0.231560944297288 
506	 0.234942280250468 
507	 0.238268727703411 
508	 0.241424297115893 
509	 0.244508255119806 
510	 0.247655782743048 
511	 0.250547510972588 
512	 0.253449995614362 
513	 0.256410391352652 
514	 0.259143315528838 
515	 0.261781106184495 
516	 0.264355426361512 
517	 0.266873163940367 
518	 0.269332144649451 
519	 0.271779757072499 
520	 0.274190941156937 
521	 0.276497802545498 
522	 0.278816782162906 
523	 0.281020125474274 
524	 0.283071315711101 
525	 0.285188645989237 
526	 0.28725670992324 
527	 0.289281414307472 
528	 0.291292433781916 
529	 0.29322320688808 
530	 0.295054104650474 
531	 0.29683955841209 
532	 0.298698597501893 
533	 0.300516032316974 
534	 0.302302634821012 
535	 0.304067626771152 
536	 0.305744971584132 
537	 0.307372776778264 
538	 0.308992575736582 
539	 0.310635279550861 
540	 0.312197779954778 
541	 0.313711998611292 
542	 0.315208590207114 
543	 0.31668768272576 
544	 0.318123281846509 
545	 0.319495551330339 
546	 0.320810791858674 
547	 0.322187298366798 
548	 0.323467056491727 
549	 0.324649335422408 
550	 0.325876993677388 
551	 0.327084058921978 
552	 0.328231521225375 
553	 0.329332002829007 
554	 0.330522844782642 
555	 0.33164648443157 
556	 0.332696014285192 
557	 0.333737946860659 
558	 0.33480418782522 
559	 0.335863359618169 
560	 0.336877707995368 
561	 0.337811424362036 
562	 0.338730947716748 
563	 0.339642810605428 
564	 0.340540359887277 
565	 0.341434788050615 
566	 0.342355902028857 
567	 0.343290310367793 
568	 0.344189251545791 
569	 0.345023154302501 
570	 0.345778512106032 
571	 0.346432379714787 
572	 0.346910070664233 
573	 0.347429947715883 
574	 0.34802444757311 
575	 0.348663526043297 
576	 0.349438362397861 
577	 0.350246498192256 
578	 0.351017735639976 
579	 0.351733328570509 
580	 0.35237078898353 
581	 0.352945363850114 
582	 0.353487961908467 
583	 0.354038712382583 
584	 0.354584472046863 
585	 0.355131311923035 
586	 0.355682689809002 
587	 0.356101524431438 
588	 0.35652974880748 
589	 0.357038468601742 
590	 0.357533608375728 
591	 0.357948653860785 
592	 0.358340967331872 
593	 0.358770346891818 
594	 0.359098345463529 
595	 0.359463693437189 
596	 0.359913924058074 
597	 0.360403180153681 
598	 0.360890596489906 
599	 0.361319210864066 
600	 0.361673811217639 
601	 0.362033543697646 
602	 0.362355563541981 
603	 0.362650824726265 
604	 0.36295203016174 
605	 0.363284736000658 
606	 0.363564831017921 
607	 0.36379695569528 
608	 0.364104061383526 
609	 0.364344771364929 
610	 0.364577561418343 
611	 0.364866654722833 
612	 0.365127583154264 
613	 0.365345127655622 
614	 0.365545560976429 
615	 0.365776095472656 
616	 0.365982176014624 
617	 0.366189311844231 
618	 0.366413394326687 
619	 0.366636556101239 
620	 0.366847869513851 
621	 0.367044929136233 
622	 0.367232095513268 
623	 0.367428574949904 
624	 0.367585717079027 
625	 0.367720980012194 
626	 0.36790994961454 
627	 0.368063495484195 
628	 0.368220088294041 
629	 0.368412428471202 
630	 0.368605639082954 
631	 0.368748340748988 
632	 0.368863625183075 
633	 0.368996141684358 
634	 0.369057808220293 
635	 0.369176834968845 
636	 0.369379476347619 
637	 0.369544610327995 
638	 0.369642737928236 
639	 0.369729902824641 
640	 0.369847098556185 
641	 0.369890518364929 
642	 0.370016396150445 
643	 0.370187532817181 
644	 0.370262012693322 
645	 0.370342712208751 
646	 0.370446076774048 
647	 0.37056366732762 
648	 0.370662807967182 
649	 0.370795656185654 
650	 0.370882946387942 
651	 0.370867602288221 
652	 0.370960522397756 
653	 0.371023461118972 
654	 0.371055857434971 
655	 0.371169138063655 
656	 0.371299870156315 
657	 0.371408249642719 
658	 0.371475554682014 
659	 0.37151629805743 
660	 0.371545529939883 
661	 0.371587107680626 
662	 0.371659292512713 
663	 0.371746151269504 
664	 0.371792028768133 
665	 0.371787166277944 
666	 0.371772849112747 
667	 0.37182666642774 
668	 0.371931519181529 
669	 0.372026812055073 
670	 0.371994381038669 
671	 0.3719497422888 
672	 0.371973011782227 
673	 0.372088073599457 
674	 0.372075339663017 
675	 0.372047934223887 
676	 0.372071033432287 
677	 0.37211517095641 
678	 0.372066980834866 
679	 0.372025682337467 
680	 0.372066023063319 
681	 0.372020174720898 
682	 0.372030820912269 
683	 0.372051804413251 
684	 0.371962418398838 
685	 0.371939148300241 
686	 0.371953012492021 
687	 0.371971900145556 
688	 0.371992929192114 
689	 0.371932254745528 
690	 0.371868104924275 
691	 0.371880720378493 
692	 0.371908811715057 
693	 0.371848362651796 
694	 0.37178083194824 
695	 0.371864934826182 
696	 0.371790511232165 
697	 0.371679128197524 
698	 0.371631945175534 
699	 0.371633080322548 
700	 0.371677990065111 
701	 0.371649018405323 
702	 0.371487137951997 
703	 0.371458485227853 
704	 0.371481813654164 
705	 0.371461333413266 
706	 0.371325203560182 
707	 0.371309399091932 
708	 0.371296805421196 
709	 0.371220030660917 
710	 0.371171928864704 
711	 0.371180464653174 
712	 0.371183963110078 
713	 0.371127012332058 
714	 0.371110828845888 
715	 0.371023659821896 
716	 0.370919409513874 
717	 0.370947665153922 
718	 0.370898403044435 
719	 0.370855778553074 
720	 0.370860810478482 
721	 0.370811933540831 
722	 0.370790887191304 
723	 0.370799869298796 
724	 0.370803621889414 
725	 0.370709637302179 
726	 0.370698754641157 
727	 0.370750392720909 
728	 0.370710955137918 
729	 0.370680499705881 
730	 0.370675246527443 
731	 0.370694209659474 
732	 0.370728067339299 
733	 0.370727172931177 
734	 0.370726899014499 
735	 0.370762408094375 
736	 0.370769618459227 
737	 0.3707324327157 
738	 0.370694429143016 
739	 0.370725915847656 
740	 0.370759688412087 
741	 0.370780015583397 
742	 0.370776736112229 
743	 0.370737586266781 
744	 0.370722950988298 
745	 0.370787561644821 
746	 0.370917619522052 
747	 0.370893318074989 
748	 0.370837396137586 
749	 0.370859284347763 
750	 0.371016008004751 
751	 0.371053382549952 
752	 0.371069818107406 
753	 0.371135534167034 
754	 0.371233181336521 
755	 0.371295832655658 
756	 0.371362148599666 
757	 0.371463917105467 
758	 0.371537423313129 
759	 0.371590169426563 
760	 0.371666837087743 
761	 0.371801204119348 
762	 0.371836927163611 
763	 0.371884482518225 
764	 0.371978203182622 
765	 0.372052543909132 
766	 0.372169249595873 
767	 0.372259492803481 
768	 0.372300756806369 
769	 0.37243786215803 
770	 0.372535739219192 
771	 0.372621448080762 
772	 0.372759092792536 
773	 0.372889282819202 
774	 0.372993223881742 
775	 0.373103835708073 
776	 0.373278992353737 
777	 0.373374162944512 
778	 0.373426032887252 
779	 0.373493227368416 
780	 0.373622019463349 
781	 0.373744044653714 
782	 0.373871304255197 
783	 0.374024690158278 
784	 0.374174474850284 
785	 0.374303454833558 
786	 0.374418582251711 
787	 0.374538562042195 
788	 0.374643043092276 
789	 0.374809466271895 
790	 0.374993317193191 
791	 0.375011461035218 
792	 0.375086133082482 
793	 0.375226180098007 
794	 0.375393802583364 
795	 0.375564101955323 
796	 0.375653087409254 
797	 0.375724422033724 
798	 0.375870657450464 
799	 0.376007272109199 
800	 0.376233675585961 
801	 0.376454220502806 
802	 0.376459941377686 
803	 0.376538700496652 
804	 0.376654114404351 
805	 0.376763064753195 
806	 0.376879845183508 
807	 0.377013469469703 
808	 0.377101188854519 
809	 0.377129071730225 
810	 0.377276387720696 
811	 0.377426673006009 
812	 0.377547742242695 
813	 0.377652028211062 
814	 0.377774641983612 
815	 0.377869324923289 
816	 0.377949340369092 
817	 0.378075699810751 
818	 0.378175229955622 
819	 0.378248758547843 
820	 0.378303545034572 
821	 0.378337790878762 
822	 0.378358961498733 
823	 0.378415357299162 
824	 0.378522057850458 
825	 0.378559740906099 
826	 0.378648436241917 
827	 0.378726564359571 
828	 0.378689796961339 
829	 0.378696533514095 
830	 0.378736786403915 
831	 0.378818272239668 
832	 0.378959268093086 
833	 0.379049300865908 
834	 0.379035881004274 
835	 0.378952129516296 
836	 0.37893786271946 
837	 0.379000372297239 
838	 0.379076585654789 
839	 0.379112658683037 
840	 0.379145926174679 
841	 0.37914592714399 
842	 0.379104177627733 
843	 0.379047063375553 
844	 0.379110887482587 
845	 0.379181465925457 
846	 0.379189814386651 
847	 0.379128265966657 
848	 0.379108237929849 
849	 0.379103622922901 
850	 0.37910667983291 
851	 0.379149064256624 
852	 0.379106976077718 
853	 0.379047653289341 
854	 0.379044414130741 
855	 0.379100295758734 
856	 0.37907175124655 
857	 0.379003311705237 
858	 0.378974658172648 
859	 0.378945577913042 
860	 0.378916243216439 
861	 0.378887438170356 
862	 0.378861342840699 
863	 0.378850879359576 
864	 0.378774304578703 
865	 0.37867141552578 
866	 0.378668671089984 
867	 0.378605406337632 
868	 0.378547982155235 
869	 0.378525284798474 
870	 0.378473125305621 
871	 0.378331475796851 
872	 0.37826325529487 
873	 0.378330533442262 
874	 0.378268781356911 
875	 0.378210850696629 
876	 0.378170579792063 
877	 0.37812868371616 
878	 0.378079431201289 
879	 0.378003176738798 
880	 0.377926885581509 
881	 0.377885165268344 
882	 0.377823990653218 
883	 0.377742251962047 
884	 0.377681744750453 
885	 0.377694877086 
886	 0.377668656895451 
887	 0.377614587002951 
888	 0.377548863377276 
889	 0.37747392736821 
890	 0.377350778899612 
891	 0.377271909388247 
892	 0.377247622261575 
893	 0.377114420519242 
894	 0.377086009467873 
895	 0.377038704128713 
896	 0.376893928819545 
897	 0.37691677842845 
898	 0.376922231041092 
899	 0.376849339673856 
900	 0.376719656931879 
901	 0.376687338252056 
902	 0.376636588051704 
903	 0.376570417188083 
904	 0.376538515481852 
905	 0.376484760369598 
906	 0.376437668144294 
907	 0.376400049348045 
908	 0.376352577184463 
909	 0.376278305988484 
910	 0.376234086133837 
911	 0.376253011640345 
912	 0.37632225671374 
913	 0.376305011302321 
914	 0.376223757967728 
915	 0.376135020376946 
916	 0.376096254318875 
917	 0.37603744494094 
918	 0.375998750770717 
919	 0.376002341721401 
920	 0.375998938874781 
921	 0.375926908527259 
922	 0.375817335826084 
923	 0.37573461878638 
924	 0.375749934108737 
925	 0.37582239404414 
926	 0.37581652423549 
927	 0.37567526145231 
928	 0.375695334291847 
929	 0.375688897098144 
930	 0.375695736773688 
931	 0.375805007013318 
932	 0.375899969704274 
933	 0.375886695666612 
934	 0.375850107130611 
935	 0.375918719623996 
936	 0.375876639901346 
937	 0.37589930753396 
938	 0.375952524905482 
939	 0.37589553784052 
940	 0.376010718705565 
941	 0.376090706791328 
942	 0.376092527148522 
943	 0.376135187013631 
944	 0.376104993496287 
945	 0.37610342199553 
946	 0.376150437439358 
947	 0.376160402429152 
948	 0.376145936822541 
949	 0.376177303400702 
950	 0.376247039879103 
951	 0.376249948024823 
952	 0.376266605203137 
953	 0.376300566961589 
954	 0.376320176187781 
955	 0.376269722723976 
956	 0.376244143937217 
957	 0.376193480765428 
958	 0.376137485905773 
959	 0.376253810099372 
960	 0.376253319716082 
961	 0.376268849171496 
962	 0.376359859273283 
963	 0.376247237391928 
964	 0.376207096803562 
965	 0.37627954789352 
966	 0.376394046632505 
967	 0.37639306567427 
968	 0.376366763933787 
969	 0.376326091004561 
970	 0.376292842071031 
971	 0.376365123198971 
972	 0.376440804628045 
973	 0.376533369414146 
974	 0.376625323573672 
975	 0.37650823613157 
976	 0.376467783395351 
977	 0.376553706376498 
978	 0.376676756244099 
979	 0.376598702941906 
980	 0.376586004288505 
981	 0.376617831843264 
982	 0.376608518985226 
983	 0.376597562319062 
984	 0.376631500682758 
985	 0.37674009131972 
986	 0.376878365782938 
987	 0.3768020080986 
988	 0.376739717472818 
989	 0.376736832576014 
990	 0.3767420924177 
991	 0.376627439936675 
992	 0.376617981978889 
993	 0.376679162642978 
994	 0.376700210955533 
995	 0.376679996618257 
996	 0.376638848085731 
997	 0.376624566382985 
998	 0.37665704260561 
999	 0.376629801491569 
1000	 0.37671725768468 
1001	 0.376433009421241 
1002	 0.376415130885299 
1003	 0.376372683737473 
1004	 0.376371142201609 
1005	 0.376422844193751 
1006	 0.376420843318191 
1007	 0.376415024864065 
1008	 0.376400368920575 
1009	 0.376356108347372 
1010	 0.376337108892537 
1011	 0.376330208736257 
1012	 0.37630780837507 
1013	 0.376277999816087 
1014	 0.376259154687572 
1015	 0.37623654748614 
1016	 0.376217993199608 
1017	 0.376197573860386 
1018	 0.376207595110413 
1019	 0.376217057946504 
1020	 0.376222825224912 
1021	 0.376206905637209 
1022	 0.376174391729951 
1023	 0.376157009605789 
1024	 0.376120326410665 
1025	 0.376098892370599 
1026	 0.376114861608621 
1027	 0.376111643036125 
1028	 0.37609290160764 
1029	 0.376080223587578 
1030	 0.376073035757133 
1031	 0.376038593405355 
1032	 0.376029886470177 
1033	 0.376012135772618 
1034	 0.375996967617687 
1035	 0.376011209678386 
1036	 0.376018365469237 
1037	 0.376040886374274 
1038	 0.376025476557956 
1039	 0.37598962897363 
1040	 0.375975305972983 
1041	 0.375949653843764 
1042	 0.375916981380864 
1043	 0.37589447739205 
1044	 0.375880150087397 
1045	 0.375818436099618 
1046	 0.375790585140155 
1047	 0.375822542973452 
1048	 0.375816209926898 
1049	 0.3757873912748 
1050	 0.375769892552742 
1051	 0.375779284274394 
1052	 0.375768327519202 
1053	 0.375753053603371 
1054	 0.375773038904643 
1055	 0.375759795646003 
1056	 0.375691310176994 
1057	 0.375674289525294 
1058	 0.375696368102076 
1059	 0.375665680369599 
1060	 0.375624963116469 
1061	 0.375581266905849 
1062	 0.375522739375015 
1063	 0.375475479234831 
1064	 0.375449461999499 
1065	 0.37539721634945 
1066	 0.375328106279666 
1067	 0.375290009409398 
1068	 0.375270367291185 
1069	 0.37525622807398 
1070	 0.375236592280425 
1071	 0.37522629802302 
1072	 0.375208274343176 
1073	 0.375160995249446 
1074	 0.375087837206131 
1075	 0.3750253536124 
1076	 0.374966364188137 
1077	 0.374924566582429 
1078	 0.374915453260934 
1079	 0.37492394923556 
1080	 0.374931143801347 
1081	 0.374912129464564 
1082	 0.374884063077036 
1083	 0.374862145940987 
1084	 0.374839213590647 
1085	 0.374840999397918 
1086	 0.374836305651229 
1087	 0.374849249393942 
1088	 0.37484432153887 
1089	 0.374834219643646 
1090	 0.374828936519811 
1091	 0.374848479620633 
1092	 0.374866849346934 
1093	 0.374891836832576 
1094	 0.374926831940043 
1095	 0.374913182530167 
1096	 0.374908866700229 
1097	 0.37491916274539 
1098	 0.374915431923375 
1099	 0.374923119700586 
1100	 0.374925101156928 
1101	 0.374931282314179 
1102	 0.374935688329408 
1103	 0.374952774916309 
1104	 0.374975332991936 
1105	 0.375030231031753 
1106	 0.375077904686088 
1107	 0.375116972905061 
1108	 0.375154784655267 
1109	 0.3751869331318 
1110	 0.375237629349557 
1111	 0.375294435847025 
1112	 0.375349261212555 
1113	 0.375419032378557 
1114	 0.37547543896245 
1115	 0.375505902241666 
1116	 0.375545368007614 
1117	 0.375593548741577 
1118	 0.375649047733205 
1119	 0.375723935247212 
1120	 0.375781445566935 
1121	 0.375835099092138 
1122	 0.375892702163837 
1123	 0.375950603563086 
1124	 0.376003832540699 
1125	 0.376076267293246 
1126	 0.37612769147556 
1127	 0.376166607428157 
1128	 0.376229770982074 
1129	 0.376283711258319 
1130	 0.376341856863632 
1131	 0.376396195775689 
1132	 0.376426474248291 
1133	 0.376472750329055 
1134	 0.376531322371257 
1135	 0.376579687285451 
1136	 0.376634244533496 
1137	 0.376678261812368 
1138	 0.376714066932831 
1139	 0.376741954485448 
1140	 0.376765571971322 
1141	 0.376782614287436 
1142	 0.376793419134244 
1143	 0.376790611668779 
1144	 0.376788134269357 
1145	 0.376802243317501 
1146	 0.376802810628722 
1147	 0.376796094749309 
1148	 0.376790460285962 
1149	 0.376772838413088 
1150	 0.376757806029377 
1151	 0.376745661178585 
1152	 0.376731438972268 
1153	 0.376715073463643 
1154	 0.376701896858068 
1155	 0.376701441445862 
1156	 0.37668142031184 
1157	 0.376647538208944 
1158	 0.376615223425591 
1159	 0.376569872943467 
1160	 0.376530302129672 
1161	 0.376502661550895 
1162	 0.376467436002408 
1163	 0.37642766945243 
1164	 0.376373438645036 
1165	 0.376315061371093 
1166	 0.376280061251828 
1167	 0.376236049437887 
1168	 0.37618520619278 
1169	 0.376138932738407 
1170	 0.376095891026055 
1171	 0.376034381946099 
1172	 0.375968229164516 
1173	 0.37590240823111 
1174	 0.375812291265078 
1175	 0.375744193778324 
1176	 0.37570470101753 
1177	 0.375635186595208 
1178	 0.375556136269972 
1179	 0.375476399984321 
1180	 0.375381670776834 
1181	 0.375283170813504 
1182	 0.375195950965009 
1183	 0.375110868132611 
1184	 0.375000519582115 
1185	 0.374909319422338 
1186	 0.374839063278207 
1187	 0.374777282194769 
1188	 0.374720523818883 
1189	 0.374695168856779 
1190	 0.374652013626477 
1191	 0.37459115851324 
1192	 0.374558875916368 
1193	 0.374533565490436 
1194	 0.374520418127964 
1195	 0.37452828948672 
1196	 0.374537865599819 
1197	 0.374553490763672 
1198	 0.374576495808569 
1199	 0.374610834934336 
1200	 0.37463921938169 
1201	 0.374691913219783 
1202	 0.374769421074847 
1203	 0.374847446992752 
1204	 0.374935040942967 
1205	 0.375034266717164 
1206	 0.375122030967059 
1207	 0.375261394044068 
1208	 0.375420721823634 
1209	 0.375622796076827 
1210	 0.375865897658387 
1211	 0.376131523414918 
1212	 0.376433651012575 
1213	 0.376757312304697 
1214	 0.377115788714866 
1215	 0.377479756338656 
1216	 0.377861525378895 
1217	 0.378260086554056 
1218	 0.378680725813956 
1219	 0.379100944034293 
1220	 0.379545086151609 
1221	 0.380014946859535 
1222	 0.380443146898657 
1223	 0.380899629623083 
1224	 0.381342018918828 
1225	 0.381768629731693 
1226	 0.382209205501601 
1227	 0.382672785444012 
1228	 0.383098538712968 
1229	 0.38353333598346 
1230	 0.383920165379388 
1231	 0.384256282605802 
1232	 0.384604213072405 
1233	 0.384930227285079 
1234	 0.385249882019728 
1235	 0.385575448233576 
1236	 0.385880239365998 
1237	 0.386151334890488 
1238	 0.386438325938315 
1239	 0.386734880610716 
1240	 0.387003588561014 
1241	 0.387288491818357 
1242	 0.387563528009568 
1243	 0.387825329640953 
1244	 0.388072471618519 
1245	 0.388320755834993 
1246	 0.388561726840048 
1247	 0.388798395778996 
1248	 0.389034674031049 
1249	 0.389255268011957 
1250	 0.389459090041648 
1251	 0.389672442202529 
1252	 0.389874266022618 
1253	 0.390089454084256 
1254	 0.390320695737134 
1255	 0.390543081664094 
1256	 0.390769900352099 
1257	 0.390987346125674 
1258	 0.391198224860495 
1259	 0.391405892876062 
1260	 0.39160164312396 
1261	 0.391804577828696 
1262	 0.392012377202846 
1263	 0.392220023821848 
1264	 0.392412630105238 
1265	 0.392605173417524 
1266	 0.392785040720841 
1267	 0.392936856656514 
1268	 0.393120667098578 
1269	 0.393312544385474 
1270	 0.3935058539942 
1271	 0.393724445258179 
1272	 0.393912934519449 
1273	 0.394072388475489 
1274	 0.3942633855672 
1275	 0.394465759664895 
1276	 0.394653180149448 
1277	 0.394843185300465 
1278	 0.395043818207469 
1279	 0.39524344869721 
1280	 0.395431030977212 
1281	 0.395634419268943 
1282	 0.395823693062124 
1283	 0.395979839925842 
1284	 0.396146774835371 
1285	 0.396316202961161 
1286	 0.396491029076591 
1287	 0.396664479753801 
1288	 0.396841050333703 
1289	 0.397006823236744 
1290	 0.397171190228169 
1291	 0.397331362034271 
1292	 0.397479414496072 
1293	 0.397634747130539 
1294	 0.397792875815013 
1295	 0.397948886654758 
1296	 0.398104491104372 
1297	 0.398258189344184 
1298	 0.398403448002891 
1299	 0.398563038246465 
1300	 0.398729969563458 
1301	 0.398894178582068 
1302	 0.39907469789685 
1303	 0.399238469265471 
1304	 0.399385069215985 
1305	 0.399540202064838 
1306	 0.399689458879501 
1307	 0.399844670580577 
1308	 0.39999534907611 
1309	 0.400170509105727 
1310	 0.400333918529013 
1311	 0.400497466891373 
1312	 0.400664432734842 
1313	 0.400834426237183 
1314	 0.40100131012363 
1315	 0.40116089682975 
1316	 0.401341993404729 
1317	 0.401532905790316 
1318	 0.401720645652293 
1319	 0.401933292964023 
1320	 0.402114551279613 
1321	 0.402271207342637 
1322	 0.402441758049955 
1323	 0.402611814488343 
1324	 0.402773648007476 
1325	 0.402937960802702 
1326	 0.403096741412559 
1327	 0.403243773499122 
1328	 0.403390989820814 
1329	 0.403537595120049 
1330	 0.403684002019179 
1331	 0.403821149997375 
1332	 0.403965646550409 
1333	 0.404106413679305 
1334	 0.404266934302293 
1335	 0.404421074253458 
1336	 0.404574867562323 
1337	 0.404739818207358 
1338	 0.404920820416019 
1339	 0.405072350955192 
1340	 0.405227364603872 
1341	 0.4053582202729 
1342	 0.405460116530726 
1343	 0.405569286583968 
1344	 0.405676242922675 
1345	 0.405771868937061 
1346	 0.40586186678758 
1347	 0.405939828347908 
1348	 0.406006033329467 
1349	 0.406068289240892 
1350	 0.406126772282764 
1351	 0.406171175288154 
1352	 0.406200104680966 
1353	 0.406232991804549 
1354	 0.406252642882882 
1355	 0.406277895973982 
1356	 0.406313129209009 
1357	 0.406339462160848 
1358	 0.406357879499405 
1359	 0.406380000979979 
1360	 0.406409503889742 
1361	 0.406420351544087 
1362	 0.406433061838248 
1363	 0.406462086491453 
1364	 0.406463907112324 
1365	 0.406455901779257 
1366	 0.406439912602364 
1367	 0.406415105789736 
1368	 0.406372417270819 
1369	 0.406330190224853 
1370	 0.406249236252748 
1371	 0.406143184316533 
1372	 0.406018915446553 
1373	 0.405867918683698 
1374	 0.405704267858231 
1375	 0.405520452845041 
1376	 0.405325561010501 
1377	 0.405109840402144 
1378	 0.404889534560555 
1379	 0.40464155146695 
1380	 0.404418020803067 
1381	 0.404199023431567 
1382	 0.403979784412087 
1383	 0.403765964899572 
1384	 0.403563566243334 
1385	 0.403376688761247 
1386	 0.403171471468396 
1387	 0.402951959389149 
1388	 0.402763208555338 
1389	 0.402546221278208 
1390	 0.402382146934732 
1391	 0.402270231236065 
1392	 0.402171336365915 
1393	 0.402104955870488 
1394	 0.40206152605504 
1395	 0.402008231368089 
1396	 0.401983241288378 
1397	 0.401906785301572 
1398	 0.401833993120516 
1399	 0.401688234932099 
1400	 0.40150763139383 
1401	 0.401273473523766 
1402	 0.400985877060555 
1403	 0.400658746594725 
1404	 0.400280528494532 
1405	 0.399882599127706 
1406	 0.399430480685783 
1407	 0.398984125888467 
1408	 0.398507635229552 
1409	 0.398043442355901 
1410	 0.397569763627791 
1411	 0.397105495764979 
1412	 0.396627763323063 
1413	 0.396190393736812 
1414	 0.395750602320605 
1415	 0.395362784951179 
1416	 0.395021683470416 
1417	 0.39469554377661 
1418	 0.394411434349891 
1419	 0.394130336692069 
1420	 0.39387601140278 
1421	 0.393617387651183 
1422	 0.393363201898144 
1423	 0.39311526513112 
1424	 0.392872323141667 
1425	 0.392620900089637 
1426	 0.392402439061919 
1427	 0.392198198966225 
1428	 0.392002629509212 
1429	 0.391822520919908 
1430	 0.391638773431604 
1431	 0.391461461823893 
1432	 0.39127546508635 
1433	 0.391094763429393 
1434	 0.390895896410497 
1435	 0.390685024294897 
1436	 0.390472351122752 
1437	 0.390247212917314 
1438	 0.390033718947592 
1439	 0.389803261123538 
1440	 0.389616255925488 
1441	 0.389430323719214 
1442	 0.389298221478872 
1443	 0.389193148624601 
1444	 0.389145297504793 
1445	 0.389127925203778 
1446	 0.389186261514083 
1447	 0.389284937536666 
1448	 0.389479009747267 
1449	 0.389774256258178 
1450	 0.39009278918821 
1451	 0.390493785034539 
1452	 0.390913544789925 
1453	 0.391374825920288 
1454	 0.391845792248833 
1455	 0.392373969603525 
1456	 0.392879242546055 
1457	 0.393386269734285 
1458	 0.393892913281441 
1459	 0.39439516998726 
1460	 0.39490045283845 
1461	 0.395419627915761 
1462	 0.395917250136755 
1463	 0.396408177285463 
1464	 0.396889631767926 
1465	 0.397342418180807 
1466	 0.39781426799934 
1467	 0.398261766998155 
1468	 0.398712477327984 
1469	 0.39916931757589 
1470	 0.399591628966505 
1471	 0.400026840078342 
1472	 0.400461898334599 
1473	 0.400895969614913 
1474	 0.401334265617606 
1475	 0.40174854278186 
1476	 0.402166061287731 
1477	 0.402543931985146 
1478	 0.40289634503261 
1479	 0.403221600476123 
1480	 0.40351624534277 
1481	 0.403802958501983 
1482	 0.404058344727984 
1483	 0.404321572648627 
1484	 0.404579760515495 
1485	 0.404827645397091 
1486	 0.405057114382136 
1487	 0.40530361240861 
1488	 0.405543415572545 
1489	 0.40580043561198 
1490	 0.406065786808468 
1491	 0.406351749969851 
1492	 0.406639309404836 
1493	 0.406963136963161 
1494	 0.40732306135533 
1495	 0.407684096646202 
1496	 0.408070822257344 
1497	 0.40845638514725 
1498	 0.408852652748628 
1499	 0.409246215261763 
1500	 0.409659645795091 
1501	 0.41004590803389 
1502	 0.410418120008152 
1503	 0.410784012605939 
1504	 0.411140401785019 
1505	 0.411479393820427 
1506	 0.411806479014446 
1507	 0.412125520669219 
1508	 0.412433910814559 
1509	 0.412723069524146 
1510	 0.413007884553926 
1511	 0.413267153648874 
1512	 0.413488599939454 
1513	 0.413711689396129 
1514	 0.413925923141748 
1515	 0.414128320306199 
1516	 0.414326814268892 
1517	 0.414509427698195 
1518	 0.414672926561906 
1519	 0.414827976223149 
1520	 0.41496798071664 
1521	 0.415106978429004 
1522	 0.415225504396103 
1523	 0.415332351060069 
1524	 0.415434297705374 
1525	 0.415515885878664 
1526	 0.415622232356396 
1527	 0.415738977594102 
1528	 0.415834917867811 
1529	 0.415937559842065 
1530	 0.416017202091831 
1531	 0.416074387041054 
1532	 0.416133223699323 
1533	 0.416174459966913 
1534	 0.416249455546096 
1535	 0.416323992338687 
1536	 0.416418916797364 
1537	 0.416543133685796 
1538	 0.416663702283264 
1539	 0.416778875736581 
1540	 0.416928476655594 
1541	 0.417104489959786 
1542	 0.417276321732866 
1543	 0.417464917658643 
1544	 0.417655637810392 
1545	 0.41784396282557 
1546	 0.418049359608655 
1547	 0.418276289730555 
1548	 0.418492288510064 
1549	 0.418708495059888 
1550	 0.418932598597659 
1551	 0.419159043675571 
1552	 0.419386364366289 
1553	 0.419620925727085 
1554	 0.419855351352115 
1555	 0.420094317774978 
1556	 0.420321440330061 
1557	 0.42054885761187 
1558	 0.420769794016903 
1559	 0.420979115693667 
1560	 0.421187273492103 
1561	 0.421379157422792 
1562	 0.42160242627543 
1563	 0.421832110658615 
1564	 0.422071724793915 
1565	 0.422340655758403 
1566	 0.422601132815249 
1567	 0.42286343447752 
1568	 0.423120454623798 
1569	 0.423388541402114 
1570	 0.423637939335611 
1571	 0.423868612559316 
1572	 0.42410516741885 
1573	 0.42433109434213 
1574	 0.424567974650951 
1575	 0.424819168548969 
1576	 0.425053454357034 
1577	 0.425279416436335 
1578	 0.425512114501899 
1579	 0.425733670765701 
1580	 0.425965668071154 
1581	 0.426207802153977 
1582	 0.426452512981633 
1583	 0.426704456610985 
1584	 0.426949664631716 
1585	 0.427196684448675 
1586	 0.427444666935696 
1587	 0.427690163152839 
1588	 0.427931829484078 
1589	 0.428168078018201 
1590	 0.428415284288739 
1591	 0.428662188580439 
1592	 0.428912846119463 
1593	 0.42917441557103 
1594	 0.42943778148531 
1595	 0.429713052066516 
1596	 0.429966117476845 
1597	 0.430204644620404 
1598	 0.430457026864732 
1599	 0.430706619099622 
1600	 0.430947056597403 
1601	 0.431203976430935 
1602	 0.431440689327651 
1603	 0.431644294893232 
1604	 0.431861998220685 
1605	 0.432082651446163 
1606	 0.432301282992335 
1607	 0.432530227592099 
1608	 0.432741124635207 
1609	 0.432945344994508 
1610	 0.433139843831411 
1611	 0.433322350571379 
1612	 0.433493060654966 
1613	 0.433645691832273 
1614	 0.433805230416647 
1615	 0.433953658584209 
1616	 0.434108010584689 
1617	 0.434282727536431 
1618	 0.434431829548071 
1619	 0.434571280331033 
1620	 0.434699653333555 
1621	 0.434807660120934 
1622	 0.434912070543398 
1623	 0.435011184435388 
1624	 0.435099445790965 
1625	 0.435172910036331 
1626	 0.435248722341379 
1627	 0.435313600890704 
1628	 0.435384850207989 
1629	 0.435467825537058 
1630	 0.435534657287353 
1631	 0.435583765331769 
1632	 0.435648705065756 
1633	 0.435714166374506 
1634	 0.435778843094647 
1635	 0.435852408945285 
1636	 0.43593023398805 
1637	 0.436016299776548 
1638	 0.436081070646846 
1639	 0.436139582788539 
1640	 0.436201602349595 
1641	 0.436250946913393 
1642	 0.436296902893396 
1643	 0.436359666426432 
1644	 0.436398390306183 
1645	 0.43642406428328 
1646	 0.436423003021885 
1647	 0.436404063826572 
1648	 0.436367663018835 
1649	 0.436296166497016 
1650	 0.436230100230631 
1651	 0.436159232188928 
1652	 0.436073328447599 
1653	 0.435987202174925 
1654	 0.435873019035106 
1655	 0.435745602825706 
1656	 0.435587167576645 
1657	 0.435409441894832 
1658	 0.435189503301394 
1659	 0.434938569151375 
1660	 0.434655280556563 
1661	 0.434338002317083 
1662	 0.433982447205545 
1663	 0.433594698746458 
1664	 0.433154687977351 
1665	 0.432685485139774 
1666	 0.43213675649957 
1667	 0.431525398709844 
1668	 0.43087198954951 
1669	 0.430159707986043 
1670	 0.429386502527668 
1671	 0.428549315666963 
1672	 0.427675329744175 
1673	 0.426742288332444 
1674	 0.425758421049358 
1675	 0.424755266352237 
1676	 0.423679507380485 
1677	 0.422533152015952 
1678	 0.421337690523788 
1679	 0.420075895031497 
1680	 0.418760317547848 
1681	 0.417377238815052 
1682	 0.415950523273417 
1683	 0.414487062668554 
1684	 0.412971416934313 
1685	 0.411413983932598 
1686	 0.409777411845681 
1687	 0.408048988157271 
1688	 0.40629512249892 
1689	 0.404481195744274 
1690	 0.402621196755931 
1691	 0.400730898562425 
1692	 0.3988146855953 
1693	 0.396848296284986 
1694	 0.394854219834938 
1695	 0.392814991227558 
1696	 0.390747973683321 
1697	 0.388635295811771 
1698	 0.386490890248605 
1699	 0.384313276974451 
1700	 0.382207570595422 
1701	 0.380059804290599 
1702	 0.378019124509506 
1703	 0.376012586969444 
1704	 0.37412315131488 
1705	 0.372286952831115 
1706	 0.370562031816053 
1707	 0.36905632066413 
1708	 0.367601944136467 
1709	 0.366254753297845 
1710	 0.36503308877024 
1711	 0.363804722279198 
1712	 0.362705723597288 
1713	 0.361680888122686 
1714	 0.360664660992704 
1715	 0.359769556044738 
1716	 0.358878062019212 
1717	 0.358000728258225 
1718	 0.357189114398205 
1719	 0.356404045514336 
1720	 0.355695625958236 
1721	 0.355061397762981 
1722	 0.354517803676077 
1723	 0.354135630269472 
1724	 0.353895440738566 
1725	 0.353815371238063 
1726	 0.353955995143304 
1727	 0.354276321894847 
1728	 0.354735692481985 
1729	 0.355384203507848 
1730	 0.356217477430044 
1731	 0.357117569213762 
1732	 0.358168515535961 
1733	 0.359282388727782 
1734	 0.360372409531932 
1735	 0.361479575016481 
1736	 0.362490623668268 
1737	 0.363390352976112 
1738	 0.364164228348061 
1739	 0.364765480723945 
1740	 0.365221379066924 
1741	 0.365531179914961 
1742	 0.365626743223147 
1743	 0.365703801891913 
1744	 0.36564894212231 
1745	 0.365571579623915 
1746	 0.365431356500591 
1747	 0.365277070336114 
1748	 0.365028263870989 
1749	 0.364867889171734 
1750	 0.364686727257661 
1751	 0.364624419933816 
1752	 0.36462461350834 
1753	 0.364722703933237 
1754	 0.364901612721217 
1755	 0.365191697329427 
1756	 0.365576267220281 
1757	 0.366057026729012 
1758	 0.366677211403529 
1759	 0.367362676122005 
1760	 0.368174515846949 
1761	 0.369142436082445 
1762	 0.37013213703053 
1763	 0.371248980817816 
1764	 0.372477202404003 
1765	 0.373766278871379 
1766	 0.375197933381263 
1767	 0.376642301932256 
1768	 0.378117344752982 
1769	 0.379602098925214 
1770	 0.380957507409126 
1771	 0.382289330379904 
1772	 0.383552596643065 
1773	 0.384695476928239 
1774	 0.385815461845137 
1775	 0.386821572437022 
1776	 0.387760558233612 
1777	 0.388667541285179 
1778	 0.38946956134406 
1779	 0.390259956695323 
1780	 0.390999975709049 
1781	 0.391631376091898 
1782	 0.392250047054028 
1783	 0.392833371110816 
1784	 0.393360252764358 
1785	 0.393852161977125 
1786	 0.394294714806274 
1787	 0.394667316336479 
1788	 0.395024547486686 
1789	 0.395348951096985 
1790	 0.395662278835335 
1791	 0.395943417918761 
1792	 0.396238055043115 
1793	 0.396522224409003 
1794	 0.396778415646491 
1795	 0.397032349574304 
1796	 0.397289914103553 
1797	 0.397561990221048 
1798	 0.397837539137426 
1799	 0.398114329761227 
1800	 0.398409284008614 
1801	 0.39272105778057 
1802	 0.39301150751982 
1803	 0.393300861963441 
1804	 0.393591085028336 
1805	 0.393890301412522 
1806	 0.394167094862024 
1807	 0.394438442086076 
1808	 0.394702927846878 
1809	 0.394950259063101 
1810	 0.395205241544128 
1811	 0.395445401854065 
1812	 0.395710837271876 
1813	 0.39598951311783 
1814	 0.396272830660136 
1815	 0.39655555057855 
1816	 0.39686211826303 
1817	 0.397161630562891 
1818	 0.397450421309055 
1819	 0.397756918767087 
1820	 0.398079270089483 
1821	 0.398398050261917 
1822	 0.398720780071279 
1823	 0.399052967225624 
1824	 0.399369498227624 
1825	 0.399692549077199 
1826	 0.400023700676956 
1827	 0.400364619095037 
1828	 0.400685786725575 
1829	 0.401015239146968 
1830	 0.401328536726893 
1831	 0.401618298370667 
1832	 0.401922190634473 
1833	 0.402213677162045 
1834	 0.402491406461001 
1835	 0.402782779602374 
1836	 0.403058079190683 
1837	 0.403343500492671 
1838	 0.403624460582176 
1839	 0.403930459409351 
1840	 0.404260697749373 
1841	 0.404570696755588 
1842	 0.404880080151527 
1843	 0.405216672935745 
1844	 0.40552167594478 
1845	 0.405774744497383 
1846	 0.40606008143553 
1847	 0.406329240121976 
1848	 0.406585303032351 
1849	 0.406837678419713 
1850	 0.407080071028213 
1851	 0.407328069065506 
1852	 0.407527548809574 
1853	 0.407689328748314 
1854	 0.407814048349467 
1855	 0.407844186413647 
1856	 0.407852875939536 
1857	 0.40785818684882 
1858	 0.407811030166051 
1859	 0.407752436075175 
1860	 0.407690744550818 
1861	 0.407581721027246 
1862	 0.407437580975755 
1863	 0.407272286397233 
1864	 0.407061492836439 
1865	 0.406810348015391 
1866	 0.406515282830293 
1867	 0.406171529182145 
1868	 0.405788404744475 
1869	 0.405358403286891 
1870	 0.4048982617313 
1871	 0.40439819478269 
1872	 0.403878352069672 
1873	 0.403338051303583 
1874	 0.402761481339458 
1875	 0.402163197811673 
1876	 0.401461546410731 
1877	 0.400713868582029 
1878	 0.399887656208037 
1879	 0.398929018696318 
1880	 0.397951382879677 
1881	 0.396898316357193 
1882	 0.395763265879826 
1883	 0.394566994274206 
1884	 0.393296909596957 
1885	 0.391868680635304 
1886	 0.390384328530604 
1887	 0.388769245696106 
1888	 0.38703560532925 
1889	 0.385348280709755 
1890	 0.383534719374304 
1891	 0.381706050252664 
1892	 0.379886600192699 
1893	 0.377988638124513 
1894	 0.375993522693891 
1895	 0.374051266270318 
1896	 0.372079469215706 
1897	 0.370107164532047 
1898	 0.368292335474341 
1899	 0.366472117699711 
1900	 0.364726887386042 
1901	 0.363075164714825 
1902	 0.361370998750794 
1903	 0.359805088062206 
1904	 0.358312879865438 
1905	 0.356877744672717 
1906	 0.355506630800067 
1907	 0.354305743763852 
1908	 0.353126040821067 
1909	 0.352013712470662 
1910	 0.350987430893363 
1911	 0.349964164820843 
1912	 0.349036842944839 
1913	 0.348146745712668 
1914	 0.347272155709292 
1915	 0.346475582717882 
1916	 0.345768541524092 
1917	 0.345056489857469 
1918	 0.344375794919528 
1919	 0.343766815525985 
1920	 0.343124000963586 
1921	 0.342509415159057 
1922	 0.341931016327743 
1923	 0.341341181711913 
1924	 0.34082264710214 
1925	 0.340325853568399 
1926	 0.339854091721941 
1927	 0.339428820552887 
1928	 0.338998450129095 
1929	 0.338567711011873 
1930	 0.338179756425519 
1931	 0.337820079238089 
1932	 0.337486125346788 
1933	 0.337239097001581 
1934	 0.337049049489245 
1935	 0.336888140026728 
1936	 0.33680317695947 
1937	 0.336769612829053 
1938	 0.336796740364681 
1939	 0.336858758857822 
1940	 0.33697695585073 
1941	 0.337134721735585 
1942	 0.33731255052787 
1943	 0.337529189564373 
1944	 0.337800054944028 
1945	 0.338099097175424 
1946	 0.338454240460709 
1947	 0.338840312865507 
1948	 0.339260014819587 
1949	 0.339730388096388 
1950	 0.340216602432714 
1951	 0.340736667108708 
1952	 0.341287985970482 
1953	 0.341868454135281 
1954	 0.342458314629853 
1955	 0.343117966905786 
1956	 0.343771928478046 
1957	 0.344435998496951 
1958	 0.345115717434839 
1959	 0.345736798547504 
1960	 0.346343192878976 
1961	 0.346917168575787 
1962	 0.347459576792677 
1963	 0.347976011826974 
1964	 0.34847845859059 
1965	 0.348918591872763 
1966	 0.349319066870959 
1967	 0.349679935012408 
1968	 0.349988596514668 
1969	 0.350294132737042 
1970	 0.350594597699952 
1971	 0.350893195944494 
1972	 0.351208500020517 
1973	 0.351535172957702 
1974	 0.351861793956643 
1975	 0.352205477699247 
1976	 0.352533666037003 
1977	 0.352852083232737 
1978	 0.353180277275052 
1979	 0.353493862967765 
1980	 0.353840054476404 
1981	 0.354224327701106 
1982	 0.354554355901964 
1983	 0.354911327431596 
1984	 0.355275765040897 
1985	 0.355605310917856 
1986	 0.355991245047105 
1987	 0.356377221509027 
1988	 0.356761409098129 
1989	 0.35718512999135 
1990	 0.357626194887525 
1991	 0.358092826517183 
1992	 0.358592452965313 
1993	 0.3591336802571 
1994	 0.359640987279657 
1995	 0.360193837230078 
1996	 0.360742638766273 
1997	 0.361260301247407 
1998	 0.361787533027942 
1999	 0.362333187162348 
2000	 0.36282676872549 
2001	 0.363317812854644 
2002	 0.363761230869697 
2003	 0.36417200349955 
2004	 0.364543405077867 
2005	 0.364868206343066 
2006	 0.365171496458257 
2007	 0.36544666085034 
2008	 0.365678813954266 
2009	 0.365886846239952 
2010	 0.366074527715089 
2011	 0.366198725809059 
2012	 0.366304687279567 
2013	 0.36639302217503 
2014	 0.366458903152735 
2015	 0.366490176152391 
2016	 0.36650438796633 
2017	 0.36648134459212 
2018	 0.366412184077681 
2019	 0.366327176719879 
2020	 0.366221788098237 
2021	 0.366082974036801 
2022	 0.36591205223333 
2023	 0.36573116959669 
2024	 0.365529018796067 
2025	 0.365312280388496 
2026	 0.36507366390844 
2027	 0.364810419238231 
2028	 0.364545782372925 
2029	 0.364263201776031 
2030	 0.363971180526215 
2031	 0.363666057791998 
2032	 0.363362781910103 
2033	 0.363021935056849 
2034	 0.362726138894123 
2035	 0.36244074165225 
2036	 0.362184921991504 
2037	 0.361969519763277 
2038	 0.361757185868128 
2039	 0.361538985954739 
2040	 0.36132781715652 
2041	 0.361125654153731 
2042	 0.36092788114932 
2043	 0.360726407724952 
2044	 0.36052893660341 
2045	 0.360343186314333 
2046	 0.360149327599121 
2047	 0.359970436506232 
2048	 0.359812835004102 
2049	 0.359658994187166 
2050	 0.359498898941289 
2051	 0.359368706493796 
2052	 0.359241867629282 
2053	 0.359123821346045 
2054	 0.359027042088314 
2055	 0.358947116122267 
2056	 0.358868586177662 
2057	 0.358825332629548 
2058	 0.358747121598394 
2059	 0.358659996405755 
2060	 0.358566239802158 
2061	 0.358453814889871 
2062	 0.358341750786678 
2063	 0.358230110647101 
2064	 0.358112697384339 
2065	 0.357986794827626 
2066	 0.357861463543729 
2067	 0.357734848593165 
2068	 0.357578775957157 
2069	 0.357431030771521 
2070	 0.357273734940734 
2071	 0.357125012475544 
2072	 0.356983566581726 
2073	 0.356828328771688 
2074	 0.35668536693565 
2075	 0.356503629143733 
2076	 0.356299552581401 
2077	 0.356082400243376 
2078	 0.355828646984175 
2079	 0.355583870599801 
2080	 0.355332985348161 
2081	 0.355078710467637 
2082	 0.354824396359527 
2083	 0.354572591024916 
2084	 0.354278435330367 
2085	 0.353984208724213 
2086	 0.353674923006522 
2087	 0.353322971593062 
2088	 0.353010866236038 
2089	 0.35271413539379 
2090	 0.352410301041054 
2091	 0.35215335842935 
2092	 0.351821082387454 
2093	 0.351444280294409 
2094	 0.351069109827703 
2095	 0.350642993992777 
2096	 0.350232880785933 
2097	 0.34983960522965 
2098	 0.34942595640801 
2099	 0.349010939751013 
2100	 0.348585853955806 
2101	 0.348114577133053 
2102	 0.347627906779191 
2103	 0.34710157831713 
2104	 0.346507449952468 
2105	 0.345948096543409 
2106	 0.34538030967716 
2107	 0.344806127597018 
2108	 0.344263960705168 
2109	 0.343652276645829 
2110	 0.342987331475484 
2111	 0.342334932185069 
2112	 0.341630871484598 
2113	 0.340954843028016 
2114	 0.34029711722567 
2115	 0.339637741069525 
2116	 0.338990552506333 
2117	 0.338325847477484 
2118	 0.337668181982013 
2119	 0.337009119652393 
2120	 0.336370124047036 
2121	 0.335713538068956 
2122	 0.335119029573153 
2123	 0.334560712441234 
2124	 0.334015894394275 
2125	 0.333507790615545 
2126	 0.333017760138735 
2127	 0.332539935394877 
2128	 0.332093900399081 
2129	 0.331660280518723 
2130	 0.331277519532468 
2131	 0.330940395073331 
2132	 0.330624525135064 
2133	 0.330347029633483 
2134	 0.330112203180006 
2135	 0.329876010170988 
2136	 0.329656506597123 
2137	 0.329450858502651 
2138	 0.329247966149702 
2139	 0.329101739107389 
2140	 0.328993258989737 
2141	 0.328886464090537 
2142	 0.328819667216968 
2143	 0.328758612285847 
2144	 0.328683295022874 
2145	 0.328661451964111 
2146	 0.328679604643721 
2147	 0.328717345367085 
2148	 0.328801546126033 
2149	 0.328878032253604 
2150	 0.328963878356154 
2151	 0.329072302108628 
2152	 0.329193983180603 
2153	 0.329321220048292 
2154	 0.329480791812609 
2155	 0.329662065679689 
2156	 0.329830294735832 
2157	 0.329999856447825 
2158	 0.330180109628423 
2159	 0.330374789006093 
2160	 0.330541884336822 
2161	 0.330715691402196 
2162	 0.33086283322859 
2163	 0.330975069364815 
2164	 0.331100595129703 
2165	 0.331222683073372 
2166	 0.331341326289176 
2167	 0.331438510004055 
2168	 0.331566640705917 
2169	 0.331703037930352 
2170	 0.331849240187492 
2171	 0.332021936937501 
2172	 0.332196119994729 
2173	 0.332381175096992 
2174	 0.332560836354348 
2175	 0.332735500904518 
2176	 0.332897887998825 
2177	 0.333072447080062 
2178	 0.333227209931405 
2179	 0.333422233230006 
2180	 0.33364996078221 
2181	 0.333861822817196 
2182	 0.334089262741439 
2183	 0.334300520014963 
2184	 0.334512258750709 
2185	 0.334701858460515 
2186	 0.334891614319634 
2187	 0.33504483534779 
2188	 0.335173456936548 
2189	 0.335280525702774 
2190	 0.335346815022777 
2191	 0.3354207623937 
2192	 0.335477520983626 
2193	 0.33553351408705 
2194	 0.335585323426352 
2195	 0.335635254344831 
2196	 0.33568339512677 
2197	 0.335728204325665 
2198	 0.335748424361137 
2199	 0.335754137476342 
2200	 0.335730317702874 
2201	 0.335675642933879 
2202	 0.335599851665533 
2203	 0.335496909249193 
2204	 0.335387728600576 
2205	 0.335253881119215 
2206	 0.335113590725169 
2207	 0.334958975705405 
2208	 0.334807228868962 
2209	 0.334642335191176 
2210	 0.334473213263604 
2211	 0.334324091370933 
2212	 0.334133831726899 
2213	 0.333911981021327 
2214	 0.333685281186337 
2215	 0.33343662182915 
2216	 0.33317449393414 
2217	 0.332901905082398 
2218	 0.332625099828922 
2219	 0.332326943479693 
2220	 0.332031995515209 
2221	 0.331742892418752 
2222	 0.331441245246977 
2223	 0.331127060503674 
2224	 0.33077127845175 
2225	 0.330399544117081 
2226	 0.329957126615652 
2227	 0.329438360706467 
2228	 0.328865839655904 
2229	 0.32822043016452 
2230	 0.327468664300264 
2231	 0.326713396418589 
2232	 0.32595052764579 
2233	 0.325043988468678 
2234	 0.324100133690553 
2235	 0.322993491636515 
2236	 0.321734533933557 
2237	 0.320403610449933 
2238	 0.318912138968948 
2239	 0.317420050579972 
2240	 0.315887555241114 
2241	 0.314232447481048 
2242	 0.312569603612632 
2243	 0.310720441178742 
2244	 0.308672414784563 
2245	 0.306592318845276 
2246	 0.304307649558976 
2247	 0.302089576983571 
2248	 0.299874918719551 
2249	 0.29760483732289 
2250	 0.29531946785959 
2251	 0.293054013057088 
2252	 0.290564931278957 
2253	 0.288142063149692 
2254	 0.285698382790611 
2255	 0.283231376313524 
2256	 0.281011545135854 
2257	 0.278757350307609 
2258	 0.27654634044222 
2259	 0.274425164863292 
2260	 0.272272691143534 
2261	 0.270098666592902 
2262	 0.267998151616311 
2263	 0.265884378748353 
2264	 0.263915143880926 
2265	 0.262039864028268 
2266	 0.260180227001817 
2267	 0.258462512986192 
2268	 0.256681448585735 
2269	 0.254882239664751 
2270	 0.253130857936941 
2271	 0.251377913722435 
2272	 0.249665191171734 
2273	 0.247990763989028 
2274	 0.246335489793156 
2275	 0.244779059315535 
2276	 0.243126564537204 
2277	 0.241452879986253 
2278	 0.239765467163375 
2279	 0.23800274064427 
2280	 0.236239551338332 
2281	 0.234515098123178 
2282	 0.232706809270143 
2283	 0.230845048961291 
2284	 0.228971261528959 
2285	 0.226924617289544 
2286	 0.224918509440431 
2287	 0.222830053767871 
2288	 0.220661678415165 
2289	 0.218630061380929 
2290	 0.216482041668301 
2291	 0.214324332909679 
2292	 0.212233662714622 
2293	 0.210055661113486 
2294	 0.207995420569312 
2295	 0.206040402660809 
2296	 0.204192088593474 
2297	 0.202606386604571 
2298	 0.201203482290062 
2299	 0.200035014579606 
2300	 0.19910393673566 
2301	 0.198391669773876 
2302	 0.197876317838835 
2303	 0.197695392772642 
2304	 0.197795328342034 
2305	 0.198148442513056 
2306	 0.198856996573237 
2307	 0.199726224168254 
2308	 0.200835701502137 
2309	 0.202169289718289 
2310	 0.203789967017827 
2311	 0.205507202621986 
2312	 0.207585451656839 
2313	 0.209497625472197 
2314	 0.211544310722043 
2315	 0.213447214035795 
2316	 0.215285812953062 
2317	 0.217005236878829 
2318	 0.218744656281475 
2319	 0.220163614876971 
2320	 0.221403981878241 
2321	 0.222430225270586 
2322	 0.223152420968091 
2323	 0.223759314628663 
2324	 0.22416915213816 
2325	 0.224447149100191 
2326	 0.224564792644028 
2327	 0.224522243283211 
2328	 0.22429645355237 
2329	 0.22393774090696 
2330	 0.223405771546103 
2331	 0.22273097476325 
2332	 0.221933042099506 
2333	 0.220988000270257 
2334	 0.219813486673848 
2335	 0.218581188904358 
2336	 0.217252048179701 
2337	 0.215807105238523 
2338	 0.214475657376582 
2339	 0.213087505482285 
2340	 0.211704211680111 
2341	 0.210441488825415 
2342	 0.209205125976473 
2343	 0.208166556009407 
2344	 0.207372952742039 
2345	 0.206838015433297 
2346	 0.206577856737577 
2347	 0.206629858610228 
2348	 0.206977121984419 
2349	 0.207715877878396 
2350	 0.208781292747191 
2351	 0.210013227198882 
2352	 0.211431190173092 
2353	 0.212906087892012 
2354	 0.214223632375073 
2355	 0.215559444919091 
2356	 0.216794316314394 
2357	 0.217738501296242 
2358	 0.218644039571945 
2359	 0.219375194002078 
2360	 0.219912403352279 
2361	 0.220333078220762 
2362	 0.220566241321995 
2363	 0.22067745802388 
2364	 0.220687573487463 
2365	 0.220606081206819 
2366	 0.220574269658986 
2367	 0.220564069099776 
2368	 0.220530331386018 
2369	 0.220510934773336 
2370	 0.220476181025872 
2371	 0.220447886521481 
2372	 0.220440941944883 
2373	 0.220456416038039 
2374	 0.220460947480242 
2375	 0.220481777653134 
2376	 0.220525264908498 
2377	 0.220576893449767 
2378	 0.220679593811695 
2379	 0.220783166542264 
2380	 0.220859645805771 
2381	 0.220935802792219 
2382	 0.221006065005281 
2383	 0.221058327790015 
2384	 0.221125683769524 
2385	 0.221184265120134 
2386	 0.221268311893592 
2387	 0.221375943613087 
2388	 0.221467030088861 
2389	 0.221543951753131 
2390	 0.221713616313809 
2391	 0.221947495861915 
2392	 0.222087070516611 
2393	 0.222249863653169 
2394	 0.222352950570438 
2395	 0.222362359949788 
2396	 0.22243200395483 
2397	 0.222495266552438 
2398	 0.222655635751116 
2399	 0.222854381614684 
2400	 0.223006340387991 
2401	 0.223287165601668 
2402	 0.22335388296375 
2403	 0.223347759484583 
2404	 0.223372369755845 
2405	 0.223377042289654 
2406	 0.223436904209994 
2407	 0.223555031868062 
2408	 0.223647475450674 
2409	 0.223694335862137 
2410	 0.223728882870389 
2411	 0.223806874124132 
2412	 0.223835271950857 
2413	 0.223766263509772 
2414	 0.223811857188826 
2415	 0.223835523862376 
2416	 0.223792798776554 
2417	 0.223962491895117 
2418	 0.224064022332726 
2419	 0.224048558801438 
2420	 0.224141979375444 
2421	 0.224198095923356 
2422	 0.224201301839486 
2423	 0.224129433619584 
2424	 0.224049483362752 
2425	 0.223997509145535 
2426	 0.2239465486421 
2427	 0.224033350084046 
2428	 0.224144304002273 
2429	 0.224141281734971 
2430	 0.224057752634994 
2431	 0.223946145459334 
2432	 0.223857120513421 
2433	 0.223806479986395 
2434	 0.223809478533343 
2435	 0.223828485293707 
2436	 0.223840323702578 
2437	 0.223779479763009 
2438	 0.223555057359101 
2439	 0.223420602337721 
2440	 0.223354412924204 
2441	 0.223207194199735 
2442	 0.223295202326622 
2443	 0.223389036208097 
2444	 0.223246082774601 
2445	 0.223118339814871 
2446	 0.222872354064968 
2447	 0.222497660047363 
2448	 0.222246283930911 
2449	 0.222011841077897 
2450	 0.221848865831869 
2451	 0.221847504410915 
2452	 0.221718856737725 
2453	 0.221554984263594 
2454	 0.221409741699008 
2455	 0.221129179707757 
2456	 0.220871984616773 
2457	 0.220727574460408 
2458	 0.220579885759513 
2459	 0.220376087882758 
2460	 0.220244260518347 
2461	 0.220015979529107 
2462	 0.219691937930854 
2463	 0.219451292541494 
2464	 0.219255880790423 
2465	 0.219319729446062 
2466	 0.219476380360947 
2467	 0.219651666142582 
2468	 0.219913464878249 
2469	 0.219909045013879 
2470	 0.219796118709387 
2471	 0.219738607593037 
2472	 0.219747454545932 
2473	 0.219785684963371 
2474	 0.219863177236106 
2475	 0.220111895585102 
2476	 0.220240223806109 
2477	 0.220307265664946 
2478	 0.220367363019705 
2479	 0.220372492697971 
2480	 0.220343189299226 
2481	 0.220371832910069 
2482	 0.220632857581809 
2483	 0.220722627035605 
2484	 0.220795747471398 
2485	 0.221117998970223 
2486	 0.22133046068877 
2487	 0.221658195250008 
2488	 0.222177661175204 
2489	 0.222587069798568 
2490	 0.222936828587124 
2491	 0.223233307359403 
2492	 0.223594474075045 
2493	 0.223897635285222 
2494	 0.224346501192287 
2495	 0.225116983824015 
2496	 0.225657013346546 
2497	 0.226097393159356 
2498	 0.22662707612059 
2499	 0.226935298385065 
2500	 0.227154425719775 
