Wavelength	spectrum00018.asd
350	 5.47357101408075E-02 
351	 5.37380692509975E-02 
352	 5.11476745647526E-02 
353	 4.88240737537156E-02 
354	 4.93282897031933E-02 
355	 0.050005121705577 
356	 4.84603372534823E-02 
357	 4.46562377469657E-02 
358	 4.50111508532393E-02 
359	 4.44709866995806E-02 
360	 4.28067608198343E-02 
361	 4.22881201193864E-02 
362	 4.32418711561498E-02 
363	 4.35795861956059E-02 
364	 4.22944673451757E-02 
365	 4.00116531964494E-02 
366	 4.10210996700162E-02 
367	 4.25013048633903E-02 
368	 4.15904729683263E-02 
369	 0.041151695987717 
370	 4.15530870882141E-02 
371	 4.22644224687425E-02 
372	 4.23033363416457E-02 
373	 0.041854669723288 
374	 0.041788654388511 
375	 4.24765105470979E-02 
376	 4.35175571254169E-02 
377	 4.37372534453786E-02 
378	 4.30413132905415E-02 
379	 4.21166511950972E-02 
380	 4.30534167985573E-02 
381	 4.39102392891312E-02 
382	 4.40214209078722E-02 
383	 4.36815066354907E-02 
384	 4.35886986935021E-02 
385	 0.044068534482203 
386	 4.47938996087138E-02 
387	 4.45713578726597E-02 
388	 4.44851873290043E-02 
389	 4.50518634113246E-02 
390	 4.61400041971375E-02 
391	 4.59014264989913E-02 
392	 4.63141092270722E-02 
393	 4.71762114957488E-02 
394	 4.69969712932249E-02 
395	 4.72681576118144E-02 
396	 4.84023823009155E-02 
397	 4.98165133858568E-02 
398	 4.95069141347088E-02 
399	 4.99736298779906E-02 
400	 5.06983177639606E-02 
401	 5.07164161447831E-02 
402	 5.10675398540387E-02 
403	 5.17085942370272E-02 
404	 5.24164477779524E-02 
405	 5.29018228295839E-02 
406	 5.34461119936395E-02 
407	 5.40099944369752E-02 
408	 0.054597942109291 
409	 5.54515192148345E-02 
410	 5.57564057392236E-02 
411	 5.63526625430084E-02 
412	 5.80077009309839E-02 
413	 0.05834538797145 
414	 5.84546983176094E-02 
415	 5.90483225654046E-02 
416	 6.02627533362945E-02 
417	 6.10938254406894E-02 
418	 6.17879080016857E-02 
419	 6.26084199631495E-02 
420	 6.32873227393943E-02 
421	 6.39567720794237E-02 
422	 6.47845089928962E-02 
423	 6.58545321840308E-02 
424	 6.66448248424524E-02 
425	 6.74026726960038E-02 
426	 0.068265406981066 
427	 0.069169460794716 
428	 6.99636794758106E-02 
429	 7.07733318581943E-02 
430	 7.16643452730692E-02 
431	 7.23046961123667E-02 
432	 7.30987496661741E-02 
433	 7.40110355843907E-02 
434	 7.47991232598976E-02 
435	 7.58390379384473E-02 
436	 7.67767010235843E-02 
437	 7.74805562935619E-02 
438	 0.078285915817274 
439	 7.89254521023251E-02 
440	 0.079686947534079 
441	 8.08005375059938E-02 
442	 8.16040698509648E-02 
443	 8.23259194323065E-02 
444	 8.30836674340108E-02 
445	 8.38753232344162E-02 
446	 8.46072890538384E-02 
447	 8.52621720124574E-02 
448	 8.58782393862102E-02 
449	 8.65868074912077E-02 
450	 8.72698315723686E-02 
451	 8.79145424655203E-02 
452	 8.85331856087773E-02 
453	 8.90218633038243E-02 
454	 8.95879451104895E-02 
455	 9.02220119757626E-02 
456	 0.090662203746537 
457	 0.091145242123178 
458	 9.15734337860658E-02 
459	 9.18641180868415E-02 
460	 9.21999609700828E-02 
461	 9.24712841406669E-02 
462	 9.26439450620329E-02 
463	 9.27279220165811E-02 
464	 9.27145709271669E-02 
465	 9.26831036138571E-02 
466	 9.26274991936412E-02 
467	 9.23957632530877E-02 
468	 9.21334544098478E-02 
469	 9.18047028026693E-02 
470	 9.13827632209293E-02 
471	 9.11339802165269E-02 
472	 9.06413156205342E-02 
473	 8.99555106296544E-02 
474	 8.94805137849195E-02 
475	 8.87773883449067E-02 
476	 8.80068639102147E-02 
477	 8.73075419858795E-02 
478	 8.65585060347987E-02 
479	 8.57543127132388E-02 
480	 8.49177911994849E-02 
481	 8.40655202642412E-02 
482	 8.30714380881449E-02 
483	 8.20731673851256E-02 
484	 8.11139388027178E-02 
485	 0.080111382964947 
486	 7.92060837227644E-02 
487	 7.83192086428474E-02 
488	 7.73498977634768E-02 
489	 7.62647233862317E-02 
490	 7.53292034536058E-02 
491	 7.45276263439176E-02 
492	 0.073681660788877 
493	 7.28518980101463E-02 
494	 7.20551503339209E-02 
495	 7.12822474528368E-02 
496	 7.04844070743458E-02 
497	 6.97683971685328E-02 
498	 6.91015230964086E-02 
499	 6.84228017226866E-02 
500	 0.067782873740309 
501	 0.066997864186793 
502	 6.61005649773049E-02 
503	 6.53098518400621E-02 
504	 6.44954790001432E-02 
505	 6.36404425979498E-02 
506	 6.27591869627178E-02 
507	 6.18949748001262E-02 
508	 6.10177439000881E-02 
509	 6.01251403446159E-02 
510	 5.92439223567859E-02 
511	 5.84951523400002E-02 
512	 0.057780893390817 
513	 5.70487658485441E-02 
514	 5.63301967694082E-02 
515	 5.55347383775448E-02 
516	 5.47398548326912E-02 
517	 5.40238326478144E-02 
518	 5.33093550835132E-02 
519	 5.25920306848795E-02 
520	 0.051840647997821 
521	 5.10237258750484E-02 
522	 5.03305477236054E-02 
523	 4.96379241114722E-02 
524	 4.88912584415569E-02 
525	 4.82694177134824E-02 
526	 4.75792270452459E-02 
527	 4.69315006849014E-02 
528	 0.046473365619113 
529	 4.59124864914482E-02 
530	 0.045410582499857 
531	 4.50272314189874E-02 
532	 4.46838532470852E-02 
533	 4.42908079535446E-02 
534	 4.39345480530302E-02 
535	 4.36868913756091E-02 
536	 0.04345498748859 
537	 4.32556351558112E-02 
538	 4.30943011768084E-02 
539	 4.29700506413781E-02 
540	 4.28787598413637E-02 
541	 4.28171555826406E-02 
542	 4.27997433096168E-02 
543	 4.28725926967692E-02 
544	 4.29581739181572E-02 
545	 0.043049155369397 
546	 4.31672319035753E-02 
547	 4.33471712489561E-02 
548	 4.36024456884871E-02 
549	 4.39015584656466E-02 
550	 4.41789042215631E-02 
551	 4.44943625165104E-02 
552	 4.48588982070123E-02 
553	 4.52591447363617E-02 
554	 4.56445963145059E-02 
555	 0.046043519425507 
556	 4.64279587958869E-02 
557	 4.67514506173654E-02 
558	 4.70466591673655E-02 
559	 4.72986213659617E-02 
560	 4.74893690575278E-02 
561	 4.76036680348219E-02 
562	 4.76126149000604E-02 
563	 4.75875855825648E-02 
564	 4.75777280634643E-02 
565	 4.74427348017634E-02 
566	 4.72296124096641E-02 
567	 4.69507193240132E-02 
568	 4.65930525444382E-02 
569	 4.61940328414926E-02 
570	 4.57370204509478E-02 
571	 4.52153046600643E-02 
572	 4.46636459402099E-02 
573	 4.40488073094297E-02 
574	 4.34075090393504E-02 
575	 4.28000484538817E-02 
576	 0.042259822821349 
577	 0.04166254898545 
578	 4.09990565230014E-02 
579	 4.04023775746326E-02 
580	 0.039823017411942 
581	 3.92402653208829E-02 
582	 3.86619357612806E-02 
583	 3.81682644308694E-02 
584	 0.037719559073712 
585	 3.72982918168863E-02 
586	 3.69032539303816E-02 
587	 3.65647816586459E-02 
588	 3.62701432359437E-02 
589	 3.60088939124205E-02 
590	 3.57818453993645E-02 
591	 3.56292296002569E-02 
592	 3.55310995320794E-02 
593	 3.54537137926079E-02 
594	 3.53991762266599E-02 
595	 3.53547744629746E-02 
596	 3.53350918279317E-02 
597	 3.53741451552945E-02 
598	 3.54104640368262E-02 
599	 3.54399211439846E-02 
600	 3.54726119505244E-02 
601	 3.55255027499977E-02 
602	 3.55818259588627E-02 
603	 3.56263417566119E-02 
604	 3.56522917205071E-02 
605	 3.57046793145417E-02 
606	 3.57460675427204E-02 
607	 3.57782671958482E-02 
608	 3.58593552937196E-02 
609	 3.58540743429843E-02 
610	 3.58407022780039E-02 
611	 3.59042254905886E-02 
612	 3.59679403924747E-02 
613	 3.60146027473295E-02 
614	 3.60388941731086E-02 
615	 3.60464546556288E-02 
616	 3.60497249929992E-02 
617	 3.60635203229314E-02 
618	 3.60926259945776E-02 
619	 3.61276342092404E-02 
620	 3.61317633514003E-02 
621	 3.61203337356753E-02 
622	 3.61148121891358E-02 
623	 3.60666573307849E-02 
624	 3.60222535345872E-02 
625	 3.59874813016617E-02 
626	 3.59288166492019E-02 
627	 3.58799473630148E-02 
628	 3.58350062539037E-02 
629	 3.57756326048676E-02 
630	 3.56684688582826E-02 
631	 3.55595494837021E-02 
632	 0.035467126778495 
633	 3.53914216950885E-02 
634	 3.53043851789273E-02 
635	 3.52261187583451E-02 
636	 3.51651720481905E-02 
637	 3.51109247476337E-02 
638	 3.50248863649562E-02 
639	 3.49448200434475E-02 
640	 3.49061429709411E-02 
641	 3.48703099322195E-02 
642	 3.48447609288871E-02 
643	 3.48361407401988E-02 
644	 3.48490049361545E-02 
645	 3.48714866424695E-02 
646	 3.49087913205022E-02 
647	 3.49584442928534E-02 
648	 0.035000793669185 
649	 3.50701449258928E-02 
650	 3.51720941235796E-02 
651	 3.52986338635904E-02 
652	 3.54294723303306E-02 
653	 3.55706208593415E-02 
654	 3.57345583122367E-02 
655	 3.59365717501839E-02 
656	 3.61667285695002E-02 
657	 3.64157903781478E-02 
658	 3.66858528721902E-02 
659	 3.70007823377196E-02 
660	 3.73734006165443E-02 
661	 3.77765083365788E-02 
662	 3.81834408925956E-02 
663	 3.86651000213372E-02 
664	 3.91751278934229E-02 
665	 3.97205196864096E-02 
666	 4.03654620123344E-02 
667	 4.10631983754423E-02 
668	 4.18464641929216E-02 
669	 4.27315133927598E-02 
670	 4.36516959486496E-02 
671	 4.46841509372631E-02 
672	 4.58305234181113E-02 
673	 4.70691217660972E-02 
674	 4.84564282668279E-02 
675	 4.99641340382561E-02 
676	 5.15931121345709E-02 
677	 5.33859162455815E-02 
678	 5.53242291727513E-02 
679	 0.057435234664039 
680	 5.97374417867756E-02 
681	 6.21923206579937E-02 
682	 6.48578805607678E-02 
683	 6.77219192099858E-02 
684	 7.07391974161746E-02 
685	 7.39630081023233E-02 
686	 7.73925267994785E-02 
687	 8.10131810043904E-02 
688	 8.48046166060818E-02 
689	 8.87677024417551E-02 
690	 9.28724985941734E-02 
691	 9.71004445637066E-02 
692	 0.101480007799605 
693	 0.105964191184187 
694	 0.110551829504018 
695	 0.11525337847205 
696	 0.119956108665006 
697	 0.124682853198314 
698	 0.129440216038277 
699	 0.13417379383301 
700	 0.138883459127937 
701	 0.143560629714588 
702	 0.148188601946677 
703	 0.152715976830702 
704	 0.157181958325651 
705	 0.161550453120746 
706	 0.165749462875259 
707	 0.169852366113602 
708	 0.173825215545322 
709	 0.177648228054374 
710	 0.181351081130025 
711	 0.184891362225403 
712	 0.188291427390816 
713	 0.191575467547929 
714	 0.194713671864234 
715	 0.197641572846628 
716	 0.200386320490971 
717	 0.203032592299479 
718	 0.205541327163172 
719	 0.207945079083682 
720	 0.210233216811445 
721	 0.212297920774198 
722	 0.214299415408598 
723	 0.216214306895441 
724	 0.217974348122289 
725	 0.219587624629134 
726	 0.221128613925067 
727	 0.222605825913869 
728	 0.223976721993108 
729	 0.225240229938356 
730	 0.226413404731058 
731	 0.227526478815058 
732	 0.228629462289628 
733	 0.229611904354677 
734	 0.230520894783082 
735	 0.231417321726056 
736	 0.232220460505358 
737	 0.232966033153462 
738	 0.233652113585778 
739	 0.234262515850388 
740	 0.234916404346711 
741	 0.235505350146481 
742	 0.235996870592518 
743	 0.236513474072024 
744	 0.237035672908088 
745	 0.237548072731471 
746	 0.238018759704578 
747	 0.238356906453832 
748	 0.238745677463882 
749	 0.239184848524879 
750	 0.239567527121143 
751	 0.239889902266947 
752	 0.240227542124657 
753	 0.24058075878782 
754	 0.240844771514255 
755	 0.241166934655643 
756	 0.241510392947416 
757	 0.241807806982541 
758	 0.242027477223828 
759	 0.242288644605658 
760	 0.24258210787837 
761	 0.242844398649652 
762	 0.243112918937828 
763	 0.243367678991562 
764	 0.243602419098362 
765	 0.2438313273186 
766	 0.244091213970322 
767	 0.244320233065338 
768	 0.244501555753925 
769	 0.244769860610343 
770	 0.24501609615292 
771	 0.245244598482929 
772	 0.245487153324922 
773	 0.245696072111707 
774	 0.245911117652247 
775	 0.246148761098498 
776	 0.246399465112986 
777	 0.246625546372447 
778	 0.246849804410877 
779	 0.247074579413786 
780	 0.247250432690123 
781	 0.247446232719375 
782	 0.247652195216631 
783	 0.247851720410708 
784	 0.248089536980693 
785	 0.248338344790068 
786	 0.24857182188542 
787	 0.2487711986075 
788	 0.248961972655585 
789	 0.249155426606197 
790	 0.249353821910988 
791	 0.249551423309735 
792	 0.249778092609359 
793	 0.24999780455007 
794	 0.250190256284205 
795	 0.250410821959949 
796	 0.250585005675194 
797	 0.250751536320069 
798	 0.250971291064732 
799	 0.2511941398102 
800	 0.251405312561167 
801	 0.251581967621289 
802	 0.251708362190252 
803	 0.251898926804304 
804	 0.252101993737545 
805	 0.252281775914635 
806	 0.252462387008163 
807	 0.252631467364721 
808	 0.252772176276679 
809	 0.252897324963001 
810	 0.253111313223879 
811	 0.253302961421398 
812	 0.253470497035126 
813	 0.2536479072515 
814	 0.253759117502649 
815	 0.253898414335464 
816	 0.254085935874427 
817	 0.254266016851207 
818	 0.254430735127457 
819	 0.254552134310351 
820	 0.254634087164776 
821	 0.254732037255637 
822	 0.25483911754644 
823	 0.254959825851652 
824	 0.255092411296274 
825	 0.255213489592308 
826	 0.255334712187948 
827	 0.255447380120331 
828	 0.255537761888851 
829	 0.255615470173219 
830	 0.255711366791627 
831	 0.255830742233413 
832	 0.255952151108265 
833	 0.256041570519974 
834	 0.256086957982957 
835	 0.256117830650214 
836	 0.256216344905085 
837	 0.256293386365603 
838	 0.256329916926899 
839	 0.256348653450601 
840	 0.256439394347331 
841	 0.256486963875998 
842	 0.256488436598781 
843	 0.256495943842047 
844	 0.25657286612893 
845	 0.256662247136735 
846	 0.256720357947998 
847	 0.256725596542164 
848	 0.256700286858014 
849	 0.256692323044276 
850	 0.256725232720126 
851	 0.256786158134848 
852	 0.256829793586551 
853	 0.256881641277684 
854	 0.256945861546217 
855	 0.256951148599109 
856	 0.256891065929581 
857	 0.256852143452902 
858	 0.256906255735929 
859	 0.256967989000457 
860	 0.256962766626416 
861	 0.256932889039018 
862	 0.256960972176329 
863	 0.256961290385556 
864	 0.256954582307392 
865	 0.256929168340883 
866	 0.256850947831934 
867	 0.256792558470047 
868	 0.25682272860112 
869	 0.256898530952718 
870	 0.256839687551208 
871	 0.256767129494403 
872	 0.256723176937083 
873	 0.256721292434464 
874	 0.256752652618694 
875	 0.256754335958084 
876	 0.256731454244085 
877	 0.256710954511436 
878	 0.256708079867563 
879	 0.256667275256167 
880	 0.256607479138578 
881	 0.256571753123938 
882	 0.256511600906791 
883	 0.256467460880065 
884	 0.256410032492934 
885	 0.256285375796217 
886	 0.25632507419524 
887	 0.256376125192449 
888	 0.256364297156446 
889	 0.256356166870085 
890	 0.256297263265994 
891	 0.25621436427266 
892	 0.256145284934892 
893	 0.256119193645423 
894	 0.256068678978147 
895	 0.255984292706314 
896	 0.255900187398511 
897	 0.255925975040171 
898	 0.255868259113601 
899	 0.255787586049863 
900	 0.255781660782192 
901	 0.25572480809422 
902	 0.255710727976197 
903	 0.255711972889763 
904	 0.25565622887878 
905	 0.255584977002516 
906	 0.255537783879805 
907	 0.255527725363762 
908	 0.25553658073662 
909	 0.255487348259692 
910	 0.255425804874699 
911	 0.255376816979099 
912	 0.255334907502077 
913	 0.255383186906172 
914	 0.25534532655647 
915	 0.255210726965838 
916	 0.255230058725741 
917	 0.25522185545563 
918	 0.255190100017443 
919	 0.255169396164427 
920	 0.255180634727966 
921	 0.25517179241298 
922	 0.255119604113195 
923	 0.255053819704403 
924	 0.255112873086648 
925	 0.255136682693563 
926	 0.255126401819744 
927	 0.255121512027865 
928	 0.255093362765453 
929	 0.255090375349419 
930	 0.255110489200389 
931	 0.255129278539483 
932	 0.255139390339 
933	 0.255096735809545 
934	 0.25507190223054 
935	 0.255148655554778 
936	 0.255133672580174 
937	 0.255102332448835 
938	 0.255101113371013 
939	 0.255137430679486 
940	 0.255185336779176 
941	 0.255224527199488 
942	 0.255241199419721 
943	 0.25523630247137 
944	 0.255278697328366 
945	 0.255312900664827 
946	 0.255319612169287 
947	 0.25532727426699 
948	 0.255267095106902 
949	 0.255177337035501 
950	 0.255108021920659 
951	 0.255097011027581 
952	 0.255147954773776 
953	 0.255184451947059 
954	 0.255156227918203 
955	 0.255078654039062 
956	 0.255018879849003 
957	 0.255019458872364 
958	 0.255039486332796 
959	 0.254922904424096 
960	 0.254974333701909 
961	 0.255011329017186 
962	 0.254921463932057 
963	 0.254961729627392 
964	 0.254804158874421 
965	 0.254629899700421 
966	 0.25461029887136 
967	 0.254586377773355 
968	 0.254538205493197 
969	 0.254509181359995 
970	 0.254509043062147 
971	 0.254407273685869 
972	 0.254327592367166 
973	 0.254308287152727 
974	 0.254309426744103 
975	 0.25415230110848 
976	 0.2541290210312 
977	 0.254180024753836 
978	 0.254150599985431 
979	 0.253974868663181 
980	 0.253861223089421 
981	 0.253810157248416 
982	 0.253744714406325 
983	 0.253597925670754 
984	 0.253521490296025 
985	 0.253529415479418 
986	 0.2535502869496 
987	 0.253428816817661 
988	 0.25330761644873 
989	 0.253259618135825 
990	 0.253250790200871 
991	 0.252988613247231 
992	 0.252891370701715 
993	 0.252899137420214 
994	 0.252842054350037 
995	 0.252843635460015 
996	 0.252817814711262 
997	 0.252691673586644 
998	 0.252473639657435 
999	 0.252388428480611 
1000	 0.252405292092205 
1001	 0.252620280526029 
1002	 0.252512202527682 
1003	 0.252361202884333 
1004	 0.25222112481047 
1005	 0.252105866222265 
1006	 0.251952875329731 
1007	 0.251759697880153 
1008	 0.251603815200437 
1009	 0.251469220082546 
1010	 0.251301235049188 
1011	 0.251136234687821 
1012	 0.250947114031131 
1013	 0.250699146835147 
1014	 0.25049846031573 
1015	 0.250305296844792 
1016	 0.250149806793779 
1017	 0.249964987090406 
1018	 0.24977563961737 
1019	 0.249606399159799 
1020	 0.249420990696174 
1021	 0.249230687348812 
1022	 0.249073430361858 
1023	 0.248861012863191 
1024	 0.248604267194595 
1025	 0.248358840070978 
1026	 0.24809190261042 
1027	 0.247845125957222 
1028	 0.247604031908785 
1029	 0.247345342135384 
1030	 0.24714297500499 
1031	 0.246910521724557 
1032	 0.246642812679801 
1033	 0.24640625887821 
1034	 0.24613047662344 
1035	 0.245832667772953 
1036	 0.245544599584856 
1037	 0.24526116841079 
1038	 0.244972925359734 
1039	 0.244672832590484 
1040	 0.244380325771579 
1041	 0.244113140433072 
1042	 0.243803799860939 
1043	 0.243464070520108 
1044	 0.243141716040025 
1045	 0.242810192710422 
1046	 0.242476430327328 
1047	 0.242139633524 
1048	 0.241803484691458 
1049	 0.241476143884183 
1050	 0.241107656245336 
1051	 0.240723411864257 
1052	 0.240372765039033 
1053	 0.239988301843085 
1054	 0.239550423443394 
1055	 0.239156136057397 
1056	 0.238768520198696 
1057	 0.238377134456662 
1058	 0.2379918090964 
1059	 0.237644243701127 
1060	 0.237266301987147 
1061	 0.236879348567947 
1062	 0.236430364366268 
1063	 0.235995748936222 
1064	 0.235588040623097 
1065	 0.235136963415335 
1066	 0.234735234741103 
1067	 0.234328504672053 
1068	 0.233877769714897 
1069	 0.233486257432007 
1070	 0.23306027478132 
1071	 0.232633256291628 
1072	 0.232166567152491 
1073	 0.231736123961154 
1074	 0.231273854650771 
1075	 0.230802530430568 
1076	 0.230375625203704 
1077	 0.229914604315989 
1078	 0.229449238999656 
1079	 0.229012333358271 
1080	 0.228549246480868 
1081	 0.228091291667788 
1082	 0.227625294827183 
1083	 0.22714779087246 
1084	 0.226689607433239 
1085	 0.226211050990661 
1086	 0.225727419062153 
1087	 0.225241619600691 
1088	 0.224735859825878 
1089	 0.224217873360711 
1090	 0.223745199716468 
1091	 0.223253874993572 
1092	 0.222773482057129 
1093	 0.222299372977941 
1094	 0.221758907484734 
1095	 0.221250542203577 
1096	 0.220730936211163 
1097	 0.220167096224522 
1098	 0.219661999894031 
1099	 0.219138237775459 
1100	 0.218578889895668 
1101	 0.218048677169337 
1102	 0.217496296424553 
1103	 0.216940799507918 
1104	 0.216370034402752 
1105	 0.215804724155798 
1106	 0.215235001321554 
1107	 0.214691007945106 
1108	 0.21413350914725 
1109	 0.213591584016258 
1110	 0.213045775615451 
1111	 0.212447278220957 
1112	 0.211862198445528 
1113	 0.21125606037665 
1114	 0.210643541672626 
1115	 0.210065791115683 
1116	 0.209450519607009 
1117	 0.208866649575079 
1118	 0.208271722822539 
1119	 0.207658339442021 
1120	 0.207048624690347 
1121	 0.206455991222798 
1122	 0.205833019015739 
1123	 0.205188794976987 
1124	 0.204605950136514 
1125	 0.203978624600161 
1126	 0.20334567497531 
1127	 0.202739223131332 
1128	 0.202094470918103 
1129	 0.201465193206486 
1130	 0.200819199274527 
1131	 0.200139210484103 
1132	 0.199490403966859 
1133	 0.198832614478119 
1134	 0.198190612741367 
1135	 0.197538657676198 
1136	 0.196877488353799 
1137	 0.196221771646944 
1138	 0.19557785683729 
1139	 0.194904259586966 
1140	 0.194206938150125 
1141	 0.193557303893319 
1142	 0.192879404099867 
1143	 0.192203205006174 
1144	 0.191532632537031 
1145	 0.190815015834735 
1146	 0.190120190085212 
1147	 0.189403417468587 
1148	 0.188681806981987 
1149	 0.188020355965521 
1150	 0.187324786241381 
1151	 0.186632827688723 
1152	 0.185939493609032 
1153	 0.185251518601225 
1154	 0.184549415276943 
1155	 0.18383128948167 
1156	 0.183120009110409 
1157	 0.182410772178238 
1158	 0.181715075467744 
1159	 0.181015848802387 
1160	 0.180344171809164 
1161	 0.179675481786135 
1162	 0.178946365668986 
1163	 0.178254688185054 
1164	 0.177543061391951 
1165	 0.176817571725975 
1166	 0.176157371385242 
1167	 0.175460822412859 
1168	 0.174778703990468 
1169	 0.174091203352237 
1170	 0.17340129227553 
1171	 0.17270352522465 
1172	 0.17200016369866 
1173	 0.17129593889632 
1174	 0.170595028263909 
1175	 0.16990101634846 
1176	 0.169210600533315 
1177	 0.168515152345574 
1178	 0.167830527324225 
1179	 0.167101821221678 
1180	 0.166418838914705 
1181	 0.165733400616677 
1182	 0.165034923446308 
1183	 0.164380522232692 
1184	 0.163680589000201 
1185	 0.162994053135457 
1186	 0.162322378276008 
1187	 0.161649880923343 
1188	 0.160997260176513 
1189	 0.160377649465789 
1190	 0.159726054753168 
1191	 0.159069099124786 
1192	 0.158435901589329 
1193	 0.157785863117285 
1194	 0.157165268523323 
1195	 0.156581120840426 
1196	 0.15598086892764 
1197	 0.155391772935801 
1198	 0.154783810218773 
1199	 0.154154047970267 
1200	 0.153583826149154 
1201	 0.153021183163867 
1202	 0.152457708573272 
1203	 0.15190894431233 
1204	 0.15133643529409 
1205	 0.150783941295513 
1206	 0.150214524103195 
1207	 0.149678761894117 
1208	 0.149162205050772 
1209	 0.148669819985439 
1210	 0.148194156994419 
1211	 0.147736664675545 
1212	 0.147306831402823 
1213	 0.146881286535865 
1214	 0.14647273397827 
1215	 0.146063342312236 
1216	 0.145670079561036 
1217	 0.145276690429516 
1218	 0.144880090805513 
1219	 0.144488682376803 
1220	 0.144115353251264 
1221	 0.14372940504595 
1222	 0.143362889994055 
1223	 0.142983588652063 
1224	 0.142618568620233 
1225	 0.142258168402264 
1226	 0.14190574033205 
1227	 0.141575905789276 
1228	 0.141217885961474 
1229	 0.140842379453418 
1230	 0.14048112430815 
1231	 0.140114776778596 
1232	 0.139745845906009 
1233	 0.139389586220135 
1234	 0.13903024659787 
1235	 0.138653750718206 
1236	 0.138288875434929 
1237	 0.13793436611098 
1238	 0.13757792417947 
1239	 0.137220199449614 
1240	 0.136871865218405 
1241	 0.13651099667792 
1242	 0.136163126842563 
1243	 0.135818314862602 
1244	 0.135474378147457 
1245	 0.135134998520106 
1246	 0.134802562006441 
1247	 0.134473446158049 
1248	 0.13413913220094 
1249	 0.133821830670647 
1250	 0.133521772958669 
1251	 0.133218308139916 
1252	 0.132925988497403 
1253	 0.132623092926508 
1254	 0.132298538201838 
1255	 0.132007230437087 
1256	 0.131735551746398 
1257	 0.131454528965499 
1258	 0.131190092873046 
1259	 0.130923718938483 
1260	 0.130644713480646 
1261	 0.130372124379134 
1262	 0.130114456926884 
1263	 0.129845938631811 
1264	 0.129592409268408 
1265	 0.12933892741247 
1266	 0.129091466682068 
1267	 0.128850912702801 
1268	 0.128626163255266 
1269	 0.128409726252279 
1270	 0.128194397606623 
1271	 0.127994448218104 
1272	 0.127795228821167 
1273	 0.127591572761833 
1274	 0.127398441189235 
1275	 0.127218295134605 
1276	 0.127041469735464 
1277	 0.126865066233536 
1278	 0.126698975675873 
1279	 0.126536990243703 
1280	 0.12639269254452 
1281	 0.126268899725998 
1282	 0.126140163734549 
1283	 0.126026878363419 
1284	 0.125909858630924 
1285	 0.125791252331063 
1286	 0.125658194447654 
1287	 0.125561156064078 
1288	 0.125480542752435 
1289	 0.12539656123708 
1290	 0.12532805760742 
1291	 0.125261141514653 
1292	 0.125188845415725 
1293	 0.125132557698534 
1294	 0.125092721887653 
1295	 0.125053722802733 
1296	 0.125019741520014 
1297	 0.1249892549431 
1298	 0.124969082059276 
1299	 0.124945221433672 
1300	 0.124912642635292 
1301	 0.124898304479403 
1302	 0.124889496445153 
1303	 0.124890366079806 
1304	 0.124904042866918 
1305	 0.124925517397482 
1306	 0.12495734532198 
1307	 0.124991059996121 
1308	 0.12502947666407 
1309	 0.12507956719348 
1310	 0.125127588400071 
1311	 0.12517345774823 
1312	 0.125233814389802 
1313	 0.125303033463529 
1314	 0.125373734435917 
1315	 0.125452633857368 
1316	 0.125532159087541 
1317	 0.125612479723213 
1318	 0.125698425563891 
1319	 0.125790630528032 
1320	 0.125882723493952 
1321	 0.125976133254237 
1322	 0.126073913697369 
1323	 0.12617811163007 
1324	 0.126277205788711 
1325	 0.126369604261911 
1326	 0.126476316764894 
1327	 0.126580528112337 
1328	 0.126698836031819 
1329	 0.126846666425858 
1330	 0.126975222495008 
1331	 0.127095958860636 
1332	 0.127223407347229 
1333	 0.127344848333803 
1334	 0.127465961701878 
1335	 0.127600726808186 
1336	 0.127747282763564 
1337	 0.127892099624613 
1338	 0.128046157936441 
1339	 0.128185693344001 
1340	 0.128319256910764 
1341	 0.1284614822004 
1342	 0.128596680894149 
1343	 0.1287429268827 
1344	 0.128905294032905 
1345	 0.129055295490827 
1346	 0.129205821941112 
1347	 0.129347008853761 
1348	 0.129480036048526 
1349	 0.129615864687396 
1350	 0.129745519889629 
1351	 0.129879653430152 
1352	 0.130015463567497 
1353	 0.130153580471135 
1354	 0.13029588076124 
1355	 0.130433060353306 
1356	 0.130569872608479 
1357	 0.13070752891866 
1358	 0.130845981597314 
1359	 0.130979751785743 
1360	 0.131113871979096 
1361	 0.131243259104709 
1362	 0.131372608993751 
1363	 0.131491688497122 
1364	 0.13162613834815 
1365	 0.131772703203215 
1366	 0.131899318788199 
1367	 0.132028640854113 
1368	 0.13214151973707 
1369	 0.132233534434004 
1370	 0.132335463422118 
1371	 0.132443701168846 
1372	 0.13253015820105 
1373	 0.132611315745861 
1374	 0.132678581562768 
1375	 0.132727823707701 
1376	 0.132774112012945 
1377	 0.13281052406387 
1378	 0.13284718237849 
1379	 0.132877783451526 
1380	 0.132904035199319 
1381	 0.13293004700842 
1382	 0.132949390184651 
1383	 0.13295689531673 
1384	 0.1329687570508 
1385	 0.132987517244677 
1386	 0.132990669172358 
1387	 0.132987034845725 
1388	 0.132979737179088 
1389	 0.132946728564639 
1390	 0.132933323748264 
1391	 0.132935475092936 
1392	 0.132931433950447 
1393	 0.132926778616834 
1394	 0.132928254718111 
1395	 0.132912200281622 
1396	 0.132883923338661 
1397	 0.132851813364121 
1398	 0.132822299519498 
1399	 0.132761689713284 
1400	 0.132691567921328 
1401	 0.132590711381388 
1402	 0.132458279258274 
1403	 0.132321044901226 
1404	 0.132164896766296 
1405	 0.131999896987916 
1406	 0.131820336319824 
1407	 0.131638069810651 
1408	 0.13143658711495 
1409	 0.131245452633857 
1410	 0.131058115839587 
1411	 0.130863668357081 
1412	 0.130664949671711 
1413	 0.130471863242912 
1414	 0.130270586320101 
1415	 0.130080740506191 
1416	 0.129901450197009 
1417	 0.129721205553265 
1418	 0.129545200663099 
1419	 0.12937073448528 
1420	 0.129195124207458 
1421	 0.129026868585712 
1422	 0.12887274612215 
1423	 0.128705333746222 
1424	 0.128538474302809 
1425	 0.128363019724188 
1426	 0.128183122529221 
1427	 0.127998862001048 
1428	 0.127823537032662 
1429	 0.127656161410223 
1430	 0.127490735956287 
1431	 0.127334541034142 
1432	 0.127163777796954 
1433	 0.126991679189077 
1434	 0.126814722473852 
1435	 0.126627911541699 
1436	 0.126440543431296 
1437	 0.126249803057847 
1438	 0.126065574088225 
1439	 0.125878915891133 
1440	 0.125692595652079 
1441	 0.125504164870775 
1442	 0.125331662645245 
1443	 0.125156570658524 
1444	 0.124999636259517 
1445	 0.124860758047272 
1446	 0.124731979585734 
1447	 0.124602869015796 
1448	 0.124503908332046 
1449	 0.124431432896708 
1450	 0.124364171309989 
1451	 0.12431812747948 
1452	 0.124277005484252 
1453	 0.124246632242161 
1454	 0.124219771703162 
1455	 0.124203269774335 
1456	 0.124188342727434 
1457	 0.124179448274908 
1458	 0.124170032899002 
1459	 0.12416834919858 
1460	 0.124161349693241 
1461	 0.124149071055171 
1462	 0.124138621765081 
1463	 0.124130580328265 
1464	 0.124117132965031 
1465	 0.1241023910112 
1466	 0.124085663210226 
1467	 0.124063608516963 
1468	 0.124037197656875 
1469	 0.124015016425865 
1470	 0.12399350536545 
1471	 0.123975546755958 
1472	 0.123967000740017 
1473	 0.123936978064248 
1474	 0.12389636764929 
1475	 0.123866661809821 
1476	 0.123828721390123 
1477	 0.123793207947653 
1478	 0.123773381723297 
1479	 0.123734848343608 
1480	 0.123680653245105 
1481	 0.123631235787148 
1482	 0.123578678830539 
1483	 0.123528074120094 
1484	 0.123471355104443 
1485	 0.123425159590426 
1486	 0.123390169079714 
1487	 0.12334360769193 
1488	 0.123296135688911 
1489	 0.123249007634996 
1490	 0.12318732496165 
1491	 0.123145959704558 
1492	 0.123115823563756 
1493	 0.12308828991661 
1494	 0.123067219866821 
1495	 0.123054541761414 
1496	 0.123051367496399 
1497	 0.123046876635206 
1498	 0.12304442705437 
1499	 0.123054249566227 
1500	 0.123077082268399 
1501	 0.123087645791736 
1502	 0.123104823586969 
1503	 0.123117011028236 
1504	 0.123109454505548 
1505	 0.123117434537671 
1506	 0.123140725223545 
1507	 0.123155781661193 
1508	 0.123171342875308 
1509	 0.123185146787805 
1510	 0.123194110661042 
1511	 0.123205252537258 
1512	 0.123214950109314 
1513	 0.123228988765446 
1514	 0.123253857935427 
1515	 0.123265209497666 
1516	 0.123261867559132 
1517	 0.123273551756118 
1518	 0.123289100765662 
1519	 0.123298702917737 
1520	 0.123308320896705 
1521	 0.123335604512915 
1522	 0.123339936066879 
1523	 0.123350271912483 
1524	 0.123377698542474 
1525	 0.123422840476382 
1526	 0.1234518788647 
1527	 0.123485996542376 
1528	 0.123514130112404 
1529	 0.12352751216922 
1530	 0.123564077188953 
1531	 0.123609585962319 
1532	 0.123660023269729 
1533	 0.123724372836364 
1534	 0.123778771547377 
1535	 0.123831788809385 
1536	 0.123890598390605 
1537	 0.123946523714286 
1538	 0.124012208148619 
1539	 0.124085102209708 
1540	 0.124163743055617 
1541	 0.124243421184159 
1542	 0.124339164121746 
1543	 0.124452126879956 
1544	 0.124555425862584 
1545	 0.124658643353301 
1546	 0.124777647319075 
1547	 0.124900204598271 
1548	 0.125026564468479 
1549	 0.125169225018742 
1550	 0.125308809640343 
1551	 0.125444098031523 
1552	 0.125585382972837 
1553	 0.125734888526769 
1554	 0.125885761896037 
1555	 0.126033745270535 
1556	 0.12619172669188 
1557	 0.126360426942443 
1558	 0.126527558148342 
1559	 0.12670318049258 
1560	 0.126868307149495 
1561	 0.127024123403982 
1562	 0.127193420790395 
1563	 0.127363112321503 
1564	 0.12753606677926 
1565	 0.127718547219499 
1566	 0.127902976263828 
1567	 0.128089484974839 
1568	 0.128273351328482 
1569	 0.128462424162752 
1570	 0.128650196932204 
1571	 0.128830893629485 
1572	 0.129017685845684 
1573	 0.12920950075329 
1574	 0.129403121386625 
1575	 0.129601369831492 
1576	 0.129794544124993 
1577	 0.129988441180719 
1578	 0.13018218930725 
1579	 0.130368722362734 
1580	 0.130562038480346 
1581	 0.13075806774365 
1582	 0.130959174648662 
1583	 0.13116005530103 
1584	 0.131372573443105 
1585	 0.131599467153576 
1586	 0.131820584308891 
1587	 0.132055345137999 
1588	 0.13227202640332 
1589	 0.132471083884208 
1590	 0.132679973886784 
1591	 0.132884984150614 
1592	 0.13309194750007 
1593	 0.133309676352442 
1594	 0.133517837839201 
1595	 0.133710601772202 
1596	 0.133916951606906 
1597	 0.134127913175514 
1598	 0.134339744042187 
1599	 0.13456357035738 
1600	 0.134780660129822 
1601	 0.134996733409721 
1602	 0.135206624763852 
1603	 0.135409634688646 
1604	 0.135614283210442 
1605	 0.135813966051569 
1606	 0.136015195769443 
1607	 0.136217975738285 
1608	 0.136422402166615 
1609	 0.136631414699149 
1610	 0.136831667223137 
1611	 0.137031835533424 
1612	 0.137225267763358 
1613	 0.137403022597018 
1614	 0.137590494619197 
1615	 0.137783565561132 
1616	 0.137970250562643 
1617	 0.138159627526059 
1618	 0.138344701658211 
1619	 0.138530598386061 
1620	 0.138700631805286 
1621	 0.138851265465965 
1622	 0.139014953660693 
1623	 0.139180922891157 
1624	 0.139335698266904 
1625	 0.139493243496637 
1626	 0.13964950805627 
1627	 0.139787892785015 
1628	 0.139932086109503 
1629	 0.140088056109162 
1630	 0.140238656973214 
1631	 0.140388740071251 
1632	 0.140529879612211 
1633	 0.140659183347632 
1634	 0.140798821707043 
1635	 0.140941453808803 
1636	 0.141073418080849 
1637	 0.14121547165076 
1638	 0.141342061376876 
1639	 0.141443281836139 
1640	 0.141554921840027 
1641	 0.141666188801862 
1642	 0.141778697624572 
1643	 0.141902626352462 
1644	 0.142009413409142 
1645	 0.142110606439832 
1646	 0.142201290196999 
1647	 0.142279049435423 
1648	 0.142347568883961 
1649	 0.142400215605616 
1650	 0.142459854973907 
1651	 0.142517210005828 
1652	 0.142567899088888 
1653	 0.142626226352119 
1654	 0.142667882602588 
1655	 0.142695509628221 
1656	 0.14271433177679 
1657	 0.142726319351982 
1658	 0.142723313569754 
1659	 0.142700427441748 
1660	 0.14268010770938 
1661	 0.142664389357907 
1662	 0.142619847690238 
1663	 0.142564918643644 
1664	 0.1424918395575 
1665	 0.142389022228544 
1666	 0.142278176782817 
1667	 0.142167714666772 
1668	 0.142020535936551 
1669	 0.141847606778737 
1670	 0.141658100920723 
1671	 0.141439290520433 
1672	 0.141209021435334 
1673	 0.140958669575983 
1674	 0.140695657987558 
1675	 0.140416879524272 
1676	 0.140127477887003 
1677	 0.139841133024385 
1678	 0.139513756907029 
1679	 0.139147871090969 
1680	 0.138784152920303 
1681	 0.138393116155311 
1682	 0.137992051345829 
1683	 0.13759830266798 
1684	 0.137176819410314 
1685	 0.136733533385645 
1686	 0.136274630684716 
1687	 0.135795231038607 
1688	 0.135294503610713 
1689	 0.13476200558167 
1690	 0.134226748276329 
1691	 0.133683308779416 
1692	 0.133132898619031 
1693	 0.132587039403159 
1694	 0.132003449582361 
1695	 0.131381061177512 
1696	 0.13076545391492 
1697	 0.13012895392874 
1698	 0.129488521858754 
1699	 0.128853624612782 
1700	 0.128222544078056 
1701	 0.127562550141333 
1702	 0.126951294541623 
1703	 0.126352390537322 
1704	 0.125787759297401 
1705	 0.125246890210946 
1706	 0.124737119291024 
1707	 0.124285387054385 
1708	 0.123835442582204 
1709	 0.123424102322062 
1710	 0.123044979219776 
1711	 0.122673109481419 
1712	 0.122342051246488 
1713	 0.122018693025312 
1714	 0.121696625459477 
1715	 0.121396978869521 
1716	 0.121101679601101 
1717	 0.120832617773097 
1718	 0.120595514040818 
1719	 0.120360575117076 
1720	 0.120142078847763 
1721	 0.119967363867431 
1722	 0.119817545021783 
1723	 0.119707438449536 
1724	 0.119654358240835 
1725	 0.119628180656431 
1726	 0.119656124646759 
1727	 0.119732081911256 
1728	 0.119842554846218 
1729	 0.120034111594618 
1730	 0.120268667386668 
1731	 0.120518258125395 
1732	 0.120820337514437 
1733	 0.121109292467397 
1734	 0.121395887530359 
1735	 0.121702370379852 
1736	 0.12196734307981 
1737	 0.122211801773982 
1738	 0.122397433710702 
1739	 0.122533130346138 
1740	 0.122614179161832 
1741	 0.122677398215274 
1742	 0.12270383831716 
1743	 0.122708041459242 
1744	 0.122677589624432 
1745	 0.122647974420967 
1746	 0.122573629467977 
1747	 0.122523195680571 
1748	 0.122478815024777 
1749	 0.122452599458796 
1750	 0.122438997946373 
1751	 0.122436992474589 
1752	 0.122441397834639 
1753	 0.122475193755005 
1754	 0.12250383847508 
1755	 0.122599967737275 
1756	 0.122746160293056 
1757	 0.122907396306161 
1758	 0.123145540600361 
1759	 0.12339864104743 
1760	 0.123669469394264 
1761	 0.123987080115184 
1762	 0.124295156845786 
1763	 0.124657026668025 
1764	 0.125066140612009 
1765	 0.1254875269675 
1766	 0.125975466921345 
1767	 0.126459025358321 
1768	 0.126927878562976 
1769	 0.12740346056477 
1770	 0.127848345896091 
1771	 0.128270624873626 
1772	 0.128663751303051 
1773	 0.129048260938059 
1774	 0.129430583954096 
1775	 0.129792359223345 
1776	 0.130151160649523 
1777	 0.130477190877457 
1778	 0.130775378361856 
1779	 0.131077311939103 
1780	 0.131360326292582 
1781	 0.131645966574252 
1782	 0.131926914250163 
1783	 0.132165898035325 
1784	 0.1323956590402 
1785	 0.132602282118736 
1786	 0.132809675190771 
1787	 0.133008415171898 
1788	 0.133208760321727 
1789	 0.133404041655742 
1790	 0.133595054662559 
1791	 0.133785092782594 
1792	 0.13396756932002 
1793	 0.134145262808209 
1794	 0.134339436901366 
1795	 0.134515947356221 
1796	 0.134689362250032 
1797	 0.134899956363382 
1798	 0.135129977520208 
1799	 0.13534150120616 
1800	 0.135569191848147 
1801	 0.13366651189562 
1802	 0.133879386206268 
1803	 0.134118724243927 
1804	 0.134390249542704 
1805	 0.134667658355884 
1806	 0.134918589471035 
1807	 0.135179299657172 
1808	 0.135419481459371 
1809	 0.135623405908764 
1810	 0.135851831409214 
1811	 0.136076359732884 
1812	 0.13632140517873 
1813	 0.136579537810945 
1814	 0.136841233866004 
1815	 0.137128322266213 
1816	 0.137420813474901 
1817	 0.137701444076507 
1818	 0.137981503623213 
1819	 0.138259454986269 
1820	 0.138521649848223 
1821	 0.138803393053942 
1822	 0.139084849924018 
1823	 0.139394899455638 
1824	 0.139698193202535 
1825	 0.139991180788096 
1826	 0.140291888415909 
1827	 0.140585365264837 
1828	 0.140890177603205 
1829	 0.141207793727167 
1830	 0.141518024286895 
1831	 0.141818827343072 
1832	 0.142148270773311 
1833	 0.142467542865085 
1834	 0.142800916232598 
1835	 0.14315290552035 
1836	 0.143471424439392 
1837	 0.14379838438391 
1838	 0.144114980565986 
1839	 0.144446678824357 
1840	 0.144786274926276 
1841	 0.145126441155245 
1842	 0.145467072132352 
1843	 0.14582265328986 
1844	 0.146176661196539 
1845	 0.146505574516392 
1846	 0.146851756660617 
1847	 0.147188207352306 
1848	 0.14753611935922 
1849	 0.147905177007715 
1850	 0.148250823788761 
1851	 0.148594277428713 
1852	 0.148931318614345 
1853	 0.149247546218629 
1854	 0.149532479905712 
1855	 0.149828984188149 
1856	 0.15011830685815 
1857	 0.150413617721102 
1858	 0.150717598907476 
1859	 0.150991481515632 
1860	 0.151255649957533 
1861	 0.15150887447814 
1862	 0.151747976314966 
1863	 0.151954516216019 
1864	 0.152177919908484 
1865	 0.152396705904412 
1866	 0.152578582715955 
1867	 0.152750267040631 
1868	 0.152899218021147 
1869	 0.153036007819776 
1870	 0.153170754439664 
1871	 0.153300952850468 
1872	 0.153417742322829 
1873	 0.153535012576376 
1874	 0.153623787088984 
1875	 0.153684631217462 
1876	 0.15374615034084 
1877	 0.153789776225587 
1878	 0.153781946991354 
1879	 0.153737884800184 
1880	 0.153667965612032 
1881	 0.153551127958026 
1882	 0.153381791299846 
1883	 0.153194453763138 
1884	 0.15297428847329 
1885	 0.152673807603868 
1886	 0.152334476791168 
1887	 0.15193046644627 
1888	 0.151454577449573 
1889	 0.150984351570596 
1890	 0.150447154933406 
1891	 0.149881761748509 
1892	 0.14931124354683 
1893	 0.148714973161864 
1894	 0.148072480641868 
1895	 0.147444822314218 
1896	 0.146819938236392 
1897	 0.14620813242212 
1898	 0.145654903833582 
1899	 0.145138905922796 
1900	 0.144676145681308 
1901	 0.144271774449709 
1902	 0.143881876841257 
1903	 0.143544845917743 
1904	 0.143254197490852 
1905	 0.143003543671418 
1906	 0.142799589872343 
1907	 0.142660689860801 
1908	 0.142557877116886 
1909	 0.142494500002671 
1910	 0.142482034179866 
1911	 0.14249719076297 
1912	 0.142544582625492 
1913	 0.142630260901777 
1914	 0.142726425310085 
1915	 0.142835067132543 
1916	 0.142960973733345 
1917	 0.143108983732949 
1918	 0.143256406400731 
1919	 0.143417045080217 
1920	 0.143604073894587 
1921	 0.143794637211477 
1922	 0.143996354091287 
1923	 0.144200360883326 
1924	 0.144397610882772 
1925	 0.144594775932717 
1926	 0.1448021931257 
1927	 0.145006780912457 
1928	 0.145236109609876 
1929	 0.145484895030913 
1930	 0.145728683230988 
1931	 0.145992579842092 
1932	 0.146271310187257 
1933	 0.146541277634918 
1934	 0.146832215697892 
1935	 0.147128592880397 
1936	 0.147434764817123 
1937	 0.14777523620342 
1938	 0.148137956730789 
1939	 0.148522618407313 
1940	 0.148938846407507 
1941	 0.149371606764027 
1942	 0.149801904151714 
1943	 0.150255214312027 
1944	 0.150707793527662 
1945	 0.151172580997535 
1946	 0.151690589168284 
1947	 0.152200107170364 
1948	 0.152729472979009 
1949	 0.153291588201842 
1950	 0.153844328958458 
1951	 0.154387543400766 
1952	 0.154961027172513 
1953	 0.155549764160479 
1954	 0.156143506866856 
1955	 0.156776690825622 
1956	 0.157392579940454 
1957	 0.158028975790119 
1958	 0.158674998759881 
1959	 0.159266825615356 
1960	 0.15988056993398 
1961	 0.160471071829881 
1962	 0.161026574930571 
1963	 0.161596951444678 
1964	 0.16217784031713 
1965	 0.16272257893827 
1966	 0.163252712457943 
1967	 0.163793401530516 
1968	 0.164275565230177 
1969	 0.164772510597085 
1970	 0.165244983106395 
1971	 0.165705900857278 
1972	 0.166209554912146 
1973	 0.166684933780107 
1974	 0.167176826317099 
1975	 0.167707045341422 
1976	 0.168198320785488 
1977	 0.168658574865029 
1978	 0.16915102697512 
1979	 0.169642642791041 
1980	 0.17012911418932 
1981	 0.170681042964903 
1982	 0.17120250362163 
1983	 0.17173205464073 
1984	 0.172290989692069 
1985	 0.172805301176625 
1986	 0.173340365250848 
1987	 0.173877346367047 
1988	 0.174396436417453 
1989	 0.174954492760573 
1990	 0.175542093405427 
1991	 0.176123959090491 
1992	 0.176725576836107 
1993	 0.177340187912693 
1994	 0.177919519724491 
1995	 0.178522828912878 
1996	 0.179120503158777 
1997	 0.179716822977621 
1998	 0.180319216137846 
1999	 0.180932806088543 
2000	 0.181520175372461 
2001	 0.182121363476748 
2002	 0.182677974664387 
2003	 0.18320757466344 
2004	 0.183721106833164 
2005	 0.184189441257002 
2006	 0.184670197185688 
2007	 0.185161667079342 
2008	 0.185607812766686 
2009	 0.186049598591761 
2010	 0.186500563255735 
2011	 0.186879438888211 
2012	 0.187266475307988 
2013	 0.18763520395669 
2014	 0.187979356953776 
2015	 0.188312187761384 
2016	 0.188645146012026 
2017	 0.188941694474441 
2018	 0.189214838650348 
2019	 0.189472585044766 
2020	 0.189695177817576 
2021	 0.189920494454945 
2022	 0.190137436981944 
2023	 0.190336344231527 
2024	 0.190524193739204 
2025	 0.190677905588977 
2026	 0.190829196678463 
2027	 0.190962469938266 
2028	 0.191084096875804 
2029	 0.191190418708206 
2030	 0.191300149856982 
2031	 0.191391049792414 
2032	 0.1914854165832 
2033	 0.19157713309956 
2034	 0.191676968859424 
2035	 0.191776188582578 
2036	 0.191878522772284 
2037	 0.191991957769629 
2038	 0.192095260925196 
2039	 0.192197296265407 
2040	 0.192288193909718 
2041	 0.192396219826312 
2042	 0.192514674315301 
2043	 0.192621831610516 
2044	 0.192736504573814 
2045	 0.192841503141235 
2046	 0.192920888494867 
2047	 0.193026884644301 
2048	 0.193141220173809 
2049	 0.193258281430331 
2050	 0.19338431980461 
2051	 0.193527728288807 
2052	 0.193656722155962 
2053	 0.19379375121389 
2054	 0.193924457880241 
2055	 0.194050928205173 
2056	 0.194182868317557 
2057	 0.194310929264683 
2058	 0.194450571463572 
2059	 0.194605644608587 
2060	 0.194743459071403 
2061	 0.194889456655345 
2062	 0.195016152805751 
2063	 0.195116059408869 
2064	 0.195232138810783 
2065	 0.1953493606257 
2066	 0.195454690000741 
2067	 0.19558673309804 
2068	 0.195717962349785 
2069	 0.195848798594796 
2070	 0.195990793947329 
2071	 0.196112121286589 
2072	 0.196226403078575 
2073	 0.196336879611166 
2074	 0.196429742489929 
2075	 0.196536603067836 
2076	 0.196642896448738 
2077	 0.196754596227431 
2078	 0.196883179808793 
2079	 0.196993573861012 
2080	 0.197103437645743 
2081	 0.197203497215982 
2082	 0.197278274609169 
2083	 0.197362690581067 
2084	 0.197469148640215 
2085	 0.197569140808764 
2086	 0.197676678492179 
2087	 0.197808910157398 
2088	 0.197911091341575 
2089	 0.197994323702406 
2090	 0.198092080200685 
2091	 0.198200175397993 
2092	 0.198280459209452 
2093	 0.198351688987505 
2094	 0.198418785741432 
2095	 0.198459904431119 
2096	 0.198504797394545 
2097	 0.198548195116596 
2098	 0.198602857036708 
2099	 0.198643387113875 
2100	 0.198681277353793 
2101	 0.198715129298528 
2102	 0.198759972912062 
2103	 0.19877189166985 
2104	 0.198763088914462 
2105	 0.198751384092493 
2106	 0.198726033156888 
2107	 0.198690562487695 
2108	 0.198657016438124 
2109	 0.198595944004523 
2110	 0.198509468417672 
2111	 0.198415257811812 
2112	 0.198290844334171 
2113	 0.198178276858357 
2114	 0.19805836020592 
2115	 0.197943899422668 
2116	 0.197834922169813 
2117	 0.197732282017829 
2118	 0.19761049357283 
2119	 0.197481500416046 
2120	 0.197354341458892 
2121	 0.197196440417081 
2122	 0.197086656055817 
2123	 0.19700363391588 
2124	 0.196914618078194 
2125	 0.196840833764318 
2126	 0.196782477908753 
2127	 0.196716920055544 
2128	 0.196681127476527 
2129	 0.19667676591056 
2130	 0.196679202857231 
2131	 0.196693892316618 
2132	 0.196724621474587 
2133	 0.196780803106939 
2134	 0.196833368085475 
2135	 0.196892993531521 
2136	 0.196976541069801 
2137	 0.197072403709274 
2138	 0.197184213916898 
2139	 0.1972962316705 
2140	 0.197417627647229 
2141	 0.197557854546969 
2142	 0.197699980420162 
2143	 0.197865298624517 
2144	 0.198064617679668 
2145	 0.19825603168813 
2146	 0.198452574660435 
2147	 0.198658597238663 
2148	 0.19887206696544 
2149	 0.199093113785664 
2150	 0.199316319218319 
2151	 0.199557488865896 
2152	 0.199824636158478 
2153	 0.200073539498403 
2154	 0.200349729637588 
2155	 0.200633400743452 
2156	 0.200888958505309 
2157	 0.201135969113062 
2158	 0.201378911984907 
2159	 0.201603396739724 
2160	 0.201829722525761 
2161	 0.202065699838647 
2162	 0.202267774127042 
2163	 0.202452931986744 
2164	 0.202629738035342 
2165	 0.2027822433545 
2166	 0.202933189287092 
2167	 0.203066680150592 
2168	 0.203213685529689 
2169	 0.203365405940712 
2170	 0.203505264136364 
2171	 0.203653590884796 
2172	 0.203787372562355 
2173	 0.203888092939208 
2174	 0.204012140985904 
2175	 0.204129435573297 
2176	 0.204254302055226 
2177	 0.204399487519269 
2178	 0.204568036844583 
2179	 0.204704685684645 
2180	 0.20484898030915 
2181	 0.204979089300896 
2182	 0.205074435882524 
2183	 0.205202436799976 
2184	 0.205355865216796 
2185	 0.205479948864956 
2186	 0.205617666846157 
2187	 0.205714079133331 
2188	 0.205773550449881 
2189	 0.205835421581946 
2190	 0.205880885170297 
2191	 0.205912410114854 
2192	 0.205925247991491 
2193	 0.20594579474792 
2194	 0.20595494130568 
2195	 0.205961516960941 
2196	 0.205975649617415 
2197	 0.205985622894648 
2198	 0.205979090002874 
2199	 0.205944897760484 
2200	 0.205901287488013 
2201	 0.205835498662355 
2202	 0.20578098029688 
2203	 0.205728862403167 
2204	 0.205643035829255 
2205	 0.205549473803881 
2206	 0.205438408379067 
2207	 0.205282952163423 
2208	 0.205152025089735 
2209	 0.205023949955162 
2210	 0.204895594528111 
2211	 0.204777422800153 
2212	 0.204639977457696 
2213	 0.204482945920113 
2214	 0.204349688458206 
2215	 0.204215190718936 
2216	 0.204081279485051 
2217	 0.203991966275256 
2218	 0.20385330739627 
2219	 0.203684430742762 
2220	 0.20350618067045 
2221	 0.203308375109429 
2222	 0.203086211583941 
2223	 0.202859398098451 
2224	 0.202633306681974 
2225	 0.202381707742013 
2226	 0.202082591774797 
2227	 0.20174526063741 
2228	 0.201388712835024 
2229	 0.200949524123766 
2230	 0.20044815282694 
2231	 0.199902469561013 
2232	 0.199282690280609 
2233	 0.198636778905307 
2234	 0.197998491516085 
2235	 0.197210381976746 
2236	 0.196348151560087 
2237	 0.195390356211553 
2238	 0.194253520247239 
2239	 0.193156970059005 
2240	 0.192053030393981 
2241	 0.190839954739717 
2242	 0.189630109688132 
2243	 0.188257252639777 
2244	 0.186696921865731 
2245	 0.185149049768393 
2246	 0.183462437589329 
2247	 0.181816742516218 
2248	 0.180206481952082 
2249	 0.178519093414273 
2250	 0.176786105480707 
2251	 0.175066325325297 
2252	 0.173200133306754 
2253	 0.171376427301061 
2254	 0.169527047556637 
2255	 0.167650419622022 
2256	 0.165925949759452 
2257	 0.164183481896191 
2258	 0.162506422377014 
2259	 0.160926933155204 
2260	 0.159303829278315 
2261	 0.157666702528371 
2262	 0.156116285158072 
2263	 0.154566812992588 
2264	 0.153114354662942 
2265	 0.15176940628845 
2266	 0.150401944698696 
2267	 0.149116948943587 
2268	 0.147770871896312 
2269	 0.146391857324994 
2270	 0.145053412740622 
2271	 0.143676757553317 
2272	 0.142378740416122 
2273	 0.141160791591026 
2274	 0.13992309248258 
2275	 0.138763116808837 
2276	 0.137514644673152 
2277	 0.136236127809158 
2278	 0.134929751546993 
2279	 0.133520235661038 
2280	 0.132165283585168 
2281	 0.130852322746453 
2282	 0.129483590448896 
2283	 0.128116991664591 
2284	 0.126745861118498 
2285	 0.125223972572499 
2286	 0.123698895864027 
2287	 0.12211634082223 
2288	 0.120490968176581 
2289	 0.118956410367209 
2290	 0.117351295654536 
2291	 0.115785178610256 
2292	 0.114271582396393 
2293	 0.112684835139074 
2294	 0.111207240076703 
2295	 0.109807148940422 
2296	 0.108477638989572 
2297	 0.107367762023397 
2298	 0.106415313571492 
2299	 0.105645800085813 
2300	 0.105056227322395 
2301	 0.104665488919111 
2302	 0.104469915614048 
2303	 0.104474221941428 
2304	 0.104693280186901 
2305	 0.10508184911527 
2306	 0.105710057217916 
2307	 0.106438231239564 
2308	 0.107354812344744 
2309	 0.108385951172204 
2310	 0.109575674590275 
2311	 0.110838882941365 
2312	 0.112349287010585 
2313	 0.113714884865394 
2314	 0.115149576756461 
2315	 0.116491893410408 
2316	 0.117749261925613 
2317	 0.118966528017722 
2318	 0.120223786351962 
2319	 0.121250754360782 
2320	 0.122182513125125 
2321	 0.122934235636307 
2322	 0.123470938721358 
2323	 0.123916335777754 
2324	 0.124182023001769 
2325	 0.124388970713511 
2326	 0.124500085816778 
2327	 0.124483200612782 
2328	 0.124380441996886 
2329	 0.124126934853827 
2330	 0.123706642318897 
2331	 0.123171096777659 
2332	 0.122573178930916 
2333	 0.121850170650407 
2334	 0.121037637433026 
2335	 0.120151520074706 
2336	 0.119111358848095 
2337	 0.118058576698935 
2338	 0.117036149033143 
2339	 0.115948638586896 
2340	 0.114975013056288 
2341	 0.114092192493652 
2342	 0.113211173575139 
2343	 0.11252239749114 
2344	 0.112038218113493 
2345	 0.111779057982458 
2346	 0.111810361109753 
2347	 0.112047475739581 
2348	 0.112379651207 
2349	 0.112939864253042 
2350	 0.113729862755626 
2351	 0.114668739319285 
2352	 0.115748513903236 
2353	 0.11685617240081 
2354	 0.11785692587243 
2355	 0.118830088363293 
2356	 0.119743666882775 
2357	 0.120480032243119 
2358	 0.121137845651044 
2359	 0.121677811139279 
2360	 0.122078603982538 
2361	 0.122360021924911 
2362	 0.122546796898019 
2363	 0.122647270068284 
2364	 0.122668368319918 
2365	 0.122673897124704 
2366	 0.122700908924879 
2367	 0.122686470527094 
2368	 0.122637932276737 
2369	 0.12262453592392 
2370	 0.122619083858039 
2371	 0.122613162850695 
2372	 0.122641460220996 
2373	 0.122717332503168 
2374	 0.122784943315288 
2375	 0.122842438968573 
2376	 0.122897715089399 
2377	 0.122943339903599 
2378	 0.123029065314309 
2379	 0.123118532232122 
2380	 0.123249310012269 
2381	 0.12342161593941 
2382	 0.123563538097294 
2383	 0.123687235792623 
2384	 0.123825440542002 
2385	 0.123979508253625 
2386	 0.12409743856664 
2387	 0.124181833268393 
2388	 0.124282441401957 
2389	 0.1243736442031 
2390	 0.124477109719141 
2391	 0.124615679532101 
2392	 0.124710497620302 
2393	 0.124753756493076 
2394	 0.124839260510428 
2395	 0.124933157073462 
2396	 0.125020962498965 
2397	 0.125135290629845 
2398	 0.125236314325052 
2399	 0.125318206417313 
2400	 0.125388076244079 
2401	 0.125479249589114 
2402	 0.12550198364933 
2403	 0.125511583704488 
2404	 0.125497916089404 
2405	 0.125527394333213 
2406	 0.125607788475341 
2407	 0.125634264396191 
2408	 0.125592738815802 
2409	 0.125574850227326 
2410	 0.12563932389164 
2411	 0.125696389956765 
2412	 0.125794055929268 
2413	 0.125864230322848 
2414	 0.125789654085415 
2415	 0.1257292613351 
2416	 0.125783510555307 
2417	 0.125786461662172 
2418	 0.125715039054692 
2419	 0.125669569472652 
2420	 0.125580268081493 
2421	 0.1256188601341 
2422	 0.125748094939971 
2423	 0.125760985739554 
2424	 0.125721171476655 
2425	 0.125587156622875 
2426	 0.125476650193222 
2427	 0.125463205317091 
2428	 0.125467630832571 
2429	 0.125466420061731 
2430	 0.125335559308915 
2431	 0.125231645734938 
2432	 0.125233191871459 
2433	 0.125179603236459 
2434	 0.12517703967438 
2435	 0.12513903917613 
2436	 0.124975889024796 
2437	 0.124856929859301 
2438	 0.124697928366117 
2439	 0.12451781742365 
2440	 0.124402579986348 
2441	 0.124256482666117 
2442	 0.12410832984054 
2443	 0.123943822120129 
2444	 0.123825559773856 
2445	 0.123602951196763 
2446	 0.123335576734544 
2447	 0.123211828519841 
2448	 0.122977003549102 
2449	 0.122819107369916 
2450	 0.122698346362658 
2451	 0.122568476425653 
2452	 0.122455630920435 
2453	 0.122165448642922 
2454	 0.12201644461653 
2455	 0.121930789344618 
2456	 0.121801755284294 
2457	 0.121799872858853 
2458	 0.121758478232496 
2459	 0.121548739399637 
2460	 0.121301717676995 
2461	 0.121195822764423 
2462	 0.121194177228142 
2463	 0.121110726504656 
2464	 0.120931565614069 
2465	 0.120773749400592 
2466	 0.120587465808154 
2467	 0.120505192257571 
2468	 0.120539146402899 
2469	 0.120633277105508 
2470	 0.120722775963366 
2471	 0.120782801985807 
2472	 0.12098639943558 
2473	 0.121027177378325 
2474	 0.120867670062345 
2475	 0.120760681810843 
2476	 0.120704946239476 
2477	 0.120742882551583 
2478	 0.120839337357552 
2479	 0.120816153708906 
2480	 0.120851438737065 
2481	 0.120984444457638 
2482	 0.121285045785236 
2483	 0.121526521960463 
2484	 0.121386303762532 
2485	 0.121376901226014 
2486	 0.121604899665678 
2487	 0.121780833889686 
2488	 0.122023715833647 
2489	 0.122100632996893 
2490	 0.122138791858703 
2491	 0.122404259083006 
2492	 0.122809649927895 
2493	 0.123325412113427 
2494	 0.123587583731377 
2495	 0.123779360078014 
2496	 0.124393042527708 
2497	 0.124914420895153 
2498	 0.125419535907334 
2499	 0.125931705125517 
2500	 0.125967642429154 
