Wavelength	spectrum00022.asd
350	 3.69160079972891E-02 
351	 3.42352429459114E-02 
352	 3.24058418648756E-02 
353	 3.40362066213512E-02 
354	 3.68118140593093E-02 
355	 3.70772929851726E-02 
356	 3.61982544734409E-02 
357	 3.54697816834256E-02 
358	 3.16540977187541E-02 
359	 3.01786276658312E-02 
360	 3.14883484582698E-02 
361	 3.31770467422591E-02 
362	 3.37826199694341E-02 
363	 3.31680886401804E-02 
364	 3.20517126055191E-02 
365	 0.031952865138212 
366	 3.29697384528392E-02 
367	 3.32183333882479E-02 
368	 3.17549330830567E-02 
369	 3.21801657187546E-02 
370	 3.24638100781034E-02 
371	 3.26203255920327E-02 
372	 3.35949866858231E-02 
373	 3.34195146878281E-02 
374	 3.35611969592929E-02 
375	 0.034225074641639 
376	 3.33006694583808E-02 
377	 3.32680267941403E-02 
378	 0.033311395286505 
379	 3.25881547590631E-02 
380	 3.31658998604347E-02 
381	 3.46917317764257E-02 
382	 3.55640617481578E-02 
383	 3.40667882085074E-02 
384	 3.42588455616958E-02 
385	 3.55168220827731E-02 
386	 3.65369771101977E-02 
387	 0.035891537889642 
388	 3.55329549126946E-02 
389	 3.54564603415823E-02 
390	 0.035299956729341 
391	 3.55554341265762E-02 
392	 3.57422466289884E-02 
393	 3.58128693687212E-02 
394	 0.036033962660459 
395	 3.65842272323947E-02 
396	 3.72867208092451E-02 
397	 3.79484073608176E-02 
398	 3.84693199107962E-02 
399	 3.84758118589601E-02 
400	 3.84810501008453E-02 
401	 3.89641254787052E-02 
402	 3.90864652385333E-02 
403	 3.95015126999341E-02 
404	 4.01412070811535E-02 
405	 4.04302583486695E-02 
406	 4.10540103158083E-02 
407	 4.14689450030899E-02 
408	 4.15042736545943E-02 
409	 4.20719599568136E-02 
410	 4.22763782002087E-02 
411	 4.24606293622074E-02 
412	 4.31614847396995E-02 
413	 4.38232854118795E-02 
414	 4.41763580163039E-02 
415	 4.43300711634674E-02 
416	 4.47015966411917E-02 
417	 4.54603830546199E-02 
418	 4.60748356372066E-02 
419	 4.62554021340427E-02 
420	 4.65288698338472E-02 
421	 4.68684145404053E-02 
422	 4.74092891069178E-02 
423	 4.82284163432416E-02 
424	 0.048751442210011 
425	 4.89834625250815E-02 
426	 4.91995118029123E-02 
427	 4.99014444103138E-02 
428	 5.04062837947566E-02 
429	 5.09017478818116E-02 
430	 5.15834813241208E-02 
431	 0.052042005265879 
432	 5.26438936011639E-02 
433	 5.32993603791046E-02 
434	 5.37056880399593E-02 
435	 5.41450709100674E-02 
436	 5.46815193460629E-02 
437	 5.52676247411343E-02 
438	 5.57269653485834E-02 
439	 0.056125917503829 
440	 5.66673838412592E-02 
441	 5.74537199852166E-02 
442	 5.80099229715152E-02 
443	 5.85709393819415E-02 
444	 5.92394598554264E-02 
445	 0.059974606457457 
446	 6.04941461958971E-02 
447	 6.09528412322327E-02 
448	 6.15145179890315E-02 
449	 6.22058250606065E-02 
450	 6.28857217392154E-02 
451	 6.36206423805912E-02 
452	 6.44755991895272E-02 
453	 6.49699525381462E-02 
454	 6.56228052943006E-02 
455	 6.65118042173052E-02 
456	 6.71631254993168E-02 
457	 6.79314781746489E-02 
458	 0.068740026895343 
459	 6.94967663541998E-02 
460	 7.03657138380816E-02 
461	 7.10691211525101E-02 
462	 7.17224888265644E-02 
463	 7.26056541425445E-02 
464	 7.33125461461517E-02 
465	 7.41247315294624E-02 
466	 7.51106840179475E-02 
467	 7.58942715565486E-02 
468	 7.67639000024967E-02 
469	 7.77103695172751E-02 
470	 7.86437165756028E-02 
471	 7.95102026321756E-02 
472	 8.03594669297717E-02 
473	 8.12556506781143E-02 
474	 8.22519131527548E-02 
475	 0.083114270033742 
476	 8.39843484108841E-02 
477	 8.49373187881786E-02 
478	 8.57449892411675E-02 
479	 8.66590039441067E-02 
480	 8.76771815348365E-02 
481	 8.86861255682593E-02 
482	 8.95674755616776E-02 
483	 0.090512810838144 
484	 9.15401743126974E-02 
485	 9.24456067366514E-02 
486	 9.34730729666107E-02 
487	 9.45010779333868E-02 
488	 9.54127322177445E-02 
489	 9.63671677683228E-02 
490	 0.097369482186556 
491	 0.098399635400501 
492	 9.94202784200264E-02 
493	 0.100404390269463 
494	 0.101349389121397 
495	 0.102297714619989 
496	 0.103367135993991 
497	 0.104306566661095 
498	 0.105199673029779 
499	 0.106192730094571 
500	 0.107214748079217 
501	 0.108118436079085 
502	 0.108966007071273 
503	 0.109988472670281 
504	 0.110952048286541 
505	 0.111918052761725 
506	 0.112941286003901 
507	 0.113941115775093 
508	 0.114845935741612 
509	 0.115738719375079 
510	 0.116737643112491 
511	 0.11766670010151 
512	 0.118577575261895 
513	 0.119507451356455 
514	 0.120452742793696 
515	 0.121348196117546 
516	 0.122259231156283 
517	 0.123217763464319 
518	 0.124001943980051 
519	 0.124844092454839 
520	 0.125799998948679 
521	 0.126783146753746 
522	 0.127664648212922 
523	 0.128499374585504 
524	 0.129325882977408 
525	 0.130087303456565 
526	 0.130859684532775 
527	 0.131680967403961 
528	 0.132539817131395 
529	 0.133249275619075 
530	 0.133940213466483 
531	 0.134672306071443 
532	 0.13540352089058 
533	 0.135979221018195 
534	 0.136534522673769 
535	 0.137159952695441 
536	 0.137618623723452 
537	 0.138085210262333 
538	 0.138565520125746 
539	 0.138970679574757 
540	 0.139274280538264 
541	 0.139555622595089 
542	 0.139835717178563 
543	 0.140020225237133 
544	 0.140177274582479 
545	 0.140289602615219 
546	 0.140330810224864 
547	 0.140358028268295 
548	 0.140303928814941 
549	 0.140172793159451 
550	 0.14003546868112 
551	 0.139888948297175 
552	 0.139724835941273 
553	 0.139518766592112 
554	 0.139209557400778 
555	 0.138867116122588 
556	 0.138501459080602 
557	 0.138100719800105 
558	 0.137716351716506 
559	 0.13728689110998 
560	 0.136801828384193 
561	 0.136335188638075 
562	 0.135814343150876 
563	 0.135235371748103 
564	 0.134610811306575 
565	 0.133939018516238 
566	 0.133207829592507 
567	 0.132417577228473 
568	 0.131578587599455 
569	 0.130690184055814 
570	 0.129748480944069 
571	 0.128764109065341 
572	 0.127776212727941 
573	 0.12680429639899 
574	 0.125854377353282 
575	 0.124921123069544 
576	 0.124000031081272 
577	 0.12301368434079 
578	 0.12194770267921 
579	 0.120866349464497 
580	 0.119758210605773 
581	 0.118627079738375 
582	 0.117474471834661 
583	 0.116286352373934 
584	 0.115121686701007 
585	 0.113969484816724 
586	 0.112773633581123 
587	 0.111514350260225 
588	 0.11024636912323 
589	 0.108995348078215 
590	 0.107727689276928 
591	 0.106407968193475 
592	 0.10510261319658 
593	 0.103876006080194 
594	 0.102632039773097 
595	 0.101429668255037 
596	 0.100260880449924 
597	 9.90618038484397E-02 
598	 9.78630153536233E-02 
599	 9.66807972805609E-02 
600	 9.55078334478082E-02 
601	 9.42903627719653E-02 
602	 9.31016249097973E-02 
603	 9.19428592467738E-02 
604	 9.07852609112213E-02 
605	 8.96156114627894E-02 
606	 8.84672045842271E-02 
607	 8.73686169835601E-02 
608	 8.63385520080657E-02 
609	 8.52459675406617E-02 
610	 8.41522248760648E-02 
611	 8.31306575527957E-02 
612	 8.21344645369719E-02 
613	 8.11226343192404E-02 
614	 8.01207558473294E-02 
615	 7.91854148048063E-02 
616	 7.82328850655152E-02 
617	 7.73079553568896E-02 
618	 0.076434769384989 
619	 7.55703133612888E-02 
620	 7.47278188721202E-02 
621	 0.073896139868815 
622	 7.30606328323376E-02 
623	 7.22204532164327E-02 
624	 7.14308530581013E-02 
625	 7.06814559658233E-02 
626	 6.99027766755699E-02 
627	 6.91812377021455E-02 
628	 6.84750872184159E-02 
629	 6.77548939118988E-02 
630	 6.70847068039305E-02 
631	 6.64288224445074E-02 
632	 6.57734697097384E-02 
633	 6.51199485288594E-02 
634	 6.44979223106271E-02 
635	 6.38925795270233E-02 
636	 0.063308928722672 
637	 6.27836778148726E-02 
638	 6.22348414797978E-02 
639	 6.16716751288785E-02 
640	 6.11232082191485E-02 
641	 6.05975945638559E-02 
642	 6.00939757108156E-02 
643	 0.059616428899302 
644	 5.91656525695268E-02 
645	 5.86942958199067E-02 
646	 5.82151566049887E-02 
647	 5.77550639904309E-02 
648	 0.057351095869644 
649	 0.056946616197977 
650	 5.65324668645037E-02 
651	 5.61198353510782E-02 
652	 5.57358808802887E-02 
653	 5.53455418916851E-02 
654	 5.49525821082195E-02 
655	 5.45919876253511E-02 
656	 5.42545120557441E-02 
657	 0.053916406876094 
658	 5.35717370663323E-02 
659	 5.32563664289677E-02 
660	 5.29565822725223E-02 
661	 5.26455662818989E-02 
662	 5.23090990685138E-02 
663	 5.20295609035849E-02 
664	 5.17602908638051E-02 
665	 5.14808204169144E-02 
666	 5.12053929867985E-02 
667	 5.09357297424783E-02 
668	 5.06903992323831E-02 
669	 5.04666968566176E-02 
670	 5.01980479033951E-02 
671	 4.99379241820966E-02 
672	 4.97053495017118E-02 
673	 4.94961483682282E-02 
674	 4.92733153154116E-02 
675	 0.049033466988574 
676	 4.87980166610142E-02 
677	 0.048612152125682 
678	 4.83785406824811E-02 
679	 0.048154769583246 
680	 4.79909699784488E-02 
681	 4.77990114349821E-02 
682	 4.76255853704787E-02 
683	 4.74548649940455E-02 
684	 4.72449554080225E-02 
685	 0.047029028032747 
686	 4.68546112591763E-02 
687	 4.67229792294301E-02 
688	 4.65711521033155E-02 
689	 4.63899374424584E-02 
690	 0.046203692064067 
691	 4.60421274054953E-02 
692	 4.59199684744311E-02 
693	 4.57639666547271E-02 
694	 4.55934076563793E-02 
695	 0.045475536913128 
696	 4.53218552788537E-02 
697	 4.51642978733779E-02 
698	 4.50247356135682E-02 
699	 4.48861745721422E-02 
700	 4.47648292771462E-02 
701	 4.46362357145038E-02 
702	 4.44821910056472E-02 
703	 4.43498584717868E-02 
704	 4.42392987816519E-02 
705	 0.044117952797887 
706	 4.39447468354578E-02 
707	 4.38299835237984E-02 
708	 4.37317792523849E-02 
709	 4.36100225587605E-02 
710	 4.34601860241222E-02 
711	 4.33548603893773E-02 
712	 4.32734378406811E-02 
713	 4.31783022917224E-02 
714	 4.30950560033358E-02 
715	 4.29902281007837E-02 
716	 0.042856014642181 
717	 4.27119477872176E-02 
718	 4.26434753517133E-02 
719	 4.25811073047077E-02 
720	 4.24830323699288E-02 
721	 4.23922859454152E-02 
722	 4.22918163577602E-02 
723	 4.21980789194773E-02 
724	 4.21258125436521E-02 
725	 4.20487537162868E-02 
726	 4.19394734230953E-02 
727	 4.18299543875733E-02 
728	 4.17811343204045E-02 
729	 4.16886860391864E-02 
730	 4.15929634724978E-02 
731	 4.15251942743265E-02 
732	 4.14705974345045E-02 
733	 4.13938325907661E-02 
734	 4.13144668790836E-02 
735	 4.12545580047142E-02 
736	 4.11773845745627E-02 
737	 4.11029418526276E-02 
738	 0.041027344572187 
739	 4.09368282374545E-02 
740	 4.08832236178078E-02 
741	 0.040837071527265 
742	 0.040778850409958 
743	 4.07192743208419E-02 
744	 0.040654175718976 
745	 4.06016187634211E-02 
746	 4.05689660713066E-02 
747	 4.05086078246445E-02 
748	 4.04597427505495E-02 
749	 4.04089313021665E-02 
750	 4.03235446442967E-02 
751	 4.02747882264235E-02 
752	 4.02407068487487E-02 
753	 4.01978975088957E-02 
754	 4.01352345268015E-02 
755	 4.00847821716623E-02 
756	 4.00385485066177E-02 
757	 3.99862164067792E-02 
758	 0.039939749054295 
759	 3.98984878011956E-02 
760	 3.98579250083415E-02 
761	 0.039813471611515 
762	 3.97737736884024E-02 
763	 0.039734610097729 
764	 0.039692678068137 
765	 3.96478234977722E-02 
766	 3.96301090139683E-02 
767	 3.96037673381748E-02 
768	 3.95501524657733E-02 
769	 3.95186245922884E-02 
770	 3.94971634116513E-02 
771	 3.94774737692473E-02 
772	 3.94505228335024E-02 
773	 3.94029818757078E-02 
774	 3.93697426442939E-02 
775	 0.039350316330512 
776	 3.93166976509771E-02 
777	 3.92991689293561E-02 
778	 0.039275002683435 
779	 3.92365661099516E-02 
780	 3.92139825805113E-02 
781	 3.91922604814304E-02 
782	 3.91582947009897E-02 
783	 3.91154287870177E-02 
784	 3.91234733888263E-02 
785	 3.91221993975948E-02 
786	 3.91047735689037E-02 
787	 3.90929168211422E-02 
788	 3.90645129443923E-02 
789	 3.90316765338443E-02 
790	 3.90122538010533E-02 
791	 3.90237735525898E-02 
792	 3.90028107257872E-02 
793	 3.89714328987786E-02 
794	 3.89572439415527E-02 
795	 0.038957665809931 
796	 3.89368045127546E-02 
797	 3.89160801836337E-02 
798	 3.89251134017625E-02 
799	 3.89191568614431E-02 
800	 3.89069181565395E-02 
801	 3.88900576184818E-02 
802	 0.038864916009574 
803	 3.88437419325072E-02 
804	 3.88277994927434E-02 
805	 3.88199541594749E-02 
806	 0.038827787092136 
807	 3.88135761643204E-02 
808	 3.88014427513519E-02 
809	 3.88062045029101E-02 
810	 3.87625286735296E-02 
811	 0.038745676333982 
812	 3.87581345786892E-02 
813	 3.87685942491818E-02 
814	 3.87666831929726E-02 
815	 0.038757957779607 
816	 0.03875158525319 
817	 3.87577935369094E-02 
818	 0.038781189323128 
819	 3.87786675438876E-02 
820	 3.87458059269111E-02 
821	 3.87508763691564E-02 
822	 3.87593102268754E-02 
823	 3.87618795288372E-02 
824	 3.87635552604637E-02 
825	 0.038796730026104 
826	 3.88047968137807E-02 
827	 3.87946096396883E-02 
828	 3.88033095573751E-02 
829	 3.88526628485313E-02 
830	 3.88681272783389E-02 
831	 3.88557483830699E-02 
832	 3.88893367468741E-02 
833	 3.89132721842547E-02 
834	 3.89198344167906E-02 
835	 3.89240242008586E-02 
836	 3.89635043744411E-02 
837	 3.89856088732572E-02 
838	 3.89959934363772E-02 
839	 3.90135959449218E-02 
840	 3.90554837142097E-02 
841	 3.90524216027073E-02 
842	 3.90346877811043E-02 
843	 3.90599874121972E-02 
844	 3.90965847522057E-02 
845	 3.91358247046141E-02 
846	 3.91673078723013E-02 
847	 3.91830527626512E-02 
848	 3.92051206702036E-02 
849	 3.92139630144292E-02 
850	 3.92169774352348E-02 
851	 3.92575632356686E-02 
852	 3.92905600301727E-02 
853	 3.93280871427517E-02 
854	 3.93783093988113E-02 
855	 3.94165784103711E-02 
856	 3.94460856248384E-02 
857	 3.94845835701295E-02 
858	 3.95403954777141E-02 
859	 3.95691137935959E-02 
860	 3.96116650559214E-02 
861	 3.96658830422158E-02 
862	 3.97120534242201E-02 
863	 3.97774176930977E-02 
864	 3.98247859683647E-02 
865	 3.98542807086816E-02 
866	 3.98983090379498E-02 
867	 3.99257248846561E-02 
868	 4.00031587916455E-02 
869	 4.01197501384856E-02 
870	 4.01496208711122E-02 
871	 4.02080661977759E-02 
872	 0.040266776363894 
873	 4.03032158125408E-02 
874	 4.03749344748011E-02 
875	 4.04721359613647E-02 
876	 4.05518261024812E-02 
877	 4.05932885092262E-02 
878	 4.06927662570278E-02 
879	 4.07829151784487E-02 
880	 4.08575535200359E-02 
881	 4.09371585898529E-02 
882	 0.04100287510336 
883	 4.10910663304659E-02 
884	 4.11905076517719E-02 
885	 4.12621291622403E-02 
886	 4.13765002345741E-02 
887	 4.14800696405665E-02 
888	 4.15672388661938E-02 
889	 4.16963062361492E-02 
890	 4.17810582210691E-02 
891	 4.18551618506963E-02 
892	 4.19482311738884E-02 
893	 4.20441680630267E-02 
894	 4.21796568861503E-02 
895	 4.23069859472613E-02 
896	 4.23988070137446E-02 
897	 4.25376977619044E-02 
898	 4.26549777599299E-02 
899	 4.27553604709284E-02 
900	 0.042859722414522 
901	 4.29430000590646E-02 
902	 0.043066320379201 
903	 4.32222020068244E-02 
904	 4.33730346685269E-02 
905	 4.35379595780411E-02 
906	 0.043671280069749 
907	 4.37871917653096E-02 
908	 4.39300844250425E-02 
909	 4.39976418731883E-02 
910	 4.41245270040214E-02 
911	 0.044315733169292 
912	 0.044438587458814 
913	 4.46176671285992E-02 
914	 4.47774505642151E-02 
915	 4.48882725347702E-02 
916	 4.50216203947855E-02 
917	 0.045186688694167 
918	 4.53616127767745E-02 
919	 0.045539614552989 
920	 4.57577439846075E-02 
921	 4.58868229071215E-02 
922	 4.59950586165447E-02 
923	 4.61568948174634E-02 
924	 4.63210850453008E-02 
925	 4.64950193508885E-02 
926	 4.66898895732918E-02 
927	 4.69019521810727E-02 
928	 4.70714659181422E-02 
929	 0.047258182087117 
930	 4.74333672726187E-02 
931	 4.75641004147701E-02 
932	 4.77601146115172E-02 
933	 0.048020370125802 
934	 4.82559133827613E-02 
935	 4.83769161749411E-02 
936	 4.85349697751783E-02 
937	 4.87383729369097E-02 
938	 0.048951008067745 
939	 4.91255809122806E-02 
940	 4.93209856976004E-02 
941	 4.95592924064161E-02 
942	 4.98046633055115E-02 
943	 4.99919664131481E-02 
944	 5.02161922390602E-02 
945	 5.04448247572114E-02 
946	 0.050656418331031 
947	 5.08568582818311E-02 
948	 5.10348734145076E-02 
949	 5.12080158298547E-02 
950	 5.14135938955225E-02 
951	 5.16937961358278E-02 
952	 5.18840152447988E-02 
953	 5.20953831728254E-02 
954	 5.23601900044849E-02 
955	 5.25311180854816E-02 
956	 5.27613989311285E-02 
957	 5.30156698634469E-02 
958	 5.32487473144807E-02 
959	 5.34692961478895E-02 
960	 5.36731853257432E-02 
961	 5.38927622070391E-02 
962	 5.41516736461054E-02 
963	 5.44410552289535E-02 
964	 5.46342531963076E-02 
965	 5.48267695490174E-02 
966	 5.50828780462592E-02 
967	 5.52566678982574E-02 
968	 5.54970591359396E-02 
969	 0.055723551002162 
970	 5.58941559167701E-02 
971	 5.62305903446324E-02 
972	 5.65094483002699E-02 
973	 5.67124750657895E-02 
974	 5.68992533382937E-02 
975	 5.71507472763209E-02 
976	 5.73546157111397E-02 
977	 5.76342407259906E-02 
978	 5.80360978435225E-02 
979	 5.81433229770229E-02 
980	 5.83480408235949E-02 
981	 5.86277055124355E-02 
982	 5.88714545275452E-02 
983	 5.91752543842521E-02 
984	 5.94243797870279E-02 
985	 5.96706352617185E-02 
986	 5.99549823049639E-02 
987	 0.060061897330244 
988	 6.03454335867963E-02 
989	 6.07017309772731E-02 
990	 6.09175271985202E-02 
991	 6.10203311813298E-02 
992	 0.061243199493444 
993	 0.06152445300957 
994	 6.17508448732641E-02 
995	 6.20590007851248E-02 
996	 6.23246704456968E-02 
997	 6.25127211609752E-02 
998	 6.26824699956267E-02 
999	 6.30734579719003E-02 
1000	 0.063408333490365 
1001	 6.44653101264405E-02 
1002	 6.46696267643574E-02 
1003	 0.064897083130339 
1004	 6.51190406922871E-02 
1005	 6.53522685111739E-02 
1006	 6.55640875716707E-02 
1007	 6.57469022757359E-02 
1008	 6.59811231964525E-02 
1009	 6.62365823939558E-02 
1010	 6.64712825778333E-02 
1011	 6.67445271147362E-02 
1012	 0.066975220497852 
1013	 6.71427981987064E-02 
1014	 6.73565879241259E-02 
1015	 6.75870382702162E-02 
1016	 6.78166491487989E-02 
1017	 6.80418553834896E-02 
1018	 6.82656672210182E-02 
1019	 6.85086329909096E-02 
1020	 6.87444745464991E-02 
1021	 6.89476189064005E-02 
1022	 6.91369884096647E-02 
1023	 6.93491893472083E-02 
1024	 6.95279028398131E-02 
1025	 0.069739340429468 
1026	 7.00301614483363E-02 
1027	 7.02319265001291E-02 
1028	 7.03877285653217E-02 
1029	 7.05484042463971E-02 
1030	 7.06910551703668E-02 
1031	 0.07082805034101 
1032	 7.10043047394815E-02 
1033	 7.12086690254021E-02 
1034	 7.14046082229974E-02 
1035	 7.15946062717878E-02 
1036	 7.17731409903098E-02 
1037	 7.19521375940431E-02 
1038	 7.21145115190395E-02 
1039	 7.22467141845695E-02 
1040	 7.24054421701662E-02 
1041	 7.25774423101864E-02 
1042	 7.27352612791389E-02 
1043	 7.28869771255453E-02 
1044	 7.30584369554728E-02 
1045	 7.32167014488449E-02 
1046	 0.073348262870664 
1047	 7.34843579043513E-02 
1048	 7.35981139197266E-02 
1049	 7.37005817472484E-02 
1050	 7.38491050816794E-02 
1051	 7.40074391466198E-02 
1052	 7.41492945933766E-02 
1053	 7.42727300903537E-02 
1054	 7.43764422408306E-02 
1055	 0.074486587316277 
1056	 0.074578266989195 
1057	 7.46917433413701E-02 
1058	 7.48254152115673E-02 
1059	 7.49520076472658E-02 
1060	 7.50820322597901E-02 
1061	 0.075177098389019 
1062	 7.52513808013084E-02 
1063	 0.075348015387408 
1064	 7.54467866812935E-02 
1065	 7.55396546041567E-02 
1066	 7.56158834694093E-02 
1067	 7.57020829910296E-02 
1068	 7.58016376720112E-02 
1069	 7.58937276891967E-02 
1070	 7.59794624251849E-02 
1071	 7.60880027559541E-02 
1072	 0.076169922082109 
1073	 7.62147950634832E-02 
1074	 7.62698224819685E-02 
1075	 7.63435411287675E-02 
1076	 7.64324170145412E-02 
1077	 7.65195376511682E-02 
1078	 7.65922196693212E-02 
1079	 7.66708424551247E-02 
1080	 7.67345295849566E-02 
1081	 7.67725446268292E-02 
1082	 7.68050242196354E-02 
1083	 7.68339711878455E-02 
1084	 7.68905884317369E-02 
1085	 7.69571593749606E-02 
1086	 7.69990691331874E-02 
1087	 7.70355476412397E-02 
1088	 7.70878170519916E-02 
1089	 7.71221443033654E-02 
1090	 7.71373699903708E-02 
1091	 7.71954016029011E-02 
1092	 7.72527076235585E-02 
1093	 7.72800331915748E-02 
1094	 7.73043645586272E-02 
1095	 7.73457757928296E-02 
1096	 7.73641887489052E-02 
1097	 7.73599824400017E-02 
1098	 7.73868008735064E-02 
1099	 7.73995112352109E-02 
1100	 7.74069747861074E-02 
1101	 7.74570699520025E-02 
1102	 7.74834355986192E-02 
1103	 7.75003372522698E-02 
1104	 7.75093903401441E-02 
1105	 7.75363862971547E-02 
1106	 7.75310373874187E-02 
1107	 7.75312748623998E-02 
1108	 7.75594614172594E-02 
1109	 7.75614990690077E-02 
1110	 7.75501755790449E-02 
1111	 7.75605900125522E-02 
1112	 7.75679415793356E-02 
1113	 7.75773660019032E-02 
1114	 0.077603747761328 
1115	 7.76180423614626E-02 
1116	 7.76186795448342E-02 
1117	 0.077614759346619 
1118	 7.76178576637841E-02 
1119	 7.76234583748353E-02 
1120	 0.077623572693362 
1121	 7.76222726334139E-02 
1122	 7.76300836077393E-02 
1123	 0.077636093512907 
1124	 7.76378722641225E-02 
1125	 7.76433328571149E-02 
1126	 7.76493966589722E-02 
1127	 7.76536143494798E-02 
1128	 7.76574725319191E-02 
1129	 7.76485933255599E-02 
1130	 7.76428214371212E-02 
1131	 7.76451847248119E-02 
1132	 7.76357021626774E-02 
1133	 7.76400460710406E-02 
1134	 7.76436261042362E-02 
1135	 7.76408781960842E-02 
1136	 7.76239351957151E-02 
1137	 7.76201705658037E-02 
1138	 7.76136009115131E-02 
1139	 7.76199072094919E-02 
1140	 7.76372529866482E-02 
1141	 7.76537927466446E-02 
1142	 7.76675372268216E-02 
1143	 7.76700821806879E-02 
1144	 7.76646852399865E-02 
1145	 0.077657623620987 
1146	 7.76391596691061E-02 
1147	 7.76394487774065E-02 
1148	 7.76548443781834E-02 
1149	 7.76501851124854E-02 
1150	 7.76552359637331E-02 
1151	 7.76730014910938E-02 
1152	 7.76755198501061E-02 
1153	 7.76609346667988E-02 
1154	 7.76614100457561E-02 
1155	 7.76641362196848E-02 
1156	 7.76655296148077E-02 
1157	 7.76715129202116E-02 
1158	 7.76767012487607E-02 
1159	 7.76782252377699E-02 
1160	 7.76834706715563E-02 
1161	 7.76945680949724E-02 
1162	 7.77220533194553E-02 
1163	 7.77348678513808E-02 
1164	 7.77323457274212E-02 
1165	 7.77347032534761E-02 
1166	 7.77290652308354E-02 
1167	 7.77360677161278E-02 
1168	 7.77596941447658E-02 
1169	 7.77817524225266E-02 
1170	 7.78130173873573E-02 
1171	 7.78352978752512E-02 
1172	 7.78547378488334E-02 
1173	 7.78790899180359E-02 
1174	 7.79041291223632E-02 
1175	 7.79239251074219E-02 
1176	 0.077945455948329 
1177	 0.077965293665966 
1178	 7.79757806290577E-02 
1179	 7.79951999743987E-02 
1180	 7.80168348110384E-02 
1181	 7.80433968868786E-02 
1182	 7.80616115817309E-02 
1183	 7.80786360522892E-02 
1184	 7.81042731322038E-02 
1185	 7.81201724669969E-02 
1186	 7.81446194272539E-02 
1187	 7.81763425113876E-02 
1188	 0.078206336277538 
1189	 7.82327557453057E-02 
1190	 7.82715610194726E-02 
1191	 0.078320414137538 
1192	 7.83637983585589E-02 
1193	 7.84175269025352E-02 
1194	 7.84596482439871E-02 
1195	 7.84882457718739E-02 
1196	 7.85259869352717E-02 
1197	 7.85655420160771E-02 
1198	 7.86003354465364E-02 
1199	 7.86458539937287E-02 
1200	 7.86908804999415E-02 
1201	 7.87359008857131E-02 
1202	 7.87912243564753E-02 
1203	 7.88415973848404E-02 
1204	 7.89046395646887E-02 
1205	 7.89659862093053E-02 
1206	 7.90302281048602E-02 
1207	 7.90887857758682E-02 
1208	 7.91473439790708E-02 
1209	 7.92067108676586E-02 
1210	 7.92605922011999E-02 
1211	 7.93241459782041E-02 
1212	 7.93951915638382E-02 
1213	 7.94657011609129E-02 
1214	 7.95385641146208E-02 
1215	 7.96125447387409E-02 
1216	 7.96815993493138E-02 
1217	 7.97614757326084E-02 
1218	 7.98539297751577E-02 
1219	 7.99423523050168E-02 
1220	 8.00150979918464E-02 
1221	 0.080109174268923 
1222	 8.01866677591744E-02 
1223	 8.02619241673953E-02 
1224	 8.03507743695597E-02 
1225	 8.04559825572474E-02 
1226	 8.05425963763215E-02 
1227	 0.080624198364342 
1228	 8.07136713037615E-02 
1229	 8.08015265003981E-02 
1230	 8.08898484659662E-02 
1231	 8.09803644957035E-02 
1232	 0.081075125111103 
1233	 8.11668257398803E-02 
1234	 8.12626498938564E-02 
1235	 8.13694650442676E-02 
1236	 0.081473194468497 
1237	 8.15795656198817E-02 
1238	 8.16792778134455E-02 
1239	 0.081774078840809 
1240	 0.081873963985213 
1241	 8.19653806875087E-02 
1242	 8.20427835198666E-02 
1243	 8.21443896119395E-02 
1244	 8.22581897666799E-02 
1245	 8.23608740099819E-02 
1246	 8.24734019591174E-02 
1247	 8.25753628707549E-02 
1248	 8.26609809785034E-02 
1249	 8.27603970947009E-02 
1250	 8.28683951174795E-02 
1251	 8.29711299495042E-02 
1252	 8.30702882191074E-02 
1253	 8.31775688870934E-02 
1254	 8.32845570578433E-02 
1255	 8.33992748236169E-02 
1256	 0.083533155041156 
1257	 8.36506888086713E-02 
1258	 8.37542058309548E-02 
1259	 8.38714025029317E-02 
1260	 0.083993346189817 
1261	 8.41092355429628E-02 
1262	 8.42245873998944E-02 
1263	 8.43585450339798E-02 
1264	 8.44726657837086E-02 
1265	 8.45693080770078E-02 
1266	 8.46818635706784E-02 
1267	 8.47952318753243E-02 
1268	 8.49152111003467E-02 
1269	 8.50416137355264E-02 
1270	 0.085168975072626 
1271	 8.53055973725879E-02 
1272	 8.54324115096014E-02 
1273	 8.55464662271637E-02 
1274	 8.56811490448282E-02 
1275	 8.58300196877107E-02 
1276	 8.59631703705232E-02 
1277	 0.08609793725342 
1278	 8.62370563862537E-02 
1279	 8.63557771073627E-02 
1280	 8.64946063436193E-02 
1281	 8.66675504949867E-02 
1282	 8.68174363347496E-02 
1283	 8.69549353607812E-02 
1284	 0.087098036820287 
1285	 8.72389372037677E-02 
1286	 8.73677769930798E-02 
1287	 8.75113168267881E-02 
1288	 8.76660373100055E-02 
1289	 8.78133534866306E-02 
1290	 8.79595525620702E-02 
1291	 8.81060314776905E-02 
1292	 8.82483134584532E-02 
1293	 8.83999265407391E-02 
1294	 8.85516979119479E-02 
1295	 8.87124111030327E-02 
1296	 8.88835536915799E-02 
1297	 8.90525236419399E-02 
1298	 8.92287834300976E-02 
1299	 8.93984548226434E-02 
1300	 8.95632083344068E-02 
1301	 8.97326535691436E-02 
1302	 8.98994149594138E-02 
1303	 9.00707533050236E-02 
1304	 9.02581002349443E-02 
1305	 9.04274194040103E-02 
1306	 9.05745340129024E-02 
1307	 9.07425126595458E-02 
1308	 9.09155682907679E-02 
1309	 9.10862328825148E-02 
1310	 9.12551121852918E-02 
1311	 9.14332686015875E-02 
1312	 9.16172669532263E-02 
1313	 9.17943952688896E-02 
1314	 9.19778190979441E-02 
1315	 0.092179773074257 
1316	 9.23705276684459E-02 
1317	 9.25529989184078E-02 
1318	 9.27347912078035E-02 
1319	 9.29200072768619E-02 
1320	 9.31025626104818E-02 
1321	 9.32706767262719E-02 
1322	 9.34545822971994E-02 
1323	 9.36514214462106E-02 
1324	 9.38408948394366E-02 
1325	 9.40268541368156E-02 
1326	 9.42228634244511E-02 
1327	 9.44253224100207E-02 
1328	 9.46223750938874E-02 
1329	 9.48270888488242E-02 
1330	 9.50258331349132E-02 
1331	 9.52051415202333E-02 
1332	 9.54023673570492E-02 
1333	 9.56098576443886E-02 
1334	 9.58217933008994E-02 
1335	 9.60261694861582E-02 
1336	 9.62334635426208E-02 
1337	 9.64466214485063E-02 
1338	 9.66599368581589E-02 
1339	 0.096863999902171 
1340	 9.70751542888251E-02 
1341	 9.72764166148996E-02 
1342	 0.097456448374884 
1343	 9.76576140337802E-02 
1344	 9.78684743643703E-02 
1345	 9.80789042667553E-02 
1346	 9.82936804093343E-02 
1347	 9.85089438244025E-02 
1348	 9.87330114901616E-02 
1349	 9.89458147293497E-02 
1350	 9.91536025858977E-02 
1351	 9.93646834687738E-02 
1352	 9.95676887135058E-02 
1353	 0.099778149633555 
1354	 0.100002293371353 
1355	 0.100213675275002 
1356	 0.100404640001569 
1357	 0.100622237570891 
1358	 0.100858342240119 
1359	 0.101081448624575 
1360	 0.101306470773969 
1361	 0.101547489705114 
1362	 0.101774476761551 
1363	 0.101981514862686 
1364	 0.102210858102139 
1365	 0.102453150794255 
1366	 0.102690595855588 
1367	 0.102930616628407 
1368	 0.103168602936803 
1369	 0.103405219161443 
1370	 0.103648199625203 
1371	 0.103893521150865 
1372	 0.104136393636078 
1373	 0.10439047997083 
1374	 0.104626623390569 
1375	 0.104854528809625 
1376	 0.105079874941934 
1377	 0.105289516848527 
1378	 0.105515767949792 
1379	 0.105747957500443 
1380	 0.105978980420817 
1381	 0.106216965537252 
1382	 0.106455410300907 
1383	 0.106682478499569 
1384	 0.106928468914779 
1385	 0.107192747603879 
1386	 0.107448119348953 
1387	 0.107710929373559 
1388	 0.107968762140401 
1389	 0.108215373996523 
1390	 0.108468495608969 
1391	 0.108721230475263 
1392	 0.108984513168169 
1393	 0.109241873155831 
1394	 0.109512722796486 
1395	 0.109776242854131 
1396	 0.110039046520846 
1397	 0.110303519281209 
1398	 0.110569332772378 
1399	 0.110831103897875 
1400	 0.111096263418416 
1401	 0.111353800848024 
1402	 0.111606489300669 
1403	 0.111854405970886 
1404	 0.112100192583762 
1405	 0.112337373283395 
1406	 0.11256028949762 
1407	 0.112795675515429 
1408	 0.113030382964635 
1409	 0.113268021251882 
1410	 0.11351748438313 
1411	 0.113757093279218 
1412	 0.113985964838416 
1413	 0.114223819946033 
1414	 0.114456894069187 
1415	 0.114703427570189 
1416	 0.11496871516251 
1417	 0.115224513413313 
1418	 0.115474077110459 
1419	 0.115738825188434 
1420	 0.116004206703581 
1421	 0.116276563703585 
1422	 0.116577863771295 
1423	 0.116859460402966 
1424	 0.117122625131493 
1425	 0.117401848552182 
1426	 0.117665247147578 
1427	 0.117944864925666 
1428	 0.118262548468569 
1429	 0.118560414543474 
1430	 0.118857870304945 
1431	 0.119160791473563 
1432	 0.119461569452712 
1433	 0.119749036205143 
1434	 0.120052828256148 
1435	 0.120372739374473 
1436	 0.120680047955861 
1437	 0.120980814913338 
1438	 0.121290721894351 
1439	 0.121598281394472 
1440	 0.12191629604338 
1441	 0.12225085069738 
1442	 0.122573479565762 
1443	 0.12289226386227 
1444	 0.123219733129673 
1445	 0.123539982994612 
1446	 0.123874106985589 
1447	 0.124219646679138 
1448	 0.124570960876431 
1449	 0.124934651562874 
1450	 0.125295578438585 
1451	 0.125658696137918 
1452	 0.126029204488845 
1453	 0.126407314564154 
1454	 0.126778311552375 
1455	 0.12715557584743 
1456	 0.127527810094117 
1457	 0.127886353634223 
1458	 0.128254703648128 
1459	 0.12863257520449 
1460	 0.129005705276054 
1461	 0.129376267560162 
1462	 0.129750638660019 
1463	 0.130118149038769 
1464	 0.130496490750138 
1465	 0.130875032988661 
1466	 0.131280258115494 
1467	 0.131666959466825 
1468	 0.132065493155256 
1469	 0.132475287254113 
1470	 0.132856529647172 
1471	 0.133245066504053 
1472	 0.133632474073439 
1473	 0.134026196348863 
1474	 0.134414934159757 
1475	 0.134814136921592 
1476	 0.135227251840016 
1477	 0.135631828522924 
1478	 0.136036167711066 
1479	 0.136432296211183 
1480	 0.13682769978179 
1481	 0.137215391382031 
1482	 0.137592403980933 
1483	 0.137974641410078 
1484	 0.138355572750832 
1485	 0.138736557302442 
1486	 0.139114799134008 
1487	 0.139497127010558 
1488	 0.139877094615103 
1489	 0.140265150916284 
1490	 0.140671353789505 
1491	 0.141054479934902 
1492	 0.141424547773954 
1493	 0.141807834330116 
1494	 0.142176058698359 
1495	 0.142561347879974 
1496	 0.142969712421517 
1497	 0.143368401296072 
1498	 0.143770398512229 
1499	 0.144167404376657 
1500	 0.144559000981127 
1501	 0.144957182459005 
1502	 0.145361592461089 
1503	 0.145751474541962 
1504	 0.146139265130646 
1505	 0.146523106794411 
1506	 0.146886611126431 
1507	 0.147265052938051 
1508	 0.147651156178013 
1509	 0.148038221189187 
1510	 0.148435919640782 
1511	 0.148822933326134 
1512	 0.14920831030003 
1513	 0.149590316673024 
1514	 0.149968954538774 
1515	 0.150339092341633 
1516	 0.150693111396616 
1517	 0.151060451493051 
1518	 0.151429218757689 
1519	 0.151795824805003 
1520	 0.152173506048936 
1521	 0.152546849456087 
1522	 0.15290450970322 
1523	 0.153281272256335 
1524	 0.153661323347636 
1525	 0.154053491897383 
1526	 0.15443260731 
1527	 0.154812484698169 
1528	 0.155190976224357 
1529	 0.155556623378572 
1530	 0.155946530646229 
1531	 0.156350704314851 
1532	 0.156749292258829 
1533	 0.157152752248505 
1534	 0.157565240609523 
1535	 0.157978420030842 
1536	 0.158397922206563 
1537	 0.15882841245226 
1538	 0.159262937669137 
1539	 0.15969874235276 
1540	 0.160142093286081 
1541	 0.160596906662455 
1542	 0.161052972633625 
1543	 0.1615100579995 
1544	 0.161972718705305 
1545	 0.162449295997201 
1546	 0.162911245832664 
1547	 0.163369437031683 
1548	 0.163827503773761 
1549	 0.164263100548439 
1550	 0.164741814641292 
1551	 0.16524377502274 
1552	 0.165739936979064 
1553	 0.16626058867419 
1554	 0.166770773531753 
1555	 0.167271779968916 
1556	 0.167778883777433 
1557	 0.168293369801713 
1558	 0.168807530569124 
1559	 0.169321211080178 
1560	 0.169832785619777 
1561	 0.170346970020831 
1562	 0.170861545888743 
1563	 0.171381040733116 
1564	 0.171882802762705 
1565	 0.172371576358797 
1566	 0.172874252241551 
1567	 0.173375167709792 
1568	 0.173867740898909 
1569	 0.174369405624104 
1570	 0.174864422691105 
1571	 0.175343286964532 
1572	 0.175823585321162 
1573	 0.176303320628463 
1574	 0.176791309882142 
1575	 0.177280104389694 
1576	 0.17776363102005 
1577	 0.178246048144722 
1578	 0.178743230553752 
1579	 0.179243912110467 
1580	 0.179738456110856 
1581	 0.180246671044027 
1582	 0.180750381197874 
1583	 0.181232243551919 
1584	 0.181736029703181 
1585	 0.18226134411938 
1586	 0.182778956027813 
1587	 0.183302980334593 
1588	 0.183819024826651 
1589	 0.184319719120328 
1590	 0.184841523669188 
1591	 0.185374511937923 
1592	 0.185903924880035 
1593	 0.186438544507436 
1594	 0.186983549195485 
1595	 0.187528747914092 
1596	 0.188077252592637 
1597	 0.188643414395017 
1598	 0.189204261389091 
1599	 0.189765271239415 
1600	 0.190320661142671 
1601	 0.190870598626848 
1602	 0.191429136657227 
1603	 0.191984725103104 
1604	 0.192539721050046 
1605	 0.193095208243575 
1606	 0.193663130558787 
1607	 0.194243604877751 
1608	 0.194813535623231 
1609	 0.195391330977725 
1610	 0.195964449825728 
1611	 0.196526240138479 
1612	 0.197080709424501 
1613	 0.197634725110003 
1614	 0.198187834807066 
1615	 0.198730318200558 
1616	 0.199274765440072 
1617	 0.199814113933083 
1618	 0.20036703545862 
1619	 0.200935480290346 
1620	 0.201481027886142 
1621	 0.202026817037416 
1622	 0.202569160203927 
1623	 0.203087243623574 
1624	 0.203616170738885 
1625	 0.20415801857667 
1626	 0.204692257787795 
1627	 0.205212063029047 
1628	 0.20574332923806 
1629	 0.206284705642003 
1630	 0.206818578223109 
1631	 0.207362694073253 
1632	 0.207897033233774 
1633	 0.20841020148301 
1634	 0.20894126684536 
1635	 0.209476449268072 
1636	 0.210008418737837 
1637	 0.210551306614152 
1638	 0.211091703636829 
1639	 0.211632664018612 
1640	 0.212167228033521 
1641	 0.212702108512869 
1642	 0.213232698360729 
1643	 0.213756297230513 
1644	 0.214273120748887 
1645	 0.214785722661513 
1646	 0.21529250208435 
1647	 0.215802595095142 
1648	 0.216289437225546 
1649	 0.216749735623807 
1650	 0.217228876115599 
1651	 0.217696911612118 
1652	 0.218166890524268 
1653	 0.218673819618129 
1654	 0.219136034764507 
1655	 0.219565903098199 
1656	 0.219996969748281 
1657	 0.220413651999223 
1658	 0.220818354834823 
1659	 0.221219695731766 
1660	 0.221598099802566 
1661	 0.221956057901155 
1662	 0.222298770438403 
1663	 0.222630419596722 
1664	 0.22294533641215 
1665	 0.223232788718967 
1666	 0.223518704388903 
1667	 0.223811187797019 
1668	 0.224051256319282 
1669	 0.224277590255483 
1670	 0.224458123703512 
1671	 0.224573965517537 
1672	 0.224689436868782 
1673	 0.224781823088905 
1674	 0.224855962065758 
1675	 0.224909326483308 
1676	 0.224950354088342 
1677	 0.224984796456231 
1678	 0.224978876720919 
1679	 0.224955830485614 
1680	 0.224887400433058 
1681	 0.224769279496909 
1682	 0.224637021262636 
1683	 0.224482020848867 
1684	 0.224289031341213 
1685	 0.224079835947289 
1686	 0.22381023217596 
1687	 0.223471504614045 
1688	 0.223136495500146 
1689	 0.222760596079415 
1690	 0.222379156797247 
1691	 0.222008618510192 
1692	 0.221582376671065 
1693	 0.221121665042463 
1694	 0.22063811690086 
1695	 0.220104132506162 
1696	 0.219573349908422 
1697	 0.219025689355697 
1698	 0.21845785402697 
1699	 0.217873796737544 
1700	 0.217298829514221 
1701	 0.216693355301694 
1702	 0.21613684690826 
1703	 0.215579918097112 
1704	 0.215077423898489 
1705	 0.214604534735575 
1706	 0.214176947004253 
1707	 0.213834098327696 
1708	 0.213527598251414 
1709	 0.213262238954228 
1710	 0.213078522379818 
1711	 0.212913722911567 
1712	 0.212766039136467 
1713	 0.212657126512872 
1714	 0.212549085198628 
1715	 0.212452033865357 
1716	 0.212408329694779 
1717	 0.212402145841896 
1718	 0.21241600726767 
1719	 0.212469146809633 
1720	 0.212529172506192 
1721	 0.212636885358112 
1722	 0.212809550553222 
1723	 0.213022310840623 
1724	 0.213322084965948 
1725	 0.213667550238454 
1726	 0.214096611628726 
1727	 0.214664688920511 
1728	 0.215311320709762 
1729	 0.216073999990639 
1730	 0.216921767397407 
1731	 0.217737968083454 
1732	 0.21860387933396 
1733	 0.219492007102404 
1734	 0.220361452831488 
1735	 0.221261984364255 
1736	 0.22209910515652 
1737	 0.222881041946819 
1738	 0.223621597404395 
1739	 0.224269983340708 
1740	 0.224868731754172 
1741	 0.225385098807331 
1742	 0.225787914929474 
1743	 0.226167355434664 
1744	 0.226479221245169 
1745	 0.226780790491437 
1746	 0.22703339877862 
1747	 0.227275656256402 
1748	 0.227474378342736 
1749	 0.227704787427953 
1750	 0.227903570820645 
1751	 0.228192165588881 
1752	 0.228526818690459 
1753	 0.22890993916342 
1754	 0.229345605767771 
1755	 0.229818203939754 
1756	 0.230316747033705 
1757	 0.230878239821635 
1758	 0.23153589947744 
1759	 0.232199621879222 
1760	 0.232973333171891 
1761	 0.23383889764339 
1762	 0.23469336359902 
1763	 0.235644863858114 
1764	 0.236640757956908 
1765	 0.237657469335998 
1766	 0.238774530485283 
1767	 0.239888917858797 
1768	 0.241019461792342 
1769	 0.242133744208733 
1770	 0.243146075963469 
1771	 0.244157671857597 
1772	 0.24513180332744 
1773	 0.246080347551921 
1774	 0.247046774903739 
1775	 0.24792507893678 
1776	 0.248779672947415 
1777	 0.249596449789667 
1778	 0.250321586989175 
1779	 0.251063097318956 
1780	 0.251775920867116 
1781	 0.25243544234914 
1782	 0.253104078150334 
1783	 0.25372237222718 
1784	 0.25431217274822 
1785	 0.254894065591228 
1786	 0.255429133241592 
1787	 0.255942193102449 
1788	 0.256432869485722 
1789	 0.25686881708355 
1790	 0.257329211712504 
1791	 0.2577874714306 
1792	 0.258246500387435 
1793	 0.258709184930655 
1794	 0.259116725606389 
1795	 0.259527415684922 
1796	 0.259932689532209 
1797	 0.260345489323245 
1798	 0.260766771755109 
1799	 0.261217253869616 
1800	 0.261665274002801 
1801	 0.259407879678854 
1802	 0.259883058145219 
1803	 0.260336958087808 
1804	 0.260783853128215 
1805	 0.26124643955181 
1806	 0.261679768658327 
1807	 0.262100870314539 
1808	 0.262529587328548 
1809	 0.262950667375376 
1810	 0.263364242259724 
1811	 0.263772991720589 
1812	 0.264194037494214 
1813	 0.264612210766704 
1814	 0.265040841794655 
1815	 0.265455278678529 
1816	 0.265873820003443 
1817	 0.266291651919456 
1818	 0.266684847552897 
1819	 0.267096898782829 
1820	 0.26753482134694 
1821	 0.267954522446173 
1822	 0.268354231679579 
1823	 0.268786265538457 
1824	 0.269202132287236 
1825	 0.269623754725994 
1826	 0.270025652664299 
1827	 0.270418488691699 
1828	 0.270797560186053 
1829	 0.271161791425407 
1830	 0.271517439974176 
1831	 0.271853290428592 
1832	 0.272216530537108 
1833	 0.272540130864961 
1834	 0.272870144445277 
1835	 0.273212540770732 
1836	 0.273526926733101 
1837	 0.273856072722346 
1838	 0.274187790768241 
1839	 0.27452476411685 
1840	 0.274854654685536 
1841	 0.275210201504926 
1842	 0.275574926826496 
1843	 0.275959415986806 
1844	 0.276359419458757 
1845	 0.276733961503539 
1846	 0.277124588780234 
1847	 0.277522270359745 
1848	 0.277949902480723 
1849	 0.278403300493841 
1850	 0.278871088878579 
1851	 0.279360879690974 
1852	 0.279867536158152 
1853	 0.280380452950172 
1854	 0.280867026655529 
1855	 0.281363438118876 
1856	 0.281847913471609 
1857	 0.282320163457407 
1858	 0.282812045120351 
1859	 0.283283106225763 
1860	 0.283769312961662 
1861	 0.284200762671357 
1862	 0.284622951697746 
1863	 0.284982472668303 
1864	 0.285296436992561 
1865	 0.285584151452011 
1866	 0.285821622218856 
1867	 0.286053136385217 
1868	 0.286268525141837 
1869	 0.286450709225183 
1870	 0.286618317967509 
1871	 0.286766150587068 
1872	 0.286897264622334 
1873	 0.287018241920653 
1874	 0.287103884789425 
1875	 0.287148753599005 
1876	 0.287166529778637 
1877	 0.287140201034834 
1878	 0.287063070779743 
1879	 0.286940251836499 
1880	 0.286768786655345 
1881	 0.286504190237819 
1882	 0.286157436175824 
1883	 0.285745855310506 
1884	 0.285269295603113 
1885	 0.284687305752816 
1886	 0.284053777770549 
1887	 0.283334317763186 
1888	 0.282503944271099 
1889	 0.281657684617373 
1890	 0.280726611692511 
1891	 0.27976013868329 
1892	 0.278770594721457 
1893	 0.277737153174307 
1894	 0.276637603760658 
1895	 0.275561345244626 
1896	 0.27445360639922 
1897	 0.273345568606093 
1898	 0.272321699534518 
1899	 0.271284113394184 
1900	 0.270305668734623 
1901	 0.269406722643337 
1902	 0.268491327372622 
1903	 0.267672974770802 
1904	 0.266901915747596 
1905	 0.266178908285271 
1906	 0.265493310123438 
1907	 0.264911365030743 
1908	 0.264362675735436 
1909	 0.263874570092383 
1910	 0.263460932806519 
1911	 0.263071863523901 
1912	 0.262720634793481 
1913	 0.26239475918807 
1914	 0.262108989671259 
1915	 0.261870778200029 
1916	 0.261679627499662 
1917	 0.261521392049545 
1918	 0.261413153958382 
1919	 0.261326609541677 
1920	 0.261259695289034 
1921	 0.261237701133713 
1922	 0.261236071068122 
1923	 0.261255407873998 
1924	 0.261299228619626 
1925	 0.261367234563014 
1926	 0.261456474551562 
1927	 0.261563298003791 
1928	 0.2616992721219 
1929	 0.261871953279945 
1930	 0.262036672894755 
1931	 0.262230922559645 
1932	 0.262455273100982 
1933	 0.262666764601447 
1934	 0.262921745422351 
1935	 0.263198515213378 
1936	 0.263477023977239 
1937	 0.263789407143948 
1938	 0.264134041203415 
1939	 0.264488792711858 
1940	 0.264863877442805 
1941	 0.265265746265093 
1942	 0.265648685739971 
1943	 0.266056855521325 
1944	 0.266479583466364 
1945	 0.266902360537263 
1946	 0.267370130296178 
1947	 0.267822844709198 
1948	 0.268274233563851 
1949	 0.268748553645533 
1950	 0.269209169862469 
1951	 0.269662280103478 
1952	 0.270129072200238 
1953	 0.270600631328589 
1954	 0.271059522621135 
1955	 0.271555967349527 
1956	 0.272053509266485 
1957	 0.272554866169049 
1958	 0.273065878961793 
1959	 0.273543808045098 
1960	 0.274025299435168 
1961	 0.27449652852443 
1962	 0.274946309247835 
1963	 0.275416261463455 
1964	 0.27590050724054 
1965	 0.276355488094103 
1966	 0.27680923089444 
1967	 0.277265444152513 
1968	 0.277673773283645 
1969	 0.278082176989603 
1970	 0.278478872644417 
1971	 0.278862380061116 
1972	 0.279255376400116 
1973	 0.279618643884968 
1974	 0.279983800376817 
1975	 0.280363309409162 
1976	 0.280705699716433 
1977	 0.281013506533157 
1978	 0.2813399235106 
1979	 0.281663423592545 
1980	 0.281966448817992 
1981	 0.282287483738894 
1982	 0.282575988168733 
1983	 0.282850801713262 
1984	 0.283108630439686 
1985	 0.283334505470829 
1986	 0.283570721595877 
1987	 0.283784472148615 
1988	 0.28396442760554 
1989	 0.284162457735499 
1990	 0.284356803868222 
1991	 0.284550047213109 
1992	 0.284755567943782 
1993	 0.284950198474829 
1994	 0.285110790336277 
1995	 0.285262693277475 
1996	 0.285371462282903 
1997	 0.285468495281027 
1998	 0.285581717582552 
1999	 0.285704616786135 
2000	 0.28579073864222 
2001	 0.285888499219658 
2002	 0.285939434649179 
2003	 0.285938486590965 
2004	 0.285935820448348 
2005	 0.285916713177305 
2006	 0.285879510791809 
2007	 0.285819184547217 
2008	 0.285758784833726 
2009	 0.285673596507289 
2010	 0.285572257150807 
2011	 0.2854470864499 
2012	 0.285297940603917 
2013	 0.285134563346314 
2014	 0.284957986977254 
2015	 0.284744072024958 
2016	 0.284511820569831 
2017	 0.284250370430692 
2018	 0.283937983927178 
2019	 0.283626156014697 
2020	 0.283310410392917 
2021	 0.282950114436927 
2022	 0.282582797901631 
2023	 0.282222250217895 
2024	 0.281810293396814 
2025	 0.281415462816066 
2026	 0.281038229172189 
2027	 0.280640250888689 
2028	 0.280299269350993 
2029	 0.280011450199927 
2030	 0.279707038990576 
2031	 0.279407831035859 
2032	 0.279143241812004 
2033	 0.278883567534838 
2034	 0.278656662122745 
2035	 0.278471343260553 
2036	 0.278296779878433 
2037	 0.278154876160101 
2038	 0.278022962768793 
2039	 0.277901755237803 
2040	 0.277806669442562 
2041	 0.277720812241135 
2042	 0.277644847070963 
2043	 0.277571180855507 
2044	 0.277522878372821 
2045	 0.277456953785182 
2046	 0.277392637449858 
2047	 0.277312387960353 
2048	 0.277215634122918 
2049	 0.277126092663708 
2050	 0.277026344603683 
2051	 0.276936448526319 
2052	 0.276830739376785 
2053	 0.276742097728446 
2054	 0.27664055934697 
2055	 0.276523203492905 
2056	 0.276412968349516 
2057	 0.276313612777894 
2058	 0.276196679113382 
2059	 0.276058205260157 
2060	 0.275940420836065 
2061	 0.275819727810542 
2062	 0.275711491229598 
2063	 0.275634472273518 
2064	 0.275536668249882 
2065	 0.275441091327459 
2066	 0.275326375715764 
2067	 0.275198273928987 
2068	 0.275067334959463 
2069	 0.274949637351792 
2070	 0.274834098538877 
2071	 0.274717611689421 
2072	 0.274608097459724 
2073	 0.27449979993353 
2074	 0.27439157299194 
2075	 0.274282586826648 
2076	 0.274178718253796 
2077	 0.274072920021511 
2078	 0.273959102858027 
2079	 0.273850709323046 
2080	 0.273751853278812 
2081	 0.273648399953078 
2082	 0.273553418178544 
2083	 0.273445284871917 
2084	 0.273314203893151 
2085	 0.273175867999533 
2086	 0.273026625402314 
2087	 0.272845979122035 
2088	 0.272687136527954 
2089	 0.272530528265228 
2090	 0.272374868797443 
2091	 0.272225324236414 
2092	 0.272074031769505 
2093	 0.271937279784703 
2094	 0.271774506226703 
2095	 0.271597872812559 
2096	 0.271414707362089 
2097	 0.271206038253611 
2098	 0.271007894113606 
2099	 0.270828643548992 
2100	 0.270629328757518 
2101	 0.270400295441656 
2102	 0.270156122701544 
2103	 0.269906125358068 
2104	 0.26960780104091 
2105	 0.269353347411689 
2106	 0.269125608201561 
2107	 0.268876076883213 
2108	 0.268629240428806 
2109	 0.268380859485962 
2110	 0.268124509654313 
2111	 0.267865897631651 
2112	 0.267607098035368 
2113	 0.267347250318513 
2114	 0.267067775214234 
2115	 0.266807905457109 
2116	 0.266561587421283 
2117	 0.266317551113696 
2118	 0.266078429854243 
2119	 0.265852344942238 
2120	 0.26562756960614 
2121	 0.265385664407435 
2122	 0.265194288552601 
2123	 0.265031579253524 
2124	 0.264871907289767 
2125	 0.264744216652296 
2126	 0.264615074443563 
2127	 0.264482986365223 
2128	 0.264370278383229 
2129	 0.264275223470257 
2130	 0.264190342930198 
2131	 0.264128662346708 
2132	 0.264056102211392 
2133	 0.263978850247084 
2134	 0.26392150880241 
2135	 0.263862100649022 
2136	 0.263810246260625 
2137	 0.263768174350043 
2138	 0.263749252094338 
2139	 0.263712682928855 
2140	 0.26367804995305 
2141	 0.26363205290043 
2142	 0.263564774992164 
2143	 0.263528307114271 
2144	 0.263491742683503 
2145	 0.263472806408634 
2146	 0.263491222794916 
2147	 0.263490382554394 
2148	 0.263477673435225 
2149	 0.26348165841471 
2150	 0.26349123102328 
2151	 0.263503427279749 
2152	 0.263526995551023 
2153	 0.263560641647739 
2154	 0.26357924656538 
2155	 0.263581935686709 
2156	 0.263550662649604 
2157	 0.263491817787879 
2158	 0.263433742365001 
2159	 0.263359295952158 
2160	 0.263252416197949 
2161	 0.263136807457169 
2162	 0.262994579490955 
2163	 0.262802281007943 
2164	 0.262624369936325 
2165	 0.262442838867816 
2166	 0.262251226152791 
2167	 0.262046052911848 
2168	 0.261839244491847 
2169	 0.261641720222556 
2170	 0.261413249821604 
2171	 0.261149467764973 
2172	 0.260903518668297 
2173	 0.260649105300257 
2174	 0.260393126743012 
2175	 0.260146497622619 
2176	 0.25989067743477 
2177	 0.259596323722775 
2178	 0.259262413590651 
2179	 0.258947129617406 
2180	 0.258617246258991 
2181	 0.258286639843055 
2182	 0.257978902451728 
2183	 0.257610531404893 
2184	 0.257241398334332 
2185	 0.256786568651624 
2186	 0.256267210596964 
2187	 0.255725139684945 
2188	 0.255121582710929 
2189	 0.254490671252632 
2190	 0.253849385899842 
2191	 0.253133920342372 
2192	 0.252390145042281 
2193	 0.25154857530622 
2194	 0.25062094747824 
2195	 0.249646259208182 
2196	 0.248604593714568 
2197	 0.24745940363014 
2198	 0.246342360685399 
2199	 0.245118714766724 
2200	 0.243822014340477 
2201	 0.242486006689755 
2202	 0.240992692324593 
2203	 0.239362809347309 
2204	 0.237704627401034 
2205	 0.235877761282279 
2206	 0.234148066944821 
2207	 0.23239038817711 
2208	 0.230668214819098 
2209	 0.228964490773139 
2210	 0.227301409151585 
2211	 0.22558664163332 
2212	 0.22406172314211 
2213	 0.222556629925101 
2214	 0.221279183119197 
2215	 0.220194744280816 
2216	 0.219226790731963 
2217	 0.218475506620496 
2218	 0.21777554843619 
2219	 0.217212300648398 
2220	 0.216701436482321 
2221	 0.216297859849952 
2222	 0.215923521287972 
2223	 0.215609758145899 
2224	 0.215279416844567 
2225	 0.214921742137911 
2226	 0.214514590767091 
2227	 0.213974049842928 
2228	 0.213365870590363 
2229	 0.212625357822387 
2230	 0.211736536289766 
2231	 0.210806821395539 
2232	 0.20979191413031 
2233	 0.208684338476264 
2234	 0.207522369886079 
2235	 0.206210207437001 
2236	 0.204745071380213 
2237	 0.203258323701388 
2238	 0.201632823140156 
2239	 0.200009729611222 
2240	 0.198399517441954 
2241	 0.196645801609545 
2242	 0.194874930532065 
2243	 0.192907768615958 
2244	 0.190757049456599 
2245	 0.18855145666353 
2246	 0.18615251260013 
2247	 0.183750244309882 
2248	 0.181324980094262 
2249	 0.178792526088137 
2250	 0.176179071173582 
2251	 0.173536772404469 
2252	 0.170639600032623 
2253	 0.16780761460183 
2254	 0.164922760861497 
2255	 0.16198086451478 
2256	 0.15929311978042 
2257	 0.156587198530031 
2258	 0.15400072961686 
2259	 0.15151868099816 
2260	 0.149107906471227 
2261	 0.146727214186091 
2262	 0.144570263088837 
2263	 0.142488627762187 
2264	 0.140682557952417 
2265	 0.139106122438526 
2266	 0.137671111409415 
2267	 0.136487587342322 
2268	 0.135382253735358 
2269	 0.134431017401417 
2270	 0.133592915066409 
2271	 0.132884849084773 
2272	 0.132297018483108 
2273	 0.131902121295044 
2274	 0.131505604333572 
2275	 0.131255718948063 
2276	 0.130954615451258 
2277	 0.130671104396831 
2278	 0.130389235684351 
2279	 0.130123064140604 
2280	 0.129838378921323 
2281	 0.129570239519866 
2282	 0.129258497310746 
2283	 0.128909896064757 
2284	 0.128564433823959 
2285	 0.12819475287466 
2286	 0.127775854398136 
2287	 0.127290501505812 
2288	 0.126731569219994 
2289	 0.126167450637856 
2290	 0.125560037696583 
2291	 0.124947989274772 
2292	 0.12432726389869 
2293	 0.123636017355164 
2294	 0.122980098926839 
2295	 0.122415126582333 
2296	 0.121913076825366 
2297	 0.121528142445287 
2298	 0.121237840362091 
2299	 0.121080680836075 
2300	 0.12100954976778 
2301	 0.121136777610787 
2302	 0.121396259360676 
2303	 0.121873446261643 
2304	 0.122590491333561 
2305	 0.123373762136222 
2306	 0.124345305278424 
2307	 0.125408478720426 
2308	 0.126558175204198 
2309	 0.127864921827862 
2310	 0.129412112790144 
2311	 0.130896245532846 
2312	 0.132539388563576 
2313	 0.134045744806953 
2314	 0.135536489271004 
2315	 0.13694386415389 
2316	 0.138307798917764 
2317	 0.139548467988715 
2318	 0.140762346078221 
2319	 0.141745334617674 
2320	 0.142595309423475 
2321	 0.143243348164825 
2322	 0.143654928312641 
2323	 0.14394386563719 
2324	 0.144053086013509 
2325	 0.144014010978895 
2326	 0.143792898066272 
2327	 0.143457513419356 
2328	 0.142952286516522 
2329	 0.142331964597663 
2330	 0.141601217895556 
2331	 0.140690852981274 
2332	 0.139639172754614 
2333	 0.138476137768209 
2334	 0.137168181158465 
2335	 0.135818828643455 
2336	 0.134357379107059 
2337	 0.132804809763458 
2338	 0.131289931818403 
2339	 0.129662264110536 
2340	 0.12809145411531 
2341	 0.126584340011947 
2342	 0.124999325567965 
2343	 0.123611378178721 
2344	 0.122359261628142 
2345	 0.121198080738854 
2346	 0.120339182433924 
2347	 0.11969152437853 
2348	 0.119181986742717 
2349	 0.118939831229849 
2350	 0.118798053696146 
2351	 0.118748890786924 
2352	 0.118913942034291 
2353	 0.119201714331417 
2354	 0.1195513474841 
2355	 0.11998074479026 
2356	 0.120386076397597 
2357	 0.120792604089888 
2358	 0.121313685467762 
2359	 0.121852289564314 
2360	 0.122370267458191 
2361	 0.122833816184766 
2362	 0.123241049193219 
2363	 0.123618928530323 
2364	 0.123975219167724 
2365	 0.124317443049462 
2366	 0.124614761457378 
2367	 0.124911614428226 
2368	 0.125143150415889 
2369	 0.125346747887357 
2370	 0.125609693156805 
2371	 0.125795677614852 
2372	 0.125944494231389 
2373	 0.1260829968392 
2374	 0.126148036174733 
2375	 0.12615738055444 
2376	 0.126186974545452 
2377	 0.126223130626681 
2378	 0.126178754225137 
2379	 0.126150476549657 
2380	 0.126143847614939 
2381	 0.126103717966394 
2382	 0.126112633982202 
2383	 0.126188025582565 
2384	 0.126213504116755 
2385	 0.126249568573013 
2386	 0.126263685458027 
2387	 0.126254607962748 
2388	 0.126213155704081 
2389	 0.126136525104023 
2390	 0.126074242017816 
2391	 0.125997296305548 
2392	 0.125920813340329 
2393	 0.12585939194612 
2394	 0.125762197557085 
2395	 0.125602295313742 
2396	 0.125489269376268 
2397	 0.125379200297095 
2398	 0.125298444946438 
2399	 0.125244958773341 
2400	 0.125300306861449 
2401	 0.1254315192501 
2402	 0.125563016917784 
2403	 0.125636569960898 
2404	 0.125698122041281 
2405	 0.125848843671627 
2406	 0.126054461851445 
2407	 0.126329911598411 
2408	 0.126625518455677 
2409	 0.126849939873057 
2410	 0.127028502838135 
2411	 0.127135455140833 
2412	 0.127204936781881 
2413	 0.127349587106225 
2414	 0.12757978328072 
2415	 0.127807107199304 
2416	 0.127975802270342 
2417	 0.128062373433605 
2418	 0.128103931847334 
2419	 0.128197083099118 
2420	 0.128297177215179 
2421	 0.128421387429566 
2422	 0.128635786918215 
2423	 0.128735321944702 
2424	 0.12882342415657 
2425	 0.12907863921842 
2426	 0.129298023669767 
2427	 0.129468909771726 
2428	 0.12968269471734 
2429	 0.129939316909249 
2430	 0.130200341017216 
2431	 0.13054929893304 
2432	 0.131043531173804 
2433	 0.131396872226146 
2434	 0.131531781342683 
2435	 0.131733096380501 
2436	 0.131921464380061 
2437	 0.132020768916877 
2438	 0.132198126096549 
2439	 0.132404233977935 
2440	 0.132639809172777 
2441	 0.132859024225509 
2442	 0.133084741108143 
2443	 0.133359003743498 
2444	 0.133520659288892 
2445	 0.133684433103174 
2446	 0.13395288093295 
2447	 0.134260128321106 
2448	 0.134649531278648 
2449	 0.134959467957972 
2450	 0.135183227633784 
2451	 0.135438428083263 
2452	 0.135505142755146 
2453	 0.135693068535697 
2454	 0.136075250222158 
2455	 0.136248446219737 
2456	 0.136565553000205 
2457	 0.136910544016909 
2458	 0.137006267431973 
2459	 0.137141828348675 
2460	 0.137269660712561 
2461	 0.137409644215476 
2462	 0.137594890050413 
2463	 0.137906631330123 
2464	 0.138159205088872 
2465	 0.138154756431412 
2466	 0.138345281428156 
2467	 0.138615219252253 
2468	 0.138742912618452 
2469	 0.138965990463028 
2470	 0.139249913970725 
2471	 0.139297208708562 
2472	 0.139275463370411 
2473	 0.139518901550909 
2474	 0.139720046058618 
2475	 0.139923534323186 
2476	 0.140359028751899 
2477	 0.140679593284879 
2478	 0.14086324070329 
2479	 0.141170346072069 
2480	 0.141510352414637 
2481	 0.141766495248132 
2482	 0.142011018680525 
2483	 0.142166182853605 
2484	 0.142276974972649 
2485	 0.142517719374827 
2486	 0.142897127792844 
2487	 0.143279437389222 
2488	 0.143646541435282 
2489	 0.144199482228662 
2490	 0.144601845531869 
2491	 0.144848980382275 
2492	 0.145336077527425 
2493	 0.145505084286737 
2494	 0.14563356848142 
2495	 0.145949934385512 
2496	 0.146147965790024 
2497	 0.146699385990578 
2498	 0.147171873620489 
2499	 0.147672486687902 
2500	 0.148302795920096 
