Wavelength	spectrum00015.asd
350	 4.98754261619383E-02 
351	 4.68965826562295E-02 
352	 0.044496352257801 
353	 4.40028656672662E-02 
354	 4.20675806155263E-02 
355	 4.23547205532457E-02 
356	 0.042937332527237 
357	 0.04172051186743 
358	 3.96423254945777E-02 
359	 3.80295992027772E-02 
360	 3.73258861770043E-02 
361	 3.73316642356842E-02 
362	 3.74338773104519E-02 
363	 3.63261586731083E-02 
364	 3.41809443873609E-02 
365	 3.30538643082653E-02 
366	 3.34330761542523E-02 
367	 3.39584210334492E-02 
368	 3.36711913116726E-02 
369	 3.46919493492431E-02 
370	 3.45128256183139E-02 
371	 3.31689412425593E-02 
372	 3.22143590213275E-02 
373	 3.20735002103965E-02 
374	 3.28433731393165E-02 
375	 3.37932330690703E-02 
376	 0.033161039591434 
377	 3.24768822701141E-02 
378	 3.21977546002623E-02 
379	 3.22350980583369E-02 
380	 0.031652155549454 
381	 3.15492687351744E-02 
382	 3.13066849336451E-02 
383	 2.97015706629012E-02 
384	 3.04377654682387E-02 
385	 3.12307947919601E-02 
386	 3.06970382353728E-02 
387	 2.98423876893603E-02 
388	 2.89597748343447E-02 
389	 2.86216851041108E-02 
390	 2.89933127580432E-02 
391	 2.87430432398175E-02 
392	 2.85927222738201E-02 
393	 2.84687949663243E-02 
394	 2.78423709905792E-02 
395	 2.74030975796895E-02 
396	 2.76402761958957E-02 
397	 0.028275025617525 
398	 2.78629072601884E-02 
399	 2.72830860274935E-02 
400	 2.66852409056058E-02 
401	 2.60617848416763E-02 
402	 2.55247209520613E-02 
403	 0.025682283689678 
404	 2.60253924397034E-02 
405	 2.53879105638065E-02 
406	 2.55773038592542E-02 
407	 2.55575003487155E-02 
408	 2.48983656730602E-02 
409	 2.51835150745227E-02 
410	 2.50839417140734E-02 
411	 2.47237367324324E-02 
412	 2.45834659061165E-02 
413	 2.44109154793618E-02 
414	 0.024138435092704 
415	 2.40336301892587E-02 
416	 0.024570885888256 
417	 2.40186538722917E-02 
418	 2.37129234723203E-02 
419	 2.43168150108318E-02 
420	 2.35978929279631E-02 
421	 2.31860182081045E-02 
422	 2.32672250081033E-02 
423	 2.34207118154928E-02 
424	 2.35225274516384E-02 
425	 2.34413830805296E-02 
426	 2.32274649530257E-02 
427	 0.023120542793337 
428	 2.29927766990137E-02 
429	 2.29947892899764E-02 
430	 2.31459340245613E-02 
431	 2.28844143440648E-02 
432	 2.27116738487836E-02 
433	 0.022717748228107 
434	 2.27468969201879E-02 
435	 2.27776879148941E-02 
436	 2.27171574685365E-02 
437	 2.25602839020722E-02 
438	 2.24320986099534E-02 
439	 2.24508231377211E-02 
440	 2.25449067321749E-02 
441	 2.25949620523942E-02 
442	 2.25670144386693E-02 
443	 2.25310944066014E-02 
444	 2.25383856314182E-02 
445	 2.26094210916406E-02 
446	 2.26072836020214E-02 
447	 2.25669328410632E-02 
448	 2.25277286297645E-02 
449	 2.24607480016783E-02 
450	 2.24804999937972E-02 
451	 2.24905695036177E-02 
452	 2.23785417336476E-02 
453	 2.24928980355333E-02 
454	 2.24854771575718E-02 
455	 0.022341638626591 
456	 2.24574399896417E-02 
457	 2.25442221195057E-02 
458	 2.24529699191387E-02 
459	 2.22158440796893E-02 
460	 2.22903927261415E-02 
461	 2.24374233770216E-02 
462	 2.24851985033889E-02 
463	 0.022336182704198 
464	 2.21579198183696E-02 
465	 2.22002261500244E-02 
466	 2.23954216865242E-02 
467	 2.21776404654072E-02 
468	 2.20711585314557E-02 
469	 2.21189702656107E-02 
470	 0.022226612862743 
471	 2.23918480098299E-02 
472	 2.23802611167249E-02 
473	 2.22289934888056E-02 
474	 2.21853511066802E-02 
475	 2.21324666856694E-02 
476	 2.20859325756152E-02 
477	 2.20759920873019E-02 
478	 2.21422963241453E-02 
479	 2.20867542909965E-02 
480	 2.20152013032805E-02 
481	 2.20941475452787E-02 
482	 2.20408098584331E-02 
483	 2.19387735474814E-02 
484	 2.18948222484471E-02 
485	 2.20052139207375E-02 
486	 2.20801113101066E-02 
487	 0.022044032673844 
488	 2.19299187010852E-02 
489	 0.022009335933895 
490	 2.20117871074031E-02 
491	 2.19551129855426E-02 
492	 2.20035446946868E-02 
493	 2.19319969456167E-02 
494	 0.021916667265399 
495	 2.20188895175183E-02 
496	 2.20356275813077E-02 
497	 2.20304197294521E-02 
498	 2.19935863291734E-02 
499	 0.021922775150756 
500	 2.19337970787355E-02 
501	 2.19041035627605E-02 
502	 2.18171425240276E-02 
503	 2.17601509771364E-02 
504	 2.18070161413549E-02 
505	 2.18750358302268E-02 
506	 2.18989543347763E-02 
507	 2.19431094805834E-02 
508	 2.18679732503555E-02 
509	 2.17473317312593E-02 
510	 2.17319283114575E-02 
511	 2.17635522832066E-02 
512	 2.18083323982495E-02 
513	 2.18467373896656E-02 
514	 2.18774890318314E-02 
515	 2.18484987544109E-02 
516	 2.18184852410262E-02 
517	 2.18352972846998E-02 
518	 2.17986433970637E-02 
519	 2.17784738764031E-02 
520	 2.17885082177112E-02 
521	 2.18015283197644E-02 
522	 2.18282256774429E-02 
523	 2.18289021130668E-02 
524	 2.17898639182702E-02 
525	 2.17558280974674E-02 
526	 0.021748456879413 
527	 2.17429190185381E-02 
528	 2.17098466391243E-02 
529	 2.17054804852169E-02 
530	 2.17161551578959E-02 
531	 2.17351036888668E-02 
532	 2.17667106722238E-02 
533	 2.17437693971109E-02 
534	 2.17166795326074E-02 
535	 2.17261300158848E-02 
536	 2.17068828405448E-02 
537	 2.16709695696116E-02 
538	 2.16573090871159E-02 
539	 2.17043656161715E-02 
540	 0.021697753351469 
541	 2.17049678826471E-02 
542	 2.17468407772319E-02 
543	 2.17338744891844E-02 
544	 2.17274453585587E-02 
545	 0.021723921743101 
546	 2.17176697266731E-02 
547	 2.17892218982294E-02 
548	 2.18326646638185E-02 
549	 2.18323272413561E-02 
550	 2.18575434049739E-02 
551	 2.18729539107524E-02 
552	 2.19000216255116E-02 
553	 2.19556595405545E-02 
554	 2.20244064446084E-02 
555	 2.20829330581168E-02 
556	 2.21410430055374E-02 
557	 2.22200585132989E-02 
558	 2.22861882141218E-02 
559	 2.23846262955433E-02 
560	 2.25144458176937E-02 
561	 2.26028297027992E-02 
562	 2.26605148636552E-02 
563	 2.27463111976018E-02 
564	 2.28954240202352E-02 
565	 2.30013069108949E-02 
566	 2.30972878430285E-02 
567	 0.023198962375931 
568	 2.33097744595216E-02 
569	 2.34832247643385E-02 
570	 2.36409313538824E-02 
571	 2.37433715709362E-02 
572	 2.38689027910309E-02 
573	 0.024067136515635 
574	 2.42921240505314E-02 
575	 2.44847408067645E-02 
576	 2.47829200615659E-02 
577	 2.50384307789975E-02 
578	 2.52435420283851E-02 
579	 2.55667330355569E-02 
580	 2.59053447210193E-02 
581	 2.62734417395486E-02 
582	 2.66973892384861E-02 
583	 2.71601812212949E-02 
584	 2.76649872822644E-02 
585	 2.82129108737782E-02 
586	 2.88039207932051E-02 
587	 2.94251185971792E-02 
588	 3.01086023443746E-02 
589	 3.08636579647971E-02 
590	 3.16523873875555E-02 
591	 3.25258594560355E-02 
592	 3.34522755830348E-02 
593	 3.43992948195493E-02 
594	 3.54442093704867E-02 
595	 3.65616167077032E-02 
596	 3.77517774446508E-02 
597	 3.90402204510871E-02 
598	 4.04899999672333E-02 
599	 0.042128317949682 
600	 4.39535957989223E-02 
601	 4.58969287288972E-02 
602	 4.80614795403073E-02 
603	 5.04692135941873E-02 
604	 5.31000355425435E-02 
605	 5.59428618850621E-02 
606	 5.90263234131988E-02 
607	 6.23835877467371E-02 
608	 6.60455926804106E-02 
609	 6.98913473855945E-02 
610	 7.40010564314097E-02 
611	 7.84581606158448E-02 
612	 8.31466082415664E-02 
613	 8.80596840006636E-02 
614	 9.32164775633056E-02 
615	 9.86556142966639E-02 
616	 0.104267187402904 
617	 0.11007749822806 
618	 0.116083040308358 
619	 0.122204916378327 
620	 0.128457937328132 
621	 0.134808853566273 
622	 0.141213716715831 
623	 0.147653792069965 
624	 0.154103330768123 
625	 0.160536606591395 
626	 0.166938346586548 
627	 0.173259760281933 
628	 0.179492302743946 
629	 0.185616659453296 
630	 0.191553606266203 
631	 0.197313622562443 
632	 0.202887488975856 
633	 0.208246814723182 
634	 0.213328251840066 
635	 0.218217499801511 
636	 0.222961217782758 
637	 0.227515926318279 
638	 0.231720574552953 
639	 0.23564304968395 
640	 0.239377699407511 
641	 0.242893163472119 
642	 0.246208536070331 
643	 0.249322185453564 
644	 0.252226461421217 
645	 0.254935967882905 
646	 0.257489055582706 
647	 0.259901511690626 
648	 0.262155288145871 
649	 0.26417336912608 
650	 0.266015745362405 
651	 0.267775236799603 
652	 0.26948482389411 
653	 0.271065063310846 
654	 0.272506868658072 
655	 0.273860542778612 
656	 0.27511334235558 
657	 0.276303419832594 
658	 0.277438497462263 
659	 0.278447504166998 
660	 0.279395611965797 
661	 0.280301402449509 
662	 0.281171978859441 
663	 0.282057941807779 
664	 0.282862721283379 
665	 0.283542967555364 
666	 0.284125189334747 
667	 0.284777499890447 
668	 0.285417218551281 
669	 0.285973430487917 
670	 0.286557177598174 
671	 0.287047722077602 
672	 0.287511549280899 
673	 0.288064839898634 
674	 0.288536428144268 
675	 0.28891123362985 
676	 0.289239344409846 
677	 0.289627675776738 
678	 0.289974911217798 
679	 0.290354046006078 
680	 0.290789125569558 
681	 0.291026352223396 
682	 0.291314049381359 
683	 0.291660935347716 
684	 0.291945827576018 
685	 0.292172629164771 
686	 0.292406260864903 
687	 0.292667286712938 
688	 0.29290497918008 
689	 0.293132551335423 
690	 0.293343635225917 
691	 0.293542066160997 
692	 0.293781731700607 
693	 0.293995303823376 
694	 0.294193367276833 
695	 0.294424085159868 
696	 0.294585945963977 
697	 0.29472834533282 
698	 0.294886968228865 
699	 0.295045466073459 
700	 0.295227778071889 
701	 0.29538462350279 
702	 0.295495312307761 
703	 0.295731848634612 
704	 0.29592508167452 
705	 0.296057070374442 
706	 0.296213688212161 
707	 0.296338501236208 
708	 0.296460203415851 
709	 0.296597244160722 
710	 0.296734004597871 
711	 0.296867116398643 
712	 0.297009486808516 
713	 0.297172850798013 
714	 0.297351975388032 
715	 0.297471460034963 
716	 0.297558248760232 
717	 0.297703488900684 
718	 0.297820676242359 
719	 0.298006740207164 
720	 0.298242777691756 
721	 0.298268796363398 
722	 0.298397892601341 
723	 0.298620487508245 
724	 0.298819002730631 
725	 0.29886918627607 
726	 0.298953727806241 
727	 0.29911761686337 
728	 0.299295089880319 
729	 0.299439282771224 
730	 0.299555954392596 
731	 0.299674308463241 
732	 0.299845926187142 
733	 0.30003540577468 
734	 0.300216987424173 
735	 0.300378713434437 
736	 0.300549516309335 
737	 0.300708435137917 
738	 0.30085363927477 
739	 0.30100470857752 
740	 0.301263197190549 
741	 0.301440457162 
742	 0.301496229916292 
743	 0.301659009741182 
744	 0.301879335440321 
745	 0.302144324418329 
746	 0.30241080215266 
747	 0.302511434077066 
748	 0.302683574545611 
749	 0.302952688808706 
750	 0.30320598306534 
751	 0.303332161594237 
752	 0.303509696528519 
753	 0.303779003496376 
754	 0.303965987190168 
755	 0.304108840047478 
756	 0.304319666470937 
757	 0.304635117124925 
758	 0.304827533649159 
759	 0.304987615102632 
760	 0.305196692909061 
761	 0.305501216477718 
762	 0.305758705927632 
763	 0.305956070449328 
764	 0.306149155264475 
765	 0.30644638245988 
766	 0.306750524416547 
767	 0.306996136431169 
768	 0.307199068293944 
769	 0.307551384683873 
770	 0.307861825461997 
771	 0.308134427653662 
772	 0.308426791463516 
773	 0.308681719434069 
774	 0.30893640206464 
775	 0.309218004541975 
776	 0.30953427275597 
777	 0.309811436395096 
778	 0.31010160864459 
779	 0.31041417733218 
780	 0.310652986590294 
781	 0.310931621012042 
782	 0.311255846297236 
783	 0.311587359736943 
784	 0.311850129367401 
785	 0.312150178417139 
786	 0.312496417103867 
787	 0.312832617543694 
788	 0.313090805589905 
789	 0.313387985207184 
790	 0.313734121555825 
791	 0.313998663427957 
792	 0.314283319550709 
793	 0.314576006437572 
794	 0.314870145760958 
795	 0.315242745475655 
796	 0.315507339272396 
797	 0.315732706836907 
798	 0.316044954324805 
799	 0.316324959659144 
800	 0.31668328339176 
801	 0.31704456022028 
802	 0.317219027034059 
803	 0.317446381740714 
804	 0.317722023461588 
805	 0.318006740269706 
806	 0.318262882666542 
807	 0.318490678406268 
808	 0.318712337389535 
809	 0.318954698766384 
810	 0.319240177608877 
811	 0.319522460217453 
812	 0.319774811801886 
813	 0.319999265616658 
814	 0.320290533660553 
815	 0.320564141251619 
816	 0.32080205582068 
817	 0.321049449763336 
818	 0.32124530657951 
819	 0.321438653870515 
820	 0.3216452556526 
821	 0.321800395004726 
822	 0.321940202355004 
823	 0.322156850800032 
824	 0.322473444299692 
825	 0.322662809705548 
826	 0.322859122303494 
827	 0.323072055498295 
828	 0.323256325612524 
829	 0.323411199770397 
830	 0.32351638123994 
831	 0.323628576106363 
832	 0.323852307634618 
833	 0.324059335073231 
834	 0.324229478743223 
835	 0.324362115589805 
836	 0.324461129987808 
837	 0.324599184533404 
838	 0.324732695009266 
839	 0.324830717293011 
840	 0.32499180585579 
841	 0.325113975617364 
842	 0.325196530552782 
843	 0.325279764016723 
844	 0.325375581497688 
845	 0.325482381758216 
846	 0.325580548277883 
847	 0.325640744432513 
848	 0.32566115693208 
849	 0.325666488334048 
850	 0.325687882683585 
851	 0.32575601204589 
852	 0.325838885089208 
853	 0.325957911871808 
854	 0.326093695679391 
855	 0.326121421004488 
856	 0.326105335405576 
857	 0.326117187546103 
858	 0.326194109602612 
859	 0.326241597675635 
860	 0.326285281828253 
861	 0.32633404150421 
862	 0.326384844326263 
863	 0.326425026691523 
864	 0.326416391426862 
865	 0.326377256032755 
866	 0.326372056261172 
867	 0.32639599321071 
868	 0.32646484604711 
869	 0.326545782956108 
870	 0.326544352652891 
871	 0.326478773266174 
872	 0.326480956149283 
873	 0.326587928998684 
874	 0.326575222612563 
875	 0.326612277283239 
876	 0.32662711319979 
877	 0.326546116167739 
878	 0.326555700967126 
879	 0.326567019867149 
880	 0.326566972511608 
881	 0.326578863463167 
882	 0.32661361476226 
883	 0.326577285178139 
884	 0.326512698420336 
885	 0.326553715513901 
886	 0.326633000493803 
887	 0.326729748958992 
888	 0.326773978369323 
889	 0.326658463736813 
890	 0.326623634579997 
891	 0.326635759572022 
892	 0.326651526949598 
893	 0.326703228477473 
894	 0.326661528651601 
895	 0.326569469792082 
896	 0.32650520118184 
897	 0.326511231908278 
898	 0.326522659976616 
899	 0.326515389542019 
900	 0.326488724736184 
901	 0.326463228868938 
902	 0.326475859099707 
903	 0.326486014630833 
904	 0.326443010454996 
905	 0.326465203150958 
906	 0.326484158381245 
907	 0.326482252423177 
908	 0.32648283848364 
909	 0.326465691833872 
910	 0.326422519499995 
911	 0.326372983167951 
912	 0.326359273691196 
913	 0.326373559158583 
914	 0.326396799364293 
915	 0.326431265312908 
916	 0.326506104888325 
917	 0.326500238384465 
918	 0.326485191465006 
919	 0.326527856335532 
920	 0.326609434118645 
921	 0.326586878497215 
922	 0.32658984622558 
923	 0.326716310189271 
924	 0.326795117704797 
925	 0.326901543086761 
926	 0.326953947894167 
927	 0.32690923435115 
928	 0.327011205902588 
929	 0.327079312351837 
930	 0.327107644257861 
931	 0.327169931386201 
932	 0.327336156915866 
933	 0.327445493512862 
934	 0.327527043931846 
935	 0.32767827396439 
936	 0.327723618250834 
937	 0.32783869531424 
938	 0.328010029375598 
939	 0.328102770549817 
940	 0.328207891323973 
941	 0.328305448274396 
942	 0.328406276861732 
943	 0.328543549125965 
944	 0.328656321600275 
945	 0.328709181676912 
946	 0.328754042306223 
947	 0.328910669377971 
948	 0.329098131062423 
949	 0.329146939332651 
950	 0.329085066977874 
951	 0.329182190884596 
952	 0.329371865431494 
953	 0.329563749617987 
954	 0.329672529552845 
955	 0.329648719935328 
956	 0.329681872101486 
957	 0.329736640776526 
958	 0.329776649920007 
959	 0.329849309857997 
960	 0.329877403040427 
961	 0.329930979269934 
962	 0.330041224329826 
963	 0.330098579269599 
964	 0.330053528542771 
965	 0.330084113038102 
966	 0.330278249838738 
967	 0.330395210312369 
968	 0.330370110389864 
969	 0.33031666132214 
970	 0.330350050460714 
971	 0.330436005625213 
972	 0.330457637321579 
973	 0.330462589563924 
974	 0.330538500906307 
975	 0.330730138999303 
976	 0.330830420796383 
977	 0.33087535165374 
978	 0.330929655184639 
979	 0.330862711889414 
980	 0.330914490608151 
981	 0.330984926011091 
982	 0.330957624081243 
983	 0.331066347211022 
984	 0.331113879922752 
985	 0.331135112406306 
986	 0.331211846274291 
987	 0.331285007240021 
988	 0.331454286430974 
989	 0.331531661717928 
990	 0.331393093588276 
991	 0.331455185182809 
992	 0.331660570533754 
993	 0.331870947733846 
994	 0.331952540481999 
995	 0.33190758736416 
996	 0.331951652924997 
997	 0.332071615405183 
998	 0.332163212331446 
999	 0.332142200659052 
1000	 0.332231357194891 
1001	 0.336011579430261 
1002	 0.336074265822872 
1003	 0.336161251578494 
1004	 0.336246703186281 
1005	 0.336402654012638 
1006	 0.336484051267188 
1007	 0.336493430374124 
1008	 0.33657096871476 
1009	 0.336654330582645 
1010	 0.336754661091475 
1011	 0.336928488451447 
1012	 0.337024906540548 
1013	 0.337054395695754 
1014	 0.337154238799093 
1015	 0.337275252417154 
1016	 0.337353376433058 
1017	 0.337483231017412 
1018	 0.337600863732597 
1019	 0.33767455021758 
1020	 0.337772980090981 
1021	 0.337871852574876 
1022	 0.338003557091873 
1023	 0.338084411771747 
1024	 0.338138808654004 
1025	 0.338201318644011 
1026	 0.338248151847867 
1027	 0.33830275690524 
1028	 0.338369795697262 
1029	 0.338413401803188 
1030	 0.33847981458596 
1031	 0.338499759927541 
1032	 0.338518509113433 
1033	 0.338566553796848 
1034	 0.338590757203308 
1035	 0.338626164550782 
1036	 0.338666020225297 
1037	 0.338728402977871 
1038	 0.338755553375337 
1039	 0.338776630037041 
1040	 0.338790200794357 
1041	 0.338765233046837 
1042	 0.33877685958294 
1043	 0.338804203012693 
1044	 0.338815794388522 
1045	 0.33886100197474 
1046	 0.338923997896295 
1047	 0.338949723463141 
1048	 0.338973126865486 
1049	 0.339010613868581 
1050	 0.339064804945442 
1051	 0.33916060839503 
1052	 0.339242319335419 
1053	 0.339326553372695 
1054	 0.33943136374485 
1055	 0.339512733429812 
1056	 0.33957197507946 
1057	 0.339652374638271 
1058	 0.339743178416467 
1059	 0.339788328289014 
1060	 0.339878557230033 
1061	 0.339983439693103 
1062	 0.340087662467712 
1063	 0.340195697935142 
1064	 0.340266886404273 
1065	 0.340348976819636 
1066	 0.340449397134319 
1067	 0.340539424560261 
1068	 0.340630101886952 
1069	 0.340739774922469 
1070	 0.340845625420434 
1071	 0.340942168424283 
1072	 0.341042587883855 
1073	 0.341168709505239 
1074	 0.341279610779318 
1075	 0.341365399197022 
1076	 0.341452151205582 
1077	 0.34157679566092 
1078	 0.341712966672085 
1079	 0.341841767988766 
1080	 0.341986882350562 
1081	 0.342086898157277 
1082	 0.342161024166996 
1083	 0.342289337102718 
1084	 0.342405661293513 
1085	 0.3425205203514 
1086	 0.34264259112428 
1087	 0.342779712778722 
1088	 0.342861378781341 
1089	 0.342958847972138 
1090	 0.34310431287906 
1091	 0.343224998622461 
1092	 0.343337224141539 
1093	 0.343482062405773 
1094	 0.343599938731694 
1095	 0.343689234333354 
1096	 0.343818125593516 
1097	 0.34393114019784 
1098	 0.344006947307043 
1099	 0.344115513496428 
1100	 0.344226456732626 
1101	 0.344330980687526 
1102	 0.344472678391131 
1103	 0.344592600061173 
1104	 0.344703226846757 
1105	 0.344807812654888 
1106	 0.344931079390044 
1107	 0.345025910849798 
1108	 0.3451539616201 
1109	 0.345286186062321 
1110	 0.345381187410875 
1111	 0.345513585425074 
1112	 0.345638377963845 
1113	 0.345753080196009 
1114	 0.345906237432913 
1115	 0.346032340034278 
1116	 0.346130760704108 
1117	 0.346239480331612 
1118	 0.346345904790544 
1119	 0.346435388343089 
1120	 0.346539452256021 
1121	 0.346655678305938 
1122	 0.346770544774337 
1123	 0.346867119211101 
1124	 0.346971937787945 
1125	 0.347086208323054 
1126	 0.347197426055813 
1127	 0.347312633870718 
1128	 0.34742608621727 
1129	 0.347514782028231 
1130	 0.34759483372177 
1131	 0.347676828405243 
1132	 0.347762061926511 
1133	 0.347867797408036 
1134	 0.347948828654462 
1135	 0.348010113044196 
1136	 0.348053121418226 
1137	 0.348097138517727 
1138	 0.348116770292063 
1139	 0.348146719530549 
1140	 0.348185976999782 
1141	 0.348217892979235 
1142	 0.348218367279659 
1143	 0.348223786590638 
1144	 0.348237333898534 
1145	 0.348240444460534 
1146	 0.348254040052751 
1147	 0.348266092362578 
1148	 0.348266273091197 
1149	 0.348269830007678 
1150	 0.348273139516396 
1151	 0.348266454422041 
1152	 0.348251971551205 
1153	 0.348233088969614 
1154	 0.348194717054048 
1155	 0.348137118047772 
1156	 0.348087693429352 
1157	 0.348027193417818 
1158	 0.347973361642972 
1159	 0.347927735002786 
1160	 0.347875297216068 
1161	 0.347811261359061 
1162	 0.347733184926522 
1163	 0.347649605769197 
1164	 0.347571930059802 
1165	 0.347503595359801 
1166	 0.347431603154318 
1167	 0.347362306613627 
1168	 0.347284449715144 
1169	 0.347207160520124 
1170	 0.347127192436231 
1171	 0.347045416074788 
1172	 0.346959069077337 
1173	 0.34687877241773 
1174	 0.346799199548561 
1175	 0.346724541911434 
1176	 0.346645897906388 
1177	 0.34657906072351 
1178	 0.346524801565777 
1179	 0.346459323247045 
1180	 0.346399851893359 
1181	 0.346377555265095 
1182	 0.346346650306249 
1183	 0.346302351437153 
1184	 0.346277520593375 
1185	 0.346255129116553 
1186	 0.346242816756123 
1187	 0.346234441007189 
1188	 0.346251853474756 
1189	 0.34628631893736 
1190	 0.346321941501645 
1191	 0.346369952853827 
1192	 0.346432144758149 
1193	 0.346498045839073 
1194	 0.346579090210803 
1195	 0.346683818262258 
1196	 0.346789803799591 
1197	 0.346899995939834 
1198	 0.347022465611216 
1199	 0.347146042978457 
1200	 0.347276567930656 
1201	 0.347414416589297 
1202	 0.347555496902679 
1203	 0.34773473861596 
1204	 0.347960189384292 
1205	 0.34820191431007 
1206	 0.348465860641339 
1207	 0.348782696087263 
1208	 0.349110839593068 
1209	 0.349516098865734 
1210	 0.349991780626364 
1211	 0.350494966542441 
1212	 0.351063384006775 
1213	 0.351645056806568 
1214	 0.352260508286323 
1215	 0.352902396406268 
1216	 0.353589111105474 
1217	 0.35426242639684 
1218	 0.354958509027288 
1219	 0.355648888699077 
1220	 0.356326101425641 
1221	 0.357058952562976 
1222	 0.357783851578857 
1223	 0.35852677820147 
1224	 0.359246070700407 
1225	 0.359962414245599 
1226	 0.360650436569959 
1227	 0.361324014990853 
1228	 0.361985909921139 
1229	 0.362638944301713 
1230	 0.363266793556106 
1231	 0.363870740995611 
1232	 0.364468985790868 
1233	 0.365052668003319 
1234	 0.365610601842025 
1235	 0.366152914923091 
1236	 0.36668696389645 
1237	 0.367186099106355 
1238	 0.367691766121044 
1239	 0.368193386075678 
1240	 0.3686985936936 
1241	 0.36921523080801 
1242	 0.369695405083853 
1243	 0.370175518563133 
1244	 0.370656528630021 
1245	 0.371115539356351 
1246	 0.371556321838649 
1247	 0.371989561686446 
1248	 0.372408278343814 
1249	 0.372828043921781 
1250	 0.373237901347656 
1251	 0.373641205550058 
1252	 0.374046385515548 
1253	 0.374436894076544 
1254	 0.374821923780091 
1255	 0.375188755667046 
1256	 0.37553288235123 
1257	 0.375886035482613 
1258	 0.376232205617136 
1259	 0.376569872948781 
1260	 0.376925828512788 
1261	 0.377248676046885 
1262	 0.377530010277294 
1263	 0.377826159212172 
1264	 0.378117549933054 
1265	 0.37839614459681 
1266	 0.378677718623999 
1267	 0.378962955595892 
1268	 0.379247000588235 
1269	 0.379510847251355 
1270	 0.379808267275847 
1271	 0.380128572059904 
1272	 0.38044161945298 
1273	 0.380754956512077 
1274	 0.381090614885912 
1275	 0.381437754209767 
1276	 0.381784393269723 
1277	 0.382163704010852 
1278	 0.382514735619363 
1279	 0.382838592182543 
1280	 0.383178101545239 
1281	 0.383506316505122 
1282	 0.383851497978348 
1283	 0.38420733163064 
1284	 0.384570736800335 
1285	 0.384942396270459 
1286	 0.385326958386842 
1287	 0.385701247063119 
1288	 0.386083797617703 
1289	 0.386450346819464 
1290	 0.386807072024958 
1291	 0.387162332879153 
1292	 0.387515078741758 
1293	 0.387854735555299 
1294	 0.388171131336295 
1295	 0.388516944322734 
1296	 0.38886682611903 
1297	 0.389217337014046 
1298	 0.389598032397305 
1299	 0.38994872523442 
1300	 0.390285346397134 
1301	 0.390611373309465 
1302	 0.39092500882758 
1303	 0.391231537424147 
1304	 0.391517189576362 
1305	 0.391811092603851 
1306	 0.392104562627277 
1307	 0.392394728858531 
1308	 0.392678624136306 
1309	 0.3929793002151 
1310	 0.393253947484632 
1311	 0.39351858183701 
1312	 0.393779446246597 
1313	 0.394031459978484 
1314	 0.394275306912649 
1315	 0.394505767856462 
1316	 0.394750997682186 
1317	 0.39499497569055 
1318	 0.395236910929701 
1319	 0.395504861368919 
1320	 0.395727894622534 
1321	 0.395925414959197 
1322	 0.396118534774075 
1323	 0.396289894351492 
1324	 0.396458003608818 
1325	 0.396615511537048 
1326	 0.396775360222006 
1327	 0.396927969403931 
1328	 0.397078329995485 
1329	 0.397240575047372 
1330	 0.397380573555378 
1331	 0.397511628833415 
1332	 0.397626498581023 
1333	 0.39771452729322 
1334	 0.397809729083822 
1335	 0.397892904276056 
1336	 0.397969248638522 
1337	 0.398026496063414 
1338	 0.398078756020072 
1339	 0.398107003237214 
1340	 0.398111437638358 
1341	 0.398112506842798 
1342	 0.398106289054195 
1343	 0.398080153253252 
1344	 0.398042208645491 
1345	 0.397985434733388 
1346	 0.397908170606648 
1347	 0.397822168995686 
1348	 0.397724128783706 
1349	 0.397612837268713 
1350	 0.39748653455613 
1351	 0.397352180756213 
1352	 0.397204573586398 
1353	 0.397048786482755 
1354	 0.396870691982445 
1355	 0.396708444067319 
1356	 0.396540362987624 
1357	 0.396381906537731 
1358	 0.396234769365083 
1359	 0.39609264542939 
1360	 0.39596222823268 
1361	 0.395825965902179 
1362	 0.395685887881048 
1363	 0.39554177038005 
1364	 0.39538641993738 
1365	 0.395216753180993 
1366	 0.395047311181642 
1367	 0.394883334760506 
1368	 0.394688125803058 
1369	 0.394482979596925 
1370	 0.394252806491836 
1371	 0.393996933040408 
1372	 0.39373399710587 
1373	 0.393468121142286 
1374	 0.393159545932859 
1375	 0.392816181179479 
1376	 0.392473610949651 
1377	 0.392090131775837 
1378	 0.391724587268193 
1379	 0.391370590003014 
1380	 0.391001509212292 
1381	 0.390621811147331 
1382	 0.390243296904476 
1383	 0.389851825623633 
1384	 0.389472656480128 
1385	 0.389102856850797 
1386	 0.388730236527304 
1387	 0.388339683804512 
1388	 0.387992014255932 
1389	 0.387639227312904 
1390	 0.38733587592561 
1391	 0.387101185105993 
1392	 0.386855188784937 
1393	 0.386644420895824 
1394	 0.386438059563518 
1395	 0.386188889524146 
1396	 0.385946317745879 
1397	 0.385623055261174 
1398	 0.385278980582127 
1399	 0.384826827577991 
1400	 0.384311499417276 
1401	 0.383708347740805 
1402	 0.383022471622295 
1403	 0.382257895198083 
1404	 0.381396942308043 
1405	 0.380513598187635 
1406	 0.379548699545701 
1407	 0.378570171718065 
1408	 0.377538799364109 
1409	 0.37651734466499 
1410	 0.37546209769684 
1411	 0.37441336708842 
1412	 0.37335300095093 
1413	 0.372323181348149 
1414	 0.371282414638785 
1415	 0.370274944198827 
1416	 0.369289297262022 
1417	 0.368333047150754 
1418	 0.367399422680443 
1419	 0.366485178673126 
1420	 0.365602064860458 
1421	 0.364743433039151 
1422	 0.363901195593368 
1423	 0.363080925344294 
1424	 0.36230477104987 
1425	 0.361509377828502 
1426	 0.360772807840832 
1427	 0.360039132940497 
1428	 0.359321384474611 
1429	 0.358646168029196 
1430	 0.357907089086655 
1431	 0.357171539100239 
1432	 0.356352687105638 
1433	 0.355482069284388 
1434	 0.354574209608305 
1435	 0.353610156885203 
1436	 0.352616688677673 
1437	 0.351556467997266 
1438	 0.350554667399724 
1439	 0.349492853384414 
1440	 0.348552064917024 
1441	 0.347610356389415 
1442	 0.346860136761324 
1443	 0.346140397930661 
1444	 0.345697417393803 
1445	 0.345422431233695 
1446	 0.345385854016888 
1447	 0.345562476378138 
1448	 0.345956512024544 
1449	 0.346637857299442 
1450	 0.347399771364851 
1451	 0.34841028203538 
1452	 0.349431697648367 
1453	 0.350611016131364 
1454	 0.351732257325095 
1455	 0.352924130294163 
1456	 0.354060813698427 
1457	 0.35519157428029 
1458	 0.356266569587878 
1459	 0.357316604713019 
1460	 0.358317079182701 
1461	 0.359260693174428 
1462	 0.360157819235722 
1463	 0.360997964381922 
1464	 0.361821693555984 
1465	 0.362586429841629 
1466	 0.363364311670911 
1467	 0.364083636573812 
1468	 0.364791658223222 
1469	 0.365485811394308 
1470	 0.366117787927873 
1471	 0.366778188144499 
1472	 0.367448468075324 
1473	 0.368077581065639 
1474	 0.368707410365299 
1475	 0.369270356079942 
1476	 0.369807712504021 
1477	 0.370267043457183 
1478	 0.370665770891038 
1479	 0.371012529338105 
1480	 0.371288275600714 
1481	 0.371542632438609 
1482	 0.371741929298214 
1483	 0.371933899938107 
1484	 0.372071425180596 
1485	 0.372246583933457 
1486	 0.372398737027449 
1487	 0.372600223774972 
1488	 0.372803111198508 
1489	 0.373085204887837 
1490	 0.373387940465279 
1491	 0.373790987563146 
1492	 0.374257847645525 
1493	 0.374824792449989 
1494	 0.375505762645763 
1495	 0.37620881688268 
1496	 0.377008110071205 
1497	 0.377810945952374 
1498	 0.378663751693172 
1499	 0.379506809536163 
1500	 0.380396643434598 
1501	 0.381248603045835 
1502	 0.382099508182978 
1503	 0.382906292468564 
1504	 0.383689925433326 
1505	 0.384442315437368 
1506	 0.385172047573579 
1507	 0.38585201374119 
1508	 0.386508391399359 
1509	 0.387105386601648 
1510	 0.387628210446553 
1511	 0.388132397795558 
1512	 0.388598913211311 
1513	 0.389029104494749 
1514	 0.389425442869172 
1515	 0.389793105653013 
1516	 0.390115255753614 
1517	 0.390418348405378 
1518	 0.390698578219453 
1519	 0.390951729710498 
1520	 0.391179651402969 
1521	 0.391375407416183 
1522	 0.391544997656052 
1523	 0.391715292950522 
1524	 0.391873848767496 
1525	 0.392020431165023 
1526	 0.392156629609611 
1527	 0.392282872385747 
1528	 0.392403139877821 
1529	 0.392511716867796 
1530	 0.392613553700119 
1531	 0.392701942727739 
1532	 0.392809235132157 
1533	 0.392903192823579 
1534	 0.393037888043772 
1535	 0.393189340463611 
1536	 0.393374732767691 
1537	 0.39357374541286 
1538	 0.393832465246864 
1539	 0.394132108021911 
1540	 0.394470297137471 
1541	 0.394857156943419 
1542	 0.395273991710456 
1543	 0.395731600075478 
1544	 0.396207748398063 
1545	 0.396716711043047 
1546	 0.397254117567284 
1547	 0.397824200412958 
1548	 0.39840248701072 
1549	 0.399011372808776 
1550	 0.399630113975478 
1551	 0.400265887788779 
1552	 0.400898483875493 
1553	 0.401565401095046 
1554	 0.402191013966637 
1555	 0.402801173078093 
1556	 0.403396763164509 
1557	 0.40397108730667 
1558	 0.404540664933133 
1559	 0.405096147685319 
1560	 0.405647340149323 
1561	 0.4061867060895 
1562	 0.406727714204245 
1563	 0.407260689877011 
1564	 0.407798387589733 
1565	 0.408339011023737 
1566	 0.408875188429312 
1567	 0.409419542463718 
1568	 0.409943191027751 
1569	 0.410457586769302 
1570	 0.410962360199486 
1571	 0.411457671197945 
1572	 0.411934539835142 
1573	 0.412392126234305 
1574	 0.412852269057241 
1575	 0.413305007959483 
1576	 0.413742082826358 
1577	 0.414172096677568 
1578	 0.41459796228955 
1579	 0.415003740602766 
1580	 0.415410823086527 
1581	 0.415814362335911 
1582	 0.416225385443907 
1583	 0.416633484299282 
1584	 0.417043010077227 
1585	 0.417458053078775 
1586	 0.417877842981561 
1587	 0.418304320266031 
1588	 0.418717128599968 
1589	 0.41912775868641 
1590	 0.419540772761683 
1591	 0.419944193344158 
1592	 0.420348348698037 
1593	 0.420759689148932 
1594	 0.421168265905647 
1595	 0.421567616663002 
1596	 0.421968729543339 
1597	 0.422372683334545 
1598	 0.422779250568485 
1599	 0.42319329283766 
1600	 0.423592878239586 
1601	 0.423991731911932 
1602	 0.424381056239074 
1603	 0.424753730312174 
1604	 0.425124187944733 
1605	 0.42548429341399 
1606	 0.425853739861527 
1607	 0.426232460321142 
1608	 0.426593788590501 
1609	 0.426969596701389 
1610	 0.427309890314488 
1611	 0.427614220577295 
1612	 0.427915761263482 
1613	 0.428208142158884 
1614	 0.428476080864478 
1615	 0.428719217781963 
1616	 0.428964317099586 
1617	 0.429184913341366 
1618	 0.429412636157635 
1619	 0.429663300199639 
1620	 0.429878073650923 
1621	 0.430066892115231 
1622	 0.430256567225999 
1623	 0.430433107034866 
1624	 0.430594866433184 
1625	 0.430735680509007 
1626	 0.430895860956366 
1627	 0.431053614519633 
1628	 0.431204489242486 
1629	 0.43136480897625 
1630	 0.431526134747463 
1631	 0.431673923323976 
1632	 0.431828564378075 
1633	 0.43199990640047 
1634	 0.4321664563016 
1635	 0.432321958713091 
1636	 0.432482585646732 
1637	 0.432660837204769 
1638	 0.432817197079622 
1639	 0.432968627996979 
1640	 0.433108498607182 
1641	 0.433233449139691 
1642	 0.433347778665394 
1643	 0.433464814980907 
1644	 0.433546349560496 
1645	 0.43362087752249 
1646	 0.433645787851906 
1647	 0.433619268022775 
1648	 0.43358279065844 
1649	 0.433508225884484 
1650	 0.433422875873868 
1651	 0.433339769746202 
1652	 0.433208486625574 
1653	 0.433051418154426 
1654	 0.432854088552148 
1655	 0.432616581242935 
1656	 0.432340992192766 
1657	 0.43203067503343 
1658	 0.431668905339373 
1659	 0.431263201284435 
1660	 0.430817790570571 
1661	 0.430327539825357 
1662	 0.429794792287681 
1663	 0.429229950894528 
1664	 0.428591248662317 
1665	 0.427897106152594 
1666	 0.427140745715477 
1667	 0.426326044814682 
1668	 0.42544375020741 
1669	 0.424494006050894 
1670	 0.42349386429548 
1671	 0.422425161556 
1672	 0.421294588253972 
1673	 0.420119061978638 
1674	 0.418856372856567 
1675	 0.417512546582496 
1676	 0.416130590463976 
1677	 0.414688409721379 
1678	 0.413182321591575 
1679	 0.411598297107693 
1680	 0.409980414672858 
1681	 0.40830047595449 
1682	 0.406575097348812 
1683	 0.404830589599619 
1684	 0.403026660946738 
1685	 0.401166031505919 
1686	 0.399239475145217 
1687	 0.397225058178866 
1688	 0.395189081510183 
1689	 0.393093461855525 
1690	 0.39096276119146 
1691	 0.388829625754129 
1692	 0.386646640835249 
1693	 0.384426461355008 
1694	 0.382118966964253 
1695	 0.379726356060099 
1696	 0.377298196441861 
1697	 0.374786006118206 
1698	 0.372247371330542 
1699	 0.36966348184899 
1700	 0.367164312363955 
1701	 0.364609088111366 
1702	 0.362195557627483 
1703	 0.359831652376423 
1704	 0.357593599816905 
1705	 0.355432277029815 
1706	 0.353358412320666 
1707	 0.351539959836863 
1708	 0.349785410840479 
1709	 0.348125336638929 
1710	 0.34659691628178 
1711	 0.345062826707454 
1712	 0.343636182049913 
1713	 0.342242093227441 
1714	 0.340888033262927 
1715	 0.339690007099445 
1716	 0.338467862598539 
1717	 0.337305177309572 
1718	 0.336215713318713 
1719	 0.335088968631941 
1720	 0.334053814323182 
1721	 0.333108012321112 
1722	 0.332270051231914 
1723	 0.331602980934625 
1724	 0.331091037450465 
1725	 0.330767891293954 
1726	 0.330634358971441 
1727	 0.33069572461751 
1728	 0.330953075379568 
1729	 0.33140577452365 
1730	 0.332041232754517 
1731	 0.332773732626037 
1732	 0.333641728527071 
1733	 0.334544982127162 
1734	 0.335451084183699 
1735	 0.336374392638322 
1736	 0.337204765581137 
1737	 0.337906088077246 
1738	 0.338469581941054 
1739	 0.338858855975627 
1740	 0.339066964976438 
1741	 0.339183977648613 
1742	 0.33912207112435 
1743	 0.339020837443231 
1744	 0.338792237845529 
1745	 0.33857178747415 
1746	 0.338249523620948 
1747	 0.338022942592094 
1748	 0.337782657834481 
1749	 0.337651305532125 
1750	 0.337560863561411 
1751	 0.337611955260175 
1752	 0.337756382037508 
1753	 0.338044286467556 
1754	 0.33847370484613 
1755	 0.338981492194955 
1756	 0.33958147014493 
1757	 0.34032463344965 
1758	 0.341256017129246 
1759	 0.342255172419855 
1760	 0.343375454964852 
1761	 0.344618799082887 
1762	 0.345860541973972 
1763	 0.34727908419778 
1764	 0.348804225869417 
1765	 0.350365132349861 
1766	 0.352060250071011 
1767	 0.353739610074714 
1768	 0.355464409277643 
1769	 0.357163879381303 
1770	 0.358710025909201 
1771	 0.360237680368799 
1772	 0.361635365088482 
1773	 0.362928825718973 
1774	 0.364262372919425 
1775	 0.365466293317463 
1776	 0.366601359567044 
1777	 0.367721583545352 
1778	 0.368690260105875 
1779	 0.369634575504016 
1780	 0.370559499131787 
1781	 0.371388187881868 
1782	 0.372223105713032 
1783	 0.37301055047944 
1784	 0.373742100325167 
1785	 0.374427978653452 
1786	 0.375073557920974 
1787	 0.375674416818572 
1788	 0.376264522788027 
1789	 0.376806719955242 
1790	 0.377369943317323 
1791	 0.377932073627709 
1792	 0.378488786812826 
1793	 0.37905038979756 
1794	 0.379577262075935 
1795	 0.380097724614729 
1796	 0.380571545966236 
1797	 0.381043790724519 
1798	 0.381505175960197 
1799	 0.3819532303117 
1800	 0.382454237442268 
1801	 0.375800148882076 
1802	 0.376285627426512 
1803	 0.376774878074555 
1804	 0.377264219415703 
1805	 0.377765835661609 
1806	 0.378230545380487 
1807	 0.378690109138359 
1808	 0.37914156007886 
1809	 0.379567646245764 
1810	 0.37999321311134 
1811	 0.38041140080746 
1812	 0.380841398412476 
1813	 0.381274565457342 
1814	 0.381701828250345 
1815	 0.382116216044507 
1816	 0.382535880985528 
1817	 0.382968474153458 
1818	 0.383391946503327 
1819	 0.383823784799785 
1820	 0.384287912548701 
1821	 0.384728461807108 
1822	 0.385145686053074 
1823	 0.385584225961667 
1824	 0.386006096494455 
1825	 0.386434671997628 
1826	 0.386854495307941 
1827	 0.387260913615738 
1828	 0.387661743355141 
1829	 0.388079090279808 
1830	 0.388461794890777 
1831	 0.388810654812645 
1832	 0.389188067582552 
1833	 0.389549611439184 
1834	 0.389884576222647 
1835	 0.390223042467812 
1836	 0.390543835080269 
1837	 0.390848622176156 
1838	 0.391111886895712 
1839	 0.391404690662582 
1840	 0.391720630981325 
1841	 0.391998339471563 
1842	 0.392260383829259 
1843	 0.392532711872263 
1844	 0.392786019807323 
1845	 0.393000326727879 
1846	 0.393248467322087 
1847	 0.393474469508467 
1848	 0.393646957630206 
1849	 0.393797555393123 
1850	 0.393896536606986 
1851	 0.393959917666581 
1852	 0.393969655547387 
1853	 0.393904521953825 
1854	 0.39378358724143 
1855	 0.39358462231003 
1856	 0.393332222588098 
1857	 0.393039473331776 
1858	 0.392671892789583 
1859	 0.392260306825898 
1860	 0.391796114893078 
1861	 0.391265729142206 
1862	 0.39067433878028 
1863	 0.390059562026733 
1864	 0.389330689107335 
1865	 0.388575113151259 
1866	 0.387742740095857 
1867	 0.386768095152605 
1868	 0.385775757774533 
1869	 0.384670977617183 
1870	 0.383509713728839 
1871	 0.382296266990652 
1872	 0.381030648745987 
1873	 0.379695707899896 
1874	 0.378329979499025 
1875	 0.376925442921741 
1876	 0.375345880519268 
1877	 0.373764972064517 
1878	 0.37204702096635 
1879	 0.370150080298283 
1880	 0.368283204827407 
1881	 0.366272535705791 
1882	 0.364117057989716 
1883	 0.361910479077576 
1884	 0.35961696638171 
1885	 0.357056634161274 
1886	 0.354487712057084 
1887	 0.351752831688168 
1888	 0.348841274410815 
1889	 0.34606698640594 
1890	 0.343142666399485 
1891	 0.340198608886833 
1892	 0.337288565261124 
1893	 0.334272946715647 
1894	 0.3311243073444 
1895	 0.328079303488753 
1896	 0.324971430200617 
1897	 0.321859665787316 
1898	 0.319028934278253 
1899	 0.316141454278422 
1900	 0.313347019656743 
1901	 0.31072539682971 
1902	 0.307971787524562 
1903	 0.305382372127141 
1904	 0.302874788977881 
1905	 0.300430629341738 
1906	 0.29803908178673 
1907	 0.295909885436987 
1908	 0.293777351785793 
1909	 0.291739141905072 
1910	 0.289802850816846 
1911	 0.28778284929575 
1912	 0.285904911415525 
1913	 0.284047477331134 
1914	 0.282186186582751 
1915	 0.280428733851547 
1916	 0.278800462953048 
1917	 0.27709574407091 
1918	 0.275436786216178 
1919	 0.273832131378579 
1920	 0.272108031067205 
1921	 0.27044584981998 
1922	 0.268760188269052 
1923	 0.267031206495135 
1924	 0.265441857789269 
1925	 0.26380178830358 
1926	 0.262195131511682 
1927	 0.260639347603802 
1928	 0.259077392978334 
1929	 0.257464739759909 
1930	 0.255977209246712 
1931	 0.254545062740278 
1932	 0.253173820082277 
1933	 0.252022375360888 
1934	 0.250958358713169 
1935	 0.249998468964986 
1936	 0.249222181196131 
1937	 0.248555869129773 
1938	 0.247990866896169 
1939	 0.247593936859878 
1940	 0.247345595305275 
1941	 0.247232639668167 
1942	 0.247257781940207 
1943	 0.247392029836134 
1944	 0.247639787791525 
1945	 0.248018658107857 
1946	 0.24854640097093 
1947	 0.249172180920179 
1948	 0.249962047962596 
1949	 0.250909203228041 
1950	 0.25195119257313 
1951	 0.253127432757077 
1952	 0.254427754685503 
1953	 0.255841595044843 
1954	 0.257366595634783 
1955	 0.259078883140829 
1956	 0.260796037316202 
1957	 0.262551055173677 
1958	 0.264315711998873 
1959	 0.265912303698997 
1960	 0.267433083063249 
1961	 0.268816201462516 
1962	 0.270060943590381 
1963	 0.271211023059371 
1964	 0.272247537226797 
1965	 0.273165318359024 
1966	 0.273967943843379 
1967	 0.274691745760281 
1968	 0.275272920381138 
1969	 0.275844943468778 
1970	 0.27637952169995 
1971	 0.276914089133923 
1972	 0.277520754606343 
1973	 0.278145375058872 
1974	 0.278812324708329 
1975	 0.2795498805202 
1976	 0.280282858996866 
1977	 0.281027352051778 
1978	 0.281810133476119 
1979	 0.282614106682588 
1980	 0.283435014258897 
1981	 0.284360113794996 
1982	 0.285254251566196 
1983	 0.286222252666174 
1984	 0.287273297794901 
1985	 0.288279531604612 
1986	 0.289395104385547 
1987	 0.290596195412192 
1988	 0.291808328663932 
1989	 0.293212744495226 
1990	 0.294770356806651 
1991	 0.296390821719437 
1992	 0.29813053676164 
1993	 0.300025252565276 
1994	 0.30184952520615 
1995	 0.30383241704286 
1996	 0.305860130557091 
1997	 0.307869541047788 
1998	 0.309937988039189 
1999	 0.312120961230763 
2000	 0.314151559949125 
2001	 0.316247558524507 
2002	 0.318137960448572 
2003	 0.319887520264512 
2004	 0.321588316457183 
2005	 0.323148628069388 
2006	 0.324672290406209 
2007	 0.326178609779154 
2008	 0.327551517856331 
2009	 0.328826376377942 
2010	 0.330044195216768 
2011	 0.331065360721144 
2012	 0.332032431698993 
2013	 0.332913491026559 
2014	 0.333667877852272 
2015	 0.334398884092451 
2016	 0.335083056329002 
2017	 0.335670136596908 
2018	 0.336186121175977 
2019	 0.336640726693805 
2020	 0.336993351948926 
2021	 0.337310087539537 
2022	 0.33759454654158 
2023	 0.337828154844007 
2024	 0.338004788867801 
2025	 0.338106126398595 
2026	 0.338151254180863 
2027	 0.338109168819099 
2028	 0.338056227730659 
2029	 0.337947101988705 
2030	 0.337817891073132 
2031	 0.337640825372542 
2032	 0.337466669345053 
2033	 0.337244952153875 
2034	 0.337053177544784 
2035	 0.336868434592109 
2036	 0.336683339782604 
2037	 0.33651063851797 
2038	 0.336340100439749 
2039	 0.336201133053021 
2040	 0.336090469971269 
2041	 0.335968059155846 
2042	 0.335868380904151 
2043	 0.335757861136293 
2044	 0.335626677445353 
2045	 0.335521267103549 
2046	 0.335434253045848 
2047	 0.335340356967036 
2048	 0.335255563972603 
2049	 0.335170742043733 
2050	 0.335078788527308 
2051	 0.335004029032801 
2052	 0.334935124673892 
2053	 0.334838651080491 
2054	 0.334759299560949 
2055	 0.334686631667315 
2056	 0.334607458611055 
2057	 0.334530492985574 
2058	 0.334448192207576 
2059	 0.334357972714869 
2060	 0.334264869332877 
2061	 0.334158404062515 
2062	 0.334078832984162 
2063	 0.334000701610271 
2064	 0.333936159772029 
2065	 0.333905205977272 
2066	 0.333863579834343 
2067	 0.333797003604391 
2068	 0.333743096934206 
2069	 0.333676792246788 
2070	 0.333587733149701 
2071	 0.333523912921613 
2072	 0.333479734339104 
2073	 0.333407447771926 
2074	 0.333342790680055 
2075	 0.333250288900532 
2076	 0.333128984312923 
2077	 0.333009937491921 
2078	 0.332871874955854 
2079	 0.332740319324121 
2080	 0.332626372527382 
2081	 0.332477389310215 
2082	 0.332318186844744 
2083	 0.332144849116649 
2084	 0.331932641725424 
2085	 0.331693070347949 
2086	 0.331463914888811 
2087	 0.331221843247918 
2088	 0.330984956384253 
2089	 0.330752834221192 
2090	 0.330509359901411 
2091	 0.330279719573153 
2092	 0.330006183704421 
2093	 0.329709531751085 
2094	 0.329398873453104 
2095	 0.329056353989764 
2096	 0.328702204452479 
2097	 0.328341351504356 
2098	 0.327954062608955 
2099	 0.327557462612889 
2100	 0.327160580642231 
2101	 0.32672869064148 
2102	 0.326286519454071 
2103	 0.325818473391213 
2104	 0.32530622719928 
2105	 0.32480372662577 
2106	 0.324310642380855 
2107	 0.323766383316807 
2108	 0.323189891505687 
2109	 0.322608354552607 
2110	 0.321983582474833 
2111	 0.321372173326361 
2112	 0.320763708811914 
2113	 0.320147312313391 
2114	 0.31951901381428 
2115	 0.318889474461173 
2116	 0.318267608155346 
2117	 0.317633330668199 
2118	 0.31696890721333 
2119	 0.316281114009219 
2120	 0.315613745870442 
2121	 0.314903481426707 
2122	 0.314259130732856 
2123	 0.313651270517046 
2124	 0.31305175958113 
2125	 0.312485200058939 
2126	 0.311920522341327 
2127	 0.311375656925254 
2128	 0.310831316670271 
2129	 0.310272314298613 
2130	 0.309753875836811 
2131	 0.309255708475667 
2132	 0.308772933588408 
2133	 0.308312829113963 
2134	 0.307894561165797 
2135	 0.307449244888482 
2136	 0.307027309534132 
2137	 0.306629513510209 
2138	 0.306239583751054 
2139	 0.30588896669158 
2140	 0.305576062161943 
2141	 0.305272693045892 
2142	 0.304987569870186 
2143	 0.30472943193007 
2144	 0.304499930123226 
2145	 0.304282342366833 
2146	 0.304076821935437 
2147	 0.303912734488661 
2148	 0.303776121737467 
2149	 0.303655376890608 
2150	 0.303590453937718 
2151	 0.303510253216916 
2152	 0.303439191582266 
2153	 0.303360899780923 
2154	 0.303284189473822 
2155	 0.303221513136547 
2156	 0.303148498518957 
2157	 0.303076161537862 
2158	 0.30300203338094 
2159	 0.302940053584509 
2160	 0.302829697714221 
2161	 0.302700683585902 
2162	 0.302563499137784 
2163	 0.302386483022411 
2164	 0.302222169264629 
2165	 0.302054661665616 
2166	 0.301894634227984 
2167	 0.301703572205174 
2168	 0.301565442403953 
2169	 0.301464264365208 
2170	 0.301363613895385 
2171	 0.301284508926798 
2172	 0.301222701445718 
2173	 0.301163772924933 
2174	 0.301128875966613 
2175	 0.301129636249848 
2176	 0.301143086104201 
2177	 0.301157569720262 
2178	 0.301189840190918 
2179	 0.301211901477687 
2180	 0.301237084063732 
2181	 0.30125418551755 
2182	 0.301263602265495 
2183	 0.30128571448802 
2184	 0.301313136472748 
2185	 0.301335619705287 
2186	 0.301384031711403 
2187	 0.301386024859665 
2188	 0.301381136553889 
2189	 0.301328096171558 
2190	 0.301220370547541 
2191	 0.301118339162182 
2192	 0.300985438940164 
2193	 0.30084826501549 
2194	 0.300724506380791 
2195	 0.300564377193326 
2196	 0.300380914456761 
2197	 0.300168311045614 
2198	 0.299952403710986 
2199	 0.299686496971141 
2200	 0.299404624098038 
2201	 0.299097318965259 
2202	 0.298773010639792 
2203	 0.298414005930343 
2204	 0.298061357232543 
2205	 0.297695106298682 
2206	 0.29732396722939 
2207	 0.296941056386628 
2208	 0.296563209475826 
2209	 0.29618260273476 
2210	 0.295797705363104 
2211	 0.295400996402894 
2212	 0.295020878362179 
2213	 0.294615375151563 
2214	 0.294269443753626 
2215	 0.293959425798299 
2216	 0.293670725330854 
2217	 0.293428121247135 
2218	 0.293192045909803 
2219	 0.29295196102912 
2220	 0.292763390966897 
2221	 0.292627200431183 
2222	 0.292492162472182 
2223	 0.292367854197448 
2224	 0.292252670947504 
2225	 0.292083101930621 
2226	 0.291850826215767 
2227	 0.291557058201752 
2228	 0.291242563112322 
2229	 0.290784116944003 
2230	 0.29023002048186 
2231	 0.2895921783812 
2232	 0.288851601141415 
2233	 0.288012744037431 
2234	 0.28712085557147 
2235	 0.286050273318874 
2236	 0.284847258578305 
2237	 0.283517274464972 
2238	 0.281994854283367 
2239	 0.280431529624058 
2240	 0.278789363132467 
2241	 0.276998369304444 
2242	 0.275156069467706 
2243	 0.273103380455284 
2244	 0.270798301631092 
2245	 0.268485730368248 
2246	 0.265970847681711 
2247	 0.263492501723284 
2248	 0.261034195381147 
2249	 0.258473185447827 
2250	 0.255854502139806 
2251	 0.253211152411832 
2252	 0.250348829525827 
2253	 0.24756854297271 
2254	 0.244724684924112 
2255	 0.241843680542678 
2256	 0.23922883103931 
2257	 0.236566271684014 
2258	 0.233980275984877 
2259	 0.23152951913682 
2260	 0.22901405340782 
2261	 0.226455649956622 
2262	 0.224020354502869 
2263	 0.221574369704216 
2264	 0.219304873322433 
2265	 0.217183834844533 
2266	 0.215054416196954 
2267	 0.213075842389402 
2268	 0.211028007403023 
2269	 0.208930515719593 
2270	 0.206952285910164 
2271	 0.204984228546407 
2272	 0.203105572689807 
2273	 0.201371224773866 
2274	 0.19958628109424 
2275	 0.197895170477684 
2276	 0.196106531685025 
2277	 0.194273464960468 
2278	 0.192425208729105 
2279	 0.190509858666566 
2280	 0.188580389859365 
2281	 0.186651499867621 
2282	 0.184675970612192 
2283	 0.182664820112333 
2284	 0.180647631456035 
2285	 0.178470976965954 
2286	 0.176311118921393 
2287	 0.174061111810039 
2288	 0.171696233574057 
2289	 0.16945711298503 
2290	 0.16713804832248 
2291	 0.16481217258258 
2292	 0.162530275441167 
2293	 0.160163901071002 
2294	 0.157923591922202 
2295	 0.15580985065961 
2296	 0.153829040269678 
2297	 0.152151900064908 
2298	 0.150705254770967 
2299	 0.149511263066062 
2300	 0.148589328759903 
2301	 0.147913329529538 
2302	 0.147474638733759 
2303	 0.147354894279347 
2304	 0.147545228085742 
2305	 0.14796841960685 
2306	 0.148738452781994 
2307	 0.14966974341933 
2308	 0.150829508868497 
2309	 0.152220230676872 
2310	 0.153916514942971 
2311	 0.155685795893481 
2312	 0.157800419184045 
2313	 0.159773409829786 
2314	 0.161844053517511 
2315	 0.16382413652183 
2316	 0.165807438812987 
2317	 0.167632634552324 
2318	 0.169485938805329 
2319	 0.171020540662143 
2320	 0.172385582504261 
2321	 0.173490002351553 
2322	 0.174293636908772 
2323	 0.174932717242691 
2324	 0.175321118094679 
2325	 0.175551587427152 
2326	 0.175555889129234 
2327	 0.175440013741329 
2328	 0.175119019372706 
2329	 0.174683316421091 
2330	 0.17410644777872 
2331	 0.173391891689227 
2332	 0.172521910399824 
2333	 0.171484341940736 
2334	 0.170250798040539 
2335	 0.168899329429357 
2336	 0.167434082928349 
2337	 0.165918736707666 
2338	 0.16441918526221 
2339	 0.16281510898808 
2340	 0.161301268572202 
2341	 0.159889076177221 
2342	 0.158540400627736 
2343	 0.157473716068035 
2344	 0.156626041721024 
2345	 0.156067859715477 
2346	 0.155864128351503 
2347	 0.156021439051514 
2348	 0.156443706252909 
2349	 0.157158952417548 
2350	 0.158195475829111 
2351	 0.159409745268573 
2352	 0.160753574047783 
2353	 0.162209271908776 
2354	 0.163549049552569 
2355	 0.164820299712062 
2356	 0.166031009951097 
2357	 0.167043121024257 
2358	 0.167928197819431 
2359	 0.168561323901985 
2360	 0.168959938103606 
2361	 0.16917091784798 
2362	 0.16929159549612 
2363	 0.169391229041251 
2364	 0.16941541829473 
2365	 0.169363918784349 
2366	 0.169275900143348 
2367	 0.169118728693398 
2368	 0.168905262341961 
2369	 0.168769220600079 
2370	 0.168619021815112 
2371	 0.168395523440383 
2372	 0.168248374100939 
2373	 0.168130610505962 
2374	 0.167995531238091 
2375	 0.167920396986427 
2376	 0.167795669211071 
2377	 0.167603457773112 
2378	 0.167487744722072 
2379	 0.167457295256002 
2380	 0.167413943155927 
2381	 0.167314423873966 
2382	 0.167204636798946 
2383	 0.166986975934513 
2384	 0.166876351912294 
2385	 0.166825594166501 
2386	 0.166773395677453 
2387	 0.166783013110778 
2388	 0.166713931426275 
2389	 0.166609725393198 
2390	 0.166509835223058 
2391	 0.166362393883138 
2392	 0.166240114292859 
2393	 0.166143480577906 
2394	 0.166016592257581 
2395	 0.165909098319622 
2396	 0.165733688596974 
2397	 0.165466757675203 
2398	 0.165286309526665 
2399	 0.165110460904058 
2400	 0.164940852115747 
2401	 0.164856678966852 
2402	 0.164633123640151 
2403	 0.164379049522655 
2404	 0.16420887252164 
2405	 0.164008435732221 
2406	 0.163898385839475 
2407	 0.163895222130609 
2408	 0.163741405906243 
2409	 0.163603582477777 
2410	 0.16347375900869 
2411	 0.163218593814667 
2412	 0.16307201258942 
2413	 0.162950254154171 
2414	 0.162722547992727 
2415	 0.162550401847259 
2416	 0.162432247179751 
2417	 0.162322334547965 
2418	 0.162294982731966 
2419	 0.162242657159373 
2420	 0.162123561002846 
2421	 0.162019631840393 
2422	 0.16192747235061 
2423	 0.161852276870166 
2424	 0.161771609343278 
2425	 0.161735035742426 
2426	 0.161595151103436 
2427	 0.161397329015444 
2428	 0.161290062780053 
2429	 0.161128073855546 
2430	 0.161011523354299 
2431	 0.16094005401904 
2432	 0.160795228023371 
2433	 0.160664634279615 
2434	 0.160545538191714 
2435	 0.160333656062737 
2436	 0.160152713145631 
2437	 0.159980224039484 
2438	 0.159663408056988 
2439	 0.159465705117158 
2440	 0.159438934682444 
2441	 0.159300348743541 
2442	 0.159157164127526 
2443	 0.159067139344907 
2444	 0.158800096818719 
2445	 0.158443946896901 
2446	 0.1581562147356 
2447	 0.157991171057875 
2448	 0.157823695166411 
2449	 0.157626674309317 
2450	 0.157485494494958 
2451	 0.15720206202835 
2452	 0.156874063797311 
2453	 0.156590441763048 
2454	 0.156263771163839 
2455	 0.155934625523195 
2456	 0.155577216526172 
2457	 0.155277067489505 
2458	 0.155041192254598 
2459	 0.154806852657277 
2460	 0.154540798106335 
2461	 0.154181822995611 
2462	 0.153903690916636 
2463	 0.153692156798144 
2464	 0.153408092948916 
2465	 0.153265241997524 
2466	 0.153134171566641 
2467	 0.152794079817388 
2468	 0.152655660439608 
2469	 0.152651199200181 
2470	 0.15249811985024 
2471	 0.152421924169216 
2472	 0.152358168575353 
2473	 0.152233169735378 
2474	 0.151990540959923 
2475	 0.151886326269544 
2476	 0.151937632835447 
2477	 0.15176271470625 
2478	 0.151635909388196 
2479	 0.151515355896687 
2480	 0.151186261445743 
2481	 0.151116645356128 
2482	 0.151354215654618 
2483	 0.151369531370307 
2484	 0.151722302609778 
2485	 0.152191060302268 
2486	 0.15240668354473 
2487	 0.152795788497771 
2488	 0.153111108316796 
2489	 0.153063570891958 
2490	 0.153258575197845 
2491	 0.153666019050796 
2492	 0.153792074326177 
2493	 0.15405886004736 
2494	 0.154532981756578 
2495	 0.154789888507592 
2496	 0.155259908869724 
2497	 0.155902585087024 
2498	 0.156262453654754 
2499	 0.1566578124185 
2500	 0.157068017999022 
