Wavelength	spectrum00009.asd
350	 0.053330754805193 
351	 0.052265452183989 
352	 4.98847065597975E-02 
353	 4.84143000382051E-02 
354	 4.99206494999878E-02 
355	 5.09780931468638E-02 
356	 4.97015795093764E-02 
357	 4.62944717456497E-02 
358	 4.54704566770072E-02 
359	 4.49294873002043E-02 
360	 4.43335796037626E-02 
361	 4.43051385042632E-02 
362	 4.44703451714655E-02 
363	 0.043926385182461 
364	 4.27454259503501E-02 
365	 4.22585193218083E-02 
366	 0.043260446964503 
367	 4.33839568531725E-02 
368	 4.14502926999889E-02 
369	 4.26103433906345E-02 
370	 4.36706306060458E-02 
371	 4.36361697919108E-02 
372	 4.29398937729198E-02 
373	 0.041975218137572 
374	 4.26014337274368E-02 
375	 4.41645483652368E-02 
376	 4.23199080419401E-02 
377	 4.22461822911748E-02 
378	 4.30170809601067E-02 
379	 4.28986886316807E-02 
380	 4.32422712647609E-02 
381	 4.37160765677975E-02 
382	 4.34538683435292E-02 
383	 4.17436183873883E-02 
384	 4.21170949166442E-02 
385	 4.32772141134805E-02 
386	 4.36206130757273E-02 
387	 4.19351779490634E-02 
388	 0.041427886513126 
389	 4.18307868515527E-02 
390	 4.20767619665105E-02 
391	 4.21516345750093E-02 
392	 4.24297290983458E-02 
393	 4.23828668149744E-02 
394	 4.12007210668932E-02 
395	 4.17174897608281E-02 
396	 4.21089251798273E-02 
397	 4.16846481955892E-02 
398	 4.27101074787239E-02 
399	 4.26232962076747E-02 
400	 4.17506943276271E-02 
401	 4.11874447746185E-02 
402	 0.041366292829025 
403	 0.041624169428963 
404	 4.16928707447693E-02 
405	 4.16520032683367E-02 
406	 4.15511355492829E-02 
407	 4.12793475131867E-02 
408	 4.09086224500406E-02 
409	 4.09251321114531E-02 
410	 4.08446827384092E-02 
411	 4.07958607653326E-02 
412	 4.09920802900663E-02 
413	 4.10867896765889E-02 
414	 4.07638960185043E-02 
415	 4.03919726540286E-02 
416	 4.08518748602656E-02 
417	 4.07232929363134E-02 
418	 4.05742543083778E-02 
419	 4.08235507583296E-02 
420	 4.06848540622915E-02 
421	 4.06639075956354E-02 
422	 4.07402499963626E-02 
423	 4.07220145373716E-02 
424	 4.08073250187015E-02 
425	 4.08274723402874E-02 
426	 4.07605342144283E-02 
427	 4.07783881537604E-02 
428	 4.07758094450886E-02 
429	 4.07558773724315E-02 
430	 0.040735926789899 
431	 4.06702211876289E-02 
432	 4.08928950885242E-02 
433	 4.11307781539758E-02 
434	 4.08771233856568E-02 
435	 4.08514094799056E-02 
436	 4.09815472467184E-02 
437	 4.10981581519014E-02 
438	 4.10187898645389E-02 
439	 4.11501258652372E-02 
440	 0.041275007827064 
441	 4.11360877358172E-02 
442	 4.10942533261166E-02 
443	 0.041225059199126 
444	 4.14174469022162E-02 
445	 4.14335864944252E-02 
446	 4.13766358553427E-02 
447	 4.13126938738164E-02 
448	 4.13119677755286E-02 
449	 4.14911481973492E-02 
450	 0.041549628983446 
451	 4.15468034585681E-02 
452	 4.16431239423576E-02 
453	 4.16569713985371E-02 
454	 4.16907747693547E-02 
455	 4.17505987281161E-02 
456	 4.17191332306224E-02 
457	 4.17347160922044E-02 
458	 4.17508854790691E-02 
459	 4.17272611827267E-02 
460	 4.17673184407902E-02 
461	 4.18348397863146E-02 
462	 4.18626943617762E-02 
463	 4.17969391532935E-02 
464	 4.18522873091329E-02 
465	 4.19471667320475E-02 
466	 4.20060023033934E-02 
467	 4.20180242686291E-02 
468	 4.19927599746629E-02 
469	 4.19728828860357E-02 
470	 4.20115947546507E-02 
471	 4.21850206301922E-02 
472	 4.22232652562916E-02 
473	 4.21484519890644E-02 
474	 4.22065219032235E-02 
475	 4.21773163661264E-02 
476	 4.21489902023389E-02 
477	 4.22089575545723E-02 
478	 4.23700953119625E-02 
479	 4.22707077049953E-02 
480	 0.042167543827079 
481	 4.24266805245117E-02 
482	 4.23944924264603E-02 
483	 4.24118163084596E-02 
484	 4.25503781056242E-02 
485	 4.25001062625507E-02 
486	 4.26672815807361E-02 
487	 0.042756452309018 
488	 4.25564940521041E-02 
489	 4.26138278080925E-02 
490	 4.27137776204755E-02 
491	 4.27735234094073E-02 
492	 4.27992348439863E-02 
493	 0.042861235931217 
494	 4.29295697689077E-02 
495	 4.29850293788916E-02 
496	 4.30513799957307E-02 
497	 4.30455165818788E-02 
498	 4.30523092186541E-02 
499	 4.31602350285702E-02 
500	 4.32331542982042E-02 
501	 4.32167494388222E-02 
502	 4.31804693800265E-02 
503	 4.32822315523265E-02 
504	 4.32664820598016E-02 
505	 4.33007728455792E-02 
506	 0.043476776048476 
507	 4.35254834322085E-02 
508	 4.35061037111825E-02 
509	 4.35034878944418E-02 
510	 4.35972489548687E-02 
511	 4.37095471506122E-02 
512	 4.37626423912045E-02 
513	 4.37803389818919E-02 
514	 4.39162882537391E-02 
515	 4.39168161273341E-02 
516	 4.39112120142608E-02 
517	 4.40367236301053E-02 
518	 4.40955428335614E-02 
519	 4.41557104594043E-02 
520	 4.42170142284671E-02 
521	 4.42393636067351E-02 
522	 4.43291832556018E-02 
523	 4.44539819172418E-02 
524	 4.45640569529753E-02 
525	 4.46130483041407E-02 
526	 4.46703366020421E-02 
527	 4.47684286196505E-02 
528	 4.49101226935166E-02 
529	 0.045027508216373 
530	 4.51001452808383E-02 
531	 4.51815689619136E-02 
532	 4.53915674764938E-02 
533	 4.54733282270412E-02 
534	 4.55594946742816E-02 
535	 4.57711893605614E-02 
536	 4.59417894691295E-02 
537	 4.61317882533506E-02 
538	 4.63095347631378E-02 
539	 4.64127208397083E-02 
540	 0.046576247105744 
541	 4.67756891054708E-02 
542	 4.69815486935042E-02 
543	 4.71877730931377E-02 
544	 4.74124777252582E-02 
545	 4.76205786506622E-02 
546	 4.77952238461129E-02 
547	 4.80764849966793E-02 
548	 4.83561268156182E-02 
549	 4.86107343706479E-02 
550	 4.88989530663256E-02 
551	 4.91703098802563E-02 
552	 4.94825401234362E-02 
553	 4.98564851945203E-02 
554	 5.01636988670864E-02 
555	 5.05287639006607E-02 
556	 5.09491167740116E-02 
557	 5.13637124622674E-02 
558	 5.17693677010551E-02 
559	 0.052204201330686 
560	 5.26813502329373E-02 
561	 5.31754346511473E-02 
562	 5.36314172113408E-02 
563	 0.054073292276988 
564	 5.45401827109501E-02 
565	 5.50318796634891E-02 
566	 5.55312564066472E-02 
567	 0.056046310634714 
568	 5.66003312295281E-02 
569	 5.71605522452105E-02 
570	 5.76874028902283E-02 
571	 5.81902586901931E-02 
572	 5.87846656792724E-02 
573	 5.93831064967483E-02 
574	 0.059974062816194 
575	 6.05770404871138E-02 
576	 6.12183071186316E-02 
577	 6.18549948324278E-02 
578	 0.062474800005721 
579	 6.31041488819556E-02 
580	 6.37596989677132E-02 
581	 6.44383300300604E-02 
582	 6.51320082611215E-02 
583	 6.58308215411373E-02 
584	 6.65777902915527E-02 
585	 6.73576732326022E-02 
586	 6.81203277879475E-02 
587	 6.88311065840293E-02 
588	 6.95819528575154E-02 
589	 7.04082854214796E-02 
590	 7.12323760684513E-02 
591	 0.072019198737431 
592	 7.27769383177621E-02 
593	 7.35386962854772E-02 
594	 7.43672799286472E-02 
595	 7.51563929071768E-02 
596	 7.59006283534552E-02 
597	 7.66840021357381E-02 
598	 7.74997143644777E-02 
599	 7.83127504681408E-02 
600	 7.91158499968728E-02 
601	 7.99836748208535E-02 
602	 8.08182535556408E-02 
603	 8.16196248230706E-02 
604	 8.24282516352006E-02 
605	 8.32458394117118E-02 
606	 8.40597892327057E-02 
607	 8.48731150451627E-02 
608	 8.57089131101434E-02 
609	 0.0864642148097 
610	 8.71957551481034E-02 
611	 8.79712071889167E-02 
612	 8.87457588692886E-02 
613	 8.95006010724769E-02 
614	 9.02352349360372E-02 
615	 9.09635518551228E-02 
616	 9.16789826832486E-02 
617	 9.23996426218929E-02 
618	 9.31340032073018E-02 
619	 9.38722682489259E-02 
620	 0.094580236300403 
621	 9.52642527795925E-02 
622	 9.59432320891812E-02 
623	 0.096615619729662 
624	 9.72802390798487E-02 
625	 9.79397860849141E-02 
626	 9.86014479679225E-02 
627	 9.92611176413035E-02 
628	 0.099928000692505 
629	 0.100593346795743 
630	 0.101190545560785 
631	 0.101818898588723 
632	 0.102449138291465 
633	 0.103013534083297 
634	 0.103614590025485 
635	 0.104233901728355 
636	 0.104849189012081 
637	 0.105444050527189 
638	 0.106026634139734 
639	 0.106610160851937 
640	 0.107198790211832 
641	 0.107761210521581 
642	 0.108337586029483 
643	 0.108923441158454 
644	 0.109490777299355 
645	 0.110066717920538 
646	 0.11065059926542 
647	 0.111239695446554 
648	 0.111835670672998 
649	 0.112403575702738 
650	 0.112968361301635 
651	 0.11355445812633 
652	 0.114097222933212 
653	 0.114656942143208 
654	 0.115235267488747 
655	 0.115789125506737 
656	 0.11638910444059 
657	 0.117011736376362 
658	 0.117626283621679 
659	 0.118222823713164 
660	 0.118791558048823 
661	 0.119357106498426 
662	 0.119950147988068 
663	 0.12055748326668 
664	 0.121141200805212 
665	 0.121716668831059 
666	 0.122349638192345 
667	 0.12295915632852 
668	 0.123584742615094 
669	 0.124249832105661 
670	 0.124878615936374 
671	 0.12548721660875 
672	 0.126117846651072 
673	 0.126807026854437 
674	 0.127448203109878 
675	 0.128092249323833 
676	 0.128756083189928 
677	 0.129399589608265 
678	 0.130056388843377 
679	 0.130733755091603 
680	 0.131423026444456 
681	 0.132085251958007 
682	 0.132783001958462 
683	 0.133490339035534 
684	 0.134147938449629 
685	 0.134860742541925 
686	 0.135589231912602 
687	 0.136300738146167 
688	 0.136995152817793 
689	 0.1376911387015 
690	 0.138395028761295 
691	 0.139110169846186 
692	 0.139841828320481 
693	 0.140565806048199 
694	 0.141301226591745 
695	 0.142078964360042 
696	 0.142772010969552 
697	 0.143473742394759 
698	 0.144220650882215 
699	 0.144916231137569 
700	 0.145632082138432 
701	 0.146354995462935 
702	 0.147062976144083 
703	 0.147796032305724 
704	 0.148509277249567 
705	 0.149199713500674 
706	 0.149897120091445 
707	 0.150626113409166 
708	 0.151349676317802 
709	 0.152040544585081 
710	 0.152700264057896 
711	 0.153384511246364 
712	 0.15406695174237 
713	 0.154717772986443 
714	 0.155412174810652 
715	 0.156044652437537 
716	 0.156628323531866 
717	 0.157258121373149 
718	 0.157909458639799 
719	 0.158526256728546 
720	 0.159090777819358 
721	 0.15965453931868 
722	 0.160216196233606 
723	 0.160773846963097 
724	 0.161321646803775 
725	 0.161850993427769 
726	 0.162384676155191 
727	 0.162905928411925 
728	 0.163372156482699 
729	 0.163789407521329 
730	 0.164219175142331 
731	 0.164682060537973 
732	 0.165123346432069 
733	 0.16551778850389 
734	 0.165888828458619 
735	 0.166256406747041 
736	 0.166554561739807 
737	 0.166865029083799 
738	 0.167185363128926 
739	 0.167460349735949 
740	 0.167730536484702 
741	 0.167962542318497 
742	 0.168141751782489 
743	 0.168292653541296 
744	 0.168495079740804 
745	 0.168714837328184 
746	 0.168888454442875 
747	 0.168969716115976 
748	 0.169064011929067 
749	 0.169162742408353 
750	 0.169198320598588 
751	 0.169215937607042 
752	 0.169231298680202 
753	 0.169251961730735 
754	 0.169278081735131 
755	 0.169276955390093 
756	 0.169240650933335 
757	 0.169170302815169 
758	 0.169066746965872 
759	 0.168969000914908 
760	 0.168881588352706 
761	 0.168786206136857 
762	 0.168648659975826 
763	 0.168482409580626 
764	 0.168295679917447 
765	 0.168088571301644 
766	 0.16793184821256 
767	 0.167721106231201 
768	 0.167425610295066 
769	 0.167268969562189 
770	 0.167057535736007 
771	 0.166795457416264 
772	 0.166543365049426 
773	 0.166260152627053 
774	 0.165976686861903 
775	 0.165702696435212 
776	 0.16542478753712 
777	 0.165104288428908 
778	 0.16476886098042 
779	 0.164436087772658 
780	 0.164088649419089 
781	 0.163766105490095 
782	 0.163434618107501 
783	 0.163068171946587 
784	 0.1627482395706 
785	 0.162403045674035 
786	 0.162032206163281 
787	 0.161672013141441 
788	 0.161287892059418 
789	 0.160906325614804 
790	 0.160531361929541 
791	 0.160135719916615 
792	 0.159762729027433 
793	 0.159401087965332 
794	 0.159037905453349 
795	 0.158687733452891 
796	 0.158323538503579 
797	 0.157957096948177 
798	 0.157605414861214 
799	 0.157231544089676 
800	 0.156890237685069 
801	 0.156549050756809 
802	 0.156124484444595 
803	 0.155753621832652 
804	 0.155407423013445 
805	 0.155057894189779 
806	 0.154713237472385 
807	 0.154368378760857 
808	 0.154001864500851 
809	 0.153622258135788 
810	 0.153338415102048 
811	 0.153047815117642 
812	 0.152716882873885 
813	 0.152356925026815 
814	 0.152030654013643 
815	 0.15170995105749 
816	 0.151395322936645 
817	 0.151112900813875 
818	 0.150818202775105 
819	 0.150492036785707 
820	 0.150156450871403 
821	 0.149891067690755 
822	 0.14958309449285 
823	 0.149285459318042 
824	 0.149048108437822 
825	 0.148770196671638 
826	 0.148498469985503 
827	 0.148236423729756 
828	 0.147973197480079 
829	 0.147732166213701 
830	 0.147491823690361 
831	 0.147247755523461 
832	 0.147013588407419 
833	 0.146802443284166 
834	 0.146597535421013 
835	 0.146389456342525 
836	 0.146186831589875 
837	 0.146040320927756 
838	 0.145881934623035 
839	 0.145671371260817 
840	 0.145536913415544 
841	 0.145348745865377 
842	 0.145143486232704 
843	 0.145002684931219 
844	 0.144868683980848 
845	 0.144741281890337 
846	 0.144624567448939 
847	 0.144519114061058 
848	 0.144372130966921 
849	 0.144257499716016 
850	 0.14419188509266 
851	 0.144105428160984 
852	 0.144038509728579 
853	 0.143992950384286 
854	 0.143956997887897 
855	 0.143907065204633 
856	 0.143854721635514 
857	 0.143816050334416 
858	 0.143794595392614 
859	 0.1437437826103 
860	 0.143694644390069 
861	 0.143681572479366 
862	 0.143724471130161 
863	 0.14376531774999 
864	 0.143780802252543 
865	 0.143780280514632 
866	 0.143796686236707 
867	 0.143807801447468 
868	 0.143899558808096 
869	 0.144044758920591 
870	 0.144055702164325 
871	 0.144091759388316 
872	 0.144167186443449 
873	 0.14426114574584 
874	 0.144347745623542 
875	 0.144449229975016 
876	 0.144541893752263 
877	 0.14461930773426 
878	 0.144785184525787 
879	 0.144941639324125 
880	 0.145077798121254 
881	 0.145225372255507 
882	 0.145382810990806 
883	 0.145544238683576 
884	 0.145726269762573 
885	 0.145953619555238 
886	 0.146172827616553 
887	 0.146375301993782 
888	 0.146572777319988 
889	 0.146791462264703 
890	 0.14702570651638 
891	 0.147248211822304 
892	 0.147470992242663 
893	 0.147776374667358 
894	 0.148035995263861 
895	 0.148259169286827 
896	 0.148501377203772 
897	 0.148837320954904 
898	 0.149189035809346 
899	 0.149504522966551 
900	 0.149780650851807 
901	 0.150151793654665 
902	 0.150497575452246 
903	 0.150835715042425 
904	 0.151223389427988 
905	 0.151516678646995 
906	 0.151858848966702 
907	 0.152261809126063 
908	 0.152638828950529 
909	 0.153015273498573 
910	 0.153427938430324 
911	 0.153869579482568 
912	 0.154294477478787 
913	 0.154757788055202 
914	 0.155233380352916 
915	 0.155698455244766 
916	 0.156153400708594 
917	 0.156583616502102 
918	 0.157044576001212 
919	 0.157559363046309 
920	 0.15806815183413 
921	 0.158539432672336 
922	 0.159029669668848 
923	 0.159573675820487 
924	 0.160087696958115 
925	 0.160624253236489 
926	 0.161198495389493 
927	 0.161793969753757 
928	 0.162333278546348 
929	 0.162880599574124 
930	 0.163456329861554 
931	 0.164057267813094 
932	 0.164671761957781 
933	 0.165315664484193 
934	 0.165975360740522 
935	 0.166618578707206 
936	 0.167204170159488 
937	 0.167801928902878 
938	 0.168436183181402 
939	 0.169095945652843 
940	 0.169810915699424 
941	 0.170505554129237 
942	 0.171184692921141 
943	 0.171916685417075 
944	 0.172615529730305 
945	 0.173306387786445 
946	 0.174006305747691 
947	 0.174711827736851 
948	 0.175451036702698 
949	 0.176217966464954 
950	 0.176974919345727 
951	 0.177666713037595 
952	 0.1784365435179 
953	 0.179234503357648 
954	 0.18001202817816 
955	 0.180778082351496 
956	 0.18147216819521 
957	 0.182244250620327 
958	 0.183114852348527 
959	 0.183824261957735 
960	 0.184606721606594 
961	 0.185473396547645 
962	 0.18635198173854 
963	 0.18712303256738 
964	 0.18787523406777 
965	 0.188674757422324 
966	 0.189552850067825 
967	 0.190481756306667 
968	 0.191323655045634 
969	 0.192137556266337 
970	 0.193003539392487 
971	 0.193892409383582 
972	 0.194792618022895 
973	 0.195642232029811 
974	 0.196426762299156 
975	 0.197287834053553 
976	 0.198173027300213 
977	 0.199091233114606 
978	 0.20002471435652 
979	 0.200829159442776 
980	 0.201608883393232 
981	 0.202499607352084 
982	 0.203521303421487 
983	 0.204302733995233 
984	 0.205262920852981 
985	 0.206290127592716 
986	 0.207162739426766 
987	 0.207955735937181 
988	 0.208828459888495 
989	 0.20976612990422 
990	 0.210683115025121 
991	 0.211529004081681 
992	 0.212250400852683 
993	 0.213140069645629 
994	 0.214357801635707 
995	 0.215228614992061 
996	 0.216022110547157 
997	 0.216821854094065 
998	 0.217657212388129 
999	 0.218577702205061 
1000	 0.219667230999639 
1001	 0.218818653140486 
1002	 0.219671732353168 
1003	 0.220532581921891 
1004	 0.221343852848423 
1005	 0.222136365556964 
1006	 0.222944592549727 
1007	 0.223700124309564 
1008	 0.224529168611301 
1009	 0.225437677741942 
1010	 0.226261407448368 
1011	 0.227073480860933 
1012	 0.227874406424434 
1013	 0.228617237821722 
1014	 0.229392433936673 
1015	 0.230177519061115 
1016	 0.230966770746551 
1017	 0.231802686896922 
1018	 0.232595212911371 
1019	 0.233378528592486 
1020	 0.234207361921333 
1021	 0.235011929595836 
1022	 0.235811695257055 
1023	 0.236577862629615 
1024	 0.237330956187049 
1025	 0.238090089554533 
1026	 0.238792038846766 
1027	 0.239545879587763 
1028	 0.240353180757552 
1029	 0.241152900144569 
1030	 0.241875902327488 
1031	 0.242606249945445 
1032	 0.243309055725563 
1033	 0.244009977598346 
1034	 0.244744985124127 
1035	 0.245458278555628 
1036	 0.246176593576231 
1037	 0.24690416237927 
1038	 0.247591313132205 
1039	 0.248270938291066 
1040	 0.248956641836713 
1041	 0.2496034741421 
1042	 0.250272450057889 
1043	 0.250973608211096 
1044	 0.251621104093353 
1045	 0.252280295249759 
1046	 0.252986217219675 
1047	 0.253629541911404 
1048	 0.254270945247965 
1049	 0.254902509345603 
1050	 0.255470751972004 
1051	 0.256061596180453 
1052	 0.256675018652543 
1053	 0.257282251826338 
1054	 0.257900787554352 
1055	 0.258512043013173 
1056	 0.259120105625891 
1057	 0.259712352369734 
1058	 0.260298203803447 
1059	 0.260869994432422 
1060	 0.261436465319418 
1061	 0.262022389893811 
1062	 0.262637536499228 
1063	 0.263233424766099 
1064	 0.26378668422746 
1065	 0.264364682317718 
1066	 0.264924030781401 
1067	 0.26547874569702 
1068	 0.266073182266957 
1069	 0.266627150014648 
1070	 0.267190321380724 
1071	 0.267750034306832 
1072	 0.268307728309811 
1073	 0.268835834114458 
1074	 0.269407056253192 
1075	 0.269935606262513 
1076	 0.2704580930823 
1077	 0.271032275911335 
1078	 0.271534939132132 
1079	 0.272055511120975 
1080	 0.272618536838971 
1081	 0.273141118642894 
1082	 0.273703675874223 
1083	 0.274242743035419 
1084	 0.27473577988846 
1085	 0.275271264753429 
1086	 0.275793856753376 
1087	 0.276301234425991 
1088	 0.276835084634991 
1089	 0.277379842545718 
1090	 0.277854813468748 
1091	 0.278345688418429 
1092	 0.278838805448979 
1093	 0.279314179928717 
1094	 0.279830864444016 
1095	 0.280330621796197 
1096	 0.280822438329451 
1097	 0.281322107369343 
1098	 0.281804823855458 
1099	 0.282302335528173 
1100	 0.282770357503806 
1101	 0.283243332851371 
1102	 0.283753768717476 
1103	 0.284245812168942 
1104	 0.284720515664849 
1105	 0.285236880160719 
1106	 0.28578048114593 
1107	 0.286259952493101 
1108	 0.286723166848389 
1109	 0.287182980348215 
1110	 0.28762411880003 
1111	 0.288103670446055 
1112	 0.288609885421114 
1113	 0.289129325011279 
1114	 0.289637160732003 
1115	 0.290099957627758 
1116	 0.290579200741913 
1117	 0.291048424336996 
1118	 0.291516359653572 
1119	 0.291986697028433 
1120	 0.292459574585698 
1121	 0.292925129646773 
1122	 0.293403601497767 
1123	 0.293874978159437 
1124	 0.294315738073425 
1125	 0.294779338917521 
1126	 0.295225938769329 
1127	 0.295688583294633 
1128	 0.296164103271031 
1129	 0.296601965831394 
1130	 0.297046359616254 
1131	 0.297457403901806 
1132	 0.29785160686286 
1133	 0.298282847488512 
1134	 0.298702526129552 
1135	 0.299117719072166 
1136	 0.299543455714761 
1137	 0.299964306929791 
1138	 0.300372127975547 
1139	 0.300785365253805 
1140	 0.301213049439871 
1141	 0.301621289522792 
1142	 0.302021084704275 
1143	 0.302385693769663 
1144	 0.302729879280162 
1145	 0.303110107653899 
1146	 0.303452656923134 
1147	 0.303790917988874 
1148	 0.304169753087986 
1149	 0.304511798446466 
1150	 0.304857686381523 
1151	 0.305215658578358 
1152	 0.305556375575389 
1153	 0.305878156754518 
1154	 0.306201000764891 
1155	 0.306518543127514 
1156	 0.306839575638345 
1157	 0.307154551567071 
1158	 0.307465840015905 
1159	 0.307781066490299 
1160	 0.308093175348986 
1161	 0.308388693019864 
1162	 0.308690542935573 
1163	 0.308988374316243 
1164	 0.309281522082554 
1165	 0.309580903300379 
1166	 0.309869458834167 
1167	 0.310148345457243 
1168	 0.310423431192152 
1169	 0.310707663754362 
1170	 0.310997816776819 
1171	 0.311277886079123 
1172	 0.311567315577316 
1173	 0.311837818033593 
1174	 0.312085964207739 
1175	 0.312335714084713 
1176	 0.312588296597371 
1177	 0.312827148313082 
1178	 0.313046992307103 
1179	 0.313283476645413 
1180	 0.313513692568745 
1181	 0.313742946696591 
1182	 0.31398557121337 
1183	 0.314209944159243 
1184	 0.314429025991256 
1185	 0.314638471384848 
1186	 0.314850762209068 
1187	 0.315060469091072 
1188	 0.315274010717104 
1189	 0.315484958264094 
1190	 0.315704890338356 
1191	 0.315928640172168 
1192	 0.316151105738759 
1193	 0.316371513237852 
1194	 0.316604266035927 
1195	 0.316841268824804 
1196	 0.3170891780162 
1197	 0.317345683770251 
1198	 0.317623088300765 
1199	 0.317891949215708 
1200	 0.318127503007049 
1201	 0.318380734549409 
1202	 0.318616530237084 
1203	 0.318858995263226 
1204	 0.319155274901907 
1205	 0.319448541793711 
1206	 0.319755495874023 
1207	 0.320078717325422 
1208	 0.320413338974525 
1209	 0.320760721575382 
1210	 0.32111874603792 
1211	 0.321499654073543 
1212	 0.321902097902457 
1213	 0.322320925580808 
1214	 0.322759871154393 
1215	 0.323215614325067 
1216	 0.323708600008897 
1217	 0.324172292111718 
1218	 0.324630728837922 
1219	 0.325099113938484 
1220	 0.325557011285606 
1221	 0.326053120629339 
1222	 0.326565569396127 
1223	 0.327083851494616 
1224	 0.327594513555208 
1225	 0.328108040999129 
1226	 0.328596051207439 
1227	 0.329079029552861 
1228	 0.329549910439923 
1229	 0.330010433673533 
1230	 0.330444194254157 
1231	 0.330862664166187 
1232	 0.331271821441987 
1233	 0.331647332091066 
1234	 0.332024602110643 
1235	 0.332394876591774 
1236	 0.332768637669986 
1237	 0.333140586805416 
1238	 0.333501882614473 
1239	 0.333850460203029 
1240	 0.334215779736849 
1241	 0.334593176014067 
1242	 0.334933583819202 
1243	 0.335275976132906 
1244	 0.335618394377688 
1245	 0.335967570128919 
1246	 0.336304312418974 
1247	 0.336644787683028 
1248	 0.337004080903743 
1249	 0.337350392973782 
1250	 0.337664436577064 
1251	 0.338015198828184 
1252	 0.338405505424568 
1253	 0.338757616433578 
1254	 0.339110079725191 
1255	 0.339454983162673 
1256	 0.33977558755126 
1257	 0.340098937682486 
1258	 0.340416345071012 
1259	 0.340742586958122 
1260	 0.34108662160508 
1261	 0.341400176544914 
1262	 0.341701250114955 
1263	 0.342008619275337 
1264	 0.342295798593051 
1265	 0.342553331502502 
1266	 0.342817497093566 
1267	 0.34308644060455 
1268	 0.343335557022786 
1269	 0.343561365523794 
1270	 0.343795245642124 
1271	 0.344029153288618 
1272	 0.344253790486537 
1273	 0.344462326093201 
1274	 0.344688610366439 
1275	 0.344915165716079 
1276	 0.345143427614961 
1277	 0.345389193745744 
1278	 0.345621836103307 
1279	 0.345843188973718 
1280	 0.346068000597655 
1281	 0.34629707036507 
1282	 0.346515163520359 
1283	 0.346729590435017 
1284	 0.346936453115862 
1285	 0.347135610463405 
1286	 0.347316871919035 
1287	 0.347521942865698 
1288	 0.347732469996804 
1289	 0.347938086951926 
1290	 0.348149437178893 
1291	 0.348363602226949 
1292	 0.348569400540315 
1293	 0.34878739628492 
1294	 0.349022785536596 
1295	 0.349246115152807 
1296	 0.349469880225962 
1297	 0.349685716319658 
1298	 0.349895727332165 
1299	 0.350104710519744 
1300	 0.350306087268094 
1301	 0.350509755304293 
1302	 0.350705474147976 
1303	 0.350914860952503 
1304	 0.351136396171855 
1305	 0.351349277899569 
1306	 0.351556920167779 
1307	 0.351778881183471 
1308	 0.352003680920896 
1309	 0.352229833620825 
1310	 0.35245564317464 
1311	 0.35269953844556 
1312	 0.35291969457093 
1313	 0.353118495826848 
1314	 0.353339198437842 
1315	 0.353564293869167 
1316	 0.353787331584474 
1317	 0.35401631542614 
1318	 0.354245358322449 
1319	 0.354477459616308 
1320	 0.354698626297704 
1321	 0.354921759053614 
1322	 0.35513600922433 
1323	 0.355329037404786 
1324	 0.355538241051835 
1325	 0.355758474568916 
1326	 0.355969086051934 
1327	 0.356185476007256 
1328	 0.35638980076431 
1329	 0.356580486822331 
1330	 0.356772812667411 
1331	 0.35695477740548 
1332	 0.357145623245945 
1333	 0.357334689097288 
1334	 0.357537704806128 
1335	 0.357730363060712 
1336	 0.357924083579807 
1337	 0.35811938430293 
1338	 0.358319969240596 
1339	 0.358495054362994 
1340	 0.358669947289832 
1341	 0.35882571722003 
1342	 0.358951133597357 
1343	 0.359090949705339 
1344	 0.359233407176522 
1345	 0.359364483868243 
1346	 0.359497689125486 
1347	 0.359610896976177 
1348	 0.359707522423591 
1349	 0.359804459050738 
1350	 0.359883950019959 
1351	 0.359973812756913 
1352	 0.360072310465749 
1353	 0.360159644146061 
1354	 0.360241697838886 
1355	 0.360325229046125 
1356	 0.360407942343619 
1357	 0.36048249759215 
1358	 0.36055327502872 
1359	 0.360624872213869 
1360	 0.360690489628515 
1361	 0.360751809286582 
1362	 0.360825814545418 
1363	 0.360890539362529 
1364	 0.360938856201737 
1365	 0.360981237540014 
1366	 0.36100465255341 
1367	 0.361005208288551 
1368	 0.361013706134284 
1369	 0.361022553619934 
1370	 0.361006896500834 
1371	 0.360987509056714 
1372	 0.360946315892355 
1373	 0.360885403445371 
1374	 0.360805526171371 
1375	 0.360704513293766 
1376	 0.360601856046314 
1377	 0.360483825973723 
1378	 0.360352304485559 
1379	 0.360216040030292 
1380	 0.360065658576652 
1381	 0.359885382586265 
1382	 0.359716136856153 
1383	 0.359550231053293 
1384	 0.359375217720614 
1385	 0.359201178510341 
1386	 0.35901567410239 
1387	 0.358794597778656 
1388	 0.358613339985179 
1389	 0.358439501660179 
1390	 0.358282140843266 
1391	 0.358161595330179 
1392	 0.358036124880765 
1393	 0.357922795665454 
1394	 0.357819550917615 
1395	 0.357710676071606 
1396	 0.357627110166144 
1397	 0.357486319291649 
1398	 0.357336481790574 
1399	 0.357133916085454 
1400	 0.356897437989765 
1401	 0.356616036273523 
1402	 0.356288826687993 
1403	 0.3559406289747 
1404	 0.355553829970764 
1405	 0.355142282018679 
1406	 0.354701268129219 
1407	 0.354244394738617 
1408	 0.353739093785081 
1409	 0.353255706081695 
1410	 0.352760616499183 
1411	 0.35227921203008 
1412	 0.351783778362713 
1413	 0.351335372598721 
1414	 0.350904599279327 
1415	 0.350500101934191 
1416	 0.350120277872109 
1417	 0.349777436923398 
1418	 0.349481168629214 
1419	 0.34917612908507 
1420	 0.348897098376565 
1421	 0.348628071192863 
1422	 0.348352458259104 
1423	 0.348092730307446 
1424	 0.347852254249143 
1425	 0.347626322187029 
1426	 0.347426275662431 
1427	 0.347224766099345 
1428	 0.347017193612283 
1429	 0.34682949608752 
1430	 0.346630894649836 
1431	 0.346417925080418 
1432	 0.346213309014725 
1433	 0.346022395151786 
1434	 0.345813620419365 
1435	 0.345593086570691 
1436	 0.345371801374089 
1437	 0.345136750931109 
1438	 0.344927546056543 
1439	 0.344709961732859 
1440	 0.344531811167807 
1441	 0.344371712450511 
1442	 0.344248938580509 
1443	 0.344129244653465 
1444	 0.344091209841226 
1445	 0.344086107695362 
1446	 0.344169825634007 
1447	 0.344314143050594 
1448	 0.344550351507771 
1449	 0.344891398338573 
1450	 0.34526065812909 
1451	 0.345712594499084 
1452	 0.346192480608629 
1453	 0.346730125209068 
1454	 0.347267051011206 
1455	 0.347860345880242 
1456	 0.348433393086317 
1457	 0.349017955703719 
1458	 0.349579670359791 
1459	 0.35013850917311 
1460	 0.350680138942733 
1461	 0.35120117255869 
1462	 0.351705491948736 
1463	 0.352191649410662 
1464	 0.352671926817793 
1465	 0.353121222981433 
1466	 0.353595566271599 
1467	 0.354036477133188 
1468	 0.354480165044934 
1469	 0.354933518008147 
1470	 0.355347463881982 
1471	 0.355781558872653 
1472	 0.356220894426516 
1473	 0.356659746434069 
1474	 0.357101082608314 
1475	 0.357531295607754 
1476	 0.357975408645147 
1477	 0.35837372526779 
1478	 0.358750848505483 
1479	 0.359100659273004 
1480	 0.359416170653393 
1481	 0.359727066874503 
1482	 0.360011180547015 
1483	 0.360304078401852 
1484	 0.36058437279424 
1485	 0.360873601764771 
1486	 0.361169499893225 
1487	 0.361453383261415 
1488	 0.361724614470614 
1489	 0.362015801230742 
1490	 0.362291558792252 
1491	 0.362611031824302 
1492	 0.362952374951229 
1493	 0.36332312204598 
1494	 0.363730704864303 
1495	 0.364142877487639 
1496	 0.364579599253702 
1497	 0.36502383113051 
1498	 0.365488633650832 
1499	 0.365946637587321 
1500	 0.366424345408905 
1501	 0.366883484417069 
1502	 0.367337342644798 
1503	 0.367773083821849 
1504	 0.368197903661386 
1505	 0.36860955790286 
1506	 0.369006656011437 
1507	 0.369391346246506 
1508	 0.369765365183094 
1509	 0.370123543790901 
1510	 0.370471666191612 
1511	 0.370794198571169 
1512	 0.371093821399933 
1513	 0.371382715908505 
1514	 0.371647545954882 
1515	 0.371904901087758 
1516	 0.372155099673757 
1517	 0.372389393490213 
1518	 0.372607589576238 
1519	 0.372814280323652 
1520	 0.373001162088976 
1521	 0.373187357367525 
1522	 0.373364933052775 
1523	 0.373532575131694 
1524	 0.373691346269437 
1525	 0.373841291069082 
1526	 0.373990621463857 
1527	 0.374130322775876 
1528	 0.374269847315651 
1529	 0.374413401205712 
1530	 0.374537518945629 
1531	 0.374646696875265 
1532	 0.374763880335096 
1533	 0.374865110412476 
1534	 0.374996281808279 
1535	 0.375137052431522 
1536	 0.375293340474794 
1537	 0.375463075798088 
1538	 0.375651908987918 
1539	 0.375850099085853 
1540	 0.376080330317486 
1541	 0.376342187632398 
1542	 0.376603927743193 
1543	 0.376890866438061 
1544	 0.37716977121091 
1545	 0.377446261839752 
1546	 0.377738900836789 
1547	 0.378038085175846 
1548	 0.378351038893257 
1549	 0.378682146371153 
1550	 0.379009437540036 
1551	 0.379341358189936 
1552	 0.379682084829176 
1553	 0.380033658088641 
1554	 0.380374575896812 
1555	 0.380725422405068 
1556	 0.381060873251582 
1557	 0.381374674801074 
1558	 0.381705854025523 
1559	 0.38204773475776 
1560	 0.382373376895892 
1561	 0.382695686398034 
1562	 0.383019250768888 
1563	 0.383332392975195 
1564	 0.383647637192032 
1565	 0.383973541769441 
1566	 0.384285644734171 
1567	 0.384585796604033 
1568	 0.384886529688587 
1569	 0.385183779221357 
1570	 0.385479081305353 
1571	 0.385774384025884 
1572	 0.386060223901407 
1573	 0.386337463519037 
1574	 0.386616588753513 
1575	 0.386889444458946 
1576	 0.38716394748279 
1577	 0.387440236880331 
1578	 0.387716002286546 
1579	 0.387986643443795 
1580	 0.388262255130943 
1581	 0.388550071104674 
1582	 0.388821421287582 
1583	 0.3890842880858 
1584	 0.38934940890215 
1585	 0.389596059988374 
1586	 0.38986235382741 
1587	 0.390147210065407 
1588	 0.3904215576005 
1589	 0.390703124499466 
1590	 0.390975505470117 
1591	 0.391233568147587 
1592	 0.391500307304024 
1593	 0.391774106398545 
1594	 0.392037985454991 
1595	 0.392293395638916 
1596	 0.392558077934111 
1597	 0.392821703189871 
1598	 0.393085142705545 
1599	 0.393363157023231 
1600	 0.393628185042727 
1601	 0.393890608038549 
1602	 0.394136898837411 
1603	 0.394365415779388 
1604	 0.39459806306147 
1605	 0.394808030536593 
1606	 0.395040498273909 
1607	 0.395301502633124 
1608	 0.395539451757229 
1609	 0.395783195228426 
1610	 0.396009003265024 
1611	 0.396213170880301 
1612	 0.396411671203733 
1613	 0.396605539767135 
1614	 0.396782970712938 
1615	 0.396940335931918 
1616	 0.397099040866423 
1617	 0.397241708397768 
1618	 0.39739353964224 
1619	 0.397559836402824 
1620	 0.397701590463378 
1621	 0.397827296092083 
1622	 0.39795989812856 
1623	 0.398081930248454 
1624	 0.398203548401688 
1625	 0.398330725979247 
1626	 0.398456657337909 
1627	 0.398572513058261 
1628	 0.398691680042756 
1629	 0.398830943806021 
1630	 0.398941965153806 
1631	 0.399029229994396 
1632	 0.399127584558287 
1633	 0.399201890366983 
1634	 0.399303878839841 
1635	 0.399428412813896 
1636	 0.399551379287222 
1637	 0.399687879320482 
1638	 0.399821007989589 
1639	 0.399964270914031 
1640	 0.400091418129452 
1641	 0.400217405851298 
1642	 0.400329773278644 
1643	 0.400432243642986 
1644	 0.400516824712338 
1645	 0.400592153287194 
1646	 0.400647822490429 
1647	 0.40067886038312 
1648	 0.400703328204476 
1649	 0.40071695530326 
1650	 0.400711517793623 
1651	 0.400698766093581 
1652	 0.400656946363322 
1653	 0.400591704695275 
1654	 0.40050873063171 
1655	 0.400400922433096 
1656	 0.400275563174814 
1657	 0.400132765583549 
1658	 0.399964966420013 
1659	 0.399786869807666 
1660	 0.399567832217034 
1661	 0.39932937943187 
1662	 0.399038085698779 
1663	 0.398692626556699 
1664	 0.398317936151552 
1665	 0.397911177340325 
1666	 0.397452493833208 
1667	 0.39696610517319 
1668	 0.396417247262009 
1669	 0.395798332936182 
1670	 0.395149787964194 
1671	 0.394456864929999 
1672	 0.39371340866048 
1673	 0.392940403579389 
1674	 0.392092443182735 
1675	 0.391178880541735 
1676	 0.390229548239663 
1677	 0.389219795624755 
1678	 0.388174026627708 
1679	 0.387072459858019 
1680	 0.38594112943506 
1681	 0.384776568472232 
1682	 0.383547347372015 
1683	 0.382288300225409 
1684	 0.380976427305956 
1685	 0.37960429059119 
1686	 0.378184874220629 
1687	 0.376689956954465 
1688	 0.375175854911974 
1689	 0.373614132602731 
1690	 0.37201365730304 
1691	 0.370395133572605 
1692	 0.368767220787826 
1693	 0.367108503588649 
1694	 0.365400510254899 
1695	 0.363654076310935 
1696	 0.361869058579889 
1697	 0.360022926123068 
1698	 0.358159286960448 
1699	 0.356267176815406 
1700	 0.35443401988779 
1701	 0.352551167325677 
1702	 0.350780083806607 
1703	 0.349054484399843 
1704	 0.347414605394275 
1705	 0.345830567312584 
1706	 0.34432041334763 
1707	 0.342982664428821 
1708	 0.341709481880643 
1709	 0.3405199589796 
1710	 0.339457197252877 
1711	 0.338406856917448 
1712	 0.337442112296945 
1713	 0.336530355384163 
1714	 0.335611836130458 
1715	 0.334781896625308 
1716	 0.333981919791917 
1717	 0.333224235099486 
1718	 0.332537744812512 
1719	 0.331867932942362 
1720	 0.331251912498459 
1721	 0.330707123810397 
1722	 0.330255876438115 
1723	 0.32993859948189 
1724	 0.329728919932793 
1725	 0.329634992645173 
1726	 0.329707934818137 
1727	 0.329932651317553 
1728	 0.330287437903574 
1729	 0.330819677017778 
1730	 0.331486192000797 
1731	 0.332207942247911 
1732	 0.333058106911149 
1733	 0.333927139000725 
1734	 0.334796341121742 
1735	 0.335703172246387 
1736	 0.336538392474467 
1737	 0.337270165520269 
1738	 0.337849374502354 
1739	 0.338303329749631 
1740	 0.338605351135713 
1741	 0.338829316371084 
1742	 0.338946614217071 
1743	 0.33896640375982 
1744	 0.338841744091437 
1745	 0.338719373316303 
1746	 0.338478883019092 
1747	 0.338305523486167 
1748	 0.338123829785365 
1749	 0.337993100094213 
1750	 0.337864231540901 
1751	 0.337829643634292 
1752	 0.337847150830065 
1753	 0.337936369123866 
1754	 0.338096162395858 
1755	 0.338340012866404 
1756	 0.338631122934803 
1757	 0.339056839532841 
1758	 0.339624532225698 
1759	 0.340270203505292 
1760	 0.341015933007295 
1761	 0.341866313969971 
1762	 0.342762076326775 
1763	 0.343774816064352 
1764	 0.344854393941164 
1765	 0.346010507852669 
1766	 0.347276963306919 
1767	 0.348501026110771 
1768	 0.349792615235579 
1769	 0.351098940580011 
1770	 0.352256280799687 
1771	 0.353431232938769 
1772	 0.354541332613434 
1773	 0.355520844034476 
1774	 0.35650916192726 
1775	 0.35741294515217 
1776	 0.358254078833423 
1777	 0.359063884895611 
1778	 0.359759098628309 
1779	 0.360435933622245 
1780	 0.361098697283681 
1781	 0.361706263262926 
1782	 0.3623097604944 
1783	 0.362868783708985 
1784	 0.363394073920682 
1785	 0.363878400609415 
1786	 0.36432870365191 
1787	 0.364746297260551 
1788	 0.365126224496079 
1789	 0.365465743362662 
1790	 0.365806577273567 
1791	 0.366117144175453 
1792	 0.366420087322067 
1793	 0.366697725274404 
1794	 0.366958763618773 
1795	 0.3672386868411 
1796	 0.3675329187114 
1797	 0.367844841281416 
1798	 0.368143167856294 
1799	 0.368454947060574 
1800	 0.368805204853775 
1801	 0.366953572556284 
1802	 0.367242965060008 
1803	 0.367551266587423 
1804	 0.367855903681489 
1805	 0.368174538718754 
1806	 0.368475844237396 
1807	 0.368798003952296 
1808	 0.369089779299626 
1809	 0.369356965612326 
1810	 0.369621811564682 
1811	 0.369866909761806 
1812	 0.370134170022637 
1813	 0.370404879107712 
1814	 0.370673448059981 
1815	 0.370952884594332 
1816	 0.371235328374943 
1817	 0.371519034172275 
1818	 0.371782511172023 
1819	 0.372083817920876 
1820	 0.372410714871388 
1821	 0.372730312486415 
1822	 0.373062693069948 
1823	 0.373409039512724 
1824	 0.373722341559473 
1825	 0.374039741509099 
1826	 0.374341142405449 
1827	 0.37462393425832 
1828	 0.374904074034 
1829	 0.3751791512356 
1830	 0.375447285250679 
1831	 0.375695323561363 
1832	 0.375977119367934 
1833	 0.376230116948465 
1834	 0.376472312807278 
1835	 0.376735138040471 
1836	 0.37695327103519 
1837	 0.377195248598819 
1838	 0.377450336269035 
1839	 0.377692721622409 
1840	 0.377940826718444 
1841	 0.378176056311906 
1842	 0.378391043807438 
1843	 0.378612528637526 
1844	 0.378870945668772 
1845	 0.379089958863269 
1846	 0.379320121236498 
1847	 0.379535596215453 
1848	 0.379718369713952 
1849	 0.379874555748064 
1850	 0.380014385683799 
1851	 0.380141531197296 
1852	 0.380234128456507 
1853	 0.380297442455307 
1854	 0.38030796408728 
1855	 0.380277159405506 
1856	 0.380244065329506 
1857	 0.380172969879436 
1858	 0.380062579646069 
1859	 0.379941411985151 
1860	 0.379813780159019 
1861	 0.379620806351732 
1862	 0.379386426582043 
1863	 0.379148808193135 
1864	 0.378839221106684 
1865	 0.378502561679503 
1866	 0.378128369416371 
1867	 0.377672431578868 
1868	 0.377179350811854 
1869	 0.376640872808376 
1870	 0.376059238522883 
1871	 0.375439061401048 
1872	 0.374785783040397 
1873	 0.37409507559853 
1874	 0.373370107888175 
1875	 0.372617372912927 
1876	 0.371759963104874 
1877	 0.370877165108095 
1878	 0.369885794891625 
1879	 0.368766125444393 
1880	 0.367677676151302 
1881	 0.366479393315211 
1882	 0.365187176931464 
1883	 0.363831085046493 
1884	 0.362400304994269 
1885	 0.36076673896203 
1886	 0.359100029392717 
1887	 0.357305820234534 
1888	 0.355374109834799 
1889	 0.35351622674939 
1890	 0.351521298373798 
1891	 0.349496857538995 
1892	 0.347481581099887 
1893	 0.34539103101395 
1894	 0.343190625814826 
1895	 0.341055839355223 
1896	 0.338892115815827 
1897	 0.336738953372432 
1898	 0.33475355531375 
1899	 0.332741268236976 
1900	 0.33082083934643 
1901	 0.329011004590652 
1902	 0.327127390708951 
1903	 0.325376033555031 
1904	 0.323699209015751 
1905	 0.322068423031074 
1906	 0.320515559944333 
1907	 0.31916301817008 
1908	 0.31782190044682 
1909	 0.316559505786056 
1910	 0.315378654852524 
1911	 0.314177663897884 
1912	 0.313083952819112 
1913	 0.312040356173362 
1914	 0.311027057844989 
1915	 0.310102059564804 
1916	 0.309272988027035 
1917	 0.308461648726023 
1918	 0.307698510726725 
1919	 0.306988527944164 
1920	 0.306271464551022 
1921	 0.305589773508646 
1922	 0.30493033944648 
1923	 0.304288364308302 
1924	 0.303714667933007 
1925	 0.303169485881257 
1926	 0.302657734078002 
1927	 0.302199480798061 
1928	 0.301753113809276 
1929	 0.301324541207155 
1930	 0.300931706501515 
1931	 0.300568399877432 
1932	 0.300228090496944 
1933	 0.299957730799275 
1934	 0.299730790195092 
1935	 0.299537798876761 
1936	 0.299411739041285 
1937	 0.299344801394825 
1938	 0.299327075823526 
1939	 0.2993663521472 
1940	 0.299467689619614 
1941	 0.299638144062127 
1942	 0.299826101862598 
1943	 0.300053458726101 
1944	 0.300342281930386 
1945	 0.300674325619778 
1946	 0.301071974752657 
1947	 0.301502061369152 
1948	 0.301995337634741 
1949	 0.302532055579073 
1950	 0.303095011297792 
1951	 0.303709849764001 
1952	 0.304356459000817 
1953	 0.305028612115833 
1954	 0.305727153721421 
1955	 0.306513089782092 
1956	 0.307287789780801 
1957	 0.308101591724983 
1958	 0.30894286028971 
1959	 0.309696663664129 
1960	 0.310439589846646 
1961	 0.311136304393753 
1962	 0.311769787059008 
1963	 0.312393913921348 
1964	 0.313009175541057 
1965	 0.313560484615164 
1966	 0.314070014337323 
1967	 0.314557228456594 
1968	 0.314978753011884 
1969	 0.315397484314081 
1970	 0.315806527157376 
1971	 0.316202727511199 
1972	 0.316610112613635 
1973	 0.317009649565831 
1974	 0.317441506186953 
1975	 0.317901915282867 
1976	 0.31835889666304 
1977	 0.318831005242005 
1978	 0.319315130888147 
1979	 0.319804839497831 
1980	 0.320290844026907 
1981	 0.320826593784389 
1982	 0.321329415201942 
1983	 0.321855931622972 
1984	 0.322407179522311 
1985	 0.322933997807691 
1986	 0.32353585973101 
1987	 0.324156243662253 
1988	 0.324778962975739 
1989	 0.325475165133893 
1990	 0.326224067423249 
1991	 0.327000287896892 
1992	 0.327822821940604 
1993	 0.328715079490028 
1994	 0.329565933041588 
1995	 0.330487948082149 
1996	 0.331416888934219 
1997	 0.332318103975497 
1998	 0.333252518632427 
1999	 0.334231001247111 
2000	 0.33515449424619 
2001	 0.33610753408669 
2002	 0.33697137900882 
2003	 0.337788192816791 
2004	 0.338567100491502 
2005	 0.339274817147444 
2006	 0.339974005936137 
2007	 0.340669068469456 
2008	 0.341283412154854 
2009	 0.341872038432256 
2010	 0.342443739982706 
2011	 0.342932534832657 
2012	 0.343402512421572 
2013	 0.34381996417531 
2014	 0.34418247560361 
2015	 0.344514812049139 
2016	 0.344806702723597 
2017	 0.345059336579741 
2018	 0.345275048986007 
2019	 0.345454009175447 
2020	 0.345586578206332 
2021	 0.34569129018731 
2022	 0.345765581684121 
2023	 0.345807650505769 
2024	 0.34582060180971 
2025	 0.345800299053512 
2026	 0.345750144211961 
2027	 0.345652510996701 
2028	 0.345560714106887 
2029	 0.345442668962359 
2030	 0.345320709121399 
2031	 0.345188056671754 
2032	 0.345052314337047 
2033	 0.344901138800219 
2034	 0.344751719270515 
2035	 0.344611628986573 
2036	 0.344443856790886 
2037	 0.344271007169359 
2038	 0.344102001013746 
2039	 0.343953520051469 
2040	 0.343808823897098 
2041	 0.343686493588516 
2042	 0.343602234073572 
2043	 0.343486981759778 
2044	 0.343361873213813 
2045	 0.343247427455394 
2046	 0.34312389447171 
2047	 0.343011573633803 
2048	 0.342908955815238 
2049	 0.342816446341153 
2050	 0.342726450163196 
2051	 0.342650748327283 
2052	 0.342582453916301 
2053	 0.342511332462394 
2054	 0.342441845173677 
2055	 0.342376155405382 
2056	 0.342293495339789 
2057	 0.342211093891994 
2058	 0.342121782427169 
2059	 0.342002376045655 
2060	 0.341912092149834 
2061	 0.341833821872763 
2062	 0.341755021778074 
2063	 0.341695693365851 
2064	 0.341624604305399 
2065	 0.341550250994005 
2066	 0.341474130735243 
2067	 0.34137976709864 
2068	 0.34128876246393 
2069	 0.341205940363001 
2070	 0.341122567561647 
2071	 0.341038008681443 
2072	 0.340967136176032 
2073	 0.340878141448886 
2074	 0.340771082122521 
2075	 0.340680295295038 
2076	 0.340597070949003 
2077	 0.340503895080949 
2078	 0.340418319803185 
2079	 0.340316422714828 
2080	 0.340194375690229 
2081	 0.34007764562687 
2082	 0.339959571405334 
2083	 0.339849074900441 
2084	 0.339703408428662 
2085	 0.33954176792656 
2086	 0.339376790551143 
2087	 0.339168262990441 
2088	 0.339006867382027 
2089	 0.338871666459481 
2090	 0.338722956700203 
2091	 0.338603660545106 
2092	 0.338442606012245 
2093	 0.338249597169754 
2094	 0.338067029365609 
2095	 0.337877216427692 
2096	 0.337674978300891 
2097	 0.337475391304469 
2098	 0.337263095684448 
2099	 0.337032322053197 
2100	 0.33677422513191 
2101	 0.336507227590721 
2102	 0.336225314986685 
2103	 0.335939280580237 
2104	 0.335636347049854 
2105	 0.335329004998545 
2106	 0.335023271853738 
2107	 0.334689943509724 
2108	 0.334344352926437 
2109	 0.333976467727442 
2110	 0.333581400377346 
2111	 0.333184153077721 
2112	 0.332758337375184 
2113	 0.33234204870108 
2114	 0.331919617482964 
2115	 0.331501491117855 
2116	 0.331099850801513 
2117	 0.330681920449969 
2118	 0.330242094907241 
2119	 0.329785692562226 
2120	 0.329344336877039 
2121	 0.328859953661476 
2122	 0.328452611633787 
2123	 0.328083286241552 
2124	 0.327728503427023 
2125	 0.327417598135574 
2126	 0.327106732874417 
2127	 0.326801144793495 
2128	 0.326525548055849 
2129	 0.326259692261649 
2130	 0.326030705772219 
2131	 0.325849493992291 
2132	 0.32566768963489 
2133	 0.325511010721311 
2134	 0.325363077138188 
2135	 0.325226569522521 
2136	 0.325087185527137 
2137	 0.324952328591157 
2138	 0.324825284247049 
2139	 0.324708162592807 
2140	 0.324585774060702 
2141	 0.324486842729712 
2142	 0.324405713915641 
2143	 0.324336000801397 
2144	 0.324264097579392 
2145	 0.324238499883575 
2146	 0.324245191557991 
2147	 0.324264238240436 
2148	 0.324338630426709 
2149	 0.324382436462198 
2150	 0.324406352816683 
2151	 0.324460545489816 
2152	 0.32453100919888 
2153	 0.324597218374483 
2154	 0.324657614583512 
2155	 0.324733538735973 
2156	 0.324774851328596 
2157	 0.32477965577265 
2158	 0.324800132204477 
2159	 0.324826074226858 
2160	 0.324825227753289 
2161	 0.324825277985963 
2162	 0.324784027989688 
2163	 0.324708540633494 
2164	 0.324630356692265 
2165	 0.324519960089046 
2166	 0.324412046327703 
2167	 0.324292311677717 
2168	 0.324179038359683 
2169	 0.324060246237463 
2170	 0.323943814510292 
2171	 0.323822028226101 
2172	 0.323716403026246 
2173	 0.323631883374486 
2174	 0.323520368612277 
2175	 0.323408791706147 
2176	 0.323329616500954 
2177	 0.3232431182335 
2178	 0.323148844859644 
2179	 0.323064959471245 
2180	 0.322995408199984 
2181	 0.322923681845207 
2182	 0.322848739419477 
2183	 0.322784823033901 
2184	 0.322760534141696 
2185	 0.322669599003846 
2186	 0.322560789048196 
2187	 0.322422408972179 
2188	 0.322217485712467 
2189	 0.322044227083355 
2190	 0.32187632162386 
2191	 0.321690768652192 
2192	 0.321509189110032 
2193	 0.321306874510337 
2194	 0.321087618751506 
2195	 0.320856026827961 
2196	 0.32061697652761 
2197	 0.320348521620858 
2198	 0.320080938184234 
2199	 0.319775748397374 
2200	 0.319494667828127 
2201	 0.319223628989584 
2202	 0.318915008676863 
2203	 0.318608305947537 
2204	 0.318261265471626 
2205	 0.317862485730128 
2206	 0.317480461220442 
2207	 0.317081303102542 
2208	 0.316696440667015 
2209	 0.316309662774827 
2210	 0.315927594666255 
2211	 0.315556369268019 
2212	 0.315176593352165 
2213	 0.314794165031843 
2214	 0.314416990655548 
2215	 0.314032172294612 
2216	 0.313657911502782 
2217	 0.313296677748236 
2218	 0.312927742213404 
2219	 0.31256373473375 
2220	 0.312200839068392 
2221	 0.311849313521468 
2222	 0.31147465866194 
2223	 0.311088368275977 
2224	 0.310662704071767 
2225	 0.310216763643682 
2226	 0.30974487409145 
2227	 0.309206500354933 
2228	 0.308650404345914 
2229	 0.308003194796613 
2230	 0.307276169242872 
2231	 0.306487848452171 
2232	 0.305644076455773 
2233	 0.304712585027346 
2234	 0.30373890736049 
2235	 0.30260837535461 
2236	 0.301378456484496 
2237	 0.300031047358138 
2238	 0.2984863918109 
2239	 0.296951878312639 
2240	 0.295368590570514 
2241	 0.293673452625068 
2242	 0.291958169049433 
2243	 0.290076259572611 
2244	 0.288013454664351 
2245	 0.285926646317702 
2246	 0.283666703491136 
2247	 0.28144838744431 
2248	 0.279234322641434 
2249	 0.276946813495212 
2250	 0.274629994821173 
2251	 0.272301505679778 
2252	 0.269754749451823 
2253	 0.267311740616514 
2254	 0.264858593670833 
2255	 0.262373638207673 
2256	 0.26013969905753 
2257	 0.257898000969791 
2258	 0.255701540616693 
2259	 0.253609441993205 
2260	 0.251471256305241 
2261	 0.249308143353151 
2262	 0.247231149444269 
2263	 0.245143978150555 
2264	 0.243193684410049 
2265	 0.241354745254313 
2266	 0.239509672339921 
2267	 0.23777565418365 
2268	 0.235995219336117 
2269	 0.234192600167625 
2270	 0.232461000148589 
2271	 0.230713672124056 
2272	 0.229071696965616 
2273	 0.227546895199837 
2274	 0.225980940179714 
2275	 0.224526256454921 
2276	 0.222960444006262 
2277	 0.221330024697862 
2278	 0.219700476234693 
2279	 0.217995928655901 
2280	 0.216317325917221 
2281	 0.214709054139739 
2282	 0.212976501751659 
2283	 0.211186983334412 
2284	 0.209391693094159 
2285	 0.207394424864888 
2286	 0.205396910211706 
2287	 0.203386182900561 
2288	 0.201323758982536 
2289	 0.199350643600348 
2290	 0.197304060844421 
2291	 0.195301610219997 
2292	 0.19330228511436 
2293	 0.191213103486008 
2294	 0.189257616433526 
2295	 0.187336627541234 
2296	 0.185501491690074 
2297	 0.183955644584039 
2298	 0.182604346802423 
2299	 0.181485003170097 
2300	 0.180604217110883 
2301	 0.179965816721115 
2302	 0.179568469209509 
2303	 0.179406627548993 
2304	 0.179513530283712 
2305	 0.179830729851817 
2306	 0.180405592695555 
2307	 0.181176803398947 
2308	 0.182213386573774 
2309	 0.18339453732875 
2310	 0.184824412068894 
2311	 0.186330271224603 
2312	 0.188115185781704 
2313	 0.189791864203002 
2314	 0.191594404079972 
2315	 0.193287694368414 
2316	 0.194954456186023 
2317	 0.19649053585794 
2318	 0.198044170070236 
2319	 0.199310311511088 
2320	 0.200428075439761 
2321	 0.201330495436309 
2322	 0.201935977467688 
2323	 0.202458373743216 
2324	 0.20281291303842 
2325	 0.203017604135673 
2326	 0.203054128385909 
2327	 0.20298069919269 
2328	 0.202738826967812 
2329	 0.202370393299228 
2330	 0.20187011044538 
2331	 0.201245559312976 
2332	 0.200500531287637 
2333	 0.199624876957186 
2334	 0.1985822057264 
2335	 0.197462062355638 
2336	 0.196218273310347 
2337	 0.194867402104807 
2338	 0.193593704346347 
2339	 0.19230087156568 
2340	 0.191047177740309 
2341	 0.189918879733146 
2342	 0.188804063823629 
2343	 0.187864091880131 
2344	 0.187148135123014 
2345	 0.18666344349944 
2346	 0.186496589954845 
2347	 0.186647969874418 
2348	 0.187017604278699 
2349	 0.187674202487822 
2350	 0.188585348292429 
2351	 0.189666171398384 
2352	 0.190928013107971 
2353	 0.192233732022839 
2354	 0.193404965059655 
2355	 0.194578788738325 
2356	 0.19564845047813 
2357	 0.196504186701191 
2358	 0.197339033807422 
2359	 0.1979566040678 
2360	 0.198341093263383 
2361	 0.198640051863986 
2362	 0.198848668165652 
2363	 0.198906495248297 
2364	 0.198958419094231 
2365	 0.198946181116992 
2366	 0.198785597747356 
2367	 0.198716448700816 
2368	 0.198643516784706 
2369	 0.198574593300833 
2370	 0.198557743995104 
2371	 0.198483269028195 
2372	 0.198418435163024 
2373	 0.198364304426491 
2374	 0.198323386031185 
2375	 0.198324524453129 
2376	 0.198299847390416 
2377	 0.198235625345451 
2378	 0.198217651099794 
2379	 0.198276891515096 
2380	 0.198347864032194 
2381	 0.198410095222293 
2382	 0.198488269375739 
2383	 0.198561182870754 
2384	 0.198634641460287 
2385	 0.198787019805718 
2386	 0.19880189552025 
2387	 0.198694049993405 
2388	 0.198707413027361 
2389	 0.19868284264548 
2390	 0.198708121418016 
2391	 0.198862191187532 
2392	 0.198906894538624 
2393	 0.198904693251081 
2394	 0.198888673574007 
2395	 0.198841423340425 
2396	 0.198812099482705 
2397	 0.198736225935381 
2398	 0.198704287135854 
2399	 0.198729999552029 
2400	 0.198720039067203 
2401	 0.198721932100607 
2402	 0.198658612912044 
2403	 0.198521382175088 
2404	 0.198498882698402 
2405	 0.198519844896034 
2406	 0.198554667586899 
2407	 0.198583502389928 
2408	 0.198472221859162 
2409	 0.198307702088396 
2410	 0.198138383989116 
2411	 0.198087411846775 
2412	 0.198068030043779 
2413	 0.198020182006519 
2414	 0.198061605284861 
2415	 0.197975513566693 
2416	 0.197853525446699 
2417	 0.197798662184285 
2418	 0.19767289812013 
2419	 0.197616815330795 
2420	 0.197618180662014 
2421	 0.197531683584943 
2422	 0.197389487199756 
2423	 0.197321428250905 
2424	 0.19731741022726 
2425	 0.197365501293848 
2426	 0.197466059265605 
2427	 0.197430856810812 
2428	 0.197328585820283 
2429	 0.197230744832043 
2430	 0.197034818634699 
2431	 0.196914526041377 
2432	 0.196780735450926 
2433	 0.196631244384587 
2434	 0.196627689302691 
2435	 0.196522019444626 
2436	 0.196376858156705 
2437	 0.196145601482776 
2438	 0.195756630367464 
2439	 0.195500386046995 
2440	 0.195357121362694 
2441	 0.195205092430244 
2442	 0.195093271612604 
2443	 0.194945152700857 
2444	 0.19465474302451 
2445	 0.194491819722345 
2446	 0.19430821347068 
2447	 0.193948959289805 
2448	 0.193705403399389 
2449	 0.193378564372183 
2450	 0.193115590197702 
2451	 0.192920889424442 
2452	 0.192568273211341 
2453	 0.192284927192746 
2454	 0.192011235546087 
2455	 0.19180568463179 
2456	 0.191626330999951 
2457	 0.191328874682318 
2458	 0.1910628195892 
2459	 0.190824947201344 
2460	 0.190596610124718 
2461	 0.190494759469565 
2462	 0.190307568351316 
2463	 0.190030380704211 
2464	 0.189816739363669 
2465	 0.189516746611709 
2466	 0.189257580265391 
2467	 0.189013402730691 
2468	 0.188866392414495 
2469	 0.188838747427698 
2470	 0.188715999697704 
2471	 0.188627862191324 
2472	 0.188564277792788 
2473	 0.188599043159372 
2474	 0.188707626395565 
2475	 0.188679510045825 
2476	 0.188618385060484 
2477	 0.188502465564631 
2478	 0.18836143353972 
2479	 0.188520823680006 
2480	 0.188742334380955 
2481	 0.188882394121666 
2482	 0.189165126962574 
2483	 0.189257349087056 
2484	 0.189260740492923 
2485	 0.189423113426882 
2486	 0.18951537527078 
2487	 0.189566582630954 
2488	 0.189811235077542 
2489	 0.190199184235244 
2490	 0.190384394524832 
2491	 0.190518310545208 
2492	 0.190803746072332 
2493	 0.190853040579376 
2494	 0.19098655606976 
2495	 0.191452563310995 
2496	 0.19194704284763 
2497	 0.19245033649226 
2498	 0.193011343727063 
2499	 0.193566089624637 
2500	 0.193938095101973 
