Wavelength	spectrum00017.asd
350	 3.73732027247354E-02 
351	 3.67615740474894E-02 
352	 3.66220503758425E-02 
353	 3.74114597079717E-02 
354	 3.73251767023997E-02 
355	 3.77043693122316E-02 
356	 3.76283674300713E-02 
357	 3.62973357754621E-02 
358	 3.45168014167524E-02 
359	 3.31526775540798E-02 
360	 3.27370241168696E-02 
361	 3.33820040717581E-02 
362	 3.40069233101048E-02 
363	 3.40287654392628E-02 
364	 3.33778528716094E-02 
365	 0.032502058788036 
366	 3.33743987643199E-02 
367	 0.034177793917429 
368	 3.34171529070798E-02 
369	 3.37165572788685E-02 
370	 3.42802928885004E-02 
371	 0.034489020368735 
372	 3.39902517978956E-02 
373	 3.36879002591391E-02 
374	 3.38352074680922E-02 
375	 3.42406980582202E-02 
376	 3.42284909920435E-02 
377	 3.39758859697169E-02 
378	 3.39707381366084E-02 
379	 3.44360606873551E-02 
380	 3.44120254783087E-02 
381	 3.44561767576226E-02 
382	 3.44115667145775E-02 
383	 3.38316598657059E-02 
384	 3.38792233386644E-02 
385	 3.43333901167099E-02 
386	 3.49410856967678E-02 
387	 3.57288946008417E-02 
388	 3.52700928040619E-02 
389	 3.46931481318901E-02 
390	 3.51447228787215E-02 
391	 3.50837968700197E-02 
392	 3.50060954761112E-02 
393	 3.53279658716793E-02 
394	 0.036236934526925 
395	 3.64885502351348E-02 
396	 3.65067803737476E-02 
397	 3.68480202985939E-02 
398	 3.80361947425427E-02 
399	 3.75707475439526E-02 
400	 3.65953127129706E-02 
401	 3.68195586136136E-02 
402	 3.74109906030871E-02 
403	 3.83118518465822E-02 
404	 3.88494740932344E-02 
405	 3.81196002458227E-02 
406	 3.84370515491236E-02 
407	 0.038988463206312 
408	 3.91656285000979E-02 
409	 3.97270132589311E-02 
410	 3.99567192760372E-02 
411	 4.01196321568826E-02 
412	 4.06691575520947E-02 
413	 4.13824428208165E-02 
414	 4.16283509136804E-02 
415	 4.15089040231569E-02 
416	 4.17595948491811E-02 
417	 4.21514731713377E-02 
418	 4.24798218703327E-02 
419	 4.26958778345183E-02 
420	 4.31171027634741E-02 
421	 4.35220992762832E-02 
422	 4.38971373326009E-02 
423	 0.04430035889585 
424	 4.46791828529548E-02 
425	 4.49391108278555E-02 
426	 4.51390224482658E-02 
427	 4.55056906870452E-02 
428	 4.59624981253666E-02 
429	 4.64550606816355E-02 
430	 4.69000345846146E-02 
431	 4.70739516556037E-02 
432	 4.75844059499848E-02 
433	 4.81866782229649E-02 
434	 4.82800282868345E-02 
435	 4.87893294429132E-02 
436	 4.94153107886392E-02 
437	 4.98503618811946E-02 
438	 4.99695280564523E-02 
439	 5.04095881060214E-02 
440	 5.09654380592774E-02 
441	 5.13235267362528E-02 
442	 5.18651186711554E-02 
443	 5.24321567873711E-02 
444	 0.052935330986871 
445	 5.33611307044962E-02 
446	 5.37336188569023E-02 
447	 5.42132156513977E-02 
448	 5.47989834794341E-02 
449	 5.50638127628657E-02 
450	 5.55175694047841E-02 
451	 5.61205142222176E-02 
452	 5.66235959595124E-02 
453	 0.056915425431622 
454	 5.73662480066417E-02 
455	 5.79560153998347E-02 
456	 5.82138896900476E-02 
457	 5.87705668528924E-02 
458	 5.92292043849459E-02 
459	 5.93269638523675E-02 
460	 5.99059957624091E-02 
461	 6.03584912231176E-02 
462	 6.06329778061324E-02 
463	 6.09832491388783E-02 
464	 0.061377236446971 
465	 6.18047122430349E-02 
466	 6.21815663307812E-02 
467	 0.062300621865971 
468	 6.26126379421577E-02 
469	 0.062996607410482 
470	 6.32360637914238E-02 
471	 6.34950210359776E-02 
472	 6.36791596561423E-02 
473	 6.38503621077405E-02 
474	 6.41770388486651E-02 
475	 6.44175960470252E-02 
476	 6.45599660146971E-02 
477	 0.064659189169555 
478	 6.48367165097593E-02 
479	 0.064924870520638 
480	 6.49731732363817E-02 
481	 6.50812065346675E-02 
482	 6.50891593073782E-02 
483	 0.065036327530295 
484	 6.49881280282616E-02 
485	 6.50193987935557E-02 
486	 6.51159583557364E-02 
487	 6.51151359726767E-02 
488	 6.49253183712994E-02 
489	 6.47632300406893E-02 
490	 6.46047960003965E-02 
491	 6.44569174821706E-02 
492	 6.43297782398582E-02 
493	 6.41103774451378E-02 
494	 6.38965284537504E-02 
495	 6.37222975148945E-02 
496	 6.34771616310179E-02 
497	 6.31615231964948E-02 
498	 6.28392109610384E-02 
499	 6.25615903262779E-02 
500	 6.22210834365994E-02 
501	 6.18190444571602E-02 
502	 6.13812226165777E-02 
503	 6.09505715299551E-02 
504	 6.05692809304215E-02 
505	 6.01315656806797E-02 
506	 5.95995432922792E-02 
507	 5.91667614362449E-02 
508	 5.87023248863608E-02 
509	 5.82165386719492E-02 
510	 5.77634167110323E-02 
511	 5.72345119379485E-02 
512	 5.67011480807599E-02 
513	 5.62258793350485E-02 
514	 5.58404738451887E-02 
515	 5.52988114291787E-02 
516	 5.47031854461679E-02 
517	 5.41960288566101E-02 
518	 5.37110672276352E-02 
519	 5.32236625704372E-02 
520	 5.27234602664067E-02 
521	 5.22150018510134E-02 
522	 5.17424339150568E-02 
523	 5.12595466503234E-02 
524	 5.07531358917728E-02 
525	 0.050304644857232 
526	 4.98152976757522E-02 
527	 4.93181338747274E-02 
528	 4.88760726127425E-02 
529	 4.84397083012414E-02 
530	 4.79766611653421E-02 
531	 4.75285532420314E-02 
532	 4.72080597246437E-02 
533	 4.67941110510359E-02 
534	 4.63319465437524E-02 
535	 4.59042929595142E-02 
536	 4.55185425320159E-02 
537	 4.51308264905798E-02 
538	 4.47453595449868E-02 
539	 4.43899508408145E-02 
540	 4.40431391667119E-02 
541	 4.37028579120802E-02 
542	 0.043372253911608 
543	 4.30609411043155E-02 
544	 4.27466711182752E-02 
545	 4.24207754026741E-02 
546	 4.20905834323044E-02 
547	 4.18090292640027E-02 
548	 4.15349071061593E-02 
549	 4.12626640283024E-02 
550	 4.10193740947305E-02 
551	 4.07464527054351E-02 
552	 4.04998602191218E-02 
553	 4.03064427766318E-02 
554	 4.00658299320913E-02 
555	 3.98286554693512E-02 
556	 3.96113644109327E-02 
557	 3.94140601911496E-02 
558	 3.92248387906314E-02 
559	 3.90866379880803E-02 
560	 0.038986635557636 
561	 3.88307171871019E-02 
562	 0.038618142411754 
563	 3.84458789512452E-02 
564	 3.83698642425914E-02 
565	 3.81809993601954E-02 
566	 3.79845195146134E-02 
567	 0.037822579164614 
568	 3.76813143559701E-02 
569	 3.75256371421728E-02 
570	 3.73669395423154E-02 
571	 3.72099224934593E-02 
572	 3.70198026914748E-02 
573	 3.68922054681567E-02 
574	 3.68007547104156E-02 
575	 0.036685405863449 
576	 3.66105437189739E-02 
577	 3.65043117882191E-02 
578	 3.63618654501692E-02 
579	 3.62630406486072E-02 
580	 3.61891438131905E-02 
581	 3.61114339732249E-02 
582	 3.60171408087586E-02 
583	 3.59554331379967E-02 
584	 0.035891503062746 
585	 3.58239871563151E-02 
586	 3.57661109115316E-02 
587	 3.56706158354162E-02 
588	 3.55703305868988E-02 
589	 3.54922652254158E-02 
590	 3.54405768498977E-02 
591	 3.53544805524052E-02 
592	 3.52554102698688E-02 
593	 3.51776362398285E-02 
594	 3.50834356655155E-02 
595	 3.50053711988731E-02 
596	 3.49434818220594E-02 
597	 3.48690139199161E-02 
598	 3.47934588697055E-02 
599	 3.47459047829682E-02 
600	 3.47248031039042E-02 
601	 3.46438946663239E-02 
602	 3.45938564102016E-02 
603	 3.45547610748428E-02 
604	 0.034474450985668 
605	 3.44296654690201E-02 
606	 3.44066938296194E-02 
607	 3.43873146151115E-02 
608	 3.43580996363377E-02 
609	 3.42901594499084E-02 
610	 3.42265181957319E-02 
611	 3.42062517667587E-02 
612	 0.034197879679801 
613	 3.41544834384378E-02 
614	 3.40905490710208E-02 
615	 3.40548700857882E-02 
616	 3.39902924446863E-02 
617	 3.39541307908196E-02 
618	 3.39634629584489E-02 
619	 3.39397109808663E-02 
620	 3.39078481590144E-02 
621	 0.033878268606475 
622	 0.033853405870294 
623	 3.38093230539713E-02 
624	 3.37843853865474E-02 
625	 3.37796341057418E-02 
626	 3.37605945889035E-02 
627	 3.37538646998004E-02 
628	 3.37361795652931E-02 
629	 3.37008942416434E-02 
630	 3.37074821509198E-02 
631	 3.36995857330394E-02 
632	 3.36774815091217E-02 
633	 3.36632569361664E-02 
634	 3.36394675019719E-02 
635	 3.36188951443668E-02 
636	 3.36107249307183E-02 
637	 3.36165346132277E-02 
638	 3.36172731071859E-02 
639	 3.36032729470963E-02 
640	 3.35774865201509E-02 
641	 3.35710424861052E-02 
642	 3.35745031193802E-02 
643	 3.35827563761626E-02 
644	 0.033593116205857 
645	 3.36049802068797E-02 
646	 3.35985770143515E-02 
647	 3.35765194640327E-02 
648	 3.35810921054758E-02 
649	 3.35810867766984E-02 
650	 0.033584463349872 
651	 3.36004295402455E-02 
652	 3.35918531157681E-02 
653	 3.35934579544955E-02 
654	 3.36035692948744E-02 
655	 3.35930916652932E-02 
656	 3.36060216452647E-02 
657	 3.36281897741385E-02 
658	 3.36386505354083E-02 
659	 3.36156538765402E-02 
660	 3.36486005140814E-02 
661	 3.36955801669969E-02 
662	 3.36892057911511E-02 
663	 3.37266962065308E-02 
664	 3.37306546528756E-02 
665	 3.37033393654712E-02 
666	 3.37326163088873E-02 
667	 3.37563842329396E-02 
668	 3.37745688634387E-02 
669	 3.37943840016134E-02 
670	 3.38099450042211E-02 
671	 3.38262960362229E-02 
672	 3.38476417496299E-02 
673	 3.38780678614074E-02 
674	 3.39281172037917E-02 
675	 3.39513578177357E-02 
676	 3.39462736386145E-02 
677	 3.39693737954722E-02 
678	 3.39954202315556E-02 
679	 3.40205127659887E-02 
680	 3.40443266935742E-02 
681	 3.40630866700285E-02 
682	 3.40888293325268E-02 
683	 3.41247584431179E-02 
684	 3.41649599938266E-02 
685	 3.41766547008156E-02 
686	 3.41911356569895E-02 
687	 3.42255936775072E-02 
688	 3.42684023650131E-02 
689	 3.42785384389383E-02 
690	 0.034285983313668 
691	 3.43254458775822E-02 
692	 3.43788545977424E-02 
693	 3.44149033940557E-02 
694	 3.44474891216005E-02 
695	 3.45114737296155E-02 
696	 3.45471691113213E-02 
697	 0.034561812475065 
698	 0.034573652987848 
699	 3.46034882943523E-02 
700	 3.46502893120158E-02 
701	 0.034698225184751 
702	 3.47336457301286E-02 
703	 0.03476982605989 
704	 3.48071320677055E-02 
705	 3.48439880289096E-02 
706	 3.48783358143277E-02 
707	 3.49169374513912E-02 
708	 3.49568487314001E-02 
709	 3.49960430553284E-02 
710	 3.50360225707694E-02 
711	 3.50819106251787E-02 
712	 3.51325631408395E-02 
713	 3.51838822029661E-02 
714	 3.52321596977419E-02 
715	 0.035261103583294 
716	 3.52748406804584E-02 
717	 3.52947303641862E-02 
718	 3.53541354808865E-02 
719	 3.54253631552374E-02 
720	 3.54799677348895E-02 
721	 3.55019508979641E-02 
722	 3.55474762638449E-02 
723	 3.56061018082407E-02 
724	 3.56512281445902E-02 
725	 3.56824539543616E-02 
726	 0.035714230104366 
727	 0.035761722225812 
728	 0.035832096005967 
729	 3.58533759325779E-02 
730	 3.58848181758651E-02 
731	 3.59497673384266E-02 
732	 3.59835234903484E-02 
733	 3.60341210171876E-02 
734	 3.60863223703469E-02 
735	 3.61186521436513E-02 
736	 3.61553259006695E-02 
737	 3.61941500575631E-02 
738	 3.62334541606052E-02 
739	 3.62740427121939E-02 
740	 3.63390212853584E-02 
741	 3.63926310021491E-02 
742	 3.64207074692602E-02 
743	 3.64511841016214E-02 
744	 3.65028768514001E-02 
745	 3.65615353550236E-02 
746	 3.66084703544028E-02 
747	 3.66462672922188E-02 
748	 0.036680590688491 
749	 3.67152558033581E-02 
750	 3.67518238996248E-02 
751	 0.03678405557707 
752	 3.68277865571047E-02 
753	 3.68793566902191E-02 
754	 3.69083788445514E-02 
755	 3.69451515273583E-02 
756	 3.69860483020724E-02 
757	 0.037023825939892 
758	 3.70657189926717E-02 
759	 3.70986453447106E-02 
760	 3.71209876251428E-02 
761	 3.71415895205639E-02 
762	 3.71956529511476E-02 
763	 3.72345252797302E-02 
764	 3.72597168627404E-02 
765	 3.73279164130327E-02 
766	 3.73594438328799E-02 
767	 3.73690939253616E-02 
768	 3.73884800662065E-02 
769	 3.74460110674467E-02 
770	 3.74912326992481E-02 
771	 0.03752794074216 
772	 3.75728025092398E-02 
773	 0.037595899111665 
774	 3.76340646601627E-02 
775	 3.76829890039707E-02 
776	 0.037707539907807 
777	 3.77522122785589E-02 
778	 3.77981005936194E-02 
779	 3.78295955566817E-02 
780	 3.78518399756012E-02 
781	 3.78817793347993E-02 
782	 3.79229737242554E-02 
783	 3.79697823464723E-02 
784	 3.80014791762607E-02 
785	 3.80421551198739E-02 
786	 3.80942712893564E-02 
787	 3.81433475710886E-02 
788	 3.81538447735611E-02 
789	 3.81761469668729E-02 
790	 3.82283397073512E-02 
791	 3.82801045481979E-02 
792	 3.83131744576469E-02 
793	 3.83401194211174E-02 
794	 3.83766843005785E-02 
795	 3.84299026449535E-02 
796	 3.84686576353813E-02 
797	 3.85005339397388E-02 
798	 3.85438242835828E-02 
799	 3.85893426095071E-02 
800	 3.86346880776609E-02 
801	 3.86731922366232E-02 
802	 3.86987954527955E-02 
803	 3.87458293911152E-02 
804	 3.87871559126536E-02 
805	 0.038814474192606 
806	 3.88595659534256E-02 
807	 3.89107515876681E-02 
808	 3.89600598198108E-02 
809	 3.90059705833827E-02 
810	 3.90635777542908E-02 
811	 3.91312457697939E-02 
812	 3.91861153842265E-02 
813	 3.92089991232954E-02 
814	 3.92532881387596E-02 
815	 3.93189498004665E-02 
816	 3.93856799554549E-02 
817	 3.94244489041599E-02 
818	 3.94903983284874E-02 
819	 3.95556137465978E-02 
820	 0.039601561071987 
821	 3.96457159062599E-02 
822	 3.97060278816794E-02 
823	 3.97780940734468E-02 
824	 3.98490521360142E-02 
825	 3.99005158539315E-02 
826	 3.99789224036398E-02 
827	 4.00660080899584E-02 
828	 4.01252994605415E-02 
829	 4.02061622582306E-02 
830	 4.02906081351954E-02 
831	 4.03785408876392E-02 
832	 4.04845593326196E-02 
833	 4.05672552035708E-02 
834	 4.06479565734543E-02 
835	 4.07408937551114E-02 
836	 4.08346337892923E-02 
837	 4.09370126668462E-02 
838	 4.10258003586528E-02 
839	 4.10937511527912E-02 
840	 4.11966384805462E-02 
841	 4.12857010546527E-02 
842	 4.13692336024733E-02 
843	 4.14728044886676E-02 
844	 4.15841758158381E-02 
845	 0.041697451262947 
846	 4.18001592454392E-02 
847	 4.18832295809639E-02 
848	 4.20063306811365E-02 
849	 4.21168952548518E-02 
850	 4.22032012625538E-02 
851	 4.23190327973991E-02 
852	 4.24574183364965E-02 
853	 4.26061769841022E-02 
854	 4.27501921721185E-02 
855	 4.28739535323554E-02 
856	 4.29784442554465E-02 
857	 0.043091119157183 
858	 4.32417107021717E-02 
859	 4.34443843955485E-02 
860	 4.35868972073894E-02 
861	 4.37031699689165E-02 
862	 4.38849202895865E-02 
863	 4.40609195973844E-02 
864	 4.42426298618498E-02 
865	 4.44185481694899E-02 
866	 4.45611946730849E-02 
867	 4.47183050686939E-02 
868	 4.49177079959481E-02 
869	 4.51405310046262E-02 
870	 4.53140554960795E-02 
871	 4.55068006946015E-02 
872	 4.57133848175731E-02 
873	 4.59194740808749E-02 
874	 4.61247496307125E-02 
875	 4.63756778678199E-02 
876	 4.66261487074789E-02 
877	 4.68304151813852E-02 
878	 4.70491109179458E-02 
879	 4.73005374847916E-02 
880	 4.75581938133297E-02 
881	 4.77857550521508E-02 
882	 4.80253986960576E-02 
883	 4.82740438927106E-02 
884	 4.85449591319965E-02 
885	 4.88571670025232E-02 
886	 4.91586562521621E-02 
887	 0.049478117974582 
888	 4.98108326280633E-02 
889	 5.01075695405296E-02 
890	 5.04089402090301E-02 
891	 5.07247062068778E-02 
892	 5.10511987978951E-02 
893	 5.13719149352257E-02 
894	 5.17221397672032E-02 
895	 5.20846845978873E-02 
896	 0.052444281417815 
897	 5.28266093667038E-02 
898	 5.32188227105052E-02 
899	 5.35989551811554E-02 
900	 5.39568909254013E-02 
901	 5.43310795346619E-02 
902	 5.47335331780756E-02 
903	 5.51826549230553E-02 
904	 5.56736677939535E-02 
905	 5.60783989126648E-02 
906	 0.056514652394368 
907	 0.057005476993827 
908	 5.74936426287036E-02 
909	 5.79565509991914E-02 
910	 5.84118402225757E-02 
911	 5.88966144370071E-02 
912	 5.94522071247819E-02 
913	 6.00138097328529E-02 
914	 6.05487760260526E-02 
915	 6.10636491084732E-02 
916	 6.16089755548357E-02 
917	 6.21832704420535E-02 
918	 6.27501002905859E-02 
919	 6.33239389894993E-02 
920	 6.40249949171675E-02 
921	 6.45972337387202E-02 
922	 6.51352767959509E-02 
923	 6.57681832476064E-02 
924	 6.64630841194426E-02 
925	 6.71659016626666E-02 
926	 6.78361812180441E-02 
927	 6.84762251378676E-02 
928	 0.069194491442349 
929	 6.99345959769458E-02 
930	 7.06523862579458E-02 
931	 7.13358719927326E-02 
932	 7.20748533746769E-02 
933	 7.28804866688333E-02 
934	 7.36841801645535E-02 
935	 7.44080771863949E-02 
936	 7.51477161052284E-02 
937	 0.075978350616233 
938	 7.68337834011723E-02 
939	 7.75956282820781E-02 
940	 7.84889653896896E-02 
941	 7.93881064008146E-02 
942	 8.02287338582819E-02 
943	 8.10430700255901E-02 
944	 8.19464135207038E-02 
945	 8.28606428991134E-02 
946	 8.37602585900849E-02 
947	 8.46940666603352E-02 
948	 8.56116236772165E-02 
949	 0.086491807154452 
950	 0.087385766043378 
951	 8.84082306346556E-02 
952	 8.93559454852704E-02 
953	 9.03187828568844E-02 
954	 9.13266826147417E-02 
955	 9.22543553406759E-02 
956	 9.32568801184032E-02 
957	 9.43146898335415E-02 
958	 9.53769034218828E-02 
959	 9.64098550905246E-02 
960	 0.097419079719989 
961	 9.84521565659375E-02 
962	 9.95285316597687E-02 
963	 0.100594495989634 
964	 0.101585976801919 
965	 0.10262977870088 
966	 0.103793282504683 
967	 0.104899291681732 
968	 0.105978706857842 
969	 0.107052477376944 
970	 0.108136550642745 
971	 0.109223813609617 
972	 0.110425874675819 
973	 0.111608207967983 
974	 0.112669608744171 
975	 0.113811492922891 
976	 0.114976853251721 
977	 0.116192971001809 
978	 0.117441053676542 
979	 0.118487711188247 
980	 0.119700581719112 
981	 0.120937403464065 
982	 0.122003179051203 
983	 0.123116123574159 
984	 0.12436092456118 
985	 0.125652408476568 
986	 0.126876872895444 
987	 0.128063593538313 
988	 0.129290406076616 
989	 0.130516708075553 
990	 0.131685768434882 
991	 0.132849603108766 
992	 0.134003481932337 
993	 0.135183960106606 
994	 0.136426045277796 
995	 0.137723863943392 
996	 0.13897684929803 
997	 0.140161507470366 
998	 0.141332424436151 
999	 0.142679679181776 
1000	 0.143990814466361 
1001	 0.146062266894136 
1002	 0.147281845082797 
1003	 0.14851395252789 
1004	 0.149676944230316 
1005	 0.150775693193048 
1006	 0.151942417086157 
1007	 0.153070375183028 
1008	 0.154265480488563 
1009	 0.155542327280225 
1010	 0.156744018698491 
1011	 0.157973240226518 
1012	 0.159133145155908 
1013	 0.160203260012334 
1014	 0.161333904733517 
1015	 0.162431439628217 
1016	 0.163555810695665 
1017	 0.164824426453505 
1018	 0.165995498554868 
1019	 0.167198347215754 
1020	 0.168459228638218 
1021	 0.169617056377078 
1022	 0.170704086919079 
1023	 0.171834225082161 
1024	 0.172905002769184 
1025	 0.174045002539691 
1026	 0.17525160024308 
1027	 0.176411594509341 
1028	 0.177597859511478 
1029	 0.178756172469001 
1030	 0.179813724832344 
1031	 0.180924194719944 
1032	 0.182013160757057 
1033	 0.183072487913385 
1034	 0.184194346027721 
1035	 0.185273188437317 
1036	 0.18637663715089 
1037	 0.187538227331764 
1038	 0.188609598046708 
1039	 0.189649410215523 
1040	 0.190689395155669 
1041	 0.191642781974319 
1042	 0.192654060679893 
1043	 0.193699810830517 
1044	 0.194735775972768 
1045	 0.19579792961764 
1046	 0.196880555277466 
1047	 0.197882763036829 
1048	 0.198903341902644 
1049	 0.199864518940745 
1050	 0.200794286825953 
1051	 0.20181159366148 
1052	 0.202786886802176 
1053	 0.203773312883625 
1054	 0.204815342018687 
1055	 0.205783974428775 
1056	 0.206703738104819 
1057	 0.207642368808699 
1058	 0.208566149933696 
1059	 0.209451286375424 
1060	 0.210366123586025 
1061	 0.211256932277597 
1062	 0.212157573190757 
1063	 0.213073909639708 
1064	 0.213936581723521 
1065	 0.214792944607001 
1066	 0.215619338624509 
1067	 0.216430031147413 
1068	 0.217309523807426 
1069	 0.21814143885814 
1070	 0.218988667734335 
1071	 0.219847152813399 
1072	 0.220722465458023 
1073	 0.22151606291916 
1074	 0.222351943542324 
1075	 0.22316631754401 
1076	 0.223907967763855 
1077	 0.224711925664205 
1078	 0.22550584442393 
1079	 0.226291680564564 
1080	 0.227105834019043 
1081	 0.227852133835768 
1082	 0.228593202223974 
1083	 0.229314340268155 
1084	 0.230016710738092 
1085	 0.230782942769493 
1086	 0.231514647418241 
1087	 0.232234707206422 
1088	 0.232962086829949 
1089	 0.233692047380446 
1090	 0.234342805000376 
1091	 0.235010900687242 
1092	 0.235671180636082 
1093	 0.23633063650538 
1094	 0.237034788751319 
1095	 0.237693200493731 
1096	 0.238390008473022 
1097	 0.239071779761583 
1098	 0.23964613259513 
1099	 0.240257782755863 
1100	 0.240859439261975 
1101	 0.241437771447342 
1102	 0.242082700134878 
1103	 0.242697607022221 
1104	 0.243309696046158 
1105	 0.243912138276599 
1106	 0.244527704791594 
1107	 0.245096493779576 
1108	 0.245683636565051 
1109	 0.246262327748746 
1110	 0.246799581846973 
1111	 0.247358279669832 
1112	 0.247905512707017 
1113	 0.248453727070215 
1114	 0.249023086558893 
1115	 0.249562355799409 
1116	 0.250098943098306 
1117	 0.2506320273055 
1118	 0.251159637648139 
1119	 0.251689306106003 
1120	 0.252197769752971 
1121	 0.252695136771029 
1122	 0.25318872240854 
1123	 0.253663621000153 
1124	 0.254112536830286 
1125	 0.254591068685286 
1126	 0.255050998787208 
1127	 0.255492597367849 
1128	 0.255976121619893 
1129	 0.256440857419056 
1130	 0.256912147705562 
1131	 0.257389412191752 
1132	 0.257827454750956 
1133	 0.25825894588609 
1134	 0.258659558488616 
1135	 0.259067802096705 
1136	 0.259470633950659 
1137	 0.259880171921786 
1138	 0.260297052320089 
1139	 0.260703509831228 
1140	 0.261127717166607 
1141	 0.261492777975544 
1142	 0.261833144841255 
1143	 0.262170607084387 
1144	 0.262468419340866 
1145	 0.2627764771945 
1146	 0.263106085738803 
1147	 0.263422017404882 
1148	 0.263746513142317 
1149	 0.264066761629099 
1150	 0.264387646514004 
1151	 0.264713363291493 
1152	 0.265021646592889 
1153	 0.265333998511466 
1154	 0.265623434260051 
1155	 0.265885538021723 
1156	 0.26615277631869 
1157	 0.266404963625773 
1158	 0.266657161415469 
1159	 0.266910166247473 
1160	 0.267161010920934 
1161	 0.267400258306544 
1162	 0.2676610907783 
1163	 0.267906534807224 
1164	 0.268160144677816 
1165	 0.268419719700477 
1166	 0.268637854685773 
1167	 0.268851647328548 
1168	 0.269054465764491 
1169	 0.269262640622668 
1170	 0.269466891517339 
1171	 0.269668060896202 
1172	 0.26987611290957 
1173	 0.270072214160523 
1174	 0.270253285668318 
1175	 0.27043066212308 
1176	 0.27060057416795 
1177	 0.270773980905427 
1178	 0.270942914297144 
1179	 0.271118882536692 
1180	 0.271276170448086 
1181	 0.271418211592371 
1182	 0.271546898818615 
1183	 0.271665590876345 
1184	 0.271793281484191 
1185	 0.271937146574665 
1186	 0.272093238003944 
1187	 0.272266104174277 
1188	 0.272427194396779 
1189	 0.272599260573888 
1190	 0.272765127663039 
1191	 0.27291773827896 
1192	 0.273079160481 
1193	 0.273248483312342 
1194	 0.273415966170909 
1195	 0.273575344709058 
1196	 0.273750392164243 
1197	 0.273926381713956 
1198	 0.274120281883545 
1199	 0.27433264639712 
1200	 0.274548454736449 
1201	 0.274792299529652 
1202	 0.27503676739609 
1203	 0.275266518272627 
1204	 0.275533966111568 
1205	 0.275808578829981 
1206	 0.276085650162645 
1207	 0.276386273734444 
1208	 0.276708249891731 
1209	 0.277042730146799 
1210	 0.277383043052653 
1211	 0.277754772903897 
1212	 0.278153813792101 
1213	 0.278574716854569 
1214	 0.279014347564469 
1215	 0.279481980481934 
1216	 0.279992399171031 
1217	 0.28048905753272 
1218	 0.280997618112868 
1219	 0.28152134533193 
1220	 0.282030458777008 
1221	 0.282562315596445 
1222	 0.283088943240098 
1223	 0.2836339691834 
1224	 0.284169920718957 
1225	 0.284715084703983 
1226	 0.285222161825855 
1227	 0.285722976767735 
1228	 0.286200307843173 
1229	 0.286646466662081 
1230	 0.287089354888531 
1231	 0.28751867630669 
1232	 0.287943918535432 
1233	 0.288359224448488 
1234	 0.288755979895598 
1235	 0.289147383342963 
1236	 0.289523239320315 
1237	 0.289864225520084 
1238	 0.29021825336911 
1239	 0.290564373965517 
1240	 0.290920096405053 
1241	 0.291295658724003 
1242	 0.291638581955202 
1243	 0.291980564038185 
1244	 0.292318038246745 
1245	 0.292652945518217 
1246	 0.29298087754353 
1247	 0.293297550039204 
1248	 0.293607284811723 
1249	 0.29391821038642 
1250	 0.29420964878406 
1251	 0.294516922351083 
1252	 0.29484253973814 
1253	 0.295154861188664 
1254	 0.295468703596469 
1255	 0.295773118003312 
1256	 0.296072165008857 
1257	 0.296364290313041 
1258	 0.296643946322479 
1259	 0.296925182800056 
1260	 0.297210682324826 
1261	 0.29748190492367 
1262	 0.29773254750768 
1263	 0.298005620144232 
1264	 0.298261975852007 
1265	 0.298502376837071 
1266	 0.298757026117182 
1267	 0.299024693946323 
1268	 0.299265815510004 
1269	 0.299496366119661 
1270	 0.29972918897905 
1271	 0.299946232932208 
1272	 0.300170935111889 
1273	 0.300403927624868 
1274	 0.300628706859056 
1275	 0.300840893757049 
1276	 0.301062744167107 
1277	 0.301287815184164 
1278	 0.301512285030035 
1279	 0.301736602786302 
1280	 0.301966279973607 
1281	 0.302201956315499 
1282	 0.302432017839664 
1283	 0.302665503836758 
1284	 0.302893428661256 
1285	 0.30311657469833 
1286	 0.303329042660383 
1287	 0.303551003940401 
1288	 0.303771214553769 
1289	 0.304000661901798 
1290	 0.304240022350735 
1291	 0.304467240132251 
1292	 0.304699402511752 
1293	 0.304916039740924 
1294	 0.305120291530304 
1295	 0.305322480118445 
1296	 0.305514540068047 
1297	 0.305710461696438 
1298	 0.305903211783589 
1299	 0.306095373370595 
1300	 0.30629515363567 
1301	 0.30647969680211 
1302	 0.306650888737811 
1303	 0.306826918738208 
1304	 0.307005004340417 
1305	 0.307168654202978 
1306	 0.307325421839182 
1307	 0.307481894567891 
1308	 0.307629275721243 
1309	 0.307769378031782 
1310	 0.307908733640372 
1311	 0.308044666751999 
1312	 0.308195555099335 
1313	 0.308335907655181 
1314	 0.308507964191261 
1315	 0.308691954431132 
1316	 0.308909747300522 
1317	 0.309148958500372 
1318	 0.309406651665947 
1319	 0.30971448025132 
1320	 0.309987609966737 
1321	 0.310266787051822 
1322	 0.310528169529412 
1323	 0.310785768959792 
1324	 0.311015565205363 
1325	 0.311230641154813 
1326	 0.311429319459293 
1327	 0.311607138814373 
1328	 0.311766013046311 
1329	 0.311921261552612 
1330	 0.312041642975134 
1331	 0.312110857370633 
1332	 0.312195334151878 
1333	 0.312258062104445 
1334	 0.312328876151738 
1335	 0.312412759899376 
1336	 0.312502848898536 
1337	 0.312615758764222 
1338	 0.31272845161863 
1339	 0.312888403637915 
1340	 0.313073126519115 
1341	 0.313293110066081 
1342	 0.313570050003312 
1343	 0.313811002221336 
1344	 0.314079044782783 
1345	 0.31431105344238 
1346	 0.314530273137258 
1347	 0.314719331162383 
1348	 0.31489288136055 
1349	 0.315043292407769 
1350	 0.315154680065875 
1351	 0.315268260978858 
1352	 0.315370835555178 
1353	 0.315465476915869 
1354	 0.315547705741418 
1355	 0.315626586215282 
1356	 0.31570010603231 
1357	 0.31576541011195 
1358	 0.315815180032663 
1359	 0.315873832615196 
1360	 0.31593617527618 
1361	 0.315985170532792 
1362	 0.316049094594186 
1363	 0.316121874309387 
1364	 0.316176518984322 
1365	 0.316233179680561 
1366	 0.316261114721958 
1367	 0.316276778694957 
1368	 0.316269519014809 
1369	 0.316241301195037 
1370	 0.316199204148731 
1371	 0.31614418449399 
1372	 0.316063997097336 
1373	 0.315964392310198 
1374	 0.315846614646201 
1375	 0.315706125702154 
1376	 0.315549869067717 
1377	 0.315381122658191 
1378	 0.315185609665945 
1379	 0.31495576204007 
1380	 0.314730377099358 
1381	 0.314480808866196 
1382	 0.314239990210364 
1383	 0.313989099777034 
1384	 0.313759011201796 
1385	 0.313542235210809 
1386	 0.313323972018689 
1387	 0.313107972798405 
1388	 0.312913383877237 
1389	 0.312696071262097 
1390	 0.312534932026914 
1391	 0.312409935972056 
1392	 0.312315475305438 
1393	 0.312287302627617 
1394	 0.312268861662571 
1395	 0.312248183294266 
1396	 0.312268368774746 
1397	 0.312229333729791 
1398	 0.312186137628726 
1399	 0.312083979836731 
1400	 0.311959308742642 
1401	 0.31176584915236 
1402	 0.311518251781007 
1403	 0.31122910452977 
1404	 0.310878309500295 
1405	 0.310514472895253 
1406	 0.310106682250486 
1407	 0.309690262726346 
1408	 0.309234168748602 
1409	 0.308794541277255 
1410	 0.308333945464036 
1411	 0.307897643354312 
1412	 0.307456230767041 
1413	 0.307057889610965 
1414	 0.306665783229285 
1415	 0.306323692399278 
1416	 0.306024792416145 
1417	 0.305752351719282 
1418	 0.305529649052227 
1419	 0.305311397994435 
1420	 0.305126820049649 
1421	 0.304939607388492 
1422	 0.304766144196939 
1423	 0.304587970884966 
1424	 0.304410739281727 
1425	 0.304231904804345 
1426	 0.304069254154891 
1427	 0.303898709811531 
1428	 0.303739829696298 
1429	 0.303600561752136 
1430	 0.303465190386754 
1431	 0.303339153813495 
1432	 0.303210232824749 
1433	 0.303090127978371 
1434	 0.302967555877043 
1435	 0.302843358936729 
1436	 0.30271678597378 
1437	 0.30258831917851 
1438	 0.302472867710828 
1439	 0.302350600047383 
1440	 0.302250635805999 
1441	 0.302161718552049 
1442	 0.302095168953064 
1443	 0.302027542038999 
1444	 0.302012331743051 
1445	 0.302023381102591 
1446	 0.302079797020007 
1447	 0.302175577863617 
1448	 0.302311022322136 
1449	 0.302506366478121 
1450	 0.302700834979364 
1451	 0.302935486356276 
1452	 0.303167079929611 
1453	 0.303412075764207 
1454	 0.303650779896434 
1455	 0.303911167162929 
1456	 0.304143079903022 
1457	 0.304364776305329 
1458	 0.304570052630403 
1459	 0.304772585491826 
1460	 0.304935482411132 
1461	 0.305086820484789 
1462	 0.305190135034815 
1463	 0.305267782024205 
1464	 0.305282736031836 
1465	 0.305264477850399 
1466	 0.305172606974419 
1467	 0.305000428851378 
1468	 0.304760178353084 
1469	 0.304443103563145 
1470	 0.304093059016105 
1471	 0.303676484719092 
1472	 0.303209884455811 
1473	 0.302672662086551 
1474	 0.302067708092611 
1475	 0.30140734532623 
1476	 0.300690966644697 
1477	 0.299895049773417 
1478	 0.299024643742059 
1479	 0.298118108678356 
1480	 0.297138937951256 
1481	 0.296128472948266 
1482	 0.295059999812687 
1483	 0.293987872986694 
1484	 0.292862694689029 
1485	 0.291749032463331 
1486	 0.290602366978146 
1487	 0.28952440425368 
1488	 0.288408072258258 
1489	 0.287430447970572 
1490	 0.286492610344229 
1491	 0.285713539653809 
1492	 0.285016044299604 
1493	 0.28449681185814 
1494	 0.284146490820623 
1495	 0.283903429153821 
1496	 0.283798240509436 
1497	 0.283820186207444 
1498	 0.283914403995244 
1499	 0.284240180105947 
1500	 0.284632603674756 
1501	 0.285406966505794 
1502	 0.2863894910381 
1503	 0.287746732191649 
1504	 0.289495092049181 
1505	 0.291479453400848 
1506	 0.293989405104214 
1507	 0.296386774911016 
1508	 0.299140150773556 
1509	 0.301597779941612 
1510	 0.304063277787343 
1511	 0.306203721268345 
1512	 0.308126471920608 
1513	 0.30982941442423 
1514	 0.311190434686028 
1515	 0.312475160212402 
1516	 0.313500824270554 
1517	 0.314538152680487 
1518	 0.315453138216128 
1519	 0.316375445788494 
1520	 0.317279082351432 
1521	 0.31816824647641 
1522	 0.319039553872717 
1523	 0.319936854909164 
1524	 0.320798768086547 
1525	 0.32166183158596 
1526	 0.322490613623241 
1527	 0.32330393321133 
1528	 0.324053437934045 
1529	 0.324774583972768 
1530	 0.325445989299117 
1531	 0.326054685835286 
1532	 0.326649760240827 
1533	 0.327202013429334 
1534	 0.327769768804127 
1535	 0.328323739359592 
1536	 0.328842376683175 
1537	 0.329349043488715 
1538	 0.3298491542161 
1539	 0.330301280152636 
1540	 0.330787996151159 
1541	 0.331302872848876 
1542	 0.331789398031807 
1543	 0.332264824663333 
1544	 0.332733744382605 
1545	 0.333196186767805 
1546	 0.333648872675145 
1547	 0.334095338833474 
1548	 0.334526534078391 
1549	 0.334934836649612 
1550	 0.335362573653878 
1551	 0.335792750907999 
1552	 0.336210108656673 
1553	 0.336631365211934 
1554	 0.33704846386789 
1555	 0.337455955732138 
1556	 0.337853107845625 
1557	 0.338262745371498 
1558	 0.338638299967924 
1559	 0.338978360473728 
1560	 0.33932665212525 
1561	 0.339655794391217 
1562	 0.34000118890195 
1563	 0.340353224811649 
1564	 0.340700617577633 
1565	 0.341055877677644 
1566	 0.341401333851577 
1567	 0.341742570784626 
1568	 0.34207561208904 
1569	 0.342407180016366 
1570	 0.342725108338725 
1571	 0.343036506431223 
1572	 0.343329413465643 
1573	 0.343587912552969 
1574	 0.343877324246049 
1575	 0.344175615055173 
1576	 0.344461186079954 
1577	 0.344754169686889 
1578	 0.345049935830409 
1579	 0.345334940161935 
1580	 0.345618825379161 
1581	 0.345925278778863 
1582	 0.346205477629596 
1583	 0.346452649171928 
1584	 0.34671790992306 
1585	 0.346980921687403 
1586	 0.347250274122282 
1587	 0.347534435298159 
1588	 0.347805398692497 
1589	 0.348072384441965 
1590	 0.348337656763593 
1591	 0.348597381661337 
1592	 0.348855300145197 
1593	 0.349111691662173 
1594	 0.349365837311143 
1595	 0.349620797779014 
1596	 0.349863835930562 
1597	 0.350099569052474 
1598	 0.350334482806671 
1599	 0.350557787705139 
1600	 0.350783899112032 
1601	 0.351020117616048 
1602	 0.351239675338924 
1603	 0.351444862689183 
1604	 0.351653391432987 
1605	 0.351861141753081 
1606	 0.352054996826876 
1607	 0.352243688826182 
1608	 0.352428789350458 
1609	 0.352599142828375 
1610	 0.352769889433454 
1611	 0.352941726542296 
1612	 0.353108753432834 
1613	 0.353266822282938 
1614	 0.353426369055896 
1615	 0.353584117074827 
1616	 0.353743623667047 
1617	 0.353906461696892 
1618	 0.354061516971272 
1619	 0.35423149682999 
1620	 0.354367923055494 
1621	 0.354483174611183 
1622	 0.354588529745881 
1623	 0.354661637225633 
1624	 0.354741970199424 
1625	 0.354823693240498 
1626	 0.354893434805485 
1627	 0.354946371465809 
1628	 0.355009833388256 
1629	 0.355064130173883 
1630	 0.355132314866519 
1631	 0.355217469676922 
1632	 0.355300619815439 
1633	 0.355383252726613 
1634	 0.355475590840647 
1635	 0.355569136653822 
1636	 0.35567379586532 
1637	 0.355796484961656 
1638	 0.355912400104867 
1639	 0.35603604729293 
1640	 0.356156180389924 
1641	 0.356285326297045 
1642	 0.356389994572804 
1643	 0.356492820274576 
1644	 0.356567031077144 
1645	 0.356619299839381 
1646	 0.356645500313086 
1647	 0.356635718578858 
1648	 0.356627609113322 
1649	 0.356611205499143 
1650	 0.356566641476675 
1651	 0.356511172920557 
1652	 0.356436882317268 
1653	 0.356331469263695 
1654	 0.356210411571805 
1655	 0.356069631233652 
1656	 0.355925195376797 
1657	 0.355790551473419 
1658	 0.35559076013399 
1659	 0.355370047311479 
1660	 0.355103550100268 
1661	 0.354775947988453 
1662	 0.354418571804252 
1663	 0.354046389124125 
1664	 0.35360253291404 
1665	 0.353099268766313 
1666	 0.35254414450634 
1667	 0.351937476431702 
1668	 0.351279403885952 
1669	 0.350572875846301 
1670	 0.349799157146497 
1671	 0.348943559845238 
1672	 0.348067433637639 
1673	 0.34715468990247 
1674	 0.346173972339244 
1675	 0.34514570314452 
1676	 0.344088121930307 
1677	 0.342980628238584 
1678	 0.341813283587281 
1679	 0.340613671365974 
1680	 0.33933618221627 
1681	 0.33797445470996 
1682	 0.336558896781918 
1683	 0.335087593674133 
1684	 0.333582048436403 
1685	 0.332027324403578 
1686	 0.33040809968551 
1687	 0.3287184904183 
1688	 0.326996193057955 
1689	 0.325196564584791 
1690	 0.323383508253897 
1691	 0.321563924668848 
1692	 0.319721775699166 
1693	 0.317856454435823 
1694	 0.315932841120487 
1695	 0.313957489676852 
1696	 0.311952166241664 
1697	 0.309881444188533 
1698	 0.307808973189486 
1699	 0.305711587546991 
1700	 0.303677027609301 
1701	 0.301608759060379 
1702	 0.2996520716475 
1703	 0.297725414684921 
1704	 0.295924985893059 
1705	 0.29419961143312 
1706	 0.292559045059864 
1707	 0.291132499885493 
1708	 0.289780053375672 
1709	 0.288522118878871 
1710	 0.287401711625586 
1711	 0.286292574033633 
1712	 0.285282337932702 
1713	 0.284337485706133 
1714	 0.283414548111381 
1715	 0.282625048592261 
1716	 0.281869596072055 
1717	 0.281164840885856 
1718	 0.280527981407663 
1719	 0.279889619404278 
1720	 0.279316029730774 
1721	 0.278825587757684 
1722	 0.278440459271374 
1723	 0.278195443033609 
1724	 0.278065539806663 
1725	 0.278055658855264 
1726	 0.278231111660455 
1727	 0.278580208210582 
1728	 0.279062422150872 
1729	 0.279733589865882 
1730	 0.28054490170962 
1731	 0.28140834184042 
1732	 0.282398392432812 
1733	 0.283397265562295 
1734	 0.284366843364778 
1735	 0.285355381986899 
1736	 0.286269227835752 
1737	 0.287095065041097 
1738	 0.287784001303316 
1739	 0.28831194644212 
1740	 0.288670584997022 
1741	 0.288943866389191 
1742	 0.289077988624726 
1743	 0.289139050978352 
1744	 0.2890632267775 
1745	 0.288977150347658 
1746	 0.288777131019348 
1747	 0.288645361872792 
1748	 0.288491017873407 
1749	 0.288418721897739 
1750	 0.288361074606089 
1751	 0.288388327808849 
1752	 0.288477992591747 
1753	 0.288651340075795 
1754	 0.288893605830696 
1755	 0.289242347205495 
1756	 0.289663575269119 
1757	 0.290203116868997 
1758	 0.290892095600838 
1759	 0.291675470177824 
1760	 0.292579481873389 
1761	 0.293586421145191 
1762	 0.294619053673271 
1763	 0.295767416892371 
1764	 0.296993811777258 
1765	 0.298302358423753 
1766	 0.299752302625144 
1767	 0.301197405423466 
1768	 0.302687601238931 
1769	 0.304173677822759 
1770	 0.305510957491526 
1771	 0.306814271315797 
1772	 0.308039510459765 
1773	 0.30916464825583 
1774	 0.310289985751802 
1775	 0.31132623520862 
1776	 0.312289315869064 
1777	 0.313199421993193 
1778	 0.314020435923304 
1779	 0.314825841715901 
1780	 0.315561349902493 
1781	 0.31620631432578 
1782	 0.316837904965737 
1783	 0.317404807825824 
1784	 0.317923471029564 
1785	 0.318398526551421 
1786	 0.318823258684545 
1787	 0.319181998743393 
1788	 0.319542433186959 
1789	 0.319868946148515 
1790	 0.320187524793748 
1791	 0.320484348233154 
1792	 0.320790041062921 
1793	 0.321076128326128 
1794	 0.321433565314777 
1795	 0.321732898443707 
1796	 0.321969592037857 
1797	 0.322242700629551 
1798	 0.322469461014955 
1799	 0.322707796415672 
1800	 0.323013636384085 
1801	 0.321470767780387 
1802	 0.321742452061206 
1803	 0.322033099453985 
1804	 0.322347418595032 
1805	 0.322692157780976 
1806	 0.32299854055074 
1807	 0.323309962050711 
1808	 0.323599475914094 
1809	 0.323852868876323 
1810	 0.324131771710215 
1811	 0.324412659762241 
1812	 0.324697631894758 
1813	 0.324988417464156 
1814	 0.32528736600231 
1815	 0.325593440157257 
1816	 0.325901665711223 
1817	 0.326216549893186 
1818	 0.326540890155747 
1819	 0.326871072534705 
1820	 0.327214410169737 
1821	 0.32754107466793 
1822	 0.327860528884168 
1823	 0.328200937063019 
1824	 0.328510882298514 
1825	 0.328838707176993 
1826	 0.32916309909722 
1827	 0.329500229793367 
1828	 0.329806481307667 
1829	 0.330094962354894 
1830	 0.330392192897853 
1831	 0.330670061285047 
1832	 0.330970803700881 
1833	 0.331275888101553 
1834	 0.331601245455885 
1835	 0.33192991763005 
1836	 0.332234052653045 
1837	 0.332557171037556 
1838	 0.332884456227729 
1839	 0.333215570501624 
1840	 0.33356241448605 
1841	 0.33389988903941 
1842	 0.33424087046775 
1843	 0.334575605886131 
1844	 0.334890670370839 
1845	 0.335190541685923 
1846	 0.335511342618634 
1847	 0.335797852488377 
1848	 0.336053226987671 
1849	 0.336297124347733 
1850	 0.336519171112635 
1851	 0.336709834688394 
1852	 0.336874230495815 
1853	 0.337034175780871 
1854	 0.337148131234418 
1855	 0.337214091104448 
1856	 0.337261541646942 
1857	 0.33729580534144 
1858	 0.337288271236182 
1859	 0.337245781277593 
1860	 0.33718532470469 
1861	 0.337072878577091 
1862	 0.336913248461961 
1863	 0.336723399259361 
1864	 0.336492056782385 
1865	 0.336216795337294 
1866	 0.335892247155971 
1867	 0.335512755264941 
1868	 0.335124781195406 
1869	 0.33467859740659 
1870	 0.334192418994544 
1871	 0.333681932153954 
1872	 0.333129501485052 
1873	 0.332536441475631 
1874	 0.331901339613511 
1875	 0.331236498224605 
1876	 0.330452339365029 
1877	 0.329615947211155 
1878	 0.32863899239545 
1879	 0.327499058198208 
1880	 0.326373144079872 
1881	 0.325114634729032 
1882	 0.32371608771949 
1883	 0.322287522938788 
1884	 0.320784918314407 
1885	 0.319072031946179 
1886	 0.317378918345922 
1887	 0.315624512245514 
1888	 0.313835831833807 
1889	 0.312191429396591 
1890	 0.310509723523984 
1891	 0.308827021586498 
1892	 0.307195708465205 
1893	 0.305513440522345 
1894	 0.303767213403996 
1895	 0.302088093256681 
1896	 0.30040316692092 
1897	 0.298696895496415 
1898	 0.297131877991788 
1899	 0.295525743967733 
1900	 0.293979600902942 
1901	 0.292539773782096 
1902	 0.291033104492591 
1903	 0.289631287364809 
1904	 0.288289705674661 
1905	 0.286992688069191 
1906	 0.285726950599726 
1907	 0.284634282664538 
1908	 0.283581249954781 
1909	 0.282594472841723 
1910	 0.281715694991577 
1911	 0.280827528783043 
1912	 0.280021190154742 
1913	 0.279278440330483 
1914	 0.278568072460283 
1915	 0.277940440666365 
1916	 0.277414161020082 
1917	 0.276887636192276 
1918	 0.276388169912282 
1919	 0.275964165511972 
1920	 0.275536592309778 
1921	 0.275162375569336 
1922	 0.274840416716482 
1923	 0.274530192659897 
1924	 0.274270404104345 
1925	 0.2740372038196 
1926	 0.273839766316137 
1927	 0.273682544375971 
1928	 0.27355618335057 
1929	 0.273452406335818 
1930	 0.273403088276593 
1931	 0.273397332949666 
1932	 0.273409187607929 
1933	 0.273450610484973 
1934	 0.273524705507178 
1935	 0.273623055541492 
1936	 0.273758981856925 
1937	 0.27393208010553 
1938	 0.274146254525806 
1939	 0.27438859617997 
1940	 0.274667456673188 
1941	 0.274972951171357 
1942	 0.275290037553634 
1943	 0.275650228578807 
1944	 0.276019658315313 
1945	 0.276402182394175 
1946	 0.276842359992657 
1947	 0.277268029400271 
1948	 0.277727716267636 
1949	 0.278243801825411 
1950	 0.27875061146667 
1951	 0.279281578377701 
1952	 0.27982242391513 
1953	 0.280379702994777 
1954	 0.280911200115566 
1955	 0.281485532128269 
1956	 0.282047887832276 
1957	 0.282614364758227 
1958	 0.28319076121551 
1959	 0.283718968698536 
1960	 0.284241818027255 
1961	 0.284718703489376 
1962	 0.285148965726532 
1963	 0.285562800270437 
1964	 0.285958500931501 
1965	 0.286301162992047 
1966	 0.286604991115606 
1967	 0.286889081398078 
1968	 0.287127798367958 
1969	 0.287364239502737 
1970	 0.287566329870792 
1971	 0.287747623190538 
1972	 0.287925369345323 
1973	 0.288059052469316 
1974	 0.288228499654384 
1975	 0.288408452114401 
1976	 0.288600027567708 
1977	 0.288772082878985 
1978	 0.289016388804366 
1979	 0.289276152484177 
1980	 0.289586311442942 
1981	 0.289998637990534 
1982	 0.290490328466272 
1983	 0.291056601147916 
1984	 0.291701030950086 
1985	 0.292343044854018 
1986	 0.293042141345403 
1987	 0.293717597051515 
1988	 0.29439572891238 
1989	 0.295073255253061 
1990	 0.295769699769713 
1991	 0.29642435596766 
1992	 0.297070525382061 
1993	 0.297714583592059 
1994	 0.298288085876109 
1995	 0.298868539693739 
1996	 0.299414569536204 
1997	 0.299930082616816 
1998	 0.300443694224175 
1999	 0.300954947312124 
2000	 0.301414507670563 
2001	 0.301864151657687 
2002	 0.302261761878876 
2003	 0.302621161771611 
2004	 0.302929363971536 
2005	 0.303203358066172 
2006	 0.303419472115069 
2007	 0.303581731198529 
2008	 0.303685823380974 
2009	 0.30375646746396 
2010	 0.303765527270568 
2011	 0.303729517518061 
2012	 0.303663320564483 
2013	 0.3035237332224 
2014	 0.303332250134757 
2015	 0.30307443341047 
2016	 0.302735835525525 
2017	 0.302367092353668 
2018	 0.301914456321608 
2019	 0.301467105336052 
2020	 0.301003659221197 
2021	 0.300484488302891 
2022	 0.299970735823148 
2023	 0.299453939984355 
2024	 0.298873738140502 
2025	 0.298337403102181 
2026	 0.297818551672588 
2027	 0.297282810607603 
2028	 0.296813280600442 
2029	 0.296414774394596 
2030	 0.295986084774625 
2031	 0.295634300726962 
2032	 0.295182366780387 
2033	 0.294755367112627 
2034	 0.294186684133396 
2035	 0.293550256046294 
2036	 0.292753135356538 
2037	 0.291949104145758 
2038	 0.290991476849096 
2039	 0.290096406142511 
2040	 0.289106753898959 
2041	 0.288305551712177 
2042	 0.287426639980062 
2043	 0.286918175275317 
2044	 0.286605501603019 
2045	 0.286488133856725 
2046	 0.286706578579527 
2047	 0.286922830310747 
2048	 0.287350781708639 
2049	 0.287724880646464 
2050	 0.288211245319264 
2051	 0.288618088646067 
2052	 0.288969544321043 
2053	 0.289208695154086 
2054	 0.289385063055295 
2055	 0.289424745375456 
2056	 0.289495550894238 
2057	 0.289491403743384 
2058	 0.289554349889958 
2059	 0.289578252846489 
2060	 0.289693569617013 
2061	 0.289863923018823 
2062	 0.29006925346231 
2063	 0.290322006883751 
2064	 0.290622273352692 
2065	 0.290993323949911 
2066	 0.29135018700407 
2067	 0.291754581927757 
2068	 0.292171989858534 
2069	 0.292561189258304 
2070	 0.292965807322902 
2071	 0.293300501231264 
2072	 0.293617921393742 
2073	 0.293875452067576 
2074	 0.294073616598249 
2075	 0.294241128997067 
2076	 0.294371811989453 
2077	 0.294461317446988 
2078	 0.294487033906543 
2079	 0.294508992056166 
2080	 0.294501165619001 
2081	 0.294473484830124 
2082	 0.294429119292716 
2083	 0.294360517884688 
2084	 0.294270389291704 
2085	 0.294153181001813 
2086	 0.294040805612032 
2087	 0.29390724815892 
2088	 0.293797986959927 
2089	 0.293704784501512 
2090	 0.293588061288795 
2091	 0.293483763916516 
2092	 0.293347045360728 
2093	 0.293180231950457 
2094	 0.293009289529699 
2095	 0.292818119570713 
2096	 0.292629860485654 
2097	 0.292448429939681 
2098	 0.292231129684236 
2099	 0.292027263034849 
2100	 0.291820942592346 
2101	 0.291564625749162 
2102	 0.291292207405327 
2103	 0.290977178514486 
2104	 0.290601609617717 
2105	 0.290238933828036 
2106	 0.289861417942774 
2107	 0.289459771706366 
2108	 0.289041814572429 
2109	 0.288615780172939 
2110	 0.288178596916037 
2111	 0.287708292845022 
2112	 0.287209444563239 
2113	 0.286710919370416 
2114	 0.286170776664015 
2115	 0.28564201588245 
2116	 0.285117047481214 
2117	 0.284610330091264 
2118	 0.284076160968159 
2119	 0.283528212057719 
2120	 0.28299219123056 
2121	 0.28242571540913 
2122	 0.281919751434024 
2123	 0.281434932106308 
2124	 0.280973508384345 
2125	 0.280553617513007 
2126	 0.280143202235033 
2127	 0.279738646195545 
2128	 0.2793722472283 
2129	 0.279022928367654 
2130	 0.278716924709325 
2131	 0.278453740852056 
2132	 0.278212346963376 
2133	 0.278002804944957 
2134	 0.277830567854477 
2135	 0.27767269045305 
2136	 0.277546213107282 
2137	 0.277437050732462 
2138	 0.277354933837413 
2139	 0.277289794190322 
2140	 0.277246395639452 
2141	 0.277218132289326 
2142	 0.277216314282255 
2143	 0.277219250402064 
2144	 0.277225744294308 
2145	 0.277264548159087 
2146	 0.277322432221798 
2147	 0.277403102455121 
2148	 0.27751564829084 
2149	 0.277638736806153 
2150	 0.277780454186427 
2151	 0.277932321057433 
2152	 0.278101405968567 
2153	 0.278288121141007 
2154	 0.278470243784437 
2155	 0.278659471397368 
2156	 0.278821386817544 
2157	 0.278977109240513 
2158	 0.279110216149152 
2159	 0.27921778205169 
2160	 0.279325427330855 
2161	 0.279427776232135 
2162	 0.279506532113964 
2163	 0.279559090387969 
2164	 0.279629400219703 
2165	 0.279694651470749 
2166	 0.279746355017268 
2167	 0.279797385466904 
2168	 0.279850737228575 
2169	 0.279874258345647 
2170	 0.279926619960107 
2171	 0.280005888778649 
2172	 0.280081179816382 
2173	 0.280159351319956 
2174	 0.280247030196293 
2175	 0.280337167973098 
2176	 0.280425534304078 
2177	 0.280514776892637 
2178	 0.280616499424292 
2179	 0.280684754399498 
2180	 0.280753946044499 
2181	 0.280777517593006 
2182	 0.280762897359983 
2183	 0.280749484695818 
2184	 0.280717901632089 
2185	 0.280664018065458 
2186	 0.280596292741284 
2187	 0.280509467481268 
2188	 0.280381182487405 
2189	 0.280266308849573 
2190	 0.280174513858062 
2191	 0.280028458512842 
2192	 0.279874907483641 
2193	 0.279670947740184 
2194	 0.279406651738617 
2195	 0.279128033619595 
2196	 0.27881489834093 
2197	 0.278482975114482 
2198	 0.278153629630549 
2199	 0.277763837009557 
2200	 0.277273452952727 
2201	 0.276748438068364 
2202	 0.27607640297954 
2203	 0.275284216608987 
2204	 0.274407334441853 
2205	 0.273381367098951 
2206	 0.272369644685899 
2207	 0.271214254704584 
2208	 0.270186303121988 
2209	 0.26908740900914 
2210	 0.26822870727247 
2211	 0.267384905473488 
2212	 0.266875127921205 
2213	 0.266635081717298 
2214	 0.266530507792422 
2215	 0.266770480199614 
2216	 0.266960356533258 
2217	 0.26735562653258 
2218	 0.267607835726354 
2219	 0.267935313542278 
2220	 0.268068643736711 
2221	 0.268096505378461 
2222	 0.267978421880757 
2223	 0.267762250117842 
2224	 0.267403244828923 
2225	 0.266925876448913 
2226	 0.266376283465748 
2227	 0.265686217819835 
2228	 0.264847585237159 
2229	 0.263948628370648 
2230	 0.26292296934361 
2231	 0.261859080441071 
2232	 0.260733285641606 
2233	 0.259497356643822 
2234	 0.258217244651615 
2235	 0.256764066760068 
2236	 0.255182712810562 
2237	 0.253477537897321 
2238	 0.251561984556255 
2239	 0.249664862454755 
2240	 0.247707602821165 
2241	 0.245627321172457 
2242	 0.24355616248213 
2243	 0.241271084103228 
2244	 0.238725350729221 
2245	 0.236223655049166 
2246	 0.233549596633279 
2247	 0.230940107768291 
2248	 0.228392100154163 
2249	 0.225756531434313 
2250	 0.223096671642814 
2251	 0.220429198133204 
2252	 0.217503565821671 
2253	 0.214719000614123 
2254	 0.211893334614583 
2255	 0.209027618305415 
2256	 0.206450201307961 
2257	 0.20382457308091 
2258	 0.201199039829172 
2259	 0.19867721094037 
2260	 0.195995122401825 
2261	 0.193227241673481 
2262	 0.190466909855697 
2263	 0.187649238080011 
2264	 0.184800143187382 
2265	 0.182028313802456 
2266	 0.178953944228904 
2267	 0.17591652501913 
2268	 0.172353092496102 
2269	 0.168474777845553 
2270	 0.164300832604832 
2271	 0.159590976054268 
2272	 0.154852430322782 
2273	 0.149887188263241 
2274	 0.144736115740639 
2275	 0.139346637079744 
2276	 0.133937219672778 
2277	 0.127965990632406 
2278	 0.122679756834502 
2279	 0.117259640316297 
2280	 0.112686190856326 
2281	 0.10874393018994 
2282	 0.10533481931324 
2283	 0.102455394765423 
2284	 0.100361805717564 
2285	 9.87222179680368E-02 
2286	 9.76905541495068E-02 
2287	 9.72992078821603E-02 
2288	 9.73934645719908E-02 
2289	 9.79154574483445E-02 
2290	 9.88525702473817E-02 
2291	 0.100059509072894 
2292	 0.101509740464836 
2293	 0.103259186173161 
2294	 0.105059463197956 
2295	 0.106899590433056 
2296	 0.108747807830433 
2297	 0.110425487400551 
2298	 0.112004937781227 
2299	 0.113514086453144 
2300	 0.114885057322374 
2301	 0.116240980732499 
2302	 0.117500831771549 
2303	 0.11879837097803 
2304	 0.120059496509425 
2305	 0.121369257507462 
2306	 0.122679148282865 
2307	 0.12405716158872 
2308	 0.125428194271976 
2309	 0.126917792009184 
2310	 0.128534369573204 
2311	 0.130114452601306 
2312	 0.131833990676658 
2313	 0.13340190586798 
2314	 0.134954772888256 
2315	 0.136361149988408 
2316	 0.137700799076011 
2317	 0.13884504782271 
2318	 0.139911172645285 
2319	 0.140668629288351 
2320	 0.141226495615145 
2321	 0.141513853291741 
2322	 0.141542623009947 
2323	 0.141275669702383 
2324	 0.140805269727854 
2325	 0.139893676439655 
2326	 0.138567447938677 
2327	 0.136957974419014 
2328	 0.134895811485944 
2329	 0.132612210412345 
2330	 0.130104465927187 
2331	 0.127151138322563 
2332	 0.123951470084054 
2333	 0.120429228346763 
2334	 0.11643577252855 
2335	 0.112376270421577 
2336	 0.108070730826454 
2337	 0.103710477551055 
2338	 9.97061782987263E-02 
2339	 9.56868688996985E-02 
2340	 9.19983352526193E-02 
2341	 8.87292119131092E-02 
2342	 0.085566136509622 
2343	 8.29946493872363E-02 
2344	 8.08357181289825E-02 
2345	 7.91470876070861E-02 
2346	 7.79839375985133E-02 
2347	 7.71754718101531E-02 
2348	 7.65846990508936E-02 
2349	 7.61116620883245E-02 
2350	 7.57046949270805E-02 
2351	 7.51797980920773E-02 
2352	 7.47435356590585E-02 
2353	 7.42231673865475E-02 
2354	 7.39404467061212E-02 
2355	 7.40884345817329E-02 
2356	 7.46080467359138E-02 
2357	 7.60433369604917E-02 
2358	 7.83293021553318E-02 
2359	 8.12971880882302E-02 
2360	 8.49946518861503E-02 
2361	 8.92827486869396E-02 
2362	 9.35498153511486E-02 
2363	 9.80401294544725E-02 
2364	 0.10244922575692 
2365	 0.106507232188773 
2366	 0.110644446931434 
2367	 0.114298146704066 
2368	 0.117580043869207 
2369	 0.120586727611294 
2370	 0.123024017087457 
2371	 0.12514404066657 
2372	 0.12698179453189 
2373	 0.128428675035209 
2374	 0.129654176194771 
2375	 0.130643388120461 
2376	 0.131453157086156 
2377	 0.132084854081576 
2378	 0.132540465833886 
2379	 0.132891417825075 
2380	 0.13314071936702 
2381	 0.13336838473405 
2382	 0.133714526912692 
2383	 0.134092013153508 
2384	 0.134562837272343 
2385	 0.135175445375157 
2386	 0.135791163720429 
2387	 0.13644522819538 
2388	 0.13716001307319 
2389	 0.137956814040771 
2390	 0.138674011999313 
2391	 0.139475063532345 
2392	 0.140077671880925 
2393	 0.140528552964273 
2394	 0.141058338200406 
2395	 0.14151578798425 
2396	 0.141977082495994 
2397	 0.142454082627413 
2398	 0.142917976096316 
2399	 0.143318381242213 
2400	 0.143777858706552 
2401	 0.144285963299643 
2402	 0.144809427263103 
2403	 0.145431670834459 
2404	 0.14615649430764 
2405	 0.146765330684066 
2406	 0.147398640393731 
2407	 0.147965733632624 
2408	 0.148375912647045 
2409	 0.148804023958769 
2410	 0.149237281931334 
2411	 0.149599485331154 
2412	 0.149882838364316 
2413	 0.150132749749265 
2414	 0.150361938139214 
2415	 0.150488489295602 
2416	 0.15062979296485 
2417	 0.150858616725961 
2418	 0.151025006141584 
2419	 0.15116148162115 
2420	 0.151352081517291 
2421	 0.151556455438502 
2422	 0.151663493486135 
2423	 0.151689124051104 
2424	 0.151793263210303 
2425	 0.151887275135474 
2426	 0.151980269661011 
2427	 0.152276577142105 
2428	 0.15248691354489 
2429	 0.152529402601736 
2430	 0.152686613217676 
2431	 0.152756683489997 
2432	 0.152733683072327 
2433	 0.152807423654107 
2434	 0.152865755624083 
2435	 0.152886507747821 
2436	 0.152968281729973 
2437	 0.1531393952536 
2438	 0.153209553781756 
2439	 0.15322463880372 
2440	 0.153292420076851 
2441	 0.153193160547651 
2442	 0.153028003575972 
2443	 0.152898310601288 
2444	 0.152762101395873 
2445	 0.152697951620839 
2446	 0.152609444979108 
2447	 0.15248846983258 
2448	 0.152379731123936 
2449	 0.152188835958152 
2450	 0.152017923542521 
2451	 0.151918670394157 
2452	 0.151691412681219 
2453	 0.151442203164531 
2454	 0.151283198018038 
2455	 0.150993018338292 
2456	 0.150769823676733 
2457	 0.150571107864162 
2458	 0.150216553890215 
2459	 0.150010703154758 
2460	 0.149788621789665 
2461	 0.149538296078222 
2462	 0.149309319874273 
2463	 0.149071114309516 
2464	 0.148947533975804 
2465	 0.148704090787202 
2466	 0.148502755598988 
2467	 0.148422171867748 
2468	 0.148251550303771 
2469	 0.148118297579627 
2470	 0.148083009427738 
2471	 0.14801657654421 
2472	 0.147736248593035 
2473	 0.147449167040526 
2474	 0.1472740083597 
2475	 0.147034713698776 
2476	 0.146970828963026 
2477	 0.1470317932562 
2478	 0.146922769347509 
2479	 0.146797192557329 
2480	 0.146806642984423 
2481	 0.146881413951093 
2482	 0.147154223573558 
2483	 0.147262867423118 
2484	 0.147352892427614 
2485	 0.147367157994128 
2486	 0.147439518617471 
2487	 0.147525734761499 
2488	 0.147428674133794 
2489	 0.147604998420436 
2490	 0.148013203859338 
2491	 0.148059473829207 
2492	 0.148286787005338 
2493	 0.14860746182098 
2494	 0.14843802417621 
2495	 0.148694870085497 
2496	 0.149283678937546 
2497	 0.149473307672159 
2498	 0.149833380322639 
2499	 0.150245836501072 
2500	 0.15056264426699 
