Wavelength	spectrum00010.asd
350	 3.57002663839692E-02 
351	 0.035903709663565 
352	 3.55091886528775E-02 
353	 3.58184622664768E-02 
354	 3.71966193317073E-02 
355	 3.78343159379252E-02 
356	 3.70308721971011E-02 
357	 3.49800407951957E-02 
358	 3.33070125460757E-02 
359	 3.19439539771819E-02 
360	 3.21434652756392E-02 
361	 3.48864014582462E-02 
362	 3.39294111442424E-02 
363	 3.32625032634122E-02 
364	 3.41091606523021E-02 
365	 3.27845211074181E-02 
366	 3.21522733260723E-02 
367	 3.24666386326937E-02 
368	 3.29966023379521E-02 
369	 3.17969488243833E-02 
370	 3.23618032887439E-02 
371	 3.37862155769338E-02 
372	 3.30432278729827E-02 
373	 3.26996867271011E-02 
374	 3.27546276880426E-02 
375	 0.033077028688678 
376	 3.37641497340404E-02 
377	 3.44632357583693E-02 
378	 3.45524921389962E-02 
379	 0.033809311424734 
380	 3.34418290080778E-02 
381	 3.31077167428541E-02 
382	 3.25684686392137E-02 
383	 3.18045119558648E-02 
384	 3.20618150597224E-02 
385	 3.31256179289142E-02 
386	 3.38871435010773E-02 
387	 3.21005740723794E-02 
388	 3.24458489177989E-02 
389	 3.36362201189727E-02 
390	 3.35857673149503E-02 
391	 3.39076907937593E-02 
392	 3.35486865699172E-02 
393	 3.28245101051597E-02 
394	 0.03286568450329 
395	 3.30672813123848E-02 
396	 3.30462560394766E-02 
397	 0.032794818301013 
398	 3.28707028281811E-02 
399	 3.28506604576063E-02 
400	 3.25050940610344E-02 
401	 3.19271734254531E-02 
402	 3.22255522893018E-02 
403	 3.26323997556122E-02 
404	 3.27654569666341E-02 
405	 3.26440695793709E-02 
406	 3.28548672304148E-02 
407	 3.29779151545577E-02 
408	 3.27752650301736E-02 
409	 3.26448583999495E-02 
410	 3.24026035903067E-02 
411	 3.21271363665383E-02 
412	 3.20227231962708E-02 
413	 3.25524137091062E-02 
414	 3.27013843453393E-02 
415	 3.24605036477936E-02 
416	 3.27241376680755E-02 
417	 3.25152454250876E-02 
418	 3.24353464626207E-02 
419	 3.27809966103199E-02 
420	 3.24944461229656E-02 
421	 3.21921334447126E-02 
422	 3.21719025559318E-02 
423	 0.032481737061497 
424	 3.25309744365971E-02 
425	 3.23525583670691E-02 
426	 0.032205706818833 
427	 3.25277050638389E-02 
428	 3.23995248981666E-02 
429	 3.21483982982622E-02 
430	 3.21746492128869E-02 
431	 3.21864948614433E-02 
432	 3.23799280597927E-02 
433	 3.25246348675189E-02 
434	 0.032240322009594 
435	 3.20581278366151E-02 
436	 3.21522874584293E-02 
437	 3.23575420446438E-02 
438	 3.20424059794879E-02 
439	 3.19994164278225E-02 
440	 3.21863092884268E-02 
441	 3.23287547459161E-02 
442	 3.23015676973564E-02 
443	 3.23048948528684E-02 
444	 3.23053128801528E-02 
445	 3.21043256425608E-02 
446	 3.20938284550005E-02 
447	 3.21464800471736E-02 
448	 3.21631854199794E-02 
449	 3.23322329724988E-02 
450	 3.22964434329481E-02 
451	 3.21496809957926E-02 
452	 3.21319351853024E-02 
453	 3.21613071702441E-02 
454	 3.22650688137184E-02 
455	 3.23357030928646E-02 
456	 3.21261760759198E-02 
457	 3.21124106028891E-02 
458	 3.21639066834704E-02 
459	 3.21214214784349E-02 
460	 3.21807649313937E-02 
461	 3.22187485720995E-02 
462	 3.21813049383716E-02 
463	 3.20770744519481E-02 
464	 3.20694018588763E-02 
465	 3.21654526875267E-02 
466	 3.22344728940917E-02 
467	 3.19502255050317E-02 
468	 3.19701346133409E-02 
469	 3.21338832885733E-02 
470	 3.21543095189167E-02 
471	 3.23669803755603E-02 
472	 3.22642204347936E-02 
473	 3.19624597654243E-02 
474	 3.20484560562839E-02 
475	 3.20323932918127E-02 
476	 3.20185824276378E-02 
477	 3.20898795565732E-02 
478	 3.20631610855123E-02 
479	 3.20920134172397E-02 
480	 3.21813738670876E-02 
481	 3.22518847521351E-02 
482	 3.20818976422976E-02 
483	 3.20551704742943E-02 
484	 3.21806382294882E-02 
485	 3.20030109511135E-02 
486	 3.22122422310197E-02 
487	 3.23865595128169E-02 
488	 3.21423001218774E-02 
489	 3.19881078632006E-02 
490	 3.20735554481275E-02 
491	 3.22349748788143E-02 
492	 0.03216302118114 
493	 3.21585450243086E-02 
494	 3.21892022605371E-02 
495	 3.21971225766425E-02 
496	 3.21458291349381E-02 
497	 3.21136703292633E-02 
498	 3.21653683337564E-02 
499	 3.23043004573832E-02 
500	 3.23172989063821E-02 
501	 3.22103997360141E-02 
502	 0.032078901814035 
503	 3.20762063753671E-02 
504	 3.21144681660843E-02 
505	 3.21135471529645E-02 
506	 3.20690713788026E-02 
507	 3.21678490103219E-02 
508	 3.21849293943104E-02 
509	 0.032137046531758 
510	 3.21391663668684E-02 
511	 3.21575719008258E-02 
512	 3.21932378546025E-02 
513	 3.22325249689004E-02 
514	 3.22421336877213E-02 
515	 3.21994211332585E-02 
516	 0.032134615527328 
517	 3.20893318764911E-02 
518	 3.20925134764922E-02 
519	 3.20731302504323E-02 
520	 3.20534167978465E-02 
521	 3.21109519291875E-02 
522	 0.032152211387953 
523	 3.21553666397568E-02 
524	 3.21351012361694E-02 
525	 3.21598629678838E-02 
526	 3.21307872659039E-02 
527	 3.21053996522692E-02 
528	 3.21617151836559E-02 
529	 3.21608247281543E-02 
530	 3.21433589007903E-02 
531	 3.21445748571029E-02 
532	 3.21798153523674E-02 
533	 3.21926514575078E-02 
534	 3.21904226732367E-02 
535	 0.032189813818596 
536	 3.21851016423445E-02 
537	 3.22175149937391E-02 
538	 3.22426592332381E-02 
539	 3.21879956573717E-02 
540	 3.21947292805188E-02 
541	 3.22138579112794E-02 
542	 3.22065483289228E-02 
543	 3.21845087292503E-02 
544	 3.21945384199168E-02 
545	 3.21939502671458E-02 
546	 3.21424622519916E-02 
547	 3.21438601195694E-02 
548	 3.21610333721437E-02 
549	 3.21676999896151E-02 
550	 3.21536563069715E-02 
551	 3.21215421617257E-02 
552	 3.21289689817248E-02 
553	 3.21899029747584E-02 
554	 3.21832105870856E-02 
555	 3.21888369426685E-02 
556	 0.032210981230842 
557	 3.22224171842657E-02 
558	 3.22346463762703E-02 
559	 3.22911658197994E-02 
560	 3.23773023632591E-02 
561	 3.23957351771918E-02 
562	 3.24129516966553E-02 
563	 3.24378694798562E-02 
564	 3.24638173837364E-02 
565	 3.24898303749467E-02 
566	 3.24732653530279E-02 
567	 3.24366724775171E-02 
568	 3.24442929795016E-02 
569	 3.24087250000166E-02 
570	 3.23722561148118E-02 
571	 3.23628316767099E-02 
572	 3.23294855960177E-02 
573	 3.23536159553049E-02 
574	 3.23866504500781E-02 
575	 3.23584603614479E-02 
576	 3.24000695050656E-02 
577	 3.24192406404797E-02 
578	 0.03239197130914 
579	 3.23877097827196E-02 
580	 3.23829427339584E-02 
581	 3.23955235969403E-02 
582	 3.24381978825187E-02 
583	 3.24865114178864E-02 
584	 3.25241502187973E-02 
585	 3.25416462339738E-02 
586	 3.25425696243317E-02 
587	 3.25986089326608E-02 
588	 3.26295408745077E-02 
589	 3.26014384100531E-02 
590	 0.032583271484977 
591	 3.25761737224458E-02 
592	 3.25898452946114E-02 
593	 3.26236262593184E-02 
594	 3.26371826251091E-02 
595	 3.26273402658854E-02 
596	 3.26205269503631E-02 
597	 3.26619092087678E-02 
598	 3.26729110973724E-02 
599	 3.26940032845625E-02 
600	 3.27467904916887E-02 
601	 3.27516824819998E-02 
602	 3.27762378988687E-02 
603	 3.28061689831568E-02 
604	 3.28044974227461E-02 
605	 3.28358164094576E-02 
606	 3.28717245787854E-02 
607	 3.28985202571937E-02 
608	 3.29303801688362E-02 
609	 3.29459982520788E-02 
610	 3.29416998696785E-02 
611	 3.29359192057038E-02 
612	 3.30101603805281E-02 
613	 3.30386095990682E-02 
614	 3.30302561457405E-02 
615	 3.30717938669093E-02 
616	 3.30569497762108E-02 
617	 3.30599256628484E-02 
618	 3.31189101476587E-02 
619	 3.31708044730639E-02 
620	 3.31877675750572E-02 
621	 3.32033836303423E-02 
622	 3.32532388519617E-02 
623	 0.033262440760608 
624	 3.32713150350778E-02 
625	 3.32998039236903E-02 
626	 3.33419163426117E-02 
627	 0.033356902226812 
628	 3.33801682798873E-02 
629	 3.34324440936856E-02 
630	 3.34608729882101E-02 
631	 3.34863684706683E-02 
632	 3.35141887788545E-02 
633	 3.35446478992995E-02 
634	 3.35922003241236E-02 
635	 3.36005310353901E-02 
636	 3.35948774512769E-02 
637	 3.37053642609836E-02 
638	 3.37270420976146E-02 
639	 3.37168639616851E-02 
640	 3.37577787085779E-02 
641	 3.37919844260892E-02 
642	 3.38282858491652E-02 
643	 3.38672687911682E-02 
644	 3.39050541676014E-02 
645	 3.39388243457112E-02 
646	 3.39918425037619E-02 
647	 3.40605661949134E-02 
648	 3.40924598232004E-02 
649	 3.41344422372094E-02 
650	 0.034184499212441 
651	 3.42228919954672E-02 
652	 3.42158171750498E-02 
653	 3.42503493846143E-02 
654	 0.034324641386994 
655	 3.43662721558674E-02 
656	 3.44238428717585E-02 
657	 3.44761446067103E-02 
658	 3.45104747722583E-02 
659	 3.45538345204942E-02 
660	 3.45956914522785E-02 
661	 3.46467746436543E-02 
662	 3.47170321440487E-02 
663	 3.47746211306534E-02 
664	 3.48156258342689E-02 
665	 0.034860141486433 
666	 3.49463601918571E-02 
667	 3.50002867015973E-02 
668	 3.50425043678138E-02 
669	 3.50986118101591E-02 
670	 0.035156942865037 
671	 3.52056667160055E-02 
672	 3.52518350536633E-02 
673	 3.53118607767977E-02 
674	 3.53994898120664E-02 
675	 3.54612922576429E-02 
676	 3.54952323385873E-02 
677	 3.55660416445158E-02 
678	 3.56395832202418E-02 
679	 3.57102659765819E-02 
680	 3.57769410090983E-02 
681	 0.035830771986214 
682	 0.035899298062033 
683	 3.59789898167224E-02 
684	 3.60494045424963E-02 
685	 3.61075963039362E-02 
686	 3.61814455567534E-02 
687	 3.62702419231308E-02 
688	 3.63297791450993E-02 
689	 3.63744441576292E-02 
690	 3.64330378574225E-02 
691	 0.036522981435913 
692	 3.66098221217613E-02 
693	 3.66903117558578E-02 
694	 3.67759643792887E-02 
695	 3.68789479625251E-02 
696	 3.69193370862959E-02 
697	 3.69861032347916E-02 
698	 0.037102224176621 
699	 3.71555622638696E-02 
700	 3.72358678165645E-02 
701	 3.73317309052284E-02 
702	 3.74130840071737E-02 
703	 3.74926009268863E-02 
704	 0.037574042839707 
705	 3.76477258816224E-02 
706	 3.77026246353417E-02 
707	 3.78141224978703E-02 
708	 3.79246164840501E-02 
709	 3.79997478454449E-02 
710	 0.038072371762137 
711	 3.81641586497803E-02 
712	 3.82651502028147E-02 
713	 3.83607659278121E-02 
714	 3.84681849523919E-02 
715	 3.85608672257974E-02 
716	 3.86356432824843E-02 
717	 3.87112443383996E-02 
718	 3.88429954297616E-02 
719	 3.89578350531701E-02 
720	 3.90276083991189E-02 
721	 3.91284550004827E-02 
722	 3.92482220971747E-02 
723	 3.93622397756214E-02 
724	 3.94527567803016E-02 
725	 0.039551609918919 
726	 3.96590483409927E-02 
727	 3.97736617349937E-02 
728	 3.98907494472379E-02 
729	 3.99859898809667E-02 
730	 4.00780251444647E-02 
731	 4.01838431138519E-02 
732	 0.04030854012122 
733	 4.04193965815088E-02 
734	 0.04053816437477 
735	 4.06819376353076E-02 
736	 4.07828500783241E-02 
737	 4.09105139043054E-02 
738	 4.10499878286718E-02 
739	 4.11398377392751E-02 
740	 4.12594361301531E-02 
741	 4.13746219970552E-02 
742	 4.14750785601583E-02 
743	 0.041606407839667 
744	 4.17411823439377E-02 
745	 4.18774858626578E-02 
746	 4.20161985207368E-02 
747	 4.21473114944278E-02 
748	 0.042261492629204 
749	 4.23685086202598E-02 
750	 4.24887493970158E-02 
751	 4.26301499986128E-02 
752	 4.27725830833725E-02 
753	 4.29082245389256E-02 
754	 4.30490052260218E-02 
755	 4.31841235882865E-02 
756	 4.33162373510814E-02 
757	 4.34474416363429E-02 
758	 4.35665661533863E-02 
759	 0.043697607894484 
760	 4.38403418834282E-02 
761	 4.39827704777809E-02 
762	 4.41236308344934E-02 
763	 4.42627575680549E-02 
764	 4.44033626329971E-02 
765	 4.45524281127664E-02 
766	 4.47260519274196E-02 
767	 4.48765730260149E-02 
768	 4.49926974051348E-02 
769	 4.51776175607444E-02 
770	 0.045342060250473 
771	 4.54856942161481E-02 
772	 4.56372698875839E-02 
773	 4.57981477328274E-02 
774	 4.59526581982141E-02 
775	 0.046100442802086 
776	 4.62543145599681E-02 
777	 4.64164523982945E-02 
778	 4.65811716803979E-02 
779	 4.67454069125615E-02 
780	 0.046912293100572 
781	 4.70873369031651E-02 
782	 4.72469966512846E-02 
783	 4.73812002969031E-02 
784	 4.75525494335275E-02 
785	 4.77432139007637E-02 
786	 0.047937830033079 
787	 4.81217666980242E-02 
788	 4.82765957643048E-02 
789	 4.84444472989378E-02 
790	 4.86333288671121E-02 
791	 4.88053697561052E-02 
792	 0.048969713543543 
793	 4.91356232930162E-02 
794	 4.93102888252902E-02 
795	 4.94946505642395E-02 
796	 4.96832546268403E-02 
797	 4.98827571614221E-02 
798	 5.00916439382993E-02 
799	 5.02448999740567E-02 
800	 5.04322382697058E-02 
801	 5.06447817152981E-02 
802	 5.08019684871546E-02 
803	 5.09708983160186E-02 
804	 0.051152644864219 
805	 5.13519270441467E-02 
806	 5.15915744550341E-02 
807	 0.051770035923158 
808	 5.19221924542667E-02 
809	 5.21018987412813E-02 
810	 5.23054365979912E-02 
811	 5.25220142244272E-02 
812	 5.27272794342175E-02 
813	 5.29037889186071E-02 
814	 0.05310079559946 
815	 5.33041536596482E-02 
816	 5.35067091201993E-02 
817	 0.053710672957615 
818	 5.39173342168036E-02 
819	 5.41107094855957E-02 
820	 5.42941972692042E-02 
821	 5.45057594123903E-02 
822	 5.47136438573951E-02 
823	 5.49276425090792E-02 
824	 5.51531791528555E-02 
825	 0.055348675301563 
826	 5.55351229469349E-02 
827	 5.57326531458411E-02 
828	 5.59527676962644E-02 
829	 5.61646713531789E-02 
830	 5.63721392212097E-02 
831	 5.65854471629829E-02 
832	 5.68139649569921E-02 
833	 5.70079948223418E-02 
834	 5.72243114943762E-02 
835	 5.74724709331899E-02 
836	 5.76681440580329E-02 
837	 5.79023698448057E-02 
838	 5.81247741325891E-02 
839	 5.83027377594288E-02 
840	 0.058558543304985 
841	 5.87732869113376E-02 
842	 5.89660861830582E-02 
843	 5.91904629242078E-02 
844	 5.93632147334878E-02 
845	 5.95878724089273E-02 
846	 5.98562425049755E-02 
847	 6.00786458861931E-02 
848	 6.02734564902752E-02 
849	 6.04772968846706E-02 
850	 6.06961656289494E-02 
851	 6.08956252249133E-02 
852	 6.11256589344908E-02 
853	 6.13673096296117E-02 
854	 0.06160042717597 
855	 6.18346609790226E-02 
856	 6.20574203934142E-02 
857	 6.22689694704504E-02 
858	 0.062476917578395 
859	 6.26960562395453E-02 
860	 6.29373893876234E-02 
861	 6.31742807188013E-02 
862	 6.33757407575744E-02 
863	 6.36089002389304E-02 
864	 6.38405413121315E-02 
865	 6.40557593246499E-02 
866	 6.42643407662838E-02 
867	 6.44856578691205E-02 
868	 6.47490280132722E-02 
869	 6.50244911586852E-02 
870	 6.52086314054215E-02 
871	 6.54119206859838E-02 
872	 6.56358909816111E-02 
873	 6.58685403017879E-02 
874	 6.61244925349111E-02 
875	 6.63646737265019E-02 
876	 6.65990014939543E-02 
877	 6.68414200233592E-02 
878	 6.70571178482456E-02 
879	 6.72749680169148E-02 
880	 6.75080345260324E-02 
881	 6.77533748904579E-02 
882	 6.79746451007208E-02 
883	 6.81908817837107E-02 
884	 6.84250577638019E-02 
885	 6.86945580839818E-02 
886	 6.89729957125292E-02 
887	 6.92505452001039E-02 
888	 0.069499739224053 
889	 6.96793131186609E-02 
890	 6.98763619199519E-02 
891	 7.01012943963563E-02 
892	 7.03469721530947E-02 
893	 7.06033744305324E-02 
894	 7.08611674807284E-02 
895	 7.11160180546812E-02 
896	 7.13616682619959E-02 
897	 7.15756188334031E-02 
898	 7.18463359269398E-02 
899	 7.21048198026519E-02 
900	 7.22785621115114E-02 
901	 7.24921131706799E-02 
902	 7.27634357751549E-02 
903	 7.30475285077162E-02 
904	 7.32821144496879E-02 
905	 7.35021665962413E-02 
906	 7.37325392447683E-02 
907	 7.39851776121735E-02 
908	 7.42562258214684E-02 
909	 7.45123340356938E-02 
910	 7.47416886841126E-02 
911	 7.49779947817353E-02 
912	 7.52834887424809E-02 
913	 7.55469016750911E-02 
914	 7.58018196732808E-02 
915	 7.60723399371852E-02 
916	 7.63392139281563E-02 
917	 7.66080175962712E-02 
918	 7.68607569761353E-02 
919	 7.70931269748689E-02 
920	 7.73329681623105E-02 
921	 7.75598462911784E-02 
922	 7.77927869641386E-02 
923	 7.80564164861916E-02 
924	 7.83719609498955E-02 
925	 0.078588601816735 
926	 7.88075631746959E-02 
927	 7.91341970675388E-02 
928	 7.93884963321192E-02 
929	 7.96485783879706E-02 
930	 7.99324536842163E-02 
931	 0.080224681460165 
932	 8.04838077555063E-02 
933	 8.07553060327005E-02 
934	 8.10245504657323E-02 
935	 8.12570333058961E-02 
936	 8.15019825343662E-02 
937	 8.17691976095715E-02 
938	 8.20350699042367E-02 
939	 8.22729869531386E-02 
940	 8.25914828805711E-02 
941	 8.28798975418393E-02 
942	 8.31291931085757E-02 
943	 8.34222984176575E-02 
944	 8.36814716651881E-02 
945	 8.39940742374527E-02 
946	 8.43202158320962E-02 
947	 8.45026003699871E-02 
948	 8.48040473714645E-02 
949	 8.51119141896031E-02 
950	 8.53683294597546E-02 
951	 8.56502000072905E-02 
952	 8.58834550696865E-02 
953	 8.61711233288726E-02 
954	 8.65036963191902E-02 
955	 8.66806256789971E-02 
956	 8.69193872361305E-02 
957	 8.72290174003071E-02 
958	 8.75331453602647E-02 
959	 8.77005932526949E-02 
960	 8.79767712629102E-02 
961	 8.82821614243104E-02 
962	 8.85464028355819E-02 
963	 0.088876364091164 
964	 8.91223187300058E-02 
965	 8.93671253303877E-02 
966	 8.96813730810695E-02 
967	 8.99691286482886E-02 
968	 9.01967049921865E-02 
969	 9.04812448523837E-02 
970	 0.090884787291075 
971	 9.12268692481481E-02 
972	 9.14884468585994E-02 
973	 9.17073846154371E-02 
974	 0.091939255765838 
975	 9.22142254207791E-02 
976	 9.24894834591488E-02 
977	 9.28064566036009E-02 
978	 9.31642670889131E-02 
979	 9.33521763928302E-02 
980	 9.35939302741408E-02 
981	 9.39208211614659E-02 
982	 0.094267013517898 
983	 9.44898060187756E-02 
984	 9.48045371904958E-02 
985	 9.51427288902597E-02 
986	 9.53995864211335E-02 
987	 9.57122265102063E-02 
988	 9.59759891477406E-02 
989	 9.62026664676519E-02 
990	 9.64437370665633E-02 
991	 9.67361700169098E-02 
992	 9.69310400943397E-02 
993	 9.71427936938822E-02 
994	 9.75139746983643E-02 
995	 9.79534110348921E-02 
996	 9.82108307614494E-02 
997	 9.84235884766578E-02 
998	 9.87806832670519E-02 
999	 9.91125946054205E-02 
1000	 9.95026430465711E-02 
1001	 9.93442059027122E-02 
1002	 9.96381761241805E-02 
1003	 9.99046898160191E-02 
1004	 0.10016066858653 
1005	 0.100405510037425 
1006	 0.100665922856565 
1007	 0.100893219190618 
1008	 0.101181109633791 
1009	 0.101526464864571 
1010	 0.101814573782249 
1011	 0.102094706444549 
1012	 0.102383566391033 
1013	 0.102668233489581 
1014	 0.102939273708681 
1015	 0.103211102776854 
1016	 0.103489631224414 
1017	 0.103749097989627 
1018	 0.103942286378042 
1019	 0.104217854384987 
1020	 0.104550436930843 
1021	 0.104832076703893 
1022	 0.105119407448462 
1023	 0.105393127562388 
1024	 0.105624821732235 
1025	 0.105891817387886 
1026	 0.106187880332405 
1027	 0.106470377529052 
1028	 0.106755007833808 
1029	 0.107036492278415 
1030	 0.107321373102734 
1031	 0.107604104377446 
1032	 0.107907463989481 
1033	 0.108186105051399 
1034	 0.108428228583207 
1035	 0.10866856089466 
1036	 0.108926383044555 
1037	 0.109181390344237 
1038	 0.10945297404509 
1039	 0.109755403509393 
1040	 0.110032124801716 
1041	 0.110280867413151 
1042	 0.110562037756896 
1043	 0.110851190626844 
1044	 0.111155977067636 
1045	 0.111454885561663 
1046	 0.111732614169522 
1047	 0.111984766187159 
1048	 0.112247715400648 
1049	 0.112530423693726 
1050	 0.112817245193104 
1051	 0.113110916947476 
1052	 0.11338907505892 
1053	 0.113658950400832 
1054	 0.113911976005057 
1055	 0.114201813516387 
1056	 0.114498514607517 
1057	 0.114784613576657 
1058	 0.115091694956739 
1059	 0.115379656961793 
1060	 0.115651678682796 
1061	 0.115923811383583 
1062	 0.116188243246771 
1063	 0.116472904216093 
1064	 0.116757888899561 
1065	 0.117031333390506 
1066	 0.117316922350326 
1067	 0.117596378272346 
1068	 0.117832120692517 
1069	 0.118054135882246 
1070	 0.118314823832392 
1071	 0.11858785832051 
1072	 0.11886640586643 
1073	 0.119169100284979 
1074	 0.119469357461925 
1075	 0.119713124451895 
1076	 0.119965924914937 
1077	 0.120231162660802 
1078	 0.120492316980597 
1079	 0.120794802533918 
1080	 0.121083422027495 
1081	 0.121340822815274 
1082	 0.121625640131195 
1083	 0.121894946350681 
1084	 0.122149604529007 
1085	 0.12242648460086 
1086	 0.122699076520014 
1087	 0.122965629249535 
1088	 0.123246343890713 
1089	 0.123520277796026 
1090	 0.123767957621248 
1091	 0.124032378451463 
1092	 0.124290568380855 
1093	 0.124559635884152 
1094	 0.124863672311709 
1095	 0.125141263354068 
1096	 0.125423095327791 
1097	 0.125718700533947 
1098	 0.125972791402148 
1099	 0.126230753107826 
1100	 0.126503297185441 
1101	 0.126773369762158 
1102	 0.127058347730476 
1103	 0.127333748359259 
1104	 0.127612461963698 
1105	 0.127888201199154 
1106	 0.128160007766622 
1107	 0.128417400707371 
1108	 0.128697707265654 
1109	 0.128967780730036 
1110	 0.129221169492559 
1111	 0.129510795037595 
1112	 0.129806362884429 
1113	 0.130088432133043 
1114	 0.130380505382382 
1115	 0.130656059954851 
1116	 0.130907631782567 
1117	 0.131176453576169 
1118	 0.131450180805861 
1119	 0.131732164068914 
1120	 0.132005355643848 
1121	 0.132279929805703 
1122	 0.132555733941943 
1123	 0.132842894270681 
1124	 0.133110038566289 
1125	 0.133384015314966 
1126	 0.133658200456835 
1127	 0.133920730609422 
1128	 0.134213777270699 
1129	 0.134502988501551 
1130	 0.134800086651456 
1131	 0.135092530442891 
1132	 0.135342708436459 
1133	 0.135603772938153 
1134	 0.135855176217598 
1135	 0.136115557970817 
1136	 0.13637386034229 
1137	 0.136647594991325 
1138	 0.136943768690816 
1139	 0.137220019277988 
1140	 0.137490732616999 
1141	 0.137761738995991 
1142	 0.138032705229511 
1143	 0.138294837623972 
1144	 0.138566016580877 
1145	 0.138822248570188 
1146	 0.139057916799625 
1147	 0.139305328723579 
1148	 0.139560328060738 
1149	 0.139809633446284 
1150	 0.140070868654918 
1151	 0.140328270386599 
1152	 0.140589585620228 
1153	 0.140866375119144 
1154	 0.141121665020815 
1155	 0.141359964909856 
1156	 0.1416128239913 
1157	 0.141854929753092 
1158	 0.142098571868075 
1159	 0.142349137910747 
1160	 0.142616752716518 
1161	 0.142862584795472 
1162	 0.143124231641894 
1163	 0.143374445811141 
1164	 0.143621089318444 
1165	 0.14387873846855 
1166	 0.14410152135426 
1167	 0.144335044600665 
1168	 0.144573513720228 
1169	 0.144808981932938 
1170	 0.145041732497854 
1171	 0.14527638502619 
1172	 0.145518225129084 
1173	 0.145748726780214 
1174	 0.145963789131303 
1175	 0.146185290516057 
1176	 0.146405911031386 
1177	 0.146628222786315 
1178	 0.146853766513103 
1179	 0.147085186478983 
1180	 0.147290135253763 
1181	 0.147497738647036 
1182	 0.147723918853311 
1183	 0.147938703963495 
1184	 0.148153491715621 
1185	 0.148357369523913 
1186	 0.148569871647056 
1187	 0.148769362398432 
1188	 0.148979871308781 
1189	 0.149204423523339 
1190	 0.149428773379255 
1191	 0.149644234166678 
1192	 0.149865951801261 
1193	 0.150090776356296 
1194	 0.150335253943011 
1195	 0.150593582129997 
1196	 0.150845859972899 
1197	 0.151105826265598 
1198	 0.151380334185052 
1199	 0.151643152706662 
1200	 0.151903744289219 
1201	 0.152171358496408 
1202	 0.15242921279653 
1203	 0.152697798420302 
1204	 0.152972292127384 
1205	 0.153254035965689 
1206	 0.153553883692324 
1207	 0.153855212324155 
1208	 0.154151129591622 
1209	 0.154462774180174 
1210	 0.154785703648319 
1211	 0.155115075360279 
1212	 0.155452613220678 
1213	 0.155805427430579 
1214	 0.156171085656325 
1215	 0.156546890533925 
1216	 0.156936731278357 
1217	 0.157326877194075 
1218	 0.15772903538956 
1219	 0.158127960175319 
1220	 0.158526002443704 
1221	 0.158962595320019 
1222	 0.159376706455849 
1223	 0.159794662108767 
1224	 0.160218846006538 
1225	 0.160648080712799 
1226	 0.161058997608781 
1227	 0.161470352405204 
1228	 0.16187838042474 
1229	 0.162277496416316 
1230	 0.162667758288198 
1231	 0.163057813969462 
1232	 0.16344284176042 
1233	 0.163813674310955 
1234	 0.164178171027607 
1235	 0.164535288171775 
1236	 0.164899302732152 
1237	 0.165264025251846 
1238	 0.165617039275329 
1239	 0.165955640894278 
1240	 0.166320094297979 
1241	 0.16669028699703 
1242	 0.167027003614685 
1243	 0.167363252943955 
1244	 0.167700476345552 
1245	 0.16803985280806 
1246	 0.168362343421729 
1247	 0.168693331133123 
1248	 0.169045407408562 
1249	 0.169379963463111 
1250	 0.169689545849064 
1251	 0.170018944130898 
1252	 0.170358005552781 
1253	 0.170695796527645 
1254	 0.171052953274546 
1255	 0.17138582269169 
1256	 0.171696485768116 
1257	 0.172025916459102 
1258	 0.172350876000876 
1259	 0.172677576750596 
1260	 0.173023322105763 
1261	 0.173361215214992 
1262	 0.17368935062923 
1263	 0.174026085187428 
1264	 0.174339742971622 
1265	 0.174635013381657 
1266	 0.174965482296053 
1267	 0.175296622421329 
1268	 0.17562481268022 
1269	 0.175978739365392 
1270	 0.17631782338638 
1271	 0.176637970546481 
1272	 0.176965079815137 
1273	 0.177304048028208 
1274	 0.177634445042424 
1275	 0.177954537072278 
1276	 0.178271425247753 
1277	 0.178584391595921 
1278	 0.178901774690836 
1279	 0.179210958383203 
1280	 0.179525120956296 
1281	 0.179851710507207 
1282	 0.180169262481522 
1283	 0.180484911561282 
1284	 0.180791014917394 
1285	 0.181090323663956 
1286	 0.181379637668488 
1287	 0.181677633319413 
1288	 0.181970633537194 
1289	 0.182265895905357 
1290	 0.182568593343426 
1291	 0.182862008980361 
1292	 0.183141756538317 
1293	 0.183438123519811 
1294	 0.183740295735247 
1295	 0.184040445264856 
1296	 0.184354174858159 
1297	 0.184650615606776 
1298	 0.184932948118263 
1299	 0.185223154573148 
1300	 0.185507216308836 
1301	 0.185796596922154 
1302	 0.18608783557037 
1303	 0.186385454485302 
1304	 0.186697337600022 
1305	 0.186992534683077 
1306	 0.187268529820919 
1307	 0.187568471538282 
1308	 0.187874654085185 
1309	 0.188181927565114 
1310	 0.18847441958393 
1311	 0.18877804205065 
1312	 0.189076128092221 
1313	 0.189347739394103 
1314	 0.189644736651468 
1315	 0.189959505649301 
1316	 0.19027632515962 
1317	 0.190603312158689 
1318	 0.190911810972216 
1319	 0.191221466419773 
1320	 0.191531789021289 
1321	 0.19182422316424 
1322	 0.19212687936005 
1323	 0.192449402397608 
1324	 0.192753592674623 
1325	 0.193039240461186 
1326	 0.193338110084059 
1327	 0.193633865248625 
1328	 0.193938400105191 
1329	 0.194265899741689 
1330	 0.19457057769104 
1331	 0.194863166015222 
1332	 0.195160078564699 
1333	 0.195443969067765 
1334	 0.195733158598543 
1335	 0.196022906806717 
1336	 0.196319081551785 
1337	 0.196614139150634 
1338	 0.196908144607987 
1339	 0.197198947131612 
1340	 0.197496487539891 
1341	 0.19777962621907 
1342	 0.19805294470652 
1343	 0.19832672219259 
1344	 0.198596477491486 
1345	 0.198863228663654 
1346	 0.199134645474867 
1347	 0.199384544079002 
1348	 0.199622770413621 
1349	 0.199857573855683 
1350	 0.200076392356388 
1351	 0.200299155539913 
1352	 0.200516462140845 
1353	 0.200740914525349 
1354	 0.200973574886719 
1355	 0.20119280464506 
1356	 0.201409668254868 
1357	 0.201626366539814 
1358	 0.20182380777628 
1359	 0.202038007402712 
1360	 0.202264324666043 
1361	 0.202493150197476 
1362	 0.202731494718303 
1363	 0.202951784017353 
1364	 0.203163718012803 
1365	 0.203368601578488 
1366	 0.203560392062702 
1367	 0.203735088988458 
1368	 0.203918080991963 
1369	 0.204093626907708 
1370	 0.204273981332218 
1371	 0.204468392087279 
1372	 0.204630562815027 
1373	 0.204785816545859 
1374	 0.204923657652854 
1375	 0.205038095517533 
1376	 0.205149727272016 
1377	 0.205249498085008 
1378	 0.205346929999332 
1379	 0.205426290966057 
1380	 0.205520950150512 
1381	 0.20562100957011 
1382	 0.20572009006266 
1383	 0.205826039589961 
1384	 0.205929237044167 
1385	 0.206032340891821 
1386	 0.206131263933996 
1387	 0.206219960721196 
1388	 0.206320418503762 
1389	 0.206413561928235 
1390	 0.206524207339551 
1391	 0.206641184017921 
1392	 0.206786832380481 
1393	 0.20693371303296 
1394	 0.207092937570506 
1395	 0.207251435710809 
1396	 0.207424302878458 
1397	 0.207573155675262 
1398	 0.207723745190671 
1399	 0.207847791293226 
1400	 0.207957163670714 
1401	 0.208048079873428 
1402	 0.20813331527429 
1403	 0.208172798655511 
1404	 0.20818730512132 
1405	 0.20817028893764 
1406	 0.208101729486643 
1407	 0.208043588357993 
1408	 0.20796549967832 
1409	 0.207886814327266 
1410	 0.20779742914501 
1411	 0.207714017509318 
1412	 0.207607185669868 
1413	 0.207539113176301 
1414	 0.207482014646293 
1415	 0.207450300308722 
1416	 0.207449718839824 
1417	 0.207458851650564 
1418	 0.20748891853883 
1419	 0.207525504489406 
1420	 0.207584406185323 
1421	 0.207636739623928 
1422	 0.2076893210542 
1423	 0.207749764151436 
1424	 0.207811755148416 
1425	 0.207880447871881 
1426	 0.207943910982446 
1427	 0.208020991438514 
1428	 0.208114853730835 
1429	 0.208184988458877 
1430	 0.208268152056132 
1431	 0.208366190857395 
1432	 0.208447770474406 
1433	 0.208518160737378 
1434	 0.208598558184277 
1435	 0.208676552532648 
1436	 0.208763824312787 
1437	 0.208852601166105 
1438	 0.208952751844852 
1439	 0.209061573600539 
1440	 0.209174996525421 
1441	 0.209296898498513 
1442	 0.209425354665466 
1443	 0.209536411866664 
1444	 0.209705842512874 
1445	 0.20989096712007 
1446	 0.210120880109432 
1447	 0.210398049944352 
1448	 0.210705002432782 
1449	 0.211044603057879 
1450	 0.211417325996956 
1451	 0.211836773434083 
1452	 0.212268584093648 
1453	 0.212739289648123 
1454	 0.213205744444318 
1455	 0.213692570731867 
1456	 0.214176714172759 
1457	 0.214667795021777 
1458	 0.215156263447597 
1459	 0.215644023367988 
1460	 0.216137226532773 
1461	 0.216641921777444 
1462	 0.217127012297237 
1463	 0.21759794390085 
1464	 0.218081249930692 
1465	 0.218546306840583 
1466	 0.219041585262139 
1467	 0.219525580589865 
1468	 0.220000197013405 
1469	 0.220477442173909 
1470	 0.220934976034082 
1471	 0.221400164264975 
1472	 0.221874953141016 
1473	 0.222335174244366 
1474	 0.222787608842032 
1475	 0.22323061614471 
1476	 0.223674573090678 
1477	 0.224096603793658 
1478	 0.224501593938411 
1479	 0.224893162612719 
1480	 0.225264685051159 
1481	 0.225640530479717 
1482	 0.226008704395202 
1483	 0.226369662573966 
1484	 0.226723424975454 
1485	 0.227081806911462 
1486	 0.22743702944173 
1487	 0.227780401878998 
1488	 0.228115937919219 
1489	 0.228464725041821 
1490	 0.228801736499222 
1491	 0.229155044021213 
1492	 0.229525620112038 
1493	 0.229902392814769 
1494	 0.230275117621279 
1495	 0.230668619884349 
1496	 0.231083836886223 
1497	 0.231501472931589 
1498	 0.231943062843485 
1499	 0.232366396662968 
1500	 0.232794867544603 
1501	 0.233208167370304 
1502	 0.233600022859401 
1503	 0.2339955622747 
1504	 0.234386766530371 
1505	 0.234776278541961 
1506	 0.23517141889546 
1507	 0.23555213528496 
1508	 0.235931057428711 
1509	 0.236292383971031 
1510	 0.236637982545578 
1511	 0.236972435196656 
1512	 0.237278446839271 
1513	 0.237597858893566 
1514	 0.237924302355851 
1515	 0.238236295227203 
1516	 0.238548130289917 
1517	 0.238853802256921 
1518	 0.239142025222988 
1519	 0.239428281876778 
1520	 0.239713664596953 
1521	 0.239997738204085 
1522	 0.240261687319303 
1523	 0.240541841219693 
1524	 0.240817246917483 
1525	 0.241094452531066 
1526	 0.241366448354086 
1527	 0.241641296834944 
1528	 0.24190211156907 
1529	 0.24215644730573 
1530	 0.242401306064864 
1531	 0.242631772964132 
1532	 0.24287473251792 
1533	 0.243113134598611 
1534	 0.243360089354773 
1535	 0.243614236190387 
1536	 0.243869767844585 
1537	 0.24412279659067 
1538	 0.244391320524885 
1539	 0.244672394839239 
1540	 0.244950227361731 
1541	 0.245232363825005 
1542	 0.245523474779904 
1543	 0.245811927547192 
1544	 0.246119807572766 
1545	 0.246451093842937 
1546	 0.246767671312569 
1547	 0.247093436617895 
1548	 0.247404665284181 
1549	 0.247695294286671 
1550	 0.248011561419713 
1551	 0.248329892903707 
1552	 0.248660402202952 
1553	 0.249019083751209 
1554	 0.24935349128989 
1555	 0.249685984346654 
1556	 0.250008930558796 
1557	 0.250315352599375 
1558	 0.250630658357842 
1559	 0.250947620142631 
1560	 0.251258117413797 
1561	 0.251569077739608 
1562	 0.25187452681214 
1563	 0.252167363779584 
1564	 0.252470884187484 
1565	 0.252772416558884 
1566	 0.253085497796763 
1567	 0.253410596764892 
1568	 0.253731720754928 
1569	 0.254061994408137 
1570	 0.254383812955462 
1571	 0.254705892087764 
1572	 0.255016158984491 
1573	 0.255315535684189 
1574	 0.255618214815523 
1575	 0.255912215894346 
1576	 0.256210617261358 
1577	 0.25651069866769 
1578	 0.256814276901623 
1579	 0.257121488569396 
1580	 0.257423536408395 
1581	 0.257730236603388 
1582	 0.258030043990023 
1583	 0.258318406568065 
1584	 0.258614270105356 
1585	 0.258906690813214 
1586	 0.259209100688114 
1587	 0.259525638118645 
1588	 0.259830081831177 
1589	 0.260140370743164 
1590	 0.26043794058615 
1591	 0.260719026466376 
1592	 0.261004965733575 
1593	 0.261281522290574 
1594	 0.261569124945067 
1595	 0.261864452586717 
1596	 0.262156104377519 
1597	 0.262453696667001 
1598	 0.262747896460252 
1599	 0.26304538523899 
1600	 0.263330110493289 
1601	 0.263602382807967 
1602	 0.263882865532639 
1603	 0.264162947945112 
1604	 0.264433020928922 
1605	 0.264696219340903 
1606	 0.264971279737763 
1607	 0.265250549732909 
1608	 0.265517429594471 
1609	 0.265800252586982 
1610	 0.266060649508579 
1611	 0.266285016640477 
1612	 0.266522676247555 
1613	 0.266764114754427 
1614	 0.26699827550046 
1615	 0.267240798500127 
1616	 0.26746427371754 
1617	 0.267661134862069 
1618	 0.267872327710148 
1619	 0.268090114682568 
1620	 0.268289642629858 
1621	 0.26848381355659 
1622	 0.26867982412864 
1623	 0.268852884756775 
1624	 0.269041570102659 
1625	 0.269258328458005 
1626	 0.269452001444206 
1627	 0.269632646226278 
1628	 0.269813533531725 
1629	 0.269976596304003 
1630	 0.270153461301241 
1631	 0.270341625047131 
1632	 0.270525357750417 
1633	 0.27070937047493 
1634	 0.270896600508228 
1635	 0.271084029835344 
1636	 0.271272531160124 
1637	 0.2714760331429 
1638	 0.271659146445563 
1639	 0.271825147379144 
1640	 0.271999497222526 
1641	 0.272172769333058 
1642	 0.272334183917138 
1643	 0.272500474217158 
1644	 0.272650389645453 
1645	 0.272780576817195 
1646	 0.272909101438245 
1647	 0.273042231029194 
1648	 0.273148595346074 
1649	 0.273233855722165 
1650	 0.27331462698868 
1651	 0.273374213662733 
1652	 0.273433585648529 
1653	 0.273503100347661 
1654	 0.273538921114076 
1655	 0.273553448325587 
1656	 0.273558938490938 
1657	 0.273554235087689 
1658	 0.273514571875185 
1659	 0.273454911718089 
1660	 0.273372878540518 
1661	 0.273258346861674 
1662	 0.273122847157158 
1663	 0.272981477562979 
1664	 0.272793369080086 
1665	 0.272566760690204 
1666	 0.272307290408929 
1667	 0.272023370779074 
1668	 0.271683669160064 
1669	 0.271298148067759 
1670	 0.270873592516091 
1671	 0.270387381572643 
1672	 0.2698859125475 
1673	 0.269365277755437 
1674	 0.268793508658703 
1675	 0.268191614452297 
1676	 0.267540659717526 
1677	 0.266843840104617 
1678	 0.266099279706819 
1679	 0.265306410707408 
1680	 0.264464552087519 
1681	 0.26356957373637 
1682	 0.262623398182074 
1683	 0.261633690630007 
1684	 0.260599413351583 
1685	 0.25950821855749 
1686	 0.258383855465277 
1687	 0.25719519612207 
1688	 0.255993801174996 
1689	 0.254759759679482 
1690	 0.25349608081042 
1691	 0.252195986002965 
1692	 0.250925084700216 
1693	 0.24964917505069 
1694	 0.248349649777723 
1695	 0.247051345703822 
1696	 0.245719327926035 
1697	 0.244345675360511 
1698	 0.242966371002432 
1699	 0.241576345133643 
1700	 0.240220915576677 
1701	 0.238827976508998 
1702	 0.237524070103239 
1703	 0.236237221873972 
1704	 0.235061675956791 
1705	 0.233960692694965 
1706	 0.232901748164786 
1707	 0.231996013844194 
1708	 0.231138349599335 
1709	 0.230320604952196 
1710	 0.229625275545232 
1711	 0.228926357021867 
1712	 0.228261809124144 
1713	 0.227645476281709 
1714	 0.227008151269879 
1715	 0.226434014015037 
1716	 0.225871038183638 
1717	 0.225340047223475 
1718	 0.224887711845808 
1719	 0.224458704919823 
1720	 0.224070917109714 
1721	 0.223723932102591 
1722	 0.223441353026135 
1723	 0.223265130445617 
1724	 0.223210088903821 
1725	 0.223299635774274 
1726	 0.223503409534426 
1727	 0.223826397560058 
1728	 0.22430405944558 
1729	 0.224925782608033 
1730	 0.225691816127534 
1731	 0.22654544573397 
1732	 0.227469269586149 
1733	 0.228386445946276 
1734	 0.229325300220679 
1735	 0.230295554874293 
1736	 0.231195922467234 
1737	 0.232058089484456 
1738	 0.232806559737433 
1739	 0.233423901485254 
1740	 0.233927709815477 
1741	 0.234343359019187 
1742	 0.23464068309728 
1743	 0.234871671797112 
1744	 0.234989418434937 
1745	 0.235080535755217 
1746	 0.235074630179801 
1747	 0.235073833072177 
1748	 0.235034728892975 
1749	 0.235020207807507 
1750	 0.234966503826505 
1751	 0.234985812549582 
1752	 0.235028636530796 
1753	 0.23513420627551 
1754	 0.235279249869805 
1755	 0.235500832827676 
1756	 0.235766757140832 
1757	 0.236112107449295 
1758	 0.236583732029787 
1759	 0.237109501899598 
1760	 0.237746501448322 
1761	 0.238489864991859 
1762	 0.239241791792782 
1763	 0.240101283879263 
1764	 0.24103245402432 
1765	 0.242014297483798 
1766	 0.243127643429715 
1767	 0.244246966801176 
1768	 0.245390653733624 
1769	 0.246553157916788 
1770	 0.247627202843805 
1771	 0.248711503804209 
1772	 0.249766819839871 
1773	 0.250755337766942 
1774	 0.251760939841912 
1775	 0.252713160781167 
1776	 0.253626480671201 
1777	 0.254484495018065 
1778	 0.255233890025033 
1779	 0.255967996543125 
1780	 0.256668111441526 
1781	 0.257340176932038 
1782	 0.258034022899259 
1783	 0.258662028796488 
1784	 0.259244257628067 
1785	 0.259796080721154 
1786	 0.260292574198107 
1787	 0.260745117918021 
1788	 0.261178470077442 
1789	 0.261547808377481 
1790	 0.261931991760427 
1791	 0.262327554861362 
1792	 0.262688891713121 
1793	 0.263015378676793 
1794	 0.263356002832304 
1795	 0.263646846469598 
1796	 0.263938937212319 
1797	 0.264266971210555 
1798	 0.264595219817835 
1799	 0.264925773646981 
1800	 0.265244813642978 
1801	 0.264793852418879 
1802	 0.265121258408917 
1803	 0.265437602338615 
1804	 0.265736908612527 
1805	 0.266061382389387 
1806	 0.266366464780371 
1807	 0.266663330367595 
1808	 0.266960815360468 
1809	 0.267269999468627 
1810	 0.267547805997894 
1811	 0.267796094362101 
1812	 0.268067743198534 
1813	 0.268325442324918 
1814	 0.268598155942664 
1815	 0.268886903853646 
1816	 0.269191573018793 
1817	 0.269509624865924 
1818	 0.26984151439292 
1819	 0.270172118931337 
1820	 0.270527779019078 
1821	 0.270864348639962 
1822	 0.271183168918405 
1823	 0.271526970390996 
1824	 0.271856577148736 
1825	 0.272194763792584 
1826	 0.272519200916583 
1827	 0.272836943240955 
1828	 0.273149355240357 
1829	 0.273453234479336 
1830	 0.273753406707954 
1831	 0.274037320764222 
1832	 0.274352632980749 
1833	 0.274653252477433 
1834	 0.274989868392159 
1835	 0.275354343352027 
1836	 0.275680118294235 
1837	 0.276013153687939 
1838	 0.276334621390818 
1839	 0.276668339241976 
1840	 0.277009148973586 
1841	 0.277351416819771 
1842	 0.277697777475837 
1843	 0.278049020008781 
1844	 0.278400713172159 
1845	 0.278728655047958 
1846	 0.279076778002403 
1847	 0.279397924880845 
1848	 0.279704512384389 
1849	 0.280017024231159 
1850	 0.280289927343804 
1851	 0.280526870072048 
1852	 0.280767715739361 
1853	 0.280991469869418 
1854	 0.281156013544104 
1855	 0.28131745010289 
1856	 0.281459749633858 
1857	 0.281583457435342 
1858	 0.281690731853323 
1859	 0.28177571766303 
1860	 0.281854703980115 
1861	 0.281894320668398 
1862	 0.281906573353256 
1863	 0.281897295019115 
1864	 0.281837043555924 
1865	 0.281733010595099 
1866	 0.281602791963771 
1867	 0.281437774320332 
1868	 0.281246299005235 
1869	 0.281042032910968 
1870	 0.280812216231635 
1871	 0.280553658734638 
1872	 0.280278035574898 
1873	 0.27999515748236 
1874	 0.27967422535295 
1875	 0.279321730694113 
1876	 0.278898105752567 
1877	 0.278440288804929 
1878	 0.277910549829055 
1879	 0.277305885943547 
1880	 0.27668535711414 
1881	 0.27597779857152 
1882	 0.275186937860255 
1883	 0.274365069064312 
1884	 0.273465314205742 
1885	 0.272424343717601 
1886	 0.271346182214886 
1887	 0.270159838596716 
1888	 0.268876555763241 
1889	 0.267656642144851 
1890	 0.266366657119086 
1891	 0.265050654542806 
1892	 0.263748389149028 
1893	 0.262397022842613 
1894	 0.260964870481488 
1895	 0.259584903943308 
1896	 0.258215725228211 
1897	 0.256854723010048 
1898	 0.255636997188536 
1899	 0.25442226723536 
1900	 0.253262024325441 
1901	 0.252227473040315 
1902	 0.251159765767005 
1903	 0.250171783793926 
1904	 0.249251548487058 
1905	 0.248390729005202 
1906	 0.247562972867437 
1907	 0.246858174615282 
1908	 0.246184923001498 
1909	 0.245552869872453 
1910	 0.244969484820512 
1911	 0.244386639764645 
1912	 0.243859650796761 
1913	 0.243379450348357 
1914	 0.242937749321173 
1915	 0.242540068456062 
1916	 0.24220418784978 
1917	 0.241885358516776 
1918	 0.241574791871059 
1919	 0.241284408973903 
1920	 0.240991473046852 
1921	 0.240719271125749 
1922	 0.240465607908037 
1923	 0.240199868991833 
1924	 0.23995426306919 
1925	 0.239704307535292 
1926	 0.239462390296612 
1927	 0.239217022096848 
1928	 0.238999336478592 
1929	 0.238788985095704 
1930	 0.238600703181796 
1931	 0.238447884541142 
1932	 0.238312451142307 
1933	 0.23821447723204 
1934	 0.238162506348088 
1935	 0.238128023598857 
1936	 0.238142303252609 
1937	 0.238198208766463 
1938	 0.23829245561894 
1939	 0.238420721011794 
1940	 0.238591173822378 
1941	 0.238803070514104 
1942	 0.239034636887097 
1943	 0.23930252910655 
1944	 0.239590302876469 
1945	 0.239911593709759 
1946	 0.240284332799021 
1947	 0.240669050578178 
1948	 0.24111408583056 
1949	 0.2416105807051 
1950	 0.242113208761152 
1951	 0.242659793518582 
1952	 0.243207230859748 
1953	 0.243764751635942 
1954	 0.244324272211287 
1955	 0.2449440797114 
1956	 0.245556587125224 
1957	 0.246204125747064 
1958	 0.246868814752224 
1959	 0.247476920095808 
1960	 0.248065470697416 
1961	 0.248618831525312 
1962	 0.249132210230949 
1963	 0.249635654179253 
1964	 0.250120987770578 
1965	 0.250567494330676 
1966	 0.25099765504532 
1967	 0.251380294070625 
1968	 0.251727050655885 
1969	 0.252065770285077 
1970	 0.252383593274108 
1971	 0.252711220372443 
1972	 0.253049440894546 
1973	 0.253388320694932 
1974	 0.253749505010649 
1975	 0.254143327503985 
1976	 0.25452007738331 
1977	 0.254910606279869 
1978	 0.255291751704874 
1979	 0.25565712969851 
1980	 0.256026210444393 
1981	 0.256447278452368 
1982	 0.256843541964873 
1983	 0.257271927108141 
1984	 0.257723821110486 
1985	 0.258128656880568 
1986	 0.258567550925212 
1987	 0.259033047471396 
1988	 0.259507207090364 
1989	 0.260016440308847 
1990	 0.260572050708548 
1991	 0.261121084909467 
1992	 0.261677951093823 
1993	 0.262279307143645 
1994	 0.262851145168116 
1995	 0.26345567236296 
1996	 0.264058479851377 
1997	 0.264634804126618 
1998	 0.265222378778128 
1999	 0.265826382546009 
2000	 0.266384033424451 
2001	 0.2669450868313 
2002	 0.267452576219552 
2003	 0.267921616400137 
2004	 0.26836267220038 
2005	 0.26875525393101 
2006	 0.269144364713591 
2007	 0.26952199752761 
2008	 0.269851156351929 
2009	 0.270174535136214 
2010	 0.270478916617685 
2011	 0.270726093184161 
2012	 0.270970791262299 
2013	 0.271179697084954 
2014	 0.271352341131242 
2015	 0.271510867638865 
2016	 0.271649834457214 
2017	 0.271758177487684 
2018	 0.271836001744137 
2019	 0.27190559459918 
2020	 0.271956980927235 
2021	 0.271978609699544 
2022	 0.271991782955506 
2023	 0.271980613973915 
2024	 0.27193092929075 
2025	 0.271867953283853 
2026	 0.271785905255209 
2027	 0.271674275296732 
2028	 0.271564292573289 
2029	 0.271439060588036 
2030	 0.271305334013376 
2031	 0.271158533613653 
2032	 0.271017053285389 
2033	 0.270856138067305 
2034	 0.270714942552947 
2035	 0.270588629650818 
2036	 0.270456649780028 
2037	 0.27032760138748 
2038	 0.270201759962119 
2039	 0.270077777928072 
2040	 0.269945034531028 
2041	 0.269833204458656 
2042	 0.269738264797181 
2043	 0.269638282733602 
2044	 0.269548002309289 
2045	 0.269455310357219 
2046	 0.269356645410298 
2047	 0.269264759549918 
2048	 0.269175523636655 
2049	 0.269093209716456 
2050	 0.269011835365532 
2051	 0.268945396215952 
2052	 0.26888207419585 
2053	 0.268820923741184 
2054	 0.26876224767996 
2055	 0.268711215190906 
2056	 0.268650335710114 
2057	 0.268583415017091 
2058	 0.268524433303476 
2059	 0.268465272832677 
2060	 0.268406041262407 
2061	 0.268353742242425 
2062	 0.268301468558429 
2063	 0.268246574376187 
2064	 0.268190087667693 
2065	 0.26813482300835 
2066	 0.268083627426956 
2067	 0.26802442106535 
2068	 0.267957646679223 
2069	 0.267895606811338 
2070	 0.267829868877403 
2071	 0.267772559342213 
2072	 0.267715850922149 
2073	 0.26766831821729 
2074	 0.267641855777497 
2075	 0.267594674565555 
2076	 0.267540458568241 
2077	 0.267488443121263 
2078	 0.267432068175914 
2079	 0.267363380720897 
2080	 0.267295946097303 
2081	 0.267221087511225 
2082	 0.267134622437064 
2083	 0.267037240491833 
2084	 0.266937739897088 
2085	 0.266844104451681 
2086	 0.266752133765115 
2087	 0.26665081842819 
2088	 0.26657367308676 
2089	 0.266516617988223 
2090	 0.26644631328301 
2091	 0.266394710655777 
2092	 0.266317567333808 
2093	 0.26622491616558 
2094	 0.266127582996787 
2095	 0.266019134053441 
2096	 0.265902188848669 
2097	 0.265780658647161 
2098	 0.265645458068739 
2099	 0.265507378417971 
2100	 0.265363658576975 
2101	 0.26518947731151 
2102	 0.264996569127457 
2103	 0.264801938570742 
2104	 0.264580632022711 
2105	 0.264363668714231 
2106	 0.264158973527593 
2107	 0.263918924767978 
2108	 0.263656742383288 
2109	 0.26338700341013 
2110	 0.263098605785538 
2111	 0.262800411863659 
2112	 0.262481424118191 
2113	 0.262167808143786 
2114	 0.261836995757384 
2115	 0.261517347769659 
2116	 0.261213775273181 
2117	 0.260902600437762 
2118	 0.260573399620337 
2119	 0.260233932273649 
2120	 0.25990256484087 
2121	 0.259535613970959 
2122	 0.25923211301502 
2123	 0.258960516589719 
2124	 0.25869785522755 
2125	 0.258467797445492 
2126	 0.258242065537869 
2127	 0.258020552913236 
2128	 0.25782102803727 
2129	 0.25763131710874 
2130	 0.257474631337011 
2131	 0.257357060405478 
2132	 0.257234978101474 
2133	 0.257132033804641 
2134	 0.257042337157437 
2135	 0.256944418014615 
2136	 0.256851821511011 
2137	 0.256783311924656 
2138	 0.256737688539255 
2139	 0.256688550671187 
2140	 0.256646603559333 
2141	 0.256621239823008 
2142	 0.256594432881537 
2143	 0.256596277553238 
2144	 0.256626101052785 
2145	 0.256663472463012 
2146	 0.256711882546897 
2147	 0.256784213266744 
2148	 0.256884549951297 
2149	 0.256979428059944 
2150	 0.257089755054279 
2151	 0.257206502219641 
2152	 0.257330946257146 
2153	 0.257446751826712 
2154	 0.257593604354054 
2155	 0.257731895123255 
2156	 0.257865616031075 
2157	 0.25800582581419 
2158	 0.25812650474978 
2159	 0.258245835190939 
2160	 0.258328946767723 
2161	 0.258387871457223 
2162	 0.258434735807586 
2163	 0.258450212902471 
2164	 0.258471498537795 
2165	 0.25848824506966 
2166	 0.258493421411462 
2167	 0.258486832989426 
2168	 0.258476859917873 
2169	 0.258444408155421 
2170	 0.258428404509584 
2171	 0.258409314675886 
2172	 0.25840521135753 
2173	 0.258405673088191 
2174	 0.258438305144782 
2175	 0.258450266929877 
2176	 0.258460493032551 
2177	 0.25849143012123 
2178	 0.258526234538945 
2179	 0.258562225084011 
2180	 0.258617087894025 
2181	 0.25866463257318 
2182	 0.258712022643215 
2183	 0.258752133686228 
2184	 0.258804450945331 
2185	 0.258830775433435 
2186	 0.258835962305316 
2187	 0.258835602335418 
2188	 0.258822426289369 
2189	 0.25880598485644 
2190	 0.25879345881188 
2191	 0.258751659263383 
2192	 0.258699824270902 
2193	 0.258623636231258 
2194	 0.258504642581906 
2195	 0.258394990490327 
2196	 0.258277246673944 
2197	 0.25815178171942 
2198	 0.258025909462454 
2199	 0.257884071008815 
2200	 0.257727750521678 
2201	 0.257553761199577 
2202	 0.257370442113285 
2203	 0.257180398538894 
2204	 0.256963641112107 
2205	 0.256725666212723 
2206	 0.256480748229422 
2207	 0.256202443658475 
2208	 0.255948750503047 
2209	 0.255702964375584 
2210	 0.255442484227533 
2211	 0.255204822397255 
2212	 0.254918525486146 
2213	 0.254574980153639 
2214	 0.254271856740127 
2215	 0.253972246332445 
2216	 0.253655068922324 
2217	 0.25337894816983 
2218	 0.253048653111297 
2219	 0.252666358738427 
2220	 0.252282017262506 
2221	 0.251886616322137 
2222	 0.251451562719096 
2223	 0.251028859238125 
2224	 0.250590910568979 
2225	 0.250129289715571 
2226	 0.249624700565408 
2227	 0.249042111170474 
2228	 0.248414563073727 
2229	 0.247700312303034 
2230	 0.246892191791791 
2231	 0.246052541843421 
2232	 0.245154920516891 
2233	 0.244187604776723 
2234	 0.243210689013038 
2235	 0.242066018480438 
2236	 0.240812031315478 
2237	 0.23946239977315 
2238	 0.237943498760423 
2239	 0.236413188841213 
2240	 0.234818513236402 
2241	 0.233144726104891 
2242	 0.231478138835102 
2243	 0.229608597965722 
2244	 0.227557810647437 
2245	 0.225488745518426 
2246	 0.223212116826478 
2247	 0.220991602496647 
2248	 0.218800399530406 
2249	 0.216541230910294 
2250	 0.214260084988813 
2251	 0.211947322748563 
2252	 0.209454211412103 
2253	 0.20702185694358 
2254	 0.204509508354406 
2255	 0.201968463431833 
2256	 0.199649525843719 
2257	 0.197274670812706 
2258	 0.194957967153372 
2259	 0.192743384345531 
2260	 0.190461589822065 
2261	 0.188139251417796 
2262	 0.185906702736195 
2263	 0.183635505254651 
2264	 0.181533344672135 
2265	 0.179547951668666 
2266	 0.177573446899939 
2267	 0.175754370142528 
2268	 0.173848652825255 
2269	 0.171880981732143 
2270	 0.170039042810963 
2271	 0.168175354978992 
2272	 0.166453096912122 
2273	 0.164895982739232 
2274	 0.163324426875071 
2275	 0.161854118322999 
2276	 0.160359205633614 
2277	 0.158877405617335 
2278	 0.15741280432024 
2279	 0.155934708745867 
2280	 0.154486448296494 
2281	 0.153103375583846 
2282	 0.151671126962172 
2283	 0.150254819689457 
2284	 0.148828995244196 
2285	 0.147236641423739 
2286	 0.145629892401248 
2287	 0.143913784573645 
2288	 0.142143478428983 
2289	 0.140481196342284 
2290	 0.138718510708838 
2291	 0.136990310451642 
2292	 0.13529594631677 
2293	 0.133458572720723 
2294	 0.131646010790306 
2295	 0.129838282809037 
2296	 0.128033759118115 
2297	 0.126458312590093 
2298	 0.125018775143327 
2299	 0.123717157911488 
2300	 0.12257113611935 
2301	 0.121586312525478 
2302	 0.120692722373609 
2303	 0.120110878380127 
2304	 0.119757560156342 
2305	 0.119627305500637 
2306	 0.119775207652119 
2307	 0.120098616843051 
2308	 0.12062888725648 
2309	 0.121386066278429 
2310	 0.122433399847913 
2311	 0.123576604964353 
2312	 0.125018796036102 
2313	 0.126414424290516 
2314	 0.127957549833529 
2315	 0.12943721300312 
2316	 0.130955996679183 
2317	 0.132400386026502 
2318	 0.13390227251275 
2319	 0.135186042045528 
2320	 0.136400273496615 
2321	 0.137423586791747 
2322	 0.138220069180713 
2323	 0.13895315503289 
2324	 0.139561752514955 
2325	 0.140035965835955 
2326	 0.140401930655805 
2327	 0.140606513256982 
2328	 0.140644105242737 
2329	 0.140550724678776 
2330	 0.14029843418561 
2331	 0.139916139685173 
2332	 0.139417736718763 
2333	 0.138768453463583 
2334	 0.137936149084625 
2335	 0.137010156329615 
2336	 0.13598173236688 
2337	 0.134888448800732 
2338	 0.133845461975073 
2339	 0.132721234970923 
2340	 0.131577418696709 
2341	 0.130468624590919 
2342	 0.12942533833652 
2343	 0.128554889578538 
2344	 0.127781705612061 
2345	 0.127240289417585 
2346	 0.126946561634573 
2347	 0.126841805630988 
2348	 0.126988502303755 
2349	 0.127446362376185 
2350	 0.128128244773239 
2351	 0.129024328347235 
2352	 0.130135307010243 
2353	 0.131341113708888 
2354	 0.132468189603974 
2355	 0.133588442354676 
2356	 0.13466641585029 
2357	 0.135551113991406 
2358	 0.136450349464226 
2359	 0.13724461234581 
2360	 0.137834175770473 
2361	 0.138334700523476 
2362	 0.138674165845479 
2363	 0.138875819088992 
2364	 0.13907106405377 
2365	 0.139261487475615 
2366	 0.139429990190625 
2367	 0.139563937231494 
2368	 0.139601023343072 
2369	 0.13963021634062 
2370	 0.139742101036225 
2371	 0.139856238002634 
2372	 0.139984756757388 
2373	 0.140099405814994 
2374	 0.140129913138249 
2375	 0.140166810133625 
2376	 0.140291727907802 
2377	 0.140466038305315 
2378	 0.140592385618825 
2379	 0.140670122689289 
2380	 0.14072753706939 
2381	 0.140786807391921 
2382	 0.140879139576043 
2383	 0.141029967922513 
2384	 0.141144633854371 
2385	 0.141263924059902 
2386	 0.141343984345079 
2387	 0.141386511538388 
2388	 0.14147593604984 
2389	 0.141579575156027 
2390	 0.141643439576923 
2391	 0.141689983093694 
2392	 0.141770222205457 
2393	 0.141844811148655 
2394	 0.141918427780493 
2395	 0.142061825158507 
2396	 0.142120319146435 
2397	 0.142095020424187 
2398	 0.142070462969071 
2399	 0.141980354051723 
2400	 0.142021866613097 
2401	 0.142116908485725 
2402	 0.142292020262741 
2403	 0.14242441136607 
2404	 0.142446159828464 
2405	 0.142519625917021 
2406	 0.142613011572539 
2407	 0.142694488519885 
2408	 0.142841418853587 
2409	 0.142897570945695 
2410	 0.142921518621276 
2411	 0.143009045698801 
2412	 0.143053366309305 
2413	 0.143078242531745 
2414	 0.143147716500027 
2415	 0.143240642777422 
2416	 0.143264551100018 
2417	 0.143314647319318 
2418	 0.143389433935453 
2419	 0.143307741782099 
2420	 0.14323420316512 
2421	 0.143252965914172 
2422	 0.143272757128502 
2423	 0.143343922704609 
2424	 0.143450468506125 
2425	 0.143533980324975 
2426	 0.143546371339576 
2427	 0.143567743817681 
2428	 0.143581774077349 
2429	 0.143533357821788 
2430	 0.143536237191654 
2431	 0.143545388697395 
2432	 0.143599638168008 
2433	 0.143640316008593 
2434	 0.143623094710221 
2435	 0.143638238817423 
2436	 0.143548554728167 
2437	 0.143498542655145 
2438	 0.14350747974374 
2439	 0.143405121121229 
2440	 0.143238363112421 
2441	 0.143064634748934 
2442	 0.142861637018598 
2443	 0.14262766677014 
2444	 0.14255458632118 
2445	 0.142474602158497 
2446	 0.14228750810011 
2447	 0.142135254578052 
2448	 0.141908302880713 
2449	 0.141663874318008 
2450	 0.141505583687795 
2451	 0.141294552818264 
2452	 0.14111914314042 
2453	 0.141082443792632 
2454	 0.140975848579768 
2455	 0.140832542486165 
2456	 0.140639525579442 
2457	 0.140320115106669 
2458	 0.140090608905017 
2459	 0.140016359498056 
2460	 0.13990360651333 
2461	 0.139825214028696 
2462	 0.13978719247168 
2463	 0.139596253580753 
2464	 0.139595353686672 
2465	 0.139707542874027 
2466	 0.139611411291721 
2467	 0.139774288048593 
2468	 0.140086911915269 
2469	 0.140186223420173 
2470	 0.140356163622735 
2471	 0.140544982004367 
2472	 0.140560723032217 
2473	 0.140627113677721 
2474	 0.14084971553763 
2475	 0.141048730059773 
2476	 0.141208203651508 
2477	 0.141372219798731 
2478	 0.141600728764159 
2479	 0.141947755820665 
2480	 0.142328548994359 
2481	 0.142605103669538 
2482	 0.142898154185268 
2483	 0.143071234214952 
2484	 0.143136261257543 
2485	 0.143415057172181 
2486	 0.143725982330965 
2487	 0.144041869385095 
2488	 0.144505151130715 
2489	 0.145033985469772 
2490	 0.145628056145948 
2491	 0.145900351358701 
2492	 0.146127135993069 
2493	 0.146412334922559 
2494	 0.146273642338474 
2495	 0.146554575460675 
2496	 0.147225101440564 
2497	 0.147417700667673 
2498	 0.147978924740582 
2499	 0.148680860238063 
2500	 0.149164590167541 
