Wavelength	spectrum00011.asd
350	 2.77601928469219E-02 
351	 2.85377535215856E-02 
352	 2.89042118999588E-02 
353	 2.78469115625246E-02 
354	 2.76788521678052E-02 
355	 2.83767691213157E-02 
356	 2.90206054650675E-02 
357	 2.86395762324733E-02 
358	 2.64912364935106E-02 
359	 2.56452643064741E-02 
360	 2.63672574049971E-02 
361	 2.71957577341382E-02 
362	 2.62610599022574E-02 
363	 2.52172066580137E-02 
364	 2.50145030328218E-02 
365	 2.52013535296783E-02 
366	 2.58974661318578E-02 
367	 2.65665203259791E-02 
368	 2.67469750979223E-02 
369	 2.66152605911502E-02 
370	 2.64236033661617E-02 
371	 2.66237053840239E-02 
372	 2.75793650870077E-02 
373	 2.80940531528043E-02 
374	 2.84336915895676E-02 
375	 2.84508218366631E-02 
376	 2.71374465743166E-02 
377	 2.67728116433091E-02 
378	 2.74311513909513E-02 
379	 2.83355222957399E-02 
380	 2.80939293332016E-02 
381	 2.83631058805544E-02 
382	 2.87002229157028E-02 
383	 2.76979501618966E-02 
384	 2.78843719212192E-02 
385	 2.85271695227722E-02 
386	 2.88005730411596E-02 
387	 2.83230491571775E-02 
388	 2.82377184046075E-02 
389	 0.028584137813309 
390	 2.89344421461267E-02 
391	 2.83909460929892E-02 
392	 2.82234838870308E-02 
393	 2.87405826923324E-02 
394	 2.94607039566522E-02 
395	 2.91563015576894E-02 
396	 2.93037180804565E-02 
397	 0.030227571395387 
398	 2.97532743315122E-02 
399	 2.97889320923047E-02 
400	 2.99897285484783E-02 
401	 2.96777306071517E-02 
402	 2.95618081774186E-02 
403	 2.99113088936929E-02 
404	 3.03604160967831E-02 
405	 3.01901205635004E-02 
406	 3.03914669821283E-02 
407	 3.04116450416554E-02 
408	 3.00524110796694E-02 
409	 3.02174521581884E-02 
410	 3.05315107997733E-02 
411	 3.07669063180341E-02 
412	 3.08198059625868E-02 
413	 3.10380594269843E-02 
414	 3.10389103472697E-02 
415	 3.08331258002161E-02 
416	 3.08033375472741E-02 
417	 3.09933298891445E-02 
418	 3.10846519296384E-02 
419	 3.09534051344704E-02 
420	 3.10936073552673E-02 
421	 3.10296840664415E-02 
422	 3.10835248659313E-02 
423	 3.16803060126467E-02 
424	 0.031694458229258 
425	 3.17091796387504E-02 
426	 3.19331863880823E-02 
427	 3.19968984451415E-02 
428	 3.21477829402476E-02 
429	 3.22832550282175E-02 
430	 3.23055779483667E-02 
431	 0.032328476837045 
432	 3.26093883323787E-02 
433	 3.29499496823319E-02 
434	 3.29548445976255E-02 
435	 0.032977938692119 
436	 0.033093576449995 
437	 3.32579664002098E-02 
438	 3.32921645061048E-02 
439	 3.34292357782089E-02 
440	 3.36820109512625E-02 
441	 0.033949959035934 
442	 3.39402742778117E-02 
443	 3.41300357888546E-02 
444	 3.44584679801917E-02 
445	 3.44563544369722E-02 
446	 3.45734745514512E-02 
447	 3.47442551371634E-02 
448	 3.48702947601631E-02 
449	 0.034953104827063 
450	 0.035141006227775 
451	 3.53735327090863E-02 
452	 3.55211821955538E-02 
453	 3.56022359943066E-02 
454	 0.035699623715456 
455	 0.035823305125895 
456	 3.58989414224762E-02 
457	 3.59867982821942E-02 
458	 3.60851737944209E-02 
459	 3.61793993405378E-02 
460	 3.62434969050041E-02 
461	 3.64349465154068E-02 
462	 3.66437750634294E-02 
463	 3.66544531779005E-02 
464	 3.67542998316883E-02 
465	 3.69057671436475E-02 
466	 3.70189844278644E-02 
467	 0.03697547576272 
468	 3.70563971480509E-02 
469	 3.71577291628556E-02 
470	 3.71681266189689E-02 
471	 3.74854280226438E-02 
472	 3.76004042456247E-02 
473	 3.75151014180145E-02 
474	 3.76387367460344E-02 
475	 3.77198452555558E-02 
476	 3.78060302720592E-02 
477	 3.79189842163805E-02 
478	 3.79014471942444E-02 
479	 3.80171533403803E-02 
480	 3.82243733849653E-02 
481	 3.83707174423932E-02 
482	 3.84623451087563E-02 
483	 3.85314729769294E-02 
484	 3.86312500017763E-02 
485	 3.88311927485466E-02 
486	 3.91281917401998E-02 
487	 0.039284265816812 
488	 3.91964898759121E-02 
489	 3.93235100036622E-02 
490	 3.94858477156854E-02 
491	 3.96174557795835E-02 
492	 3.97288831662648E-02 
493	 3.98939110991391E-02 
494	 4.00291107026392E-02 
495	 4.01373454433473E-02 
496	 4.04066277726938E-02 
497	 4.05325154763133E-02 
498	 4.06162750333067E-02 
499	 4.08297327065344E-02 
500	 4.10430156457877E-02 
501	 4.12535945099284E-02 
502	 4.14454699206366E-02 
503	 4.15910081816378E-02 
504	 4.17202673053441E-02 
505	 4.18960979981101E-02 
506	 4.21364378233813E-02 
507	 4.23479671534372E-02 
508	 4.25267750679848E-02 
509	 4.27006312893416E-02 
510	 4.29064039415858E-02 
511	 4.31127926507439E-02 
512	 4.33413068102729E-02 
513	 4.35856648395637E-02 
514	 4.38016790479185E-02 
515	 4.39105151878168E-02 
516	 4.40365278845181E-02 
517	 4.42763797863566E-02 
518	 4.44340344636511E-02 
519	 4.45969259601117E-02 
520	 4.47878509145189E-02 
521	 4.49812400889907E-02 
522	 0.045191786443118 
523	 4.53326733298618E-02 
524	 4.54066669919182E-02 
525	 4.56290656829129E-02 
526	 4.57734845180407E-02 
527	 4.58975213248657E-02 
528	 4.61153325623612E-02 
529	 4.62577283419818E-02 
530	 4.63822296525861E-02 
531	 4.65240874231573E-02 
532	 0.046678420432419 
533	 4.67961822439255E-02 
534	 4.69231725720455E-02 
535	 4.70854189158618E-02 
536	 4.71889909772328E-02 
537	 4.72930046115335E-02 
538	 4.74069224744287E-02 
539	 4.75184824085849E-02 
540	 4.76965378602296E-02 
541	 4.78232139681044E-02 
542	 4.78745716525968E-02 
543	 4.80090904739418E-02 
544	 4.81495622752292E-02 
545	 4.82523585590985E-02 
546	 4.83065315858221E-02 
547	 4.84069233934675E-02 
548	 0.048487378045136 
549	 4.85433479733547E-02 
550	 4.86279010639407E-02 
551	 4.86897687325887E-02 
552	 4.87736637542118E-02 
553	 4.88918701478959E-02 
554	 4.89261264117994E-02 
555	 4.89673807886541E-02 
556	 4.90357621383318E-02 
557	 4.91157318554051E-02 
558	 4.91932275023428E-02 
559	 4.92827973411102E-02 
560	 0.04936770527972 
561	 4.93836589500369E-02 
562	 4.94287368276241E-02 
563	 4.94820797503276E-02 
564	 4.95082333421042E-02 
565	 4.95512942158041E-02 
566	 4.95867138339278E-02 
567	 4.96045532559637E-02 
568	 4.96073900497268E-02 
569	 4.95972290397873E-02 
570	 4.95842378278096E-02 
571	 4.95841314614822E-02 
572	 4.96244858165562E-02 
573	 4.96761218004529E-02 
574	 4.97185459901355E-02 
575	 4.97469037565632E-02 
576	 4.98338844063948E-02 
577	 4.98673959819226E-02 
578	 4.98463717335843E-02 
579	 4.99045738553936E-02 
580	 4.99142407726306E-02 
581	 4.98910341140485E-02 
582	 4.98759256999362E-02 
583	 4.98812175649058E-02 
584	 4.98977909839878E-02 
585	 4.99063850324019E-02 
586	 0.04989047247523 
587	 4.99141515500115E-02 
588	 4.99501026329126E-02 
589	 4.99775671468778E-02 
590	 5.00071819747959E-02 
591	 4.99967634732634E-02 
592	 4.99794719383132E-02 
593	 0.04998927472385 
594	 4.99489533931107E-02 
595	 4.99257742737211E-02 
596	 4.99222392700586E-02 
597	 4.98846060358284E-02 
598	 4.98878785738467E-02 
599	 4.98986622816575E-02 
600	 4.98901258176611E-02 
601	 4.99019663286299E-02 
602	 4.98942316651702E-02 
603	 4.98706802655764E-02 
604	 4.98513636560429E-02 
605	 4.98226123547461E-02 
606	 4.98025250249732E-02 
607	 4.98004047526589E-02 
608	 4.98117674349666E-02 
609	 4.98108304995026E-02 
610	 4.97979406716526E-02 
611	 4.97866772876882E-02 
612	 4.98128990835404E-02 
613	 4.98066112494065E-02 
614	 4.97734553945879E-02 
615	 4.97634682662577E-02 
616	 4.97235550800617E-02 
617	 4.97059037884985E-02 
618	 4.97258104469036E-02 
619	 4.97101918627612E-02 
620	 4.96918461151314E-02 
621	 4.96785382232144E-02 
622	 4.96663489847547E-02 
623	 4.96281178886368E-02 
624	 4.96062929328285E-02 
625	 4.96110142479409E-02 
626	 4.96182689460237E-02 
627	 0.049604657803027 
628	 4.95752000432376E-02 
629	 4.95436768862163E-02 
630	 4.95271577403249E-02 
631	 4.95295405340851E-02 
632	 4.95375378155218E-02 
633	 0.049530236879966 
634	 4.95014855635873E-02 
635	 4.94631365980339E-02 
636	 4.94350200692142E-02 
637	 4.94436136645021E-02 
638	 4.94189538047162E-02 
639	 4.93769123826016E-02 
640	 4.93482306269591E-02 
641	 4.93356393427378E-02 
642	 4.93243552017062E-02 
643	 0.049315016400367 
644	 4.93148573515055E-02 
645	 4.92957636247395E-02 
646	 4.92708858902049E-02 
647	 4.92541759479966E-02 
648	 0.04925259491882 
649	 4.92519243117035E-02 
650	 4.92288770785661E-02 
651	 4.91762853555287E-02 
652	 4.91616385431839E-02 
653	 0.049148527158753 
654	 4.91246500876424E-02 
655	 4.91007626489519E-02 
656	 4.90865729085013E-02 
657	 4.90822927124377E-02 
658	 4.90795947944607E-02 
659	 4.90559601443274E-02 
660	 4.90276159390994E-02 
661	 4.90035763597928E-02 
662	 4.89899274416784E-02 
663	 4.89929037684247E-02 
664	 4.89772153528085E-02 
665	 4.89480434784877E-02 
666	 4.89507901532449E-02 
667	 4.89367665678387E-02 
668	 4.89219029020518E-02 
669	 4.89184387227912E-02 
670	 4.88947744156159E-02 
671	 4.88719519785005E-02 
672	 4.88559255979315E-02 
673	 4.88479002827332E-02 
674	 4.88677515820149E-02 
675	 4.88786391231318E-02 
676	 4.88620054493586E-02 
677	 4.88274642785923E-02 
678	 4.87902919037156E-02 
679	 0.048775525036781 
680	 0.048791243338545 
681	 4.87924834901922E-02 
682	 4.88049581694284E-02 
683	 4.88146171341187E-02 
684	 4.87919945997059E-02 
685	 4.87641732760575E-02 
686	 4.87665268602275E-02 
687	 4.87992081913591E-02 
688	 4.88143377969207E-02 
689	 4.87922006664139E-02 
690	 4.87646507899623E-02 
691	 4.87705231074152E-02 
692	 4.88254809330452E-02 
693	 4.88234377895296E-02 
694	 0.048800504780805 
695	 4.88632991207516E-02 
696	 0.048854397796307 
697	 4.88428570753231E-02 
698	 4.88676423507744E-02 
699	 4.88769658469932E-02 
700	 4.89103988298973E-02 
701	 4.89354590938902E-02 
702	 4.89266795564334E-02 
703	 4.89613236692799E-02 
704	 4.90088594614318E-02 
705	 4.90402797892593E-02 
706	 4.90376591287013E-02 
707	 4.90652108008473E-02 
708	 4.91105205123732E-02 
709	 4.91547646182781E-02 
710	 4.91868773117437E-02 
711	 4.92219291924336E-02 
712	 4.92624895923584E-02 
713	 4.93080670042575E-02 
714	 4.93629863287927E-02 
715	 4.94195555909455E-02 
716	 4.94632461539925E-02 
717	 4.94815942567103E-02 
718	 4.95286430672209E-02 
719	 4.96101173774542E-02 
720	 4.97019121554662E-02 
721	 4.97416971453067E-02 
722	 4.98019543390016E-02 
723	 0.049876374592811 
724	 4.99425359003939E-02 
725	 0.050016727026383 
726	 0.0500809726498 
727	 5.01485430323741E-02 
728	 5.02491166770827E-02 
729	 5.03408162739325E-02 
730	 5.04073255454199E-02 
731	 5.04635474869535E-02 
732	 0.050568274600019 
733	 0.050678073791293 
734	 5.07795681960165E-02 
735	 5.08709959126524E-02 
736	 5.09566760174676E-02 
737	 5.10596843745668E-02 
738	 5.11729071385103E-02 
739	 5.12726032665154E-02 
740	 5.13870291611178E-02 
741	 5.14996973390122E-02 
742	 0.051608869456658 
743	 0.051742813833478 
744	 5.18615041561175E-02 
745	 5.19835499282556E-02 
746	 5.21284037692418E-02 
747	 5.22649057936989E-02 
748	 5.23855320143526E-02 
749	 5.25065698828763E-02 
750	 5.26537401143002E-02 
751	 5.28074097146886E-02 
752	 5.29577296554211E-02 
753	 5.31029882614401E-02 
754	 5.32505972623081E-02 
755	 5.34088228145556E-02 
756	 5.35675735659469E-02 
757	 0.053717003286123 
758	 5.38585402765477E-02 
759	 5.40149089582512E-02 
760	 0.05417791169862 
761	 5.43310672471096E-02 
762	 5.45110726350428E-02 
763	 5.46882438821093E-02 
764	 5.48548243554005E-02 
765	 5.50311703224117E-02 
766	 5.51979622853083E-02 
767	 5.53646923553403E-02 
768	 5.55453335998785E-02 
769	 5.57557809159976E-02 
770	 5.59370667249725E-02 
771	 5.61027923048788E-02 
772	 5.62871043223118E-02 
773	 5.64754986510679E-02 
774	 5.66622335803533E-02 
775	 0.056847316991446 
776	 5.70348452551195E-02 
777	 5.72153958301528E-02 
778	 5.74063447335393E-02 
779	 5.76074432584163E-02 
780	 5.77823217193616E-02 
781	 5.79603593672173E-02 
782	 5.81416079480874E-02 
783	 5.83228377283336E-02 
784	 5.85200278672486E-02 
785	 5.87141150905351E-02 
786	 5.88965516928609E-02 
787	 5.90673820646867E-02 
788	 0.059235302429075 
789	 5.94044767523502E-02 
790	 5.95773963540443E-02 
791	 5.97547538911082E-02 
792	 5.99170675188504E-02 
793	 6.00754575363551E-02 
794	 6.02386256136468E-02 
795	 6.03921221516124E-02 
796	 6.05458434488372E-02 
797	 6.07064083515636E-02 
798	 6.08723356688179E-02 
799	 6.10115397806372E-02 
800	 0.061149273763332 
801	 6.12862995457584E-02 
802	 6.14052971644605E-02 
803	 6.15267284761143E-02 
804	 6.16504517246383E-02 
805	 0.061773962018047 
806	 6.18957105085166E-02 
807	 6.20090730261869E-02 
808	 6.21217617975818E-02 
809	 6.22375049029256E-02 
810	 6.23370313060804E-02 
811	 6.24318939410769E-02 
812	 6.25241384271107E-02 
813	 6.26128768946621E-02 
814	 6.27052289968643E-02 
815	 6.27935273850519E-02 
816	 0.062870949282179 
817	 0.062934580134637 
818	 6.30067688091397E-02 
819	 6.30799824769991E-02 
820	 6.31419527694987E-02 
821	 6.31809917855146E-02 
822	 6.32255758986818E-02 
823	 6.32849229158521E-02 
824	 6.33542094792857E-02 
825	 6.34066648957919E-02 
826	 6.34527073574872E-02 
827	 6.34870257108044E-02 
828	 6.35083719265449E-02 
829	 6.35802585369347E-02 
830	 6.36189345557742E-02 
831	 6.36212953313231E-02 
832	 6.36558354095976E-02 
833	 6.36695691006688E-02 
834	 6.36837109402006E-02 
835	 6.37050667523876E-02 
836	 6.37030561015436E-02 
837	 6.37391382080764E-02 
838	 6.37618118760436E-02 
839	 6.37347462612237E-02 
840	 6.37443847970392E-02 
841	 6.37542231840494E-02 
842	 6.37540288806231E-02 
843	 6.37468892410302E-02 
844	 6.37520448502485E-02 
845	 6.37396076550141E-02 
846	 6.37177454757792E-02 
847	 6.37190137049808E-02 
848	 6.37181365889226E-02 
849	 6.36971157201311E-02 
850	 6.36638649863831E-02 
851	 0.063655365130188 
852	 6.36577901810692E-02 
853	 6.36620058652224E-02 
854	 6.36570173467654E-02 
855	 6.36255962558211E-02 
856	 6.36138331508127E-02 
857	 6.36043581289062E-02 
858	 6.35748419358993E-02 
859	 6.35648108142413E-02 
860	 6.35436984035241E-02 
861	 6.35247540303111E-02 
862	 6.35339494088086E-02 
863	 6.35293352830657E-02 
864	 6.35203812328273E-02 
865	 6.35039625433998E-02 
866	 6.34670983827302E-02 
867	 6.34349596082925E-02 
868	 6.34241636015367E-02 
869	 6.34281285357075E-02 
870	 6.34131755545205E-02 
871	 6.34178903054602E-02 
872	 6.34147146780541E-02 
873	 6.33923988988667E-02 
874	 6.34062357458969E-02 
875	 6.34264570825167E-02 
876	 6.34416195811815E-02 
877	 6.34485919926413E-02 
878	 6.34520831451397E-02 
879	 6.34679018347647E-02 
880	 6.34803535193257E-02 
881	 6.34680601254113E-02 
882	 6.34638793872167E-02 
883	 6.34969225248004E-02 
884	 6.35397307030559E-02 
885	 6.35330115814739E-02 
886	 6.35273413228025E-02 
887	 6.35414266432304E-02 
888	 6.35770213396011E-02 
889	 6.36196884177357E-02 
890	 6.36566449771697E-02 
891	 6.36680911838042E-02 
892	 6.36675746841569E-02 
893	 6.37219956864494E-02 
894	 6.37901012086882E-02 
895	 6.38309727273288E-02 
896	 6.38376186152583E-02 
897	 6.38870003810866E-02 
898	 6.39433489143728E-02 
899	 6.39870054279542E-02 
900	 6.40143312998234E-02 
901	 6.40618481610418E-02 
902	 6.41056557831906E-02 
903	 6.41541324216791E-02 
904	 6.42239568418501E-02 
905	 0.06428455568145 
906	 6.43429910792624E-02 
907	 6.44082190821815E-02 
908	 6.44813654133222E-02 
909	 6.45009257999485E-02 
910	 6.45658558523062E-02 
911	 6.46772218503636E-02 
912	 6.47336514030399E-02 
913	 6.48238895347726E-02 
914	 6.49153298463274E-02 
915	 6.49958588282869E-02 
916	 6.51022566994214E-02 
917	 6.51686495293967E-02 
918	 6.52436415275135E-02 
919	 6.53618662908752E-02 
920	 6.54891143355666E-02 
921	 6.55676053993296E-02 
922	 6.56320759702211E-02 
923	 6.57198677692614E-02 
924	 6.58033868068807E-02 
925	 6.59121417567658E-02 
926	 6.60340617163096E-02 
927	 6.61488388773888E-02 
928	 6.62584683696651E-02 
929	 6.63707659302536E-02 
930	 6.64594768505526E-02 
931	 6.65122557194461E-02 
932	 6.66285841889008E-02 
933	 6.67954496028037E-02 
934	 6.69596195641437E-02 
935	 6.70617567140844E-02 
936	 6.71140045176522E-02 
937	 6.72533237210344E-02 
938	 6.74434832552009E-02 
939	 6.75502634179126E-02 
940	 6.76876740607224E-02 
941	 6.78302755858443E-02 
942	 6.79521503511992E-02 
943	 6.80483797069124E-02 
944	 6.82080564041225E-02 
945	 6.83274320796119E-02 
946	 6.84087016798654E-02 
947	 6.85725181946458E-02 
948	 6.87202105512588E-02 
949	 6.88324409815876E-02 
950	 6.89315215557571E-02 
951	 6.90690863250267E-02 
952	 0.069162584157712 
953	 6.92835617554365E-02 
954	 6.94508170433461E-02 
955	 6.95706778437739E-02 
956	 6.96855475687053E-02 
957	 6.98214622256853E-02 
958	 6.99752130509679E-02 
959	 7.01006861953109E-02 
960	 7.01853611285238E-02 
961	 7.03131992400278E-02 
962	 7.05133668864419E-02 
963	 7.06669754799144E-02 
964	 0.070737029701012 
965	 0.070790073668729 
966	 0.070906952194783 
967	 7.11276680220808E-02 
968	 7.12708365409781E-02 
969	 7.13408115146724E-02 
970	 7.14117950671938E-02 
971	 7.15752850169411E-02 
972	 7.17084014916638E-02 
973	 7.18159254307799E-02 
974	 7.19346046439585E-02 
975	 7.20743267636489E-02 
976	 7.21527607669822E-02 
977	 7.22570480449776E-02 
978	 7.24457911549289E-02 
979	 7.25207233751412E-02 
980	 7.26044231000781E-02 
981	 0.072683266057421 
982	 7.27403999639074E-02 
983	 0.072896946864609 
984	 7.30171701231407E-02 
985	 7.31399044637042E-02 
986	 7.33181129343195E-02 
987	 7.34433552286825E-02 
988	 7.34942612300764E-02 
989	 7.35990782441436E-02 
990	 7.38257881409323E-02 
991	 7.38637158069904E-02 
992	 7.38570363591412E-02 
993	 7.39015463114111E-02 
994	 0.074035344549803 
995	 7.41794604338759E-02 
996	 7.42455239249981E-02 
997	 7.43002225907448E-02 
998	 7.44279283681887E-02 
999	 7.45589826902815E-02 
1000	 7.47064456310002E-02 
1001	 7.76309970300052E-02 
1002	 7.77385334681932E-02 
1003	 7.78365154432404E-02 
1004	 7.79361853851195E-02 
1005	 7.80135520394246E-02 
1006	 7.80994675424255E-02 
1007	 7.81994777287058E-02 
1008	 0.078286851062902 
1009	 7.83568238895056E-02 
1010	 7.84339908638692E-02 
1011	 0.078517354787535 
1012	 7.86064535410104E-02 
1013	 7.86903335739613E-02 
1014	 7.87743564867555E-02 
1015	 7.88697301401229E-02 
1016	 7.89571521439974E-02 
1017	 7.90229331291838E-02 
1018	 7.90966949633486E-02 
1019	 7.91763597634123E-02 
1020	 7.92666172143169E-02 
1021	 7.93459476828269E-02 
1022	 0.07944153619197 
1023	 7.95118712258876E-02 
1024	 7.95485634513377E-02 
1025	 7.96139582840407E-02 
1026	 7.96857848251685E-02 
1027	 7.97569078056641E-02 
1028	 7.98388501885511E-02 
1029	 7.99184206947067E-02 
1030	 8.00010672888891E-02 
1031	 8.00890239967881E-02 
1032	 8.01726268691648E-02 
1033	 0.080237610566655 
1034	 8.02888007218907E-02 
1035	 8.03408332177018E-02 
1036	 8.03869746709302E-02 
1037	 8.04256635199101E-02 
1038	 8.04758179064586E-02 
1039	 8.05099419663003E-02 
1040	 0.080580402461825 
1041	 8.06916334055692E-02 
1042	 8.07719168430273E-02 
1043	 8.08652015453213E-02 
1044	 8.09289744470289E-02 
1045	 8.09793417919897E-02 
1046	 8.10355883312042E-02 
1047	 0.081103767230121 
1048	 8.12032283996473E-02 
1049	 8.12865126284597E-02 
1050	 8.13511346700479E-02 
1051	 8.14427115001301E-02 
1052	 8.15271129198133E-02 
1053	 8.16030789071243E-02 
1054	 8.16862948881476E-02 
1055	 8.17726291691371E-02 
1056	 8.18326422308891E-02 
1057	 8.19126592636184E-02 
1058	 8.20134335169329E-02 
1059	 8.21013428200087E-02 
1060	 8.21945747086982E-02 
1061	 8.22905902899298E-02 
1062	 8.23749705469493E-02 
1063	 8.24730595208058E-02 
1064	 8.25587777054478E-02 
1065	 8.26623739346427E-02 
1066	 8.27606401654115E-02 
1067	 8.28399741656095E-02 
1068	 0.082928925055813 
1069	 8.30168722014972E-02 
1070	 8.31176930716729E-02 
1071	 8.32313103208167E-02 
1072	 8.33497986596654E-02 
1073	 8.34636422697642E-02 
1074	 8.35722890497253E-02 
1075	 8.36750054230027E-02 
1076	 8.37764040935679E-02 
1077	 0.083878425995866 
1078	 8.39808290571329E-02 
1079	 8.40639008788274E-02 
1080	 8.41618978049618E-02 
1081	 8.42731747869241E-02 
1082	 0.084374260120506 
1083	 8.44976793474102E-02 
1084	 8.46285680090223E-02 
1085	 8.47425762621584E-02 
1086	 8.48543390358228E-02 
1087	 8.49669955971147E-02 
1088	 8.50783217631689E-02 
1089	 8.51755396289986E-02 
1090	 8.52702239062646E-02 
1091	 8.53692607034375E-02 
1092	 8.54808022537054E-02 
1093	 8.55945252639994E-02 
1094	 8.57087913154656E-02 
1095	 8.58441525570767E-02 
1096	 8.59659497998778E-02 
1097	 8.60754902928922E-02 
1098	 8.62032306328184E-02 
1099	 0.086324678602135 
1100	 8.64292159612956E-02 
1101	 8.65460080232275E-02 
1102	 8.66804024744269E-02 
1103	 8.68093012717739E-02 
1104	 8.69333857138773E-02 
1105	 8.70779089161505E-02 
1106	 8.72247035487302E-02 
1107	 8.73352475922611E-02 
1108	 8.74472266486026E-02 
1109	 8.75668361594729E-02 
1110	 8.76833088189998E-02 
1111	 0.087801194207983 
1112	 8.79321515153137E-02 
1113	 8.80798833715579E-02 
1114	 8.82381961107437E-02 
1115	 8.84078541477518E-02 
1116	 8.85722026284869E-02 
1117	 0.088717159686016 
1118	 8.88616198890537E-02 
1119	 8.89889966443514E-02 
1120	 8.91250416818378E-02 
1121	 8.92576545017761E-02 
1122	 0.089413337401486 
1123	 8.95608202647807E-02 
1124	 0.089698433857219 
1125	 8.98596240528138E-02 
1126	 9.00132919821583E-02 
1127	 9.01702111199917E-02 
1128	 9.03431628238232E-02 
1129	 9.05106701377626E-02 
1130	 9.06796015666515E-02 
1131	 9.08409771178844E-02 
1132	 9.09898268474065E-02 
1133	 9.11409394106775E-02 
1134	 9.12809301450873E-02 
1135	 9.14331604221262E-02 
1136	 9.15950394833722E-02 
1137	 9.17559553043511E-02 
1138	 9.19182393056196E-02 
1139	 9.20854250092467E-02 
1140	 9.22595310107122E-02 
1141	 9.24201275187041E-02 
1142	 9.25814023753922E-02 
1143	 0.092741291299821 
1144	 9.28955652730483E-02 
1145	 9.30601574970186E-02 
1146	 9.32305922121426E-02 
1147	 9.34070508261515E-02 
1148	 9.35755621494414E-02 
1149	 9.37356464626092E-02 
1150	 9.39060584700028E-02 
1151	 0.094075718879823 
1152	 9.42479725883931E-02 
1153	 9.44287094486265E-02 
1154	 9.46053256556773E-02 
1155	 9.47773202283852E-02 
1156	 0.094958297883338 
1157	 9.51454557798629E-02 
1158	 9.53272141085949E-02 
1159	 9.55141868431634E-02 
1160	 9.56928279800826E-02 
1161	 9.58604216336194E-02 
1162	 9.60373076682895E-02 
1163	 9.62040466119286E-02 
1164	 9.63867921057472E-02 
1165	 9.65973386737425E-02 
1166	 9.67792793683024E-02 
1167	 0.096963490202262 
1168	 9.71565884993536E-02 
1169	 9.73421952640206E-02 
1170	 9.75107986462596E-02 
1171	 9.77073667886324E-02 
1172	 9.79114808968884E-02 
1173	 9.81196540343432E-02 
1174	 9.83441633913841E-02 
1175	 9.85585647174154E-02 
1176	 9.87804284543783E-02 
1177	 9.89961698806104E-02 
1178	 9.92024200030752E-02 
1179	 9.94119142160435E-02 
1180	 9.96303493129107E-02 
1181	 9.98494919671448E-02 
1182	 0.100076014264311 
1183	 0.100314830875863 
1184	 0.100551490600246 
1185	 0.100779560395724 
1186	 0.101020579368412 
1187	 0.101268465407715 
1188	 0.101517752244581 
1189	 0.101778868285516 
1190	 0.10203181778591 
1191	 0.102275722754398 
1192	 0.102528977999264 
1193	 0.102778832844287 
1194	 0.103043273167978 
1195	 0.103323470927291 
1196	 0.103604924206403 
1197	 0.103901460001102 
1198	 0.104184621436964 
1199	 0.104456649718985 
1200	 0.104733946146297 
1201	 0.105025034275193 
1202	 0.105311632614852 
1203	 0.105628692129362 
1204	 0.105963678564772 
1205	 0.106290146560621 
1206	 0.106616957099785 
1207	 0.106962016749187 
1208	 0.107308822392243 
1209	 0.107665962001502 
1210	 0.108040658612919 
1211	 0.108415923799754 
1212	 0.10879336656641 
1213	 0.109189187051691 
1214	 0.109597335951533 
1215	 0.110012945917372 
1216	 0.110438416339372 
1217	 0.110870556928211 
1218	 0.111317354024767 
1219	 0.111761513781078 
1220	 0.112210229209549 
1221	 0.112681448597581 
1222	 0.113125966143437 
1223	 0.113581804349523 
1224	 0.114041864325865 
1225	 0.114509217753161 
1226	 0.114955919271477 
1227	 0.115402476673012 
1228	 0.1158430001365 
1229	 0.116256742452571 
1230	 0.116697147312791 
1231	 0.117161574666292 
1232	 0.117607505296518 
1233	 0.118049475409431 
1234	 0.118488917661383 
1235	 0.11891617988929 
1236	 0.119348308510258 
1237	 0.119781104159534 
1238	 0.120222637234922 
1239	 0.120670723696921 
1240	 0.121116516789719 
1241	 0.121572624597199 
1242	 0.121987409432861 
1243	 0.122414789875885 
1244	 0.122820312591743 
1245	 0.123259749784129 
1246	 0.12372154799928 
1247	 0.124166029321193 
1248	 0.124620264523033 
1249	 0.125062032814841 
1250	 0.125487992528848 
1251	 0.12591693051575 
1252	 0.126343375659964 
1253	 0.126777574456696 
1254	 0.127219133526896 
1255	 0.127650199308394 
1256	 0.128081584326675 
1257	 0.128513919524902 
1258	 0.128938465912996 
1259	 0.129360492908822 
1260	 0.129777717803713 
1261	 0.130209232108662 
1262	 0.130639527018237 
1263	 0.131082274113932 
1264	 0.131518638340932 
1265	 0.13196368956295 
1266	 0.13241572615581 
1267	 0.132870243587544 
1268	 0.133311200815207 
1269	 0.133754664647387 
1270	 0.134203494532458 
1271	 0.134640390778129 
1272	 0.135081488645205 
1273	 0.135537373193416 
1274	 0.135987960469184 
1275	 0.136414218557916 
1276	 0.136865465173102 
1277	 0.137345029030949 
1278	 0.137805029754671 
1279	 0.138249888309189 
1280	 0.138717354607603 
1281	 0.139185006553162 
1282	 0.139659927276908 
1283	 0.14017393544995 
1284	 0.140655894236388 
1285	 0.141124011423252 
1286	 0.141570578279921 
1287	 0.14204033453146 
1288	 0.142496542211977 
1289	 0.142976361578282 
1290	 0.14348274543676 
1291	 0.143969209532136 
1292	 0.144449732060576 
1293	 0.144934797890289 
1294	 0.145417271375541 
1295	 0.145902156976875 
1296	 0.146390366860115 
1297	 0.146877240934358 
1298	 0.147355291855383 
1299	 0.147848584626191 
1300	 0.148362752269325 
1301	 0.148852461110508 
1302	 0.149338672799571 
1303	 0.149821260645883 
1304	 0.15028272898626 
1305	 0.150750461464365 
1306	 0.151221734096369 
1307	 0.151693791320746 
1308	 0.152146595893543 
1309	 0.15263422931372 
1310	 0.153101766638724 
1311	 0.153570469985486 
1312	 0.154039257057606 
1313	 0.154503662346701 
1314	 0.154970446390308 
1315	 0.155442108011885 
1316	 0.1559076478468 
1317	 0.156371237098734 
1318	 0.156830491081535 
1319	 0.157285403252293 
1320	 0.157741327492602 
1321	 0.158203055570943 
1322	 0.158643813434024 
1323	 0.159073412128329 
1324	 0.159503303344054 
1325	 0.159919805821607 
1326	 0.160335760796713 
1327	 0.160744342401705 
1328	 0.161165993989486 
1329	 0.161594928228185 
1330	 0.16201191261887 
1331	 0.162443461544261 
1332	 0.162856006841958 
1333	 0.163229839352554 
1334	 0.163633549659074 
1335	 0.164024421788812 
1336	 0.164413857474784 
1337	 0.164795830895376 
1338	 0.165173735178839 
1339	 0.165552291715775 
1340	 0.165926585301369 
1341	 0.166297686212409 
1342	 0.166675611424973 
1343	 0.167036672280436 
1344	 0.167384296844504 
1345	 0.167733087843179 
1346	 0.168077133089333 
1347	 0.168414881362545 
1348	 0.168746401329824 
1349	 0.16907986262706 
1350	 0.169413102547878 
1351	 0.169738643961818 
1352	 0.170062253060464 
1353	 0.170383616328185 
1354	 0.170704384237025 
1355	 0.171010795430348 
1356	 0.17129900969956 
1357	 0.171602993419406 
1358	 0.171908120396974 
1359	 0.172209243734526 
1360	 0.172520722390102 
1361	 0.172834188394618 
1362	 0.173132170680504 
1363	 0.173396896184619 
1364	 0.173675668682407 
1365	 0.173951909249072 
1366	 0.174219737313268 
1367	 0.174488613855843 
1368	 0.174738652531393 
1369	 0.174976764057192 
1370	 0.175205826013464 
1371	 0.175430638907226 
1372	 0.175627918000844 
1373	 0.175809287742368 
1374	 0.175978734158772 
1375	 0.176134645259048 
1376	 0.176265428477243 
1377	 0.176398262391764 
1378	 0.176478529081637 
1379	 0.176533794390366 
1380	 0.176536909678791 
1381	 0.176531516647834 
1382	 0.176422347602691 
1383	 0.176265774674299 
1384	 0.176006904524294 
1385	 0.17566353909627 
1386	 0.175227511369175 
1387	 0.174654808785788 
1388	 0.174083091072427 
1389	 0.173383041965449 
1390	 0.172748377054407 
1391	 0.172111300294633 
1392	 0.171489040456167 
1393	 0.17097694427744 
1394	 0.170523936109734 
1395	 0.170166718858556 
1396	 0.169925124297365 
1397	 0.169690248096575 
1398	 0.169537683697606 
1399	 0.169349256386715 
1400	 0.169211738645522 
1401	 0.168998157853103 
1402	 0.168780077475461 
1403	 0.168488197229171 
1404	 0.168145607352866 
1405	 0.16776842229232 
1406	 0.167321036031558 
1407	 0.166886576864858 
1408	 0.166401637984248 
1409	 0.165961072316779 
1410	 0.165500389780304 
1411	 0.165107998142306 
1412	 0.164734617436121 
1413	 0.164431146165119 
1414	 0.16417538867554 
1415	 0.163981902136112 
1416	 0.163854688860856 
1417	 0.163767474538057 
1418	 0.163734161573926 
1419	 0.163746468048337 
1420	 0.163814032928725 
1421	 0.163909941788623 
1422	 0.164056731297912 
1423	 0.164226783519039 
1424	 0.164431636520289 
1425	 0.164659194643747 
1426	 0.164904654425976 
1427	 0.165146301741574 
1428	 0.165373109615137 
1429	 0.165594216660187 
1430	 0.165791095487477 
1431	 0.165985683804913 
1432	 0.166127091003911 
1433	 0.166239064110801 
1434	 0.166319433892114 
1435	 0.166359327717052 
1436	 0.166380033942536 
1437	 0.166360485963975 
1438	 0.166357286459871 
1439	 0.16630811338111 
1440	 0.166329808016693 
1441	 0.166346988195075 
1442	 0.166459742486062 
1443	 0.166586952229357 
1444	 0.166864651118154 
1445	 0.167225216970042 
1446	 0.167709428943363 
1447	 0.168318780346918 
1448	 0.169024600685963 
1449	 0.169876387591235 
1450	 0.17075558372089 
1451	 0.171758800375912 
1452	 0.172750927296354 
1453	 0.173815536990244 
1454	 0.174822717067852 
1455	 0.175847208651875 
1456	 0.176827711007129 
1457	 0.177774318365525 
1458	 0.178691079786757 
1459	 0.179589895803191 
1460	 0.18044684268269 
1461	 0.181255961413701 
1462	 0.182038384494245 
1463	 0.182767825663502 
1464	 0.183501951549732 
1465	 0.184201979553516 
1466	 0.184923159405466 
1467	 0.185622890798013 
1468	 0.186334082347959 
1469	 0.187056438909393 
1470	 0.187727402809072 
1471	 0.18841074013036 
1472	 0.189085364884054 
1473	 0.189772782942359 
1474	 0.190468295742466 
1475	 0.191131356168069 
1476	 0.191801852982469 
1477	 0.192433622785538 
1478	 0.193026998788258 
1479	 0.193606728379813 
1480	 0.194175292670758 
1481	 0.194715040104636 
1482	 0.195223743008784 
1483	 0.195720959327997 
1484	 0.196187064242406 
1485	 0.196668979337879 
1486	 0.197118435665028 
1487	 0.197616316085677 
1488	 0.198118155246267 
1489	 0.198677173951375 
1490	 0.199266830931464 
1491	 0.19990822843636 
1492	 0.200599702848064 
1493	 0.201327280159691 
1494	 0.202106494792677 
1495	 0.202902306332832 
1496	 0.203747078190249 
1497	 0.204590860521593 
1498	 0.205462806962619 
1499	 0.206329744513346 
1500	 0.207212701671641 
1501	 0.20808215641247 
1502	 0.208962343748697 
1503	 0.209808537979 
1504	 0.210643293121883 
1505	 0.211451000659075 
1506	 0.212236881424036 
1507	 0.212995423389209 
1508	 0.21373368018762 
1509	 0.214439304928161 
1510	 0.215109394227202 
1511	 0.215755363852238 
1512	 0.216362917949141 
1513	 0.21696221831077 
1514	 0.217544303153139 
1515	 0.21810656655578 
1516	 0.218657527588552 
1517	 0.219183140146944 
1518	 0.219671332651208 
1519	 0.220156227054058 
1520	 0.220623483965382 
1521	 0.221080494846018 
1522	 0.221530430832208 
1523	 0.222002777619636 
1524	 0.222439509686642 
1525	 0.222865161225989 
1526	 0.22328299753616 
1527	 0.223681486535676 
1528	 0.224078976713776 
1529	 0.224469177855336 
1530	 0.224866013684018 
1531	 0.22525501839435 
1532	 0.225651313536612 
1533	 0.226055888963377 
1534	 0.226459633823863 
1535	 0.226846358679636 
1536	 0.22727933004882 
1537	 0.227729494851319 
1538	 0.228202002286723 
1539	 0.228706324018544 
1540	 0.229219776763112 
1541	 0.229738109179109 
1542	 0.230299783588669 
1543	 0.230897017076795 
1544	 0.231497510877575 
1545	 0.232124353526434 
1546	 0.232762813354893 
1547	 0.233410844756738 
1548	 0.23407430707521 
1549	 0.234768430694187 
1550	 0.235451914444396 
1551	 0.236144022517903 
1552	 0.236824802175275 
1553	 0.237499916482586 
1554	 0.23818319663995 
1555	 0.238873361883092 
1556	 0.239543798233702 
1557	 0.240212924366981 
1558	 0.240875523298964 
1559	 0.241517891922671 
1560	 0.242164961039219 
1561	 0.242818197979432 
1562	 0.243462603691949 
1563	 0.244096413507548 
1564	 0.244731099657227 
1565	 0.245359365602958 
1566	 0.245997891293505 
1567	 0.246651614102745 
1568	 0.247277589323718 
1569	 0.247892772114961 
1570	 0.248513432632324 
1571	 0.249116663377055 
1572	 0.249723242599594 
1573	 0.25034677767092 
1574	 0.250951527464695 
1575	 0.251537192656067 
1576	 0.252126748516361 
1577	 0.252710569732321 
1578	 0.253299648757754 
1579	 0.253893173094578 
1580	 0.254475760802806 
1581	 0.255056819369491 
1582	 0.255634677737963 
1583	 0.256210386869805 
1584	 0.256771934006419 
1585	 0.257320095847483 
1586	 0.257876681262753 
1587	 0.258421594358107 
1588	 0.258971824671672 
1589	 0.25953157515356 
1590	 0.26009149640429 
1591	 0.260645175536295 
1592	 0.261209033529554 
1593	 0.261786780240248 
1594	 0.262358517057683 
1595	 0.262945692597002 
1596	 0.26350177997165 
1597	 0.264033195678636 
1598	 0.26457435349924 
1599	 0.265097313891666 
1600	 0.265631039555437 
1601	 0.266177844326809 
1602	 0.266721798462846 
1603	 0.267261665179706 
1604	 0.267801853939089 
1605	 0.268355749941076 
1606	 0.268891248348335 
1607	 0.269426308991754 
1608	 0.269941631432541 
1609	 0.270431058537834 
1610	 0.270923563775699 
1611	 0.271406676519347 
1612	 0.271880906804409 
1613	 0.272349462298126 
1614	 0.272816677851918 
1615	 0.273277592689453 
1616	 0.273730970328512 
1617	 0.274181380419415 
1618	 0.274628319327692 
1619	 0.275072628351585 
1620	 0.275498180120053 
1621	 0.275915304117658 
1622	 0.276322794739862 
1623	 0.276709679173926 
1624	 0.277096717508826 
1625	 0.277468231919701 
1626	 0.277858147414838 
1627	 0.278254497905442 
1628	 0.278643230576002 
1629	 0.279037120389682 
1630	 0.279436975685461 
1631	 0.279839889366271 
1632	 0.280234061054641 
1633	 0.28064171394573 
1634	 0.281031955872362 
1635	 0.281385137095047 
1636	 0.281762355429632 
1637	 0.282153914748855 
1638	 0.282534236867526 
1639	 0.282926056061033 
1640	 0.283307054137749 
1641	 0.283674302520044 
1642	 0.28404091648208 
1643	 0.284423031977448 
1644	 0.284763450092181 
1645	 0.28507894270978 
1646	 0.285384272582062 
1647	 0.285658952625175 
1648	 0.285930259556655 
1649	 0.286206619632263 
1650	 0.286451280972238 
1651	 0.286667178200665 
1652	 0.28687382171947 
1653	 0.287064391308063 
1654	 0.287233981054558 
1655	 0.287396655689616 
1656	 0.287527452144902 
1657	 0.287642847933875 
1658	 0.287713726600749 
1659	 0.28774743523131 
1660	 0.287750281446336 
1661	 0.287716786097388 
1662	 0.287646218535513 
1663	 0.28754558571073 
1664	 0.28740550227717 
1665	 0.287230936379956 
1666	 0.286999780060902 
1667	 0.286732124953085 
1668	 0.286406707885368 
1669	 0.286029953851921 
1670	 0.285590780062585 
1671	 0.285084021153869 
1672	 0.284536113374507 
1673	 0.283942346098557 
1674	 0.283274274695056 
1675	 0.282544258551397 
1676	 0.281780278550771 
1677	 0.280948011333588 
1678	 0.280081967266998 
1679	 0.279174163140331 
1680	 0.278227989465407 
1681	 0.27723713401951 
1682	 0.276188901364716 
1683	 0.275108545818159 
1684	 0.273984438357258 
1685	 0.272798213658174 
1686	 0.271573131865156 
1687	 0.270287359575045 
1688	 0.268986436157996 
1689	 0.267645593871015 
1690	 0.266272713443119 
1691	 0.264902387854866 
1692	 0.26347518673509 
1693	 0.261998802758717 
1694	 0.260476177249617 
1695	 0.258885259948509 
1696	 0.257280952341411 
1697	 0.255628871347758 
1698	 0.253958605202872 
1699	 0.25226350772459 
1700	 0.250609535516737 
1701	 0.248917325779008 
1702	 0.247310129052921 
1703	 0.245722826207373 
1704	 0.244224066510543 
1705	 0.242771071782046 
1706	 0.241398047964951 
1707	 0.240176490710037 
1708	 0.239041644709303 
1709	 0.237974258218585 
1710	 0.236975351416255 
1711	 0.235994899473893 
1712	 0.235079138898459 
1713	 0.234178594700901 
1714	 0.23329079356443 
1715	 0.232489058353534 
1716	 0.231685607072685 
1717	 0.230900444323171 
1718	 0.230168019832266 
1719	 0.229447814347445 
1720	 0.228778645970298 
1721	 0.228183558978213 
1722	 0.227667999770145 
1723	 0.227270295183413 
1724	 0.226955407262553 
1725	 0.226744707615677 
1726	 0.22670414377827 
1727	 0.226819803853367 
1728	 0.227088996581031 
1729	 0.227484359320208 
1730	 0.228003186101075 
1731	 0.228580430990932 
1732	 0.22919686292064 
1733	 0.229840702672347 
1734	 0.230494637519346 
1735	 0.231120801781741 
1736	 0.231687103427993 
1737	 0.232203619838507 
1738	 0.232554200735105 
1739	 0.232819200294748 
1740	 0.232970045170036 
1741	 0.233065946761074 
1742	 0.233052969959249 
1743	 0.23302973247382 
1744	 0.232924862194188 
1745	 0.232845603384479 
1746	 0.232725088544738 
1747	 0.232682865554207 
1748	 0.232630895826997 
1749	 0.232682540443691 
1750	 0.232803241674231 
1751	 0.233012464126433 
1752	 0.233298551705783 
1753	 0.233702178588662 
1754	 0.234190310518308 
1755	 0.23476771474605 
1756	 0.235456855071419 
1757	 0.236191358130527 
1758	 0.237077048968778 
1759	 0.238033265614279 
1760	 0.239112914152871 
1761	 0.240324094788531 
1762	 0.241543432504416 
1763	 0.242857698329222 
1764	 0.244211027456453 
1765	 0.245572497853905 
1766	 0.24703222396289 
1767	 0.248460742952515 
1768	 0.249909908251193 
1769	 0.251372438109825 
1770	 0.25268808498188 
1771	 0.253973524227564 
1772	 0.255177025895816 
1773	 0.256259971960748 
1774	 0.257387278244623 
1775	 0.258454251360502 
1776	 0.259470417237516 
1777	 0.260463559253784 
1778	 0.261345919275809 
1779	 0.262205562836245 
1780	 0.263020803026726 
1781	 0.263801981406494 
1782	 0.264600616960515 
1783	 0.265326168797418 
1784	 0.266035236852547 
1785	 0.266691819891365 
1786	 0.267326312925422 
1787	 0.267947203320865 
1788	 0.268556594135573 
1789	 0.269135117405191 
1790	 0.269726815282962 
1791	 0.270326748479963 
1792	 0.270907968505193 
1793	 0.271465325512645 
1794	 0.27203488059281 
1795	 0.272571566626499 
1796	 0.273093881090314 
1797	 0.273667208601637 
1798	 0.274200119487764 
1799	 0.274737124713066 
1800	 0.275301309740824 
1801	 0.270588784635975 
1802	 0.271090986980932 
1803	 0.271602765885744 
1804	 0.272106574474285 
1805	 0.272606578371212 
1806	 0.273081820558443 
1807	 0.273568258593442 
1808	 0.274015834356375 
1809	 0.274412229979057 
1810	 0.274834646307358 
1811	 0.275230451792645 
1812	 0.275665049963479 
1813	 0.276113918965227 
1814	 0.276598809236924 
1815	 0.277064764960423 
1816	 0.277552183579568 
1817	 0.278028048283192 
1818	 0.278494906416567 
1819	 0.278955770115185 
1820	 0.279419478952485 
1821	 0.279877464394924 
1822	 0.28031702355269 
1823	 0.280780369696112 
1824	 0.281225282232645 
1825	 0.281674145551908 
1826	 0.282103496257685 
1827	 0.282513533435039 
1828	 0.282917397975776 
1829	 0.283314543590903 
1830	 0.283703633206048 
1831	 0.284084985353817 
1832	 0.28446506344188 
1833	 0.28481082418434 
1834	 0.285156519032964 
1835	 0.285484101543752 
1836	 0.285790866915077 
1837	 0.286095173179013 
1838	 0.286387789516559 
1839	 0.286677441971731 
1840	 0.286971168576863 
1841	 0.287239191014554 
1842	 0.287497422921864 
1843	 0.287748189404004 
1844	 0.287979454757205 
1845	 0.288149342467488 
1846	 0.288298565141622 
1847	 0.288444095407265 
1848	 0.288538440646051 
1849	 0.288602999092665 
1850	 0.288621997586035 
1851	 0.288620725464089 
1852	 0.288541465799639 
1853	 0.288393967252678 
1854	 0.288212856445302 
1855	 0.287963227070336 
1856	 0.287665549354367 
1857	 0.287336205011403 
1858	 0.286921727884139 
1859	 0.286448365075972 
1860	 0.285932426528114 
1861	 0.285313497198317 
1862	 0.284602496577727 
1863	 0.283861242278238 
1864	 0.283023174048443 
1865	 0.282107326645906 
1866	 0.281126375488248 
1867	 0.280006315091602 
1868	 0.278836387641137 
1869	 0.277544137929244 
1870	 0.276137122329137 
1871	 0.274636525210613 
1872	 0.273067633366475 
1873	 0.271392658528821 
1874	 0.269650921644722 
1875	 0.267847756586917 
1876	 0.26579859705986 
1877	 0.263705908762458 
1878	 0.261430103311204 
1879	 0.258934305487481 
1880	 0.256483236114737 
1881	 0.253838429874988 
1882	 0.251015536408531 
1883	 0.248090429377433 
1884	 0.245020354451272 
1885	 0.241575850646717 
1886	 0.238063905353064 
1887	 0.234279987932973 
1888	 0.230257829474098 
1889	 0.226410406418592 
1890	 0.222300152829769 
1891	 0.218149230310135 
1892	 0.214004714359959 
1893	 0.209672701683138 
1894	 0.205096475121231 
1895	 0.200658837118522 
1896	 0.196135249266655 
1897	 0.191573062641545 
1898	 0.187404929721939 
1899	 0.183183454053947 
1900	 0.179101239659907 
1901	 0.175264506973341 
1902	 0.171300395064086 
1903	 0.167627212993293 
1904	 0.164133614429673 
1905	 0.160767304391353 
1906	 0.157581610197804 
1907	 0.154850364642828 
1908	 0.152209043926862 
1909	 0.149767132599059 
1910	 0.147590366867077 
1911	 0.145423368471102 
1912	 0.143478076986336 
1913	 0.141665650752722 
1914	 0.139953601810106 
1915	 0.13839998143485 
1916	 0.137048961069473 
1917	 0.1357036329089 
1918	 0.134450233534365 
1919	 0.133266745406541 
1920	 0.132019223497614 
1921	 0.13084992974705 
1922	 0.129693155316897 
1923	 0.128508551779142 
1924	 0.127432598610087 
1925	 0.126313849656639 
1926	 0.125204793119539 
1927	 0.124119713513869 
1928	 0.123022354803496 
1929	 0.121886163579943 
1930	 0.120815598539758 
1931	 0.119772455570206 
1932	 0.118776258112802 
1933	 0.117934477481821 
1934	 0.117155299767232 
1935	 0.116477871112969 
1936	 0.115945423020247 
1937	 0.115515436894152 
1938	 0.115178167683629 
1939	 0.114993141644865 
1940	 0.114933326863163 
1941	 0.115002455030969 
1942	 0.115202943467248 
1943	 0.115525489309608 
1944	 0.115941116362949 
1945	 0.116483771584869 
1946	 0.117217682306745 
1947	 0.118043960314595 
1948	 0.119061574031614 
1949	 0.120290034926113 
1950	 0.121591023744948 
1951	 0.123024358246593 
1952	 0.124590571469123 
1953	 0.126274909403384 
1954	 0.128070948905103 
1955	 0.130072492441518 
1956	 0.132053987076625 
1957	 0.13406655541919 
1958	 0.136088614791283 
1959	 0.137892469859063 
1960	 0.139614265918785 
1961	 0.141194357179212 
1962	 0.142610931136527 
1963	 0.14393531525197 
1964	 0.145154670184173 
1965	 0.146239085455646 
1966	 0.14719628820636 
1967	 0.148070325181243 
1968	 0.148795493743922 
1969	 0.149530515314378 
1970	 0.150236710966345 
1971	 0.150937555269402 
1972	 0.151728343548402 
1973	 0.152514186616382 
1974	 0.153350672345635 
1975	 0.154258096542955 
1976	 0.155171831660567 
1977	 0.156094025846716 
1978	 0.157074269096628 
1979	 0.158089505996843 
1980	 0.1591269635206 
1981	 0.160276288413688 
1982	 0.161410349867458 
1983	 0.162630036106586 
1984	 0.163925304870128 
1985	 0.165178734149137 
1986	 0.166531524910525 
1987	 0.167962201267128 
1988	 0.169385416937032 
1989	 0.171016100049292 
1990	 0.172797207063939 
1991	 0.174649741121706 
1992	 0.176640413603351 
1993	 0.178765388449212 
1994	 0.180812811427933 
1995	 0.183006853833181 
1996	 0.18521456720148 
1997	 0.187413483445999 
1998	 0.189675234910377 
1999	 0.192047015214036 
2000	 0.194273240034261 
2001	 0.196576073320495 
2002	 0.198663642869629 
2003	 0.200615460707897 
2004	 0.202510961363345 
2005	 0.204256872395264 
2006	 0.205968196675461 
2007	 0.207665719547573 
2008	 0.209206480275203 
2009	 0.210656712679196 
2010	 0.212064403304123 
2011	 0.213285413785345 
2012	 0.21446276228464 
2013	 0.215572542667091 
2014	 0.216583800041034 
2015	 0.21756035520087 
2016	 0.218488856205765 
2017	 0.219344173063282 
2018	 0.220159591596387 
2019	 0.220885320346899 
2020	 0.2215082929796 
2021	 0.222104158524851 
2022	 0.222634605183407 
2023	 0.223075901550892 
2024	 0.223517034319468 
2025	 0.223891016234021 
2026	 0.22423661156682 
2027	 0.224547648251047 
2028	 0.224813959350088 
2029	 0.225025579146393 
2030	 0.225221289623937 
2031	 0.225350013993953 
2032	 0.225503381596423 
2033	 0.225648720972374 
2034	 0.225783221420925 
2035	 0.225915654425184 
2036	 0.226046993144499 
2037	 0.226135103466284 
2038	 0.226233388321046 
2039	 0.226354556060154 
2040	 0.226479908924741 
2041	 0.226612478808883 
2042	 0.226769863887891 
2043	 0.226920107232268 
2044	 0.227068715058344 
2045	 0.227221747546274 
2046	 0.227387794364539 
2047	 0.227544499851272 
2048	 0.227689728578374 
2049	 0.227844455150145 
2050	 0.22801458628798 
2051	 0.228160854628961 
2052	 0.228311912519281 
2053	 0.228475348498536 
2054	 0.228602786664435 
2055	 0.228706722580945 
2056	 0.228814084695092 
2057	 0.228896523410051 
2058	 0.228992938911016 
2059	 0.22909136147684 
2060	 0.229195197890673 
2061	 0.229310813295975 
2062	 0.229411037669455 
2063	 0.229509543621766 
2064	 0.229603080981424 
2065	 0.229681158505743 
2066	 0.22976303365025 
2067	 0.229854930156612 
2068	 0.229938988668197 
2069	 0.23001720144031 
2070	 0.230096090823067 
2071	 0.230159153697875 
2072	 0.230215352517508 
2073	 0.23025795120804 
2074	 0.230290807745342 
2075	 0.230311878027961 
2076	 0.230320738083205 
2077	 0.230316180265495 
2078	 0.230305474158886 
2079	 0.230269835796242 
2080	 0.230216077927034 
2081	 0.230144350982064 
2082	 0.230048356952277 
2083	 0.229948436064759 
2084	 0.229810692742679 
2085	 0.229662419126529 
2086	 0.229493321825025 
2087	 0.229292017947315 
2088	 0.229091920493072 
2089	 0.228879010035708 
2090	 0.228660199886604 
2091	 0.228447007882488 
2092	 0.228196536608809 
2093	 0.227921750275652 
2094	 0.227640479863712 
2095	 0.22732297714101 
2096	 0.22701125097732 
2097	 0.226707346859282 
2098	 0.226383025031743 
2099	 0.226048132703455 
2100	 0.22570996101162 
2101	 0.225323765296029 
2102	 0.224896638980605 
2103	 0.224490732503895 
2104	 0.224059879201687 
2105	 0.223630492322323 
2106	 0.223220318069838 
2107	 0.222777624829196 
2108	 0.222322836786288 
2109	 0.221831002813239 
2110	 0.221313275777833 
2111	 0.220786050663053 
2112	 0.220202058544345 
2113	 0.219645670135566 
2114	 0.21909590542663 
2115	 0.218545059571245 
2116	 0.218009399473324 
2117	 0.217468350381145 
2118	 0.216887607901689 
2119	 0.216281338321021 
2120	 0.215697342332928 
2121	 0.215065678053706 
2122	 0.214509032389211 
2123	 0.213997981435019 
2124	 0.213488031757248 
2125	 0.213022166671851 
2126	 0.212529529275374 
2127	 0.212010974046202 
2128	 0.211548269585421 
2129	 0.211092247022922 
2130	 0.21066652635614 
2131	 0.210299595665831 
2132	 0.209930790529693 
2133	 0.209573541900392 
2134	 0.20922305414423 
2135	 0.208882084421615 
2136	 0.208580880837048 
2137	 0.208294979882756 
2138	 0.208030379591887 
2139	 0.207774161604555 
2140	 0.207545321379243 
2141	 0.207313382944125 
2142	 0.207080775613688 
2143	 0.206870861767874 
2144	 0.206673492610397 
2145	 0.206497264682386 
2146	 0.206337244758192 
2147	 0.206194243195785 
2148	 0.20608513531339 
2149	 0.205967118283076 
2150	 0.205853479117682 
2151	 0.205751420400446 
2152	 0.205661439504844 
2153	 0.205563364791509 
2154	 0.205473654527556 
2155	 0.205404183515673 
2156	 0.205317056540307 
2157	 0.205219921529326 
2158	 0.205131470887826 
2159	 0.205056196878925 
2160	 0.2049492068544 
2161	 0.204831943617692 
2162	 0.204712115713429 
2163	 0.204557974882575 
2164	 0.204433976272661 
2165	 0.204329326148612 
2166	 0.204214305002197 
2167	 0.204104249549272 
2168	 0.203990444423106 
2169	 0.203853382670673 
2170	 0.203748721417634 
2171	 0.203662094176228 
2172	 0.203579726923032 
2173	 0.203507783988887 
2174	 0.203459458573104 
2175	 0.20341629386098 
2176	 0.203357788086344 
2177	 0.203318223093299 
2178	 0.203289089753791 
2179	 0.20327362664691 
2180	 0.203271381289089 
2181	 0.203264096855753 
2182	 0.203287392248517 
2183	 0.203260226869755 
2184	 0.203212466789969 
2185	 0.203153677402626 
2186	 0.203079687987648 
2187	 0.202975915824216 
2188	 0.202852063513845 
2189	 0.202709374164078 
2190	 0.2025302469274 
2191	 0.202345262102203 
2192	 0.202170881238691 
2193	 0.201947248916899 
2194	 0.201687528843311 
2195	 0.201408263577061 
2196	 0.2011070462212 
2197	 0.200747766674587 
2198	 0.200396690373513 
2199	 0.200026956038108 
2200	 0.199624975425879 
2201	 0.199197925181801 
2202	 0.198750126479568 
2203	 0.198263587035875 
2204	 0.197786162396732 
2205	 0.197280683427785 
2206	 0.196800338167035 
2207	 0.196329185323264 
2208	 0.195851478945479 
2209	 0.195385773821204 
2210	 0.194906643209261 
2211	 0.19440160146092 
2212	 0.193930564660762 
2213	 0.193441456506827 
2214	 0.193013457941409 
2215	 0.192624364035219 
2216	 0.192261485051594 
2217	 0.191942135994995 
2218	 0.191650080458042 
2219	 0.191404642303769 
2220	 0.191155917236921 
2221	 0.190952827557353 
2222	 0.190725832916125 
2223	 0.190470876884833 
2224	 0.190200745090117 
2225	 0.189896967582882 
2226	 0.189533491824676 
2227	 0.189101467912606 
2228	 0.18864077469686 
2229	 0.188050856914033 
2230	 0.187353775577842 
2231	 0.186608779732829 
2232	 0.185785414279989 
2233	 0.184865433900773 
2234	 0.18391588162849 
2235	 0.182782316585337 
2236	 0.181476710604063 
2237	 0.180139652861666 
2238	 0.178632912528148 
2239	 0.177158787437962 
2240	 0.17566901679696 
2241	 0.174104930285513 
2242	 0.172531460574024 
2243	 0.170845481315453 
2244	 0.169046694407245 
2245	 0.167235503904315 
2246	 0.165274455436658 
2247	 0.163396583678542 
2248	 0.161572532410076 
2249	 0.159681990985601 
2250	 0.157776095289096 
2251	 0.155906098779551 
2252	 0.153886959949522 
2253	 0.151913118872558 
2254	 0.149955268540734 
2255	 0.147986415345803 
2256	 0.146184605124126 
2257	 0.144395723080024 
2258	 0.142655045404835 
2259	 0.141027582598836 
2260	 0.139327216733446 
2261	 0.137602759356511 
2262	 0.135941985151498 
2263	 0.1342484497609 
2264	 0.132681537903595 
2265	 0.131219123896192 
2266	 0.129734641392729 
2267	 0.128334880005941 
2268	 0.126889381908135 
2269	 0.125412339144384 
2270	 0.123992555838923 
2271	 0.122566084040953 
2272	 0.121201928651067 
2273	 0.119928173634441 
2274	 0.11859521696126 
2275	 0.1173076028474 
2276	 0.115955451305465 
2277	 0.114549831753706 
2278	 0.113144228517409 
2279	 0.111692019803912 
2280	 0.110245560812979 
2281	 0.108816236219245 
2282	 0.107331251326454 
2283	 0.105811845653258 
2284	 0.104306013763497 
2285	 0.10268319075204 
2286	 0.101088199207185 
2287	 9.94736798653869E-02 
2288	 9.78247469217179E-02 
2289	 9.62855503063543E-02 
2290	 9.47274243180543E-02 
2291	 9.32120406879712E-02 
2292	 9.17759048548637E-02 
2293	 9.03375523447044E-02 
2294	 8.90006917375365E-02 
2295	 8.77394277408918E-02 
2296	 8.65928550302145E-02 
2297	 8.56531975249698E-02 
2298	 8.48725068597141E-02 
2299	 8.42583185340654E-02 
2300	 8.38468561353648E-02 
2301	 8.35794102315396E-02 
2302	 0.083461552456553 
2303	 0.08352980621385 
2304	 8.38251425541981E-02 
2305	 8.41880349075274E-02 
2306	 8.47204881512194E-02 
2307	 8.53423777637394E-02 
2308	 8.60742526998253E-02 
2309	 8.69206592728243E-02 
2310	 0.087930104461832 
2311	 8.89700013728033E-02 
2312	 9.01822410322958E-02 
2313	 9.13000226019845E-02 
2314	 9.24780531587208E-02 
2315	 9.35694206360642E-02 
2316	 9.46209871818646E-02 
2317	 9.55797557831492E-02 
2318	 9.65067126723303E-02 
2319	 9.73034775967176E-02 
2320	 9.79986097780577E-02 
2321	 9.85940905344765E-02 
2322	 9.90863281272414E-02 
2323	 9.94621352327831E-02 
2324	 9.97269280607179E-02 
2325	 9.98786252640792E-02 
2326	 9.98886894673637E-02 
2327	 9.98107668508985E-02 
2328	 9.96054250959438E-02 
2329	 9.93215525526116E-02 
2330	 9.89464226389842E-02 
2331	 9.84561875727518E-02 
2332	 9.78915815049127E-02 
2333	 9.72169602013315E-02 
2334	 9.64031509003307E-02 
2335	 0.095541836381925 
2336	 9.45999755978667E-02 
2337	 9.36207135175741E-02 
2338	 9.26646357266152E-02 
2339	 9.17451828507691E-02 
2340	 9.09084985904748E-02 
2341	 9.00800593623288E-02 
2342	 8.93015754581527E-02 
2343	 8.86725271864442E-02 
2344	 8.81758602138586E-02 
2345	 8.78536311288457E-02 
2346	 8.77205705645088E-02 
2347	 8.78095200745602E-02 
2348	 8.80392746954872E-02 
2349	 8.84657380561963E-02 
2350	 8.91291187078812E-02 
2351	 8.98621447453911E-02 
2352	 9.06281729935391E-02 
2353	 9.14957549607183E-02 
2354	 0.092252310041253 
2355	 9.29046843004001E-02 
2356	 9.35359608895266E-02 
2357	 9.39952182798145E-02 
2358	 9.43955412734072E-02 
2359	 9.47113156834168E-02 
2360	 9.49040658789071E-02 
2361	 9.50047584973263E-02 
2362	 9.50283179196589E-02 
2363	 9.49510796430362E-02 
2364	 9.48131099402066E-02 
2365	 9.46813646141729E-02 
2366	 9.45103064295497E-02 
2367	 9.43539562447584E-02 
2368	 9.41718315740976E-02 
2369	 9.39682930280677E-02 
2370	 9.37831034523305E-02 
2371	 9.35988289607136E-02 
2372	 9.34364932835726E-02 
2373	 9.32505742336671E-02 
2374	 9.30558947797624E-02 
2375	 9.28461494887998E-02 
2376	 9.26474549100671E-02 
2377	 9.24911858625317E-02 
2378	 9.22968192310904E-02 
2379	 9.20692001255272E-02 
2380	 9.18483141287227E-02 
2381	 9.16290476070504E-02 
2382	 9.14042778719588E-02 
2383	 9.11864991214979E-02 
2384	 9.09662093964017E-02 
2385	 9.07454919888784E-02 
2386	 9.04925848639844E-02 
2387	 9.02181029542394E-02 
2388	 8.99822991915663E-02 
2389	 8.97334411000889E-02 
2390	 0.089488602900903 
2391	 8.92987833960611E-02 
2392	 8.90424746043038E-02 
2393	 8.87332268685378E-02 
2394	 0.088462671778393 
2395	 8.81805175820641E-02 
2396	 8.78979758721104E-02 
2397	 0.087650925190511 
2398	 8.73470716379245E-02 
2399	 8.69971401307933E-02 
2400	 8.66883057972472E-02 
2401	 8.63412540493917E-02 
2402	 8.60532334177906E-02 
2403	 8.58269031616767E-02 
2404	 8.55819085576708E-02 
2405	 8.53202849382872E-02 
2406	 8.50647305561618E-02 
2407	 8.47842496990151E-02 
2408	 8.44194708879288E-02 
2409	 8.41268921941644E-02 
2410	 8.38586756230819E-02 
2411	 0.083537895882991 
2412	 0.083287281909001 
2413	 8.30131651931196E-02 
2414	 8.26890747221722E-02 
2415	 8.24271839455355E-02 
2416	 8.22593216061601E-02 
2417	 8.21388742553126E-02 
2418	 8.20490083812753E-02 
2419	 8.19758791476427E-02 
2420	 8.17680263797747E-02 
2421	 0.08152677828133 
2422	 8.13813866344553E-02 
2423	 8.11902473994308E-02 
2424	 8.09918275589787E-02 
2425	 8.08258615970603E-02 
2426	 0.08061627383974 
2427	 8.04162852632671E-02 
2428	 8.02857823988063E-02 
2429	 8.01362084679859E-02 
2430	 7.99494348428862E-02 
2431	 7.97984825347353E-02 
2432	 7.95619517088908E-02 
2433	 7.92416939886525E-02 
2434	 7.90094277431662E-02 
2435	 7.88101640533647E-02 
2436	 7.86610787449547E-02 
2437	 7.86136195432031E-02 
2438	 7.85388444319235E-02 
2439	 0.078352867363997 
2440	 7.81439104884607E-02 
2441	 7.79420771639271E-02 
2442	 7.76834853113931E-02 
2443	 0.07748273231805 
2444	 7.72719491080518E-02 
2445	 7.70220583112681E-02 
2446	 7.68070891374859E-02 
2447	 7.65255374837267E-02 
2448	 7.63394968420216E-02 
2449	 7.62255542073222E-02 
2450	 7.60124915372411E-02 
2451	 0.075834468034538 
2452	 7.54855670852859E-02 
2453	 7.50089681956296E-02 
2454	 7.47554292577267E-02 
2455	 7.44623659575997E-02 
2456	 7.41125001630548E-02 
2457	 0.073874548516262 
2458	 7.35635821217012E-02 
2459	 7.31970026818317E-02 
2460	 7.29144023138118E-02 
2461	 7.26017823978782E-02 
2462	 7.21995768232598E-02 
2463	 7.18464849345311E-02 
2464	 0.071550084778976 
2465	 7.12907054530301E-02 
2466	 7.11373397547578E-02 
2467	 7.10009084909459E-02 
2468	 7.08381205667949E-02 
2469	 7.07072284874996E-02 
2470	 7.04134640018369E-02 
2471	 7.00716311147141E-02 
2472	 6.98513725678254E-02 
2473	 6.96318380527542E-02 
2474	 6.95042453603469E-02 
2475	 6.93589774611021E-02 
2476	 6.92057309686038E-02 
2477	 6.90937697656158E-02 
2478	 6.88981896751062E-02 
2479	 6.88553337120568E-02 
2480	 6.87353102981039E-02 
2481	 6.86214586878577E-02 
2482	 6.85519843533295E-02 
2483	 6.84043336610502E-02 
2484	 6.83661815223986E-02 
2485	 6.85448816189567E-02 
2486	 6.88634970611696E-02 
2487	 6.90769955135094E-02 
2488	 6.91348229319163E-02 
2489	 6.89812265783143E-02 
2490	 6.88046069561372E-02 
2491	 6.87593898057746E-02 
2492	 6.87879407170157E-02 
2493	 6.87421208971213E-02 
2494	 6.87666029053353E-02 
2495	 6.89709247560266E-02 
2496	 6.91016411029461E-02 
2497	 6.96413212278061E-02 
2498	 7.01338140101874E-02 
2499	 7.01805238272061E-02 
2500	 0.070433110805219 
