Wavelength	spectrum00021.asd
350	 3.17816938759631E-02 
351	 3.08449346726333E-02 
352	 0.028270597967436 
353	 2.63720523397888E-02 
354	 2.91341156458146E-02 
355	 2.98166263750494E-02 
356	 2.90126303998634E-02 
357	 2.82202764944347E-02 
358	 2.58215892741463E-02 
359	 0.025955408248562 
360	 2.75305710488543E-02 
361	 2.72559225821645E-02 
362	 2.83164903947398E-02 
363	 2.78984983294511E-02 
364	 2.57394203136649E-02 
365	 2.54910735963536E-02 
366	 2.69225457743934E-02 
367	 0.027521206233872 
368	 2.60106075248303E-02 
369	 2.70609303508311E-02 
370	 2.70159867867889E-02 
371	 2.61147280398194E-02 
372	 2.65752876451835E-02 
373	 2.65842996109169E-02 
374	 2.71900643835823E-02 
375	 2.81496075463658E-02 
376	 2.69771025109221E-02 
377	 2.71065240572873E-02 
378	 2.76142868351512E-02 
379	 2.71380784821451E-02 
380	 2.68310119777278E-02 
381	 2.76501275776404E-02 
382	 2.85917859278534E-02 
383	 2.77929359260469E-02 
384	 2.72164218537538E-02 
385	 0.027349173126201 
386	 2.78760766835696E-02 
387	 0.027596628689725 
388	 2.74229752565308E-02 
389	 0.027579823353425 
390	 2.79505787802905E-02 
391	 2.79470193601059E-02 
392	 2.77906569443507E-02 
393	 2.77031715110198E-02 
394	 2.78420636388965E-02 
395	 2.78681622759542E-02 
396	 2.78238767909428E-02 
397	 2.77875021970653E-02 
398	 2.78089844823339E-02 
399	 2.78175821753912E-02 
400	 2.77993663824796E-02 
401	 2.77802939115322E-02 
402	 2.78734168924603E-02 
403	 2.79620310505538E-02 
404	 2.79872400034604E-02 
405	 2.79542728691167E-02 
406	 2.80648517404878E-02 
407	 2.79070983184375E-02 
408	 2.75343395502594E-02 
409	 2.81508229922803E-02 
410	 2.81435003704852E-02 
411	 2.78643664944131E-02 
412	 2.81225558830794E-02 
413	 2.86110606615887E-02 
414	 2.84330816762343E-02 
415	 2.79306584743602E-02 
416	 2.84615007680808E-02 
417	 2.83983769078152E-02 
418	 2.82994536234848E-02 
419	 2.85971478830931E-02 
420	 2.85124278850896E-02 
421	 0.02843902125586 
422	 2.84441919997757E-02 
423	 2.84497112325411E-02 
424	 2.82955566298794E-02 
425	 2.84484441285932E-02 
426	 0.028821759833755 
427	 2.86692662500803E-02 
428	 2.84243056862678E-02 
429	 2.84087728168276E-02 
430	 2.86640596862828E-02 
431	 2.84424548859739E-02 
432	 2.85603902587246E-02 
433	 0.028868640542188 
434	 2.87608240186398E-02 
435	 0.028909309679525 
436	 2.89112325383718E-02 
437	 2.86871518726592E-02 
438	 2.88476683082858E-02 
439	 2.89074456872265E-02 
440	 2.89219656279562E-02 
441	 2.90345874180828E-02 
442	 2.90736275827542E-02 
443	 2.91524446895193E-02 
444	 0.029253422879146 
445	 2.92542970172766E-02 
446	 2.91849010889375E-02 
447	 2.91443103861671E-02 
448	 2.91956399449784E-02 
449	 2.93078670138391E-02 
450	 2.94427012076071E-02 
451	 2.95329026597608E-02 
452	 2.95199034197688E-02 
453	 2.94217442804569E-02 
454	 2.95081734383742E-02 
455	 2.97157922344897E-02 
456	 2.96112156236132E-02 
457	 2.96468378889952E-02 
458	 2.97122782069963E-02 
459	 2.96973087126044E-02 
460	 0.029897673868194 
461	 2.99710331624739E-02 
462	 2.99409204257459E-02 
463	 3.00132429800584E-02 
464	 3.00013498581805E-02 
465	 3.00906665292381E-02 
466	 3.02759479509792E-02 
467	 3.01954050080694E-02 
468	 3.01841104601902E-02 
469	 3.02812449264141E-02 
470	 3.04130465473141E-02 
471	 3.04330440360644E-02 
472	 3.04436511882821E-02 
473	 3.04786125406035E-02 
474	 3.05125941438661E-02 
475	 3.06132589226835E-02 
476	 3.06382502785763E-02 
477	 3.05540808304521E-02 
478	 3.06408586966874E-02 
479	 3.07426503445695E-02 
480	 3.07941305330571E-02 
481	 0.030788809271508 
482	 3.08769778010496E-02 
483	 3.09316918122334E-02 
484	 3.09154297847231E-02 
485	 3.09157123045812E-02 
486	 3.10398499155599E-02 
487	 0.031191843370121 
488	 3.12614314571055E-02 
489	 3.12520406982169E-02 
490	 3.12417666109166E-02 
491	 3.12902794596952E-02 
492	 3.14222539641941E-02 
493	 3.14875925051846E-02 
494	 3.14772044900562E-02 
495	 3.14617188508312E-02 
496	 3.16178972057946E-02 
497	 3.17070952689398E-02 
498	 3.17022999415324E-02 
499	 3.16678672884633E-02 
500	 3.17410420415066E-02 
501	 3.18179323686374E-02 
502	 3.18395849004139E-02 
503	 3.18053649926443E-02 
504	 3.18714061337868E-02 
505	 3.19299551376394E-02 
506	 0.031921229459096 
507	 3.20359257252083E-02 
508	 3.20585535639598E-02 
509	 3.20325207012481E-02 
510	 3.20955216848776E-02 
511	 3.21592238705177E-02 
512	 3.22320296221893E-02 
513	 3.23066075454306E-02 
514	 3.23467679503359E-02 
515	 3.23311163321057E-02 
516	 3.23398962150139E-02 
517	 0.03242287232996 
518	 3.24277070679029E-02 
519	 3.24312706261481E-02 
520	 3.24880944280284E-02 
521	 3.26172649743569E-02 
522	 3.26506609219041E-02 
523	 3.26400767769786E-02 
524	 3.26514055815815E-02 
525	 3.27150730424907E-02 
526	 3.27667244278258E-02 
527	 3.27992062332687E-02 
528	 3.28300652397159E-02 
529	 3.28864047841203E-02 
530	 3.29271819552743E-02 
531	 3.29633484899115E-02 
532	 3.30619908841156E-02 
533	 3.31282378189259E-02 
534	 3.31296243381036E-02 
535	 3.30798960274879E-02 
536	 3.30663409742936E-02 
537	 3.31290531489873E-02 
538	 3.32147309230877E-02 
539	 3.32267772026722E-02 
540	 0.033200505397909 
541	 0.033226489322805 
542	 3.33077061939542E-02 
543	 3.32960007814493E-02 
544	 3.33166228679715E-02 
545	 3.33407442128528E-02 
546	 3.33246352716316E-02 
547	 3.33744292052532E-02 
548	 3.34344275722373E-02 
549	 0.033495554206391 
550	 3.35927720350058E-02 
551	 3.36648451952965E-02 
552	 0.033737080777953 
553	 3.38282188249033E-02 
554	 3.38954873112151E-02 
555	 0.033968277520448 
556	 3.40633731441204E-02 
557	 0.034183809683455 
558	 3.42788339504334E-02 
559	 0.034387262679302 
560	 3.45124978793294E-02 
561	 0.03459881723818 
562	 3.46024252613816E-02 
563	 3.45849996899232E-02 
564	 3.46058757002085E-02 
565	 3.45925782522366E-02 
566	 3.45442183563751E-02 
567	 3.44981703011555E-02 
568	 0.034515082475785 
569	 3.45715249890247E-02 
570	 3.46193607140146E-02 
571	 3.46410360702501E-02 
572	 3.46881897435462E-02 
573	 3.47833824664744E-02 
574	 3.48687150491913E-02 
575	 3.48773388614718E-02 
576	 3.49144185651572E-02 
577	 3.48802720389768E-02 
578	 3.47861430518027E-02 
579	 3.47795011537718E-02 
580	 3.48003800187616E-02 
581	 3.48176660075567E-02 
582	 3.48241254088193E-02 
583	 3.48732700665937E-02 
584	 3.49186486126166E-02 
585	 3.49546957665545E-02 
586	 3.50031805095643E-02 
587	 3.50936518682811E-02 
588	 3.51764803677087E-02 
589	 3.52211780675804E-02 
590	 0.035240929137136 
591	 3.52890116234403E-02 
592	 3.53533422257629E-02 
593	 0.035400848475072 
594	 3.54082122349285E-02 
595	 3.54379983182503E-02 
596	 3.54828743146772E-02 
597	 3.54780628997025E-02 
598	 3.55225079216946E-02 
599	 3.55694236072731E-02 
600	 3.55810670076623E-02 
601	 3.56020196075552E-02 
602	 3.56504135909925E-02 
603	 0.035706381642701 
604	 3.57414155771089E-02 
605	 3.58061693890712E-02 
606	 3.58719620859018E-02 
607	 3.59284064055556E-02 
608	 3.59958187914438E-02 
609	 3.60015149862534E-02 
610	 3.60174638045294E-02 
611	 3.61050404223328E-02 
612	 3.61711593639922E-02 
613	 3.61999691567595E-02 
614	 3.62081772254126E-02 
615	 3.62332277349388E-02 
616	 3.62734746306238E-02 
617	 3.63316791569067E-02 
618	 3.63979294457442E-02 
619	 0.036441537541743 
620	 3.64657349901011E-02 
621	 3.64820380039156E-02 
622	 3.65057019340576E-02 
623	 3.65481314881775E-02 
624	 3.65926159118629E-02 
625	 3.66333082342356E-02 
626	 3.66758840229107E-02 
627	 3.67213235034183E-02 
628	 3.67481782923675E-02 
629	 3.67584240340404E-02 
630	 0.036825717891535 
631	 3.68729855879365E-02 
632	 0.03690548190073 
633	 3.69589663297292E-02 
634	 3.70052747333086E-02 
635	 3.70440382845867E-02 
636	 3.70846823568617E-02 
637	 0.037145190679533 
638	 3.71716831722792E-02 
639	 3.71837910630381E-02 
640	 3.72089829994503E-02 
641	 3.72335474915608E-02 
642	 3.72703904680997E-02 
643	 3.73234628046036E-02 
644	 0.037387513226539 
645	 3.74349857595431E-02 
646	 3.74578195909325E-02 
647	 3.74802103885068E-02 
648	 3.75765410097321E-02 
649	 3.76306323941011E-02 
650	 3.76533090133287E-02 
651	 3.76841587678209E-02 
652	 3.77004552472637E-02 
653	 3.77177958433749E-02 
654	 3.77459922139618E-02 
655	 3.77878332058057E-02 
656	 3.78304764577009E-02 
657	 3.78800356275087E-02 
658	 3.79342714738914E-02 
659	 0.037963342271445 
660	 0.038021571692411 
661	 3.80736659382559E-02 
662	 3.80757337929665E-02 
663	 3.81341296426964E-02 
664	 3.81837606681879E-02 
665	 3.82093796103237E-02 
666	 0.038254769214677 
667	 3.83006274902194E-02 
668	 3.83421584782616E-02 
669	 3.83774183889227E-02 
670	 3.84024278563905E-02 
671	 3.84455017101453E-02 
672	 0.038496590513405 
673	 3.85344711405811E-02 
674	 3.85982940882636E-02 
675	 3.86535964910806E-02 
676	 3.86835892892022E-02 
677	 3.87003171266328E-02 
678	 3.87254151179135E-02 
679	 3.87718789070496E-02 
680	 3.88381974033538E-02 
681	 3.88947297666097E-02 
682	 3.89237357718574E-02 
683	 3.89456938319282E-02 
684	 3.89956916746239E-02 
685	 3.90353242516671E-02 
686	 0.039061459327879 
687	 0.039087181342243 
688	 0.039142345983081 
689	 0.039200797766463 
690	 3.92351878612144E-02 
691	 3.92435928365043E-02 
692	 3.93113946354162E-02 
693	 3.93627537865174E-02 
694	 3.93940839360682E-02 
695	 3.94440398186424E-02 
696	 3.94734651838276E-02 
697	 3.95035828261615E-02 
698	 3.95442433894638E-02 
699	 3.95763732582655E-02 
700	 3.96085084808261E-02 
701	 3.96579465368169E-02 
702	 3.97279204084045E-02 
703	 3.97596202876864E-02 
704	 3.98014605791843E-02 
705	 3.98458246832976E-02 
706	 3.98543258571655E-02 
707	 3.99107358686959E-02 
708	 3.99600575684382E-02 
709	 3.99778621132327E-02 
710	 4.00205022802921E-02 
711	 4.00752826457941E-02 
712	 4.01271849457333E-02 
713	 4.01670045308915E-02 
714	 4.02165841997797E-02 
715	 4.02680750391636E-02 
716	 4.03043790490407E-02 
717	 4.03101912494562E-02 
718	 4.03530060955085E-02 
719	 4.04208583222933E-02 
720	 4.04863265508363E-02 
721	 4.05165351902549E-02 
722	 4.05332308576352E-02 
723	 4.05733770728617E-02 
724	 4.06535710549226E-02 
725	 4.06962892573322E-02 
726	 4.07226045207535E-02 
727	 4.07536408785991E-02 
728	 4.08042811561387E-02 
729	 4.08407363801895E-02 
730	 4.08757207034483E-02 
731	 4.09145421795374E-02 
732	 4.09395888602309E-02 
733	 4.09737909141814E-02 
734	 4.10219445253685E-02 
735	 4.10780994812892E-02 
736	 4.11195988832615E-02 
737	 4.11621121651452E-02 
738	 4.12044886064815E-02 
739	 4.12378235683684E-02 
740	 4.12956270693668E-02 
741	 0.041351903963803 
742	 0.041391955717085 
743	 4.14291063680168E-02 
744	 4.14546860365347E-02 
745	 4.14926258563977E-02 
746	 4.15552841969388E-02 
747	 4.15879566745984E-02 
748	 4.16284726397835E-02 
749	 4.16757544232294E-02 
750	 4.17090276171594E-02 
751	 0.041744938577265 
752	 4.17906946359396E-02 
753	 0.041839265383799 
754	 4.18675913518776E-02 
755	 4.19228388654067E-02 
756	 4.19634159438591E-02 
757	 4.19602596026233E-02 
758	 4.19776890378233E-02 
759	 0.0420083016484 
760	 4.20446600383789E-02 
761	 4.20809330252368E-02 
762	 4.21348287331899E-02 
763	 4.21733458064036E-02 
764	 4.21950954922631E-02 
765	 4.22347570385865E-02 
766	 4.22771623935651E-02 
767	 4.23229595757076E-02 
768	 4.23699412909437E-02 
769	 4.24031605387888E-02 
770	 4.24336093007491E-02 
771	 4.24628755830239E-02 
772	 0.042490915842143 
773	 4.25263785544333E-02 
774	 4.25610900752723E-02 
775	 4.25911550380069E-02 
776	 4.26189424966453E-02 
777	 4.26685689884864E-02 
778	 4.27179865357697E-02 
779	 4.27538602164948E-02 
780	 4.27895918026491E-02 
781	 4.28122729297912E-02 
782	 4.28391963026623E-02 
783	 4.28868122457068E-02 
784	 4.29409239114947E-02 
785	 4.29778475769133E-02 
786	 4.30044438498454E-02 
787	 4.30417941394897E-02 
788	 4.30684884597713E-02 
789	 4.30978493164466E-02 
790	 4.31324765303033E-02 
791	 4.31597072348671E-02 
792	 0.043204500526746 
793	 4.32456652702706E-02 
794	 4.32716552754262E-02 
795	 4.33196253199135E-02 
796	 4.33477796086428E-02 
797	 4.33733723533053E-02 
798	 4.34219833721452E-02 
799	 4.34475255833133E-02 
800	 4.34659334645162E-02 
801	 4.34917237671871E-02 
802	 4.35319673370058E-02 
803	 4.35513831090025E-02 
804	 4.35738439104548E-02 
805	 4.36087624797539E-02 
806	 4.36321190323904E-02 
807	 4.36647291960257E-02 
808	 4.36951393230763E-02 
809	 4.37161149941039E-02 
810	 4.37556470549765E-02 
811	 4.38085312231133E-02 
812	 4.38530252921537E-02 
813	 4.38691215800816E-02 
814	 4.38904072553809E-02 
815	 4.39232741254598E-02 
816	 4.39581505370194E-02 
817	 4.39764936065213E-02 
818	 4.40132996973049E-02 
819	 4.40479792670788E-02 
820	 4.40705432222599E-02 
821	 4.41021964403471E-02 
822	 4.41206973607331E-02 
823	 4.41579712499105E-02 
824	 4.42296186242298E-02 
825	 4.42604150997507E-02 
826	 4.42697101994824E-02 
827	 0.04428355520612 
828	 4.43247246376622E-02 
829	 4.43737535982104E-02 
830	 4.44189905968776E-02 
831	 4.44564059549345E-02 
832	 4.44885891076966E-02 
833	 4.45135153394166E-02 
834	 4.45270361989369E-02 
835	 4.45419471871998E-02 
836	 4.45956873092829E-02 
837	 4.46313791616944E-02 
838	 4.46638595473681E-02 
839	 4.47086658206725E-02 
840	 4.47307605438531E-02 
841	 4.47446789544038E-02 
842	 4.47555187016663E-02 
843	 4.47699864928363E-02 
844	 4.48179005414045E-02 
845	 4.48699739731231E-02 
846	 4.49044383449585E-02 
847	 4.49146755441803E-02 
848	 4.49470494834261E-02 
849	 4.49819133065349E-02 
850	 4.50000363982014E-02 
851	 4.49958083012461E-02 
852	 0.045024781040081 
853	 4.50545850778172E-02 
854	 0.04506642477385 
855	 4.51133844698082E-02 
856	 4.51191360129954E-02 
857	 4.51201813718827E-02 
858	 4.51635264933035E-02 
859	 4.51996086912071E-02 
860	 4.52136168029082E-02 
861	 4.52386566524295E-02 
862	 4.53108531679542E-02 
863	 4.53291360564557E-02 
864	 4.53410451928205E-02 
865	 4.53630542291994E-02 
866	 4.53770481723207E-02 
867	 0.045390247087505 
868	 4.54141625714837E-02 
869	 4.54455505893511E-02 
870	 4.54621691934413E-02 
871	 0.045513056437718 
872	 4.55419852420885E-02 
873	 4.55253503310827E-02 
874	 4.55604573333259E-02 
875	 4.56018343611282E-02 
876	 4.56304710332044E-02 
877	 4.56450597009514E-02 
878	 4.56764507175928E-02 
879	 4.57283955043824E-02 
880	 4.57581591338604E-02 
881	 4.57279474384613E-02 
882	 4.57468684675506E-02 
883	 4.57863892378621E-02 
884	 4.58173851527108E-02 
885	 4.58272791074861E-02 
886	 4.58971564754292E-02 
887	 4.59259746014456E-02 
888	 4.59029080401749E-02 
889	 4.59361560855968E-02 
890	 4.59477248381572E-02 
891	 4.59686627653664E-02 
892	 4.60098498317761E-02 
893	 0.046017663001313 
894	 4.60482974408205E-02 
895	 4.60887023983783E-02 
896	 0.046114700508754 
897	 4.61182956319489E-02 
898	 4.61465715369849E-02 
899	 0.046170565193482 
900	 4.61632399480726E-02 
901	 4.62147140253431E-02 
902	 4.62293237571547E-02 
903	 4.62107238100794E-02 
904	 4.62111426063608E-02 
905	 4.62333238452899E-02 
906	 4.62813328981131E-02 
907	 4.63289611448857E-02 
908	 4.63385072904665E-02 
909	 4.63506987125365E-02 
910	 4.63568781212876E-02 
911	 4.63571405001201E-02 
912	 4.63644532191279E-02 
913	 4.63798866325475E-02 
914	 4.64101062311691E-02 
915	 4.64541556383432E-02 
916	 4.64987952938641E-02 
917	 4.64723841998847E-02 
918	 4.64771508012466E-02 
919	 4.65510166157829E-02 
920	 4.65501416070259E-02 
921	 4.65526558753639E-02 
922	 4.65770392713792E-02 
923	 4.66195409435429E-02 
924	 4.66626687371255E-02 
925	 4.66645583534944E-02 
926	 0.046667696486166 
927	 4.67140345808317E-02 
928	 4.67416610478932E-02 
929	 4.67825629999775E-02 
930	 4.68107747489709E-02 
931	 4.67926410006305E-02 
932	 4.67609227457516E-02 
933	 4.67832150917465E-02 
934	 4.68276451141815E-02 
935	 4.68241829349281E-02 
936	 4.68194291635789E-02 
937	 4.68661570606281E-02 
938	 4.69212286013968E-02 
939	 4.69022899121236E-02 
940	 4.69341716025322E-02 
941	 4.69946595397759E-02 
942	 4.70395327830358E-02 
943	 0.047034414494711 
944	 4.70948199456303E-02 
945	 4.71034396049662E-02 
946	 4.70632678747804E-02 
947	 4.71110570854471E-02 
948	 4.70965500717364E-02 
949	 0.047110227710016 
950	 4.71786238419235E-02 
951	 4.72090756865848E-02 
952	 0.047209694470463 
953	 4.72334966045461E-02 
954	 4.72894534895729E-02 
955	 0.047312407607311 
956	 4.73597055556991E-02 
957	 4.73753836909117E-02 
958	 4.73423525361293E-02 
959	 0.04734508323454 
960	 4.73783441014081E-02 
961	 4.73825600446263E-02 
962	 4.73758562354922E-02 
963	 4.75508765564037E-02 
964	 4.74967128413588E-02 
965	 0.047405375713399 
966	 4.74683672697237E-02 
967	 0.047499986304599 
968	 4.75297945998225E-02 
969	 4.75292735024828E-02 
970	 4.74926881243205E-02 
971	 0.047495810868418 
972	 4.75472255255914E-02 
973	 4.75501617726851E-02 
974	 4.74683769861493E-02 
975	 4.75224543493974E-02 
976	 4.75522259413269E-02 
977	 4.76088131602788E-02 
978	 4.77182464646711E-02 
979	 4.76213455368316E-02 
980	 4.76045211670886E-02 
981	 4.76172686970863E-02 
982	 0.047569079550743 
983	 4.76344536222105E-02 
984	 4.76546245509904E-02 
985	 4.76772692491846E-02 
986	 4.77771464341142E-02 
987	 4.78766981867311E-02 
988	 4.78669937342288E-02 
989	 4.78409928339089E-02 
990	 4.78804327223474E-02 
991	 0.047749254425412 
992	 4.76930464997332E-02 
993	 4.77640958672055E-02 
994	 4.78914261367956E-02 
995	 4.78744373787338E-02 
996	 4.79409528095597E-02 
997	 0.047995853148996 
998	 4.79380938324022E-02 
999	 4.80614992248325E-02 
1000	 4.80357507586561E-02 
1001	 4.91783390425941E-02 
1002	 4.92627142168186E-02 
1003	 4.93261056893071E-02 
1004	 4.93355129570803E-02 
1005	 4.93029153541551E-02 
1006	 4.93015207003414E-02 
1007	 4.92575210479412E-02 
1008	 4.92627609708311E-02 
1009	 0.049305114444105 
1010	 4.93456069059469E-02 
1011	 4.94119412166841E-02 
1012	 4.94483200890666E-02 
1013	 4.94829771004668E-02 
1014	 4.95164317867013E-02 
1015	 4.95436263150164E-02 
1016	 4.95451456702349E-02 
1017	 4.95413734112231E-02 
1018	 4.95363800262791E-02 
1019	 4.95566545427591E-02 
1020	 4.95944828784941E-02 
1021	 0.049611303994957 
1022	 4.96516226969686E-02 
1023	 4.96589401652909E-02 
1024	 0.049620016697099 
1025	 4.96160317161424E-02 
1026	 4.96277167794434E-02 
1027	 4.96398371849386E-02 
1028	 4.96602445062191E-02 
1029	 4.96725444066586E-02 
1030	 4.96956807261747E-02 
1031	 4.97280692239961E-02 
1032	 4.97486793849139E-02 
1033	 4.97302851542084E-02 
1034	 4.97189977600396E-02 
1035	 4.96995346253939E-02 
1036	 4.97083339599739E-02 
1037	 4.97617248963954E-02 
1038	 4.97801293167917E-02 
1039	 4.97969656699551E-02 
1040	 4.98049814662371E-02 
1041	 4.97796936578178E-02 
1042	 4.97767824635373E-02 
1043	 4.97806371333846E-02 
1044	 4.97921782161001E-02 
1045	 4.98160067808365E-02 
1046	 4.98347671422552E-02 
1047	 4.98226020113673E-02 
1048	 4.98287045014715E-02 
1049	 4.98390246137653E-02 
1050	 4.98442497063273E-02 
1051	 4.98839588949595E-02 
1052	 4.99218850181935E-02 
1053	 0.049945856198249 
1054	 4.99586150308702E-02 
1055	 4.99801080353549E-02 
1056	 4.99803051314825E-02 
1057	 5.00112814798301E-02 
1058	 5.00636230497936E-02 
1059	 5.01212073558717E-02 
1060	 5.01567679892916E-02 
1061	 5.01857867930313E-02 
1062	 5.02030572103206E-02 
1063	 5.02232689971909E-02 
1064	 5.02557267467076E-02 
1065	 5.02813869161746E-02 
1066	 5.02961108006571E-02 
1067	 5.03214783779158E-02 
1068	 5.03530252049611E-02 
1069	 5.03810304409622E-02 
1070	 5.04266295576782E-02 
1071	 5.04926985194986E-02 
1072	 5.05467568877375E-02 
1073	 5.05833137235756E-02 
1074	 5.06275599728377E-02 
1075	 5.06547086361476E-02 
1076	 5.06773342364549E-02 
1077	 5.07065204055218E-02 
1078	 5.07352718567253E-02 
1079	 5.07720862662182E-02 
1080	 5.07893625693484E-02 
1081	 5.07911893785485E-02 
1082	 5.08132418379338E-02 
1083	 5.08528578349255E-02 
1084	 5.08831663060947E-02 
1085	 5.09114988216406E-02 
1086	 5.09437372657671E-02 
1087	 5.09824273741745E-02 
1088	 5.10017854797252E-02 
1089	 5.10142245991054E-02 
1090	 5.10295515959773E-02 
1091	 5.10429044873001E-02 
1092	 5.10644414804171E-02 
1093	 5.10919566183994E-02 
1094	 5.11401679235447E-02 
1095	 5.11880292419043E-02 
1096	 5.12092216578649E-02 
1097	 5.12333258795943E-02 
1098	 5.12477732362486E-02 
1099	 5.12502125838988E-02 
1100	 0.051261057009204 
1101	 5.12764675714391E-02 
1102	 0.051287489032096 
1103	 5.12953428752863E-02 
1104	 5.12969252410412E-02 
1105	 5.13118713736216E-02 
1106	 5.13355931892715E-02 
1107	 5.13481422600131E-02 
1108	 5.13635145740432E-02 
1109	 5.13800327644517E-02 
1110	 5.13757260789759E-02 
1111	 5.13769456911696E-02 
1112	 5.13944190959426E-02 
1113	 0.051399248935216 
1114	 0.05140835312233 
1115	 5.14395970031459E-02 
1116	 5.14664146792816E-02 
1117	 5.14729939653081E-02 
1118	 5.14812295739625E-02 
1119	 5.14867027174612E-02 
1120	 5.14873198415558E-02 
1121	 5.14801279028147E-02 
1122	 5.14746170611297E-02 
1123	 5.14781420823473E-02 
1124	 5.14647380508552E-02 
1125	 5.14401551027108E-02 
1126	 5.14441315737088E-02 
1127	 0.051453097606293 
1128	 5.14624426985068E-02 
1129	 5.14865893388616E-02 
1130	 5.14962088557568E-02 
1131	 5.15096307138633E-02 
1132	 5.15178581340644E-02 
1133	 5.15032078539125E-02 
1134	 5.15020918680604E-02 
1135	 5.14985980305918E-02 
1136	 5.14812533409575E-02 
1137	 5.14774210263712E-02 
1138	 0.051488570848284 
1139	 5.14891721529671E-02 
1140	 5.14924836116518E-02 
1141	 5.14834411793035E-02 
1142	 5.14737387057404E-02 
1143	 5.14682764054093E-02 
1144	 5.14514042455199E-02 
1145	 5.14499603721564E-02 
1146	 5.14562937081234E-02 
1147	 5.14559108755723E-02 
1148	 5.14636763748037E-02 
1149	 5.14674877345024E-02 
1150	 5.14596914197536E-02 
1151	 5.14593958456029E-02 
1152	 5.14589026098998E-02 
1153	 5.14567974352747E-02 
1154	 5.14581189543747E-02 
1155	 5.14653373624309E-02 
1156	 5.14677104653283E-02 
1157	 5.14744180638178E-02 
1158	 0.051473485502782 
1159	 5.14656946027235E-02 
1160	 5.14604027753935E-02 
1161	 5.14455476492846E-02 
1162	 5.14307446998311E-02 
1163	 5.14313995574133E-02 
1164	 5.14283293863169E-02 
1165	 5.14263594059773E-02 
1166	 5.14263922348672E-02 
1167	 5.14186653191113E-02 
1168	 5.14084312014434E-02 
1169	 0.051402150705972 
1170	 5.13940374225031E-02 
1171	 5.13953151090272E-02 
1172	 5.14025445123368E-02 
1173	 5.14094194048423E-02 
1174	 5.14272498907146E-02 
1175	 5.14367381907167E-02 
1176	 5.14418059124423E-02 
1177	 5.14455177532125E-02 
1178	 5.14475357639842E-02 
1179	 5.14450880009653E-02 
1180	 5.14351818762019E-02 
1181	 0.051434822699947 
1182	 5.14453418779156E-02 
1183	 5.14521004768694E-02 
1184	 5.14659134717885E-02 
1185	 5.14882239948821E-02 
1186	 5.15033649557597E-02 
1187	 5.15138219286026E-02 
1188	 5.15252545958406E-02 
1189	 5.15302800211914E-02 
1190	 5.15478872219053E-02 
1191	 5.15792181258344E-02 
1192	 5.15952347645075E-02 
1193	 5.16072567200472E-02 
1194	 5.16245883043685E-02 
1195	 5.16307489673884E-02 
1196	 5.16429571227773E-02 
1197	 5.16582108410803E-02 
1198	 5.16945989744421E-02 
1199	 5.17175610694584E-02 
1200	 0.051724867358546 
1201	 5.17359827942258E-02 
1202	 5.17464249780215E-02 
1203	 0.051748824100895 
1204	 5.17600201935366E-02 
1205	 5.17774658785077E-02 
1206	 5.18016282624842E-02 
1207	 5.18221187435971E-02 
1208	 5.18484448318818E-02 
1209	 5.18722364183675E-02 
1210	 5.18934948782965E-02 
1211	 5.19144172098581E-02 
1212	 5.19382085550081E-02 
1213	 5.19599768019609E-02 
1214	 5.19700805895166E-02 
1215	 5.19966667631772E-02 
1216	 5.20419381112273E-02 
1217	 5.20695678246126E-02 
1218	 0.052097589228182 
1219	 5.21207383466924E-02 
1220	 5.21371245835975E-02 
1221	 5.21620047976663E-02 
1222	 5.21761677422186E-02 
1223	 5.22002168900343E-02 
1224	 5.22174070325263E-02 
1225	 0.052212951728167 
1226	 0.052236435870669 
1227	 5.22806494908546E-02 
1228	 5.23119688010663E-02 
1229	 5.23554515497539E-02 
1230	 5.23832912046409E-02 
1231	 5.23989472973255E-02 
1232	 5.24151120897166E-02 
1233	 5.24122078262651E-02 
1234	 5.24338378369138E-02 
1235	 5.24678568312907E-02 
1236	 5.24984903437463E-02 
1237	 5.25566268888463E-02 
1238	 5.25901543047735E-02 
1239	 0.052603450431939 
1240	 0.05261772348578 
1241	 5.26393010142792E-02 
1242	 5.26536974119482E-02 
1243	 5.26770090407743E-02 
1244	 5.27156585755703E-02 
1245	 5.27375935646259E-02 
1246	 5.27536004550908E-02 
1247	 5.27663865104324E-02 
1248	 5.27734315487375E-02 
1249	 5.27809617427882E-02 
1250	 5.27774308909382E-02 
1251	 5.27888110992016E-02 
1252	 5.28162151043492E-02 
1253	 5.28247808328088E-02 
1254	 0.0528280312116 
1255	 5.28369189556987E-02 
1256	 5.28406637844533E-02 
1257	 5.28373376793526E-02 
1258	 5.28357652223043E-02 
1259	 5.28363229889315E-02 
1260	 5.28160878001266E-02 
1261	 5.28146644379529E-02 
1262	 5.28302408732978E-02 
1263	 5.28494897027401E-02 
1264	 5.28666355571623E-02 
1265	 5.28925796061125E-02 
1266	 5.29054303158317E-02 
1267	 5.29045689460064E-02 
1268	 5.29274725061639E-02 
1269	 5.29566328197902E-02 
1270	 5.29857248449174E-02 
1271	 5.30370297405284E-02 
1272	 5.30651289595675E-02 
1273	 5.30741622119319E-02 
1274	 5.30957079439646E-02 
1275	 5.31128774516122E-02 
1276	 5.31381612264709E-02 
1277	 5.31757497199802E-02 
1278	 5.32056761230322E-02 
1279	 5.32343356676688E-02 
1280	 0.053263672775452 
1281	 5.32880296153601E-02 
1282	 5.33165210743672E-02 
1283	 5.33515281905004E-02 
1284	 5.33820302292985E-02 
1285	 5.34112350410479E-02 
1286	 5.34407421971958E-02 
1287	 5.34671342348367E-02 
1288	 5.34853542228061E-02 
1289	 5.35181806103658E-02 
1290	 5.35570034186798E-02 
1291	 5.35929318436086E-02 
1292	 5.36397514488596E-02 
1293	 0.053672660219316 
1294	 5.36911838926185E-02 
1295	 5.37244670535022E-02 
1296	 5.37657590236554E-02 
1297	 5.37951785084627E-02 
1298	 5.38226521836867E-02 
1299	 5.38543325274435E-02 
1300	 5.38813975610832E-02 
1301	 5.39061568667333E-02 
1302	 5.39408044311867E-02 
1303	 5.39652257859772E-02 
1304	 5.39717133541633E-02 
1305	 5.39882498051795E-02 
1306	 5.40065984778102E-02 
1307	 0.054027461376481 
1308	 5.40491053566368E-02 
1309	 5.40803589599301E-02 
1310	 0.054103152925789 
1311	 5.41283934129102E-02 
1312	 5.41431373199371E-02 
1313	 5.41500834216295E-02 
1314	 5.41611322458157E-02 
1315	 0.054168135530037 
1316	 5.41764222832759E-02 
1317	 5.41919401607367E-02 
1318	 5.41933469837456E-02 
1319	 5.41838537163992E-02 
1320	 5.41808914617494E-02 
1321	 5.41709782772068E-02 
1322	 5.41682327416802E-02 
1323	 0.054171633964971 
1324	 5.41745211017387E-02 
1325	 0.054183375522567 
1326	 5.41841160561782E-02 
1327	 5.41762801592438E-02 
1328	 5.41784824815014E-02 
1329	 0.0541833417209 
1330	 0.054185193140594 
1331	 5.42023282793391E-02 
1332	 5.42034664348044E-02 
1333	 0.054198845992854 
1334	 0.054174068211508 
1335	 5.41614737297117E-02 
1336	 5.41435500469156E-02 
1337	 5.41307702176198E-02 
1338	 5.41203658726913E-02 
1339	 5.41149188077398E-02 
1340	 5.41146025718027E-02 
1341	 5.41043704935874E-02 
1342	 5.40963997413139E-02 
1343	 0.054084173336103 
1344	 5.40616747267044E-02 
1345	 0.054044220918462 
1346	 5.40306349551794E-02 
1347	 5.40138530197041E-02 
1348	 5.39922221176151E-02 
1349	 5.39749083308483E-02 
1350	 5.39600321229484E-02 
1351	 5.39445438466607E-02 
1352	 5.39342434740817E-02 
1353	 5.39156572333824E-02 
1354	 5.38869749061536E-02 
1355	 5.38682491156876E-02 
1356	 5.38487317314794E-02 
1357	 5.38324268329529E-02 
1358	 5.38318398171551E-02 
1359	 5.38186121928523E-02 
1360	 5.37929974089797E-02 
1361	 5.37757947271922E-02 
1362	 5.37554211531411E-02 
1363	 5.37325268691271E-02 
1364	 5.37166257687364E-02 
1365	 5.37056997310845E-02 
1366	 5.36966237699064E-02 
1367	 5.36933253414056E-02 
1368	 5.36818263446547E-02 
1369	 5.36681211027681E-02 
1370	 5.36602826463399E-02 
1371	 5.36518737863267E-02 
1372	 5.36403225775218E-02 
1373	 5.36325336947489E-02 
1374	 5.36235330770855E-02 
1375	 5.36072345952913E-02 
1376	 5.35956976933543E-02 
1377	 5.35935242834112E-02 
1378	 5.35821356850696E-02 
1379	 5.35622847645939E-02 
1380	 5.35489192006558E-02 
1381	 5.35372709128653E-02 
1382	 5.35226945764329E-02 
1383	 5.35108943737377E-02 
1384	 5.34961351676055E-02 
1385	 5.34740903696071E-02 
1386	 5.34576019151252E-02 
1387	 0.053442482961795 
1388	 5.34293014868537E-02 
1389	 5.34173273185141E-02 
1390	 5.34091972879227E-02 
1391	 5.34081541019349E-02 
1392	 0.053404030191114 
1393	 5.33961631365139E-02 
1394	 5.33854799208367E-02 
1395	 5.33698614732837E-02 
1396	 5.33472571309475E-02 
1397	 5.33239947293551E-02 
1398	 5.32976790168606E-02 
1399	 5.32723643145363E-02 
1400	 5.32456954117936E-02 
1401	 0.053213664733829 
1402	 5.31788627222163E-02 
1403	 5.31460840596161E-02 
1404	 5.31128977234263E-02 
1405	 5.30722007101407E-02 
1406	 5.30357161413398E-02 
1407	 5.29851500703353E-02 
1408	 5.29108472361767E-02 
1409	 5.28575599379436E-02 
1410	 5.28126267696514E-02 
1411	 5.27592808332657E-02 
1412	 5.27074144770621E-02 
1413	 5.26602222466034E-02 
1414	 5.26109274523519E-02 
1415	 5.25586441179574E-02 
1416	 5.25129862636878E-02 
1417	 5.24652374200383E-02 
1418	 5.24082578918817E-02 
1419	 5.23543843654444E-02 
1420	 5.23063373590285E-02 
1421	 5.22559647668234E-02 
1422	 5.22046921732518E-02 
1423	 5.21495337394864E-02 
1424	 5.20947845369879E-02 
1425	 5.20362128591373E-02 
1426	 5.19681342067781E-02 
1427	 5.19073461504738E-02 
1428	 5.18534059298087E-02 
1429	 5.17938766278897E-02 
1430	 5.17322752852993E-02 
1431	 0.051677064080333 
1432	 0.051602474723214 
1433	 5.15154920625059E-02 
1434	 5.14287524198799E-02 
1435	 5.13312444065553E-02 
1436	 5.12373005519969E-02 
1437	 5.11443591753493E-02 
1438	 5.10465949143328E-02 
1439	 5.09377190788383E-02 
1440	 5.08464694378733E-02 
1441	 5.07511213673274E-02 
1442	 5.06789996630559E-02 
1443	 0.050618733429511 
1444	 5.05789065664061E-02 
1445	 5.05564081219974E-02 
1446	 5.05486737633972E-02 
1447	 5.05581817450574E-02 
1448	 5.05843076801138E-02 
1449	 5.06253029760952E-02 
1450	 5.06821661230735E-02 
1451	 5.07687995477536E-02 
1452	 5.08489777317684E-02 
1453	 5.09463503670985E-02 
1454	 5.10309137728274E-02 
1455	 5.11099453337135E-02 
1456	 5.11897712067334E-02 
1457	 5.12689622728843E-02 
1458	 5.13420785782681E-02 
1459	 5.14166631755915E-02 
1460	 5.14808064626015E-02 
1461	 5.15313744375634E-02 
1462	 5.15841886528219E-02 
1463	 5.16315659328547E-02 
1464	 5.16795256852295E-02 
1465	 5.17239068473837E-02 
1466	 0.051776546879521 
1467	 5.18248580787581E-02 
1468	 5.18667105815094E-02 
1469	 5.19038954860343E-02 
1470	 5.19346395524278E-02 
1471	 0.051963138723978 
1472	 5.19837004420057E-02 
1473	 5.20057966167342E-02 
1474	 5.20239827805899E-02 
1475	 5.20517316976858E-02 
1476	 5.20834156428144E-02 
1477	 5.21085205415495E-02 
1478	 5.21444675408156E-02 
1479	 5.21558823346521E-02 
1480	 5.21485279473802E-02 
1481	 0.05214950727824 
1482	 5.21390515609907E-02 
1483	 0.052139801188261 
1484	 5.21474650499999E-02 
1485	 5.21518304550065E-02 
1486	 5.21539513545411E-02 
1487	 5.21654567833523E-02 
1488	 5.21816501209839E-02 
1489	 5.21977296703173E-02 
1490	 5.22158204172868E-02 
1491	 5.22435399818928E-02 
1492	 5.22745172597068E-02 
1493	 0.052308546198041 
1494	 5.23510059918004E-02 
1495	 5.23978952342964E-02 
1496	 5.24437959200192E-02 
1497	 5.24989108626873E-02 
1498	 5.25722868452075E-02 
1499	 5.26347078287816E-02 
1500	 5.26986079134267E-02 
1501	 5.27563812973909E-02 
1502	 5.28074514490675E-02 
1503	 5.28576087879605E-02 
1504	 5.29027218963074E-02 
1505	 5.29497339686269E-02 
1506	 5.30017236111894E-02 
1507	 5.30435982720951E-02 
1508	 5.30769930462114E-02 
1509	 5.31147013148966E-02 
1510	 5.31532145748418E-02 
1511	 5.31816560458669E-02 
1512	 5.32035412915948E-02 
1513	 5.32313837196449E-02 
1514	 5.32519317840235E-02 
1515	 5.32745814276238E-02 
1516	 5.33110825946634E-02 
1517	 5.33370635788262E-02 
1518	 5.33534006247265E-02 
1519	 5.33702868834136E-02 
1520	 0.053378526888333 
1521	 5.33956745895755E-02 
1522	 5.34192556247772E-02 
1523	 5.34275462784889E-02 
1524	 5.34354049882464E-02 
1525	 5.34401472514523E-02 
1526	 0.053448228845374 
1527	 5.34486369678751E-02 
1528	 5.34618631286233E-02 
1529	 5.34863809721729E-02 
1530	 5.34997358420253E-02 
1531	 5.35105868971048E-02 
1532	 5.35268155320834E-02 
1533	 5.35408320460977E-02 
1534	 5.35583131077621E-02 
1535	 5.35851116452668E-02 
1536	 5.36005121752623E-02 
1537	 5.36034470820928E-02 
1538	 5.36273700982756E-02 
1539	 5.36589824158937E-02 
1540	 5.36851900302463E-02 
1541	 5.37202888819469E-02 
1542	 5.37541743209694E-02 
1543	 0.05378070892984 
1544	 5.38137274560375E-02 
1545	 5.38595878178326E-02 
1546	 5.38934003883047E-02 
1547	 5.39152833214351E-02 
1548	 5.39516448924802E-02 
1549	 5.39883284457947E-02 
1550	 5.40353313752227E-02 
1551	 5.41011345945508E-02 
1552	 5.41482319462291E-02 
1553	 5.41927697735876E-02 
1554	 5.42355383714927E-02 
1555	 5.42648604171896E-02 
1556	 5.43055671999927E-02 
1557	 5.43538475223535E-02 
1558	 5.43984709708884E-02 
1559	 0.054445460662224 
1560	 5.44886172483411E-02 
1561	 5.45350748831363E-02 
1562	 5.45689612950147E-02 
1563	 5.45886678028241E-02 
1564	 5.46208594866408E-02 
1565	 5.46487775686491E-02 
1566	 5.46831220224505E-02 
1567	 5.47313673583668E-02 
1568	 5.47713564851388E-02 
1569	 5.48121684254592E-02 
1570	 5.48437338472119E-02 
1571	 5.48661278830378E-02 
1572	 5.48951370135961E-02 
1573	 5.49204663826168E-02 
1574	 5.49463439431493E-02 
1575	 5.49749270268078E-02 
1576	 5.50069597215202E-02 
1577	 5.50394086580928E-02 
1578	 5.50701120815342E-02 
1579	 5.51086913802412E-02 
1580	 5.51387523410712E-02 
1581	 5.51564687799543E-02 
1582	 5.51831211158269E-02 
1583	 5.52147506270621E-02 
1584	 5.52417303211314E-02 
1585	 5.52665834500436E-02 
1586	 5.52962393287986E-02 
1587	 5.53284678705281E-02 
1588	 5.53555697519887E-02 
1589	 5.53849668924593E-02 
1590	 5.54124981190064E-02 
1591	 5.54291228512074E-02 
1592	 5.54549233753038E-02 
1593	 0.055494061281217 
1594	 5.55204355135075E-02 
1595	 5.55329870441343E-02 
1596	 5.55627056366442E-02 
1597	 5.55983511046221E-02 
1598	 5.56300069450479E-02 
1599	 5.56777790483263E-02 
1600	 5.57135638807702E-02 
1601	 5.57319640567237E-02 
1602	 5.57583698521133E-02 
1603	 5.57900225165416E-02 
1604	 5.58164195932778E-02 
1605	 5.58389641058311E-02 
1606	 5.58651565468529E-02 
1607	 5.58875825314265E-02 
1608	 5.59161109879409E-02 
1609	 5.59624756078528E-02 
1610	 0.055987479765471 
1611	 5.59948039909294E-02 
1612	 5.60153118511347E-02 
1613	 5.60288033937068E-02 
1614	 5.60467210190232E-02 
1615	 5.60811436392623E-02 
1616	 5.61085553707556E-02 
1617	 5.61227288606414E-02 
1618	 5.61479895972749E-02 
1619	 5.61885479390187E-02 
1620	 5.62143558247722E-02 
1621	 5.62352531080494E-02 
1622	 5.62579058510319E-02 
1623	 5.62695427636097E-02 
1624	 5.62889340226858E-02 
1625	 5.63083228514819E-02 
1626	 5.63401444955974E-02 
1627	 5.63944111872632E-02 
1628	 5.64239670216368E-02 
1629	 0.05644828161052 
1630	 0.056472607618069 
1631	 5.64754413641585E-02 
1632	 5.64876796363949E-02 
1633	 5.65120955188863E-02 
1634	 0.056533013869112 
1635	 5.65449865638217E-02 
1636	 5.65658904038051E-02 
1637	 5.66036862523632E-02 
1638	 5.66231320413321E-02 
1639	 5.66328422256749E-02 
1640	 5.66498007291202E-02 
1641	 5.66525393005318E-02 
1642	 5.66674152149454E-02 
1643	 5.67030781347075E-02 
1644	 5.67244199859369E-02 
1645	 5.67391996649037E-02 
1646	 5.67585308456224E-02 
1647	 5.67730226572094E-02 
1648	 5.67911611652084E-02 
1649	 5.68225737849744E-02 
1650	 5.68355121181733E-02 
1651	 5.68326102639552E-02 
1652	 5.68404676302939E-02 
1653	 5.68395623398743E-02 
1654	 5.68508998495027E-02 
1655	 5.68776584315119E-02 
1656	 0.056899406299902 
1657	 5.69287031220859E-02 
1658	 5.69448160998224E-02 
1659	 5.69559672347549E-02 
1660	 5.69634953615936E-02 
1661	 5.69536458873903E-02 
1662	 5.69568305539774E-02 
1663	 5.69695297322047E-02 
1664	 5.69752020933984E-02 
1665	 5.69842236680109E-02 
1666	 5.69879899722883E-02 
1667	 5.69793833144335E-02 
1668	 5.69800702212104E-02 
1669	 5.69870149994375E-02 
1670	 5.69902236133205E-02 
1671	 5.70053725588487E-02 
1672	 5.69979669442328E-02 
1673	 5.69670596252651E-02 
1674	 5.69533544919993E-02 
1675	 5.69379858601755E-02 
1676	 5.69189559374686E-02 
1677	 0.056907262224665 
1678	 5.68992279526674E-02 
1679	 5.68868061489256E-02 
1680	 5.68719729125693E-02 
1681	 5.68610742814992E-02 
1682	 0.056851788926524 
1683	 5.68397859325804E-02 
1684	 5.68220332937154E-02 
1685	 0.056812836274616 
1686	 5.67919520488083E-02 
1687	 5.67477365999948E-02 
1688	 0.056724081482585 
1689	 5.67199836764771E-02 
1690	 0.056689139299848 
1691	 5.66424157092779E-02 
1692	 5.66183591078439E-02 
1693	 5.65918673916247E-02 
1694	 5.65661290452989E-02 
1695	 0.056569308943381 
1696	 5.65303956276307E-02 
1697	 5.64576293062286E-02 
1698	 0.056405362893333 
1699	 0.056342530963233 
1700	 5.63035100079418E-02 
1701	 5.62791586025356E-02 
1702	 5.62469058370576E-02 
1703	 0.056226176027026 
1704	 5.61892329610633E-02 
1705	 5.61454923717003E-02 
1706	 5.60961366976788E-02 
1707	 5.60555995561934E-02 
1708	 5.60343518908047E-02 
1709	 5.60019869404269E-02 
1710	 5.59690896251098E-02 
1711	 5.59353046840293E-02 
1712	 5.58954864647761E-02 
1713	 0.055853985779053 
1714	 5.58139263459648E-02 
1715	 5.57662440703151E-02 
1716	 5.57055134475665E-02 
1717	 5.56501600137302E-02 
1718	 5.55915433347323E-02 
1719	 5.55317987132389E-02 
1720	 5.54869936301906E-02 
1721	 5.54261224182262E-02 
1722	 0.055361324450145 
1723	 5.53114711343758E-02 
1724	 5.52445588856761E-02 
1725	 5.51963982029271E-02 
1726	 5.51790745251932E-02 
1727	 0.055155028681374 
1728	 5.51471665051406E-02 
1729	 0.055127994176778 
1730	 5.50839665014594E-02 
1731	 5.50595050475982E-02 
1732	 5.50382955237127E-02 
1733	 0.055021034162145 
1734	 5.50206204446125E-02 
1735	 5.50092569764162E-02 
1736	 5.49901661016332E-02 
1737	 5.49723872759264E-02 
1738	 5.49518014682493E-02 
1739	 0.054922891131103 
1740	 5.48776714033089E-02 
1741	 5.48473749260424E-02 
1742	 5.48226198640439E-02 
1743	 5.47959243949536E-02 
1744	 5.47722739897606E-02 
1745	 5.47523714092252E-02 
1746	 5.47183077762569E-02 
1747	 5.47115561062533E-02 
1748	 5.47395135201201E-02 
1749	 5.47472420319904E-02 
1750	 5.47549386142036E-02 
1751	 5.47651429910916E-02 
1752	 5.47548776340682E-02 
1753	 5.47753178776759E-02 
1754	 0.054828876926213 
1755	 5.48604862949478E-02 
1756	 5.48901514864046E-02 
1757	 5.49295941138254E-02 
1758	 0.054959067119585 
1759	 5.49934824149032E-02 
1760	 5.50443875612897E-02 
1761	 5.50910131863091E-02 
1762	 5.51282780663876E-02 
1763	 5.51877409723784E-02 
1764	 5.52529735914811E-02 
1765	 5.52962844103203E-02 
1766	 5.53469402464351E-02 
1767	 5.53944912911687E-02 
1768	 5.54339485796035E-02 
1769	 5.54837010226961E-02 
1770	 5.55276013019656E-02 
1771	 5.55538042329057E-02 
1772	 5.55698618881696E-02 
1773	 0.055595428729137 
1774	 5.56261235372825E-02 
1775	 0.05566443731882 
1776	 5.57227742130043E-02 
1777	 5.57752919148454E-02 
1778	 5.58147205264511E-02 
1779	 5.58561689184345E-02 
1780	 5.58800532209702E-02 
1781	 5.58904561988965E-02 
1782	 5.59207729554471E-02 
1783	 5.59558055672356E-02 
1784	 5.60091834735559E-02 
1785	 5.60857553531611E-02 
1786	 5.61323398195127E-02 
1787	 5.61686159992054E-02 
1788	 0.056208481301695 
1789	 5.62355229852826E-02 
1790	 5.62840978264211E-02 
1791	 5.63443047771121E-02 
1792	 5.64006845612625E-02 
1793	 5.64713146695192E-02 
1794	 5.64919654828054E-02 
1795	 5.65374234680939E-02 
1796	 5.65591610224725E-02 
1797	 5.65751191335558E-02 
1798	 5.66304863664025E-02 
1799	 5.66624529479921E-02 
1800	 5.67136748144396E-02 
1801	 5.89716627381605E-02 
1802	 5.90072096238485E-02 
1803	 5.90434036757762E-02 
1804	 5.90726982761414E-02 
1805	 5.91059041693814E-02 
1806	 5.91389752739422E-02 
1807	 0.059179770820271 
1808	 5.92154189753425E-02 
1809	 5.92451087289619E-02 
1810	 5.92780065086954E-02 
1811	 5.93167291067685E-02 
1812	 5.93475586711153E-02 
1813	 5.93654680799287E-02 
1814	 5.93964690798788E-02 
1815	 5.94450873697885E-02 
1816	 5.94962669947879E-02 
1817	 5.95315026680637E-02 
1818	 5.95681067152707E-02 
1819	 5.96038610043749E-02 
1820	 5.96199719645022E-02 
1821	 5.96471671102279E-02 
1822	 5.96825030414782E-02 
1823	 0.059729167238635 
1824	 5.97564383436899E-02 
1825	 5.97804049219703E-02 
1826	 5.98031120376154E-02 
1827	 5.98198033001609E-02 
1828	 5.98417225605409E-02 
1829	 5.98657646144225E-02 
1830	 5.98829819156406E-02 
1831	 5.98987472668295E-02 
1832	 5.99129201800332E-02 
1833	 5.99284959626794E-02 
1834	 5.99494792436451E-02 
1835	 5.99743892747097E-02 
1836	 0.060003782522218 
1837	 6.00224735090082E-02 
1838	 0.060030634231094 
1839	 6.00487826864772E-02 
1840	 6.00630852950739E-02 
1841	 0.060082286412122 
1842	 6.01136656846379E-02 
1843	 6.01334418043258E-02 
1844	 6.01454560411194E-02 
1845	 6.01653032348839E-02 
1846	 6.01781333893365E-02 
1847	 6.01828279189842E-02 
1848	 6.01818681867356E-02 
1849	 6.01736569557553E-02 
1850	 6.01706253934508E-02 
1851	 6.01637740956909E-02 
1852	 6.01564508438011E-02 
1853	 6.01506900563005E-02 
1854	 6.01226421002059E-02 
1855	 6.00806180499738E-02 
1856	 0.060054587771515 
1857	 6.00411358030658E-02 
1858	 6.00257726424123E-02 
1859	 6.00010879549555E-02 
1860	 0.059979939391112 
1861	 5.99425701142221E-02 
1862	 5.98882223331768E-02 
1863	 0.059840660716662 
1864	 5.97835984730848E-02 
1865	 5.97190143413696E-02 
1866	 5.96474150714022E-02 
1867	 5.95634757936964E-02 
1868	 5.94910201377969E-02 
1869	 5.94130898718928E-02 
1870	 0.059324650100673 
1871	 5.92365492602421E-02 
1872	 5.91372694507016E-02 
1873	 5.90189213067682E-02 
1874	 5.89110261716739E-02 
1875	 5.88144838300913E-02 
1876	 5.86859483226072E-02 
1877	 5.85698191121643E-02 
1878	 5.84473487461658E-02 
1879	 5.82976981078483E-02 
1880	 5.81702903373307E-02 
1881	 5.80245559555537E-02 
1882	 5.78714270190663E-02 
1883	 5.77011234608731E-02 
1884	 5.75332479101592E-02 
1885	 5.73464279954743E-02 
1886	 0.057162394135391 
1887	 5.69696073891709E-02 
1888	 5.67742641170193E-02 
1889	 5.65950344629743E-02 
1890	 5.64049125268514E-02 
1891	 5.62178064307179E-02 
1892	 5.60242798829796E-02 
1893	 0.055818227458544 
1894	 5.55931992879117E-02 
1895	 5.53733989904482E-02 
1896	 5.51545458778351E-02 
1897	 5.49340027106839E-02 
1898	 5.47137439237297E-02 
1899	 5.44853114003856E-02 
1900	 5.42485372956275E-02 
1901	 5.40038792659963E-02 
1902	 5.37494405523903E-02 
1903	 5.35059561735749E-02 
1904	 0.05326438783079 
1905	 5.30264166420651E-02 
1906	 5.27790819297624E-02 
1907	 5.25485529148596E-02 
1908	 5.23200843660343E-02 
1909	 5.20815735586054E-02 
1910	 0.051856288694784 
1911	 5.16163647164994E-02 
1912	 5.13700145726706E-02 
1913	 5.11250485067473E-02 
1914	 5.08741910953412E-02 
1915	 5.06335328313786E-02 
1916	 5.04088238060618E-02 
1917	 5.01635505398027E-02 
1918	 4.99093505535476E-02 
1919	 4.96509982039662E-02 
1920	 4.93578807419269E-02 
1921	 4.90791250969631E-02 
1922	 4.87883188836405E-02 
1923	 4.84853554016388E-02 
1924	 4.82068997918846E-02 
1925	 4.79009480402633E-02 
1926	 4.76053897225099E-02 
1927	 4.73224766913979E-02 
1928	 0.047028544202415 
1929	 4.67174879598652E-02 
1930	 4.64319299680491E-02 
1931	 4.61548678212287E-02 
1932	 4.58835933759709E-02 
1933	 4.56349944366033E-02 
1934	 4.54056935455893E-02 
1935	 4.52094057310469E-02 
1936	 0.045029188538528 
1937	 4.48740602787492E-02 
1938	 0.044752210175467 
1939	 4.46592208469558E-02 
1940	 4.45855422272555E-02 
1941	 4.45343765420776E-02 
1942	 0.044529735929232 
1943	 4.45341597756461E-02 
1944	 4.45558012137973E-02 
1945	 4.46322953748962E-02 
1946	 4.47427065377103E-02 
1947	 4.48636070588965E-02 
1948	 4.50179589887926E-02 
1949	 4.51996525097969E-02 
1950	 0.04540129390577 
1951	 4.56244718981041E-02 
1952	 4.58830868659488E-02 
1953	 4.61755381998786E-02 
1954	 4.64820856384756E-02 
1955	 0.046809015568672 
1956	 4.71291201410998E-02 
1957	 4.74403062166741E-02 
1958	 4.77422690292108E-02 
1959	 4.80281922080503E-02 
1960	 4.83010321986052E-02 
1961	 4.85372845595453E-02 
1962	 4.87425680777664E-02 
1963	 4.89295791975151E-02 
1964	 4.90880506924383E-02 
1965	 4.92234647802301E-02 
1966	 4.93391941927441E-02 
1967	 4.94331280226484E-02 
1968	 4.94888713742541E-02 
1969	 4.95509292735604E-02 
1970	 4.96215199183038E-02 
1971	 4.96907976055181E-02 
1972	 4.97769892299662E-02 
1973	 4.98583145129888E-02 
1974	 4.99464006087279E-02 
1975	 5.00321732968774E-02 
1976	 5.01338329797342E-02 
1977	 5.02476599764747E-02 
1978	 5.03676164995047E-02 
1979	 5.04974342741144E-02 
1980	 5.06307730152606E-02 
1981	 5.07726458345244E-02 
1982	 5.08992874593335E-02 
1983	 5.10390120699644E-02 
1984	 5.12006582480599E-02 
1985	 5.13601755908657E-02 
1986	 5.15366167060323E-02 
1987	 5.17257272098633E-02 
1988	 5.19178165877561E-02 
1989	 0.052134504997456 
1990	 5.23752900294357E-02 
1991	 0.052625383044256 
1992	 5.28948171350086E-02 
1993	 0.05317624517296 
1994	 5.34584185338679E-02 
1995	 5.37495990266824E-02 
1996	 5.40389716176754E-02 
1997	 5.43390711634293E-02 
1998	 5.46439971101153E-02 
1999	 0.054962547640971 
2000	 5.52593351298873E-02 
2001	 5.55671920606344E-02 
2002	 5.58427607883875E-02 
2003	 5.60929430477588E-02 
2004	 5.63423327334872E-02 
2005	 5.65756558571799E-02 
2006	 5.68053816589123E-02 
2007	 5.70324041612228E-02 
2008	 5.72431393070191E-02 
2009	 0.057454147952788 
2010	 5.76423175477397E-02 
2011	 5.78084491274184E-02 
2012	 5.79738997604795E-02 
2013	 5.81267286023526E-02 
2014	 5.82545792029087E-02 
2015	 5.83965329589073E-02 
2016	 5.85422277602508E-02 
2017	 5.86758972557931E-02 
2018	 5.88163635043128E-02 
2019	 5.89357103529317E-02 
2020	 5.90373070746293E-02 
2021	 5.91326198491739E-02 
2022	 5.92206097263804E-02 
2023	 5.93120450437045E-02 
2024	 5.94060401249043E-02 
2025	 5.94872285136863E-02 
2026	 5.95599239465651E-02 
2027	 5.96210365713558E-02 
2028	 5.96816999782324E-02 
2029	 5.97287740932255E-02 
2030	 5.97849954815138E-02 
2031	 0.059843686736895 
2032	 5.98993246063934E-02 
2033	 5.99552143787261E-02 
2034	 6.00127772500016E-02 
2035	 6.00767407521139E-02 
2036	 0.060127618305581 
2037	 6.01629812852025E-02 
2038	 6.02123917818675E-02 
2039	 6.02691338391916E-02 
2040	 6.03288708726851E-02 
2041	 6.03816827027454E-02 
2042	 6.04461113968867E-02 
2043	 6.04991250907923E-02 
2044	 6.05322604538173E-02 
2045	 6.05790909887867E-02 
2046	 6.06392840404071E-02 
2047	 6.06909789538697E-02 
2048	 6.07372212439274E-02 
2049	 6.07831959843403E-02 
2050	 6.08284844229085E-02 
2051	 6.08701580897696E-02 
2052	 6.09061063421767E-02 
2053	 6.09648368608693E-02 
2054	 6.10115990365725E-02 
2055	 6.10627530285054E-02 
2056	 6.10977478044256E-02 
2057	 6.11143406543946E-02 
2058	 6.11517254929703E-02 
2059	 6.11911053040452E-02 
2060	 6.12310164067063E-02 
2061	 6.12860618492898E-02 
2062	 6.13345680433224E-02 
2063	 0.061376122705009 
2064	 6.14155202327724E-02 
2065	 6.14551473578043E-02 
2066	 6.14979155260504E-02 
2067	 0.061532016569281 
2068	 6.15666267655316E-02 
2069	 6.16026045506978E-02 
2070	 0.061647044267035 
2071	 6.16764053178451E-02 
2072	 6.16915074727678E-02 
2073	 6.17225295972191E-02 
2074	 6.17487649939832E-02 
2075	 6.17836935990675E-02 
2076	 6.18444387117124E-02 
2077	 6.18809598416975E-02 
2078	 6.19066000326283E-02 
2079	 6.19347782130169E-02 
2080	 6.19453895357488E-02 
2081	 6.19691426602391E-02 
2082	 6.20090387321299E-02 
2083	 6.20352975174137E-02 
2084	 6.20618145725693E-02 
2085	 6.20919053578984E-02 
2086	 6.21110325500453E-02 
2087	 6.21224620637848E-02 
2088	 6.21290381903134E-02 
2089	 6.21198305819383E-02 
2090	 6.21276988699182E-02 
2091	 0.062136566503205 
2092	 6.21511039880115E-02 
2093	 6.21856256268011E-02 
2094	 6.22047943031003E-02 
2095	 6.22185389687233E-02 
2096	 6.22263913942059E-02 
2097	 0.062228205233939 
2098	 6.22281520572149E-02 
2099	 6.22102939622457E-02 
2100	 6.21990055865368E-02 
2101	 6.21960367509833E-02 
2102	 6.21927871897302E-02 
2103	 0.062190705260791 
2104	 6.22007852690251E-02 
2105	 6.22022954490839E-02 
2106	 6.21990249777816E-02 
2107	 6.21960362622745E-02 
2108	 6.21956611558345E-02 
2109	 6.21893791015474E-02 
2110	 6.21679748660755E-02 
2111	 6.21624388127808E-02 
2112	 6.21683680369137E-02 
2113	 6.21666513073928E-02 
2114	 6.21716750715051E-02 
2115	 6.21720046555135E-02 
2116	 6.21622968283175E-02 
2117	 6.21520906949871E-02 
2118	 6.21522700464915E-02 
2119	 6.21601720185822E-02 
2120	 6.21593043498513E-02 
2121	 6.21687383734616E-02 
2122	 6.21572898245095E-02 
2123	 0.062125898941738 
2124	 0.062111246800872 
2125	 6.20881437355126E-02 
2126	 0.062075430959444 
2127	 6.20789828354272E-02 
2128	 0.062074062573253 
2129	 6.20764725560948E-02 
2130	 6.20655179337496E-02 
2131	 6.20438921758281E-02 
2132	 6.20248737402807E-02 
2133	 6.20023591190884E-02 
2134	 6.19697157284744E-02 
2135	 6.19349632890751E-02 
2136	 6.19135875109569E-02 
2137	 6.18940191694357E-02 
2138	 6.18773602594508E-02 
2139	 6.18495986278907E-02 
2140	 0.061830876404239 
2141	 6.17959567793614E-02 
2142	 6.17376152280954E-02 
2143	 6.16968563719329E-02 
2144	 6.16602054480791E-02 
2145	 6.16227754366907E-02 
2146	 6.15896834623947E-02 
2147	 6.15526425953664E-02 
2148	 0.061515445420644 
2149	 6.14752058263903E-02 
2150	 6.14362828057938E-02 
2151	 6.13923136535839E-02 
2152	 6.13526378853669E-02 
2153	 6.12903270003914E-02 
2154	 6.12330148736805E-02 
2155	 6.11737644628544E-02 
2156	 6.11265827331762E-02 
2157	 6.10916440122981E-02 
2158	 6.10374595863197E-02 
2159	 6.09820692823542E-02 
2160	 6.09251030812862E-02 
2161	 6.08549290900551E-02 
2162	 6.07900543957992E-02 
2163	 6.07308552425052E-02 
2164	 6.06687846658925E-02 
2165	 6.05907796670131E-02 
2166	 0.060534606661004 
2167	 6.05065595480468E-02 
2168	 6.04508960978182E-02 
2169	 6.03808271902826E-02 
2170	 6.03282970075017E-02 
2171	 6.02612925469671E-02 
2172	 0.060210657307386 
2173	 6.01830065171532E-02 
2174	 6.01632410161075E-02 
2175	 6.01282322132909E-02 
2176	 0.060094122192563 
2177	 6.00628007379293E-02 
2178	 6.00308808806145E-02 
2179	 0.059999375212551 
2180	 5.99679168753577E-02 
2181	 5.99448195456726E-02 
2182	 5.99231601991657E-02 
2183	 0.05990740034409 
2184	 5.99091012957968E-02 
2185	 5.98913672434631E-02 
2186	 5.98613166150438E-02 
2187	 5.98425167940588E-02 
2188	 5.98278786657522E-02 
2189	 5.98007008993059E-02 
2190	 5.97676032995863E-02 
2191	 5.97444627629318E-02 
2192	 5.97189137880585E-02 
2193	 5.96872177034154E-02 
2194	 5.96638696240166E-02 
2195	 5.96388640943979E-02 
2196	 5.96029459301522E-02 
2197	 5.95664431903504E-02 
2198	 5.95393440307587E-02 
2199	 5.95039828302943E-02 
2200	 5.94765548917886E-02 
2201	 5.94475922582927E-02 
2202	 5.94165781740855E-02 
2203	 5.93993011108453E-02 
2204	 5.93585199883286E-02 
2205	 0.059293244800018 
2206	 5.92517478762733E-02 
2207	 5.91993784568487E-02 
2208	 5.91759506879021E-02 
2209	 5.91856459942666E-02 
2210	 5.91769373918174E-02 
2211	 0.059174426791727 
2212	 5.91695420109126E-02 
2213	 5.91526081536013E-02 
2214	 5.91477527020764E-02 
2215	 5.91516132058634E-02 
2216	 5.91571239410226E-02 
2217	 5.91493588489835E-02 
2218	 5.91754772292818E-02 
2219	 0.059229547896868 
2220	 5.92779068144247E-02 
2221	 5.93431849576008E-02 
2222	 0.059421115712129 
2223	 5.94717436656052E-02 
2224	 5.95167970489001E-02 
2225	 5.95797929200739E-02 
2226	 5.96250475109995E-02 
2227	 5.96796368499174E-02 
2228	 5.97409751333126E-02 
2229	 5.97955450993587E-02 
2230	 5.98499036923673E-02 
2231	 5.98996956145849E-02 
2232	 5.99528042794182E-02 
2233	 5.99816724222014E-02 
2234	 0.059992030036025 
2235	 6.00111247024244E-02 
2236	 6.00106811507436E-02 
2237	 6.00301768543805E-02 
2238	 6.00778470907883E-02 
2239	 6.00928162199873E-02 
2240	 6.00974030059374E-02 
2241	 6.00980226280392E-02 
2242	 6.00947762915756E-02 
2243	 6.00658120331758E-02 
2244	 6.00157322126297E-02 
2245	 5.99714221493306E-02 
2246	 5.99078672501533E-02 
2247	 5.98414876567068E-02 
2248	 5.97782294026202E-02 
2249	 5.97107060833049E-02 
2250	 5.96416007268472E-02 
2251	 5.95503299376635E-02 
2252	 5.94327591098746E-02 
2253	 5.93597338841466E-02 
2254	 5.92889492942766E-02 
2255	 5.91981086666999E-02 
2256	 5.91327247382674E-02 
2257	 5.90545049575478E-02 
2258	 5.89776001846131E-02 
2259	 5.88772597817703E-02 
2260	 5.88144209859307E-02 
2261	 5.87829666151186E-02 
2262	 5.87188856181485E-02 
2263	 5.86602704997413E-02 
2264	 0.058578125421557 
2265	 5.84533619500523E-02 
2266	 5.83746519032603E-02 
2267	 5.83010051592474E-02 
2268	 5.82493674705265E-02 
2269	 5.82295213816369E-02 
2270	 5.81999112445485E-02 
2271	 0.058180963510077 
2272	 5.81580771706081E-02 
2273	 5.81515350748917E-02 
2274	 5.81207179033025E-02 
2275	 5.80593423053171E-02 
2276	 0.058027533527269 
2277	 0.057995807041617 
2278	 5.79629799069242E-02 
2279	 5.79632901441435E-02 
2280	 0.057941113974408 
2281	 5.78927885054868E-02 
2282	 5.78571765773316E-02 
2283	 5.78211739269428E-02 
2284	 5.77936624160622E-02 
2285	 5.77589829315349E-02 
2286	 5.77084040278972E-02 
2287	 5.76809761235949E-02 
2288	 5.76172771909122E-02 
2289	 5.75468146511247E-02 
2290	 5.74953565660868E-02 
2291	 5.74333221391726E-02 
2292	 5.73702261904914E-02 
2293	 0.057300513235302 
2294	 5.72434942712738E-02 
2295	 5.72089503271053E-02 
2296	 5.71614407332265E-02 
2297	 5.71302819747374E-02 
2298	 5.71244702219331E-02 
2299	 5.71222759397682E-02 
2300	 5.71235097072873E-02 
2301	 5.71369581121458E-02 
2302	 5.71593257109298E-02 
2303	 5.71882099353191E-02 
2304	 5.72051907424035E-02 
2305	 5.72711752225693E-02 
2306	 5.73825565838639E-02 
2307	 5.74887272630459E-02 
2308	 0.057630137816271 
2309	 5.77462687151571E-02 
2310	 5.78447342152934E-02 
2311	 5.79656809140771E-02 
2312	 5.80855580174978E-02 
2313	 5.82170817012598E-02 
2314	 5.83812480377191E-02 
2315	 5.85226282442799E-02 
2316	 5.86783291058848E-02 
2317	 5.87990898564704E-02 
2318	 0.058887092276663 
2319	 5.89714107584596E-02 
2320	 5.90221679752059E-02 
2321	 0.059085333760976 
2322	 0.05916448901214 
2323	 5.92222779452873E-02 
2324	 5.92730713054235E-02 
2325	 5.93144376068513E-02 
2326	 5.93423552774951E-02 
2327	 5.93462059366251E-02 
2328	 5.93274653125521E-02 
2329	 5.93130004644771E-02 
2330	 5.92889292422341E-02 
2331	 5.92463339547111E-02 
2332	 5.92009650350802E-02 
2333	 5.91840648642621E-02 
2334	 0.059117609951969 
2335	 5.90514970962797E-02 
2336	 5.90008370539571E-02 
2337	 5.88660165167532E-02 
2338	 5.87749511868407E-02 
2339	 0.05871305439458 
2340	 5.86408326556901E-02 
2341	 5.86222245904318E-02 
2342	 0.058557820432915 
2343	 5.84616662561774E-02 
2344	 5.84072485548375E-02 
2345	 5.83613684129887E-02 
2346	 5.83074874907397E-02 
2347	 5.83148873758525E-02 
2348	 5.83271141579408E-02 
2349	 5.83055196425094E-02 
2350	 5.83630503856839E-02 
2351	 5.84452402276571E-02 
2352	 5.84842581227956E-02 
2353	 5.85365016287564E-02 
2354	 5.86050720127874E-02 
2355	 5.86608841405079E-02 
2356	 5.86963119041028E-02 
2357	 5.87265293942617E-02 
2358	 5.86995989125947E-02 
2359	 0.058623913789605 
2360	 5.85880662486105E-02 
2361	 5.85548936228131E-02 
2362	 5.85089953440553E-02 
2363	 5.84654220792888E-02 
2364	 5.84249332185888E-02 
2365	 5.83931391800035E-02 
2366	 5.83719784255712E-02 
2367	 5.83442140689489E-02 
2368	 0.058309542051159 
2369	 5.82776802709197E-02 
2370	 5.82308536280306E-02 
2371	 0.058158897965007 
2372	 5.80230026427696E-02 
2373	 5.78418384276791E-02 
2374	 0.057710442322043 
2375	 0.057666080136639 
2376	 5.76569038264717E-02 
2377	 5.76620856268065E-02 
2378	 5.76253213547532E-02 
2379	 5.75124675896262E-02 
2380	 5.73627761275234E-02 
2381	 5.72027538334092E-02 
2382	 0.057093957150573 
2383	 5.70049513318312E-02 
2384	 5.69158878173775E-02 
2385	 5.68966473253651E-02 
2386	 5.68037417384979E-02 
2387	 0.056647962141252 
2388	 5.65296850680909E-02 
2389	 5.64271119873068E-02 
2390	 5.62590397340552E-02 
2391	 5.60545256168396E-02 
2392	 5.58918128643571E-02 
2393	 5.57049401423116E-02 
2394	 5.55382976346899E-02 
2395	 5.54051657514751E-02 
2396	 0.055281521888745 
2397	 0.055160848236072 
2398	 5.49950407450098E-02 
2399	 5.48399098118438E-02 
2400	 5.46974806011892E-02 
2401	 5.44980510120075E-02 
2402	 5.43436795117056E-02 
2403	 0.054244292731776 
2404	 0.054141970692583 
2405	 5.39564346778566E-02 
2406	 5.37537560269916E-02 
2407	 5.36400278699602E-02 
2408	 5.34688860599375E-02 
2409	 5.33278257953447E-02 
2410	 5.32389241424417E-02 
2411	 0.053057819034464 
2412	 5.29036859970863E-02 
2413	 5.28143645451281E-02 
2414	 5.27550521410019E-02 
2415	 5.27152342835782E-02 
2416	 5.26737710110043E-02 
2417	 5.25608387972104E-02 
2418	 0.052425075661741 
2419	 0.052330343728892 
2420	 5.21640127679284E-02 
2421	 5.20428504500594E-02 
2422	 5.20667977568893E-02 
2423	 5.20466595140833E-02 
2424	 5.19925011530223E-02 
2425	 5.20316617425503E-02 
2426	 5.19610863238008E-02 
2427	 5.17893176836957E-02 
2428	 5.17362111572736E-02 
2429	 5.17095294100851E-02 
2430	 5.15993683147404E-02 
2431	 5.15138030511829E-02 
2432	 5.14736834604714E-02 
2433	 5.13576811150978E-02 
2434	 5.13412134470874E-02 
2435	 5.14108060814563E-02 
2436	 5.13518600129306E-02 
2437	 0.051297499381828 
2438	 5.12315472529857E-02 
2439	 0.051098877058956 
2440	 5.11245506403533E-02 
2441	 5.12021764447344E-02 
2442	 5.12060774510239E-02 
2443	 5.12240613650292E-02 
2444	 5.12038842102414E-02 
2445	 5.12448009942041E-02 
2446	 5.12578122106006E-02 
2447	 5.12176279711918E-02 
2448	 0.051225849214611 
2449	 5.11405786195177E-02 
2450	 5.09937912098863E-02 
2451	 5.09121681907888E-02 
2452	 5.09045453033675E-02 
2453	 5.07663808121959E-02 
2454	 5.06052909333679E-02 
2455	 5.06093656422303E-02 
2456	 5.05101007415549E-02 
2457	 5.03924138436623E-02 
2458	 0.050318710573538 
2459	 5.02196931807782E-02 
2460	 0.050173780667717 
2461	 5.00614219698447E-02 
2462	 5.01221361264226E-02 
2463	 5.02469624881168E-02 
2464	 5.01589468504178E-02 
2465	 5.01056687058273E-02 
2466	 5.00599415954771E-02 
2467	 0.04995469092778 
2468	 4.98443262808398E-02 
2469	 4.97969855589586E-02 
2470	 4.96952507026846E-02 
2471	 0.049622148214021 
2472	 4.97393811591029E-02 
2473	 4.98240669299788E-02 
2474	 4.98768925546375E-02 
2475	 4.97567207093569E-02 
2476	 4.95505134797167E-02 
2477	 4.94284912064828E-02 
2478	 4.93397185065926E-02 
2479	 4.94562920109791E-02 
2480	 4.95998977554729E-02 
2481	 4.95928560047973E-02 
2482	 4.96475706904955E-02 
2483	 4.94083233602646E-02 
2484	 4.92578864400276E-02 
2485	 4.94662722468638E-02 
2486	 4.93892947230617E-02 
2487	 4.94475783641629E-02 
2488	 4.94910152608679E-02 
2489	 4.91504408501867E-02 
2490	 4.90977446662743E-02 
2491	 4.91737023909324E-02 
2492	 0.049280694643262 
2493	 4.93695219214596E-02 
2494	 4.92939443149724E-02 
2495	 0.049134905029373 
2496	 4.89655650353885E-02 
2497	 4.92093005435092E-02 
2498	 4.96827298323852E-02 
2499	 4.99715844932003E-02 
2500	 0.05001224266962 
