Wavelength	spectrum00019.asd
350	 4.08129248151606E-02 
351	 4.10608163980323E-02 
352	 3.90639974800282E-02 
353	 3.66108450759531E-02 
354	 0.037947563084677 
355	 3.93533023484651E-02 
356	 3.94361393616091E-02 
357	 3.81013451021325E-02 
358	 3.70494469517692E-02 
359	 3.65234111465622E-02 
360	 3.70416469496146E-02 
361	 3.86524175035977E-02 
362	 3.68646591174735E-02 
363	 3.60242825965268E-02 
364	 3.70554065235108E-02 
365	 3.53357718355996E-02 
366	 3.64573409779572E-02 
367	 3.75657903026985E-02 
368	 3.60470602076617E-02 
369	 3.67202910820889E-02 
370	 3.78003433192718E-02 
371	 3.82653042926061E-02 
372	 3.77200911818427E-02 
373	 3.69621423163014E-02 
374	 3.61213559160431E-02 
375	 0.035670834286509 
376	 3.66994385224171E-02 
377	 0.036910529804872 
378	 3.67875294533239E-02 
379	 3.70620133756167E-02 
380	 3.64677964022242E-02 
381	 3.67069503975414E-02 
382	 3.70627286991539E-02 
383	 3.57655943265058E-02 
384	 3.60141648050442E-02 
385	 3.70059849786495E-02 
386	 3.75224671381201E-02 
387	 3.64314308168718E-02 
388	 0.036354960166488 
389	 0.036680494432499 
390	 3.63570415681319E-02 
391	 3.62898252596199E-02 
392	 3.62212484880841E-02 
393	 3.61934539752985E-02 
394	 3.64198668039136E-02 
395	 3.66438046853303E-02 
396	 3.68436875799525E-02 
397	 3.68755864792658E-02 
398	 3.62899687332397E-02 
399	 3.60589834040749E-02 
400	 3.62114130193295E-02 
401	 3.64231450403339E-02 
402	 3.62189364881691E-02 
403	 3.63513348401304E-02 
404	 3.66631698644234E-02 
405	 3.63736347540196E-02 
406	 3.62338777457076E-02 
407	 3.63637393395075E-02 
408	 3.65840143563507E-02 
409	 3.63073032560105E-02 
410	 3.62114650343626E-02 
411	 3.62021371557135E-02 
412	 3.60750432971545E-02 
413	 3.65181278708923E-02 
414	 0.036322905620372 
415	 3.56688430804897E-02 
416	 3.59654031003873E-02 
417	 3.61308207541248E-02 
418	 3.60733016385429E-02 
419	 3.59426523664884E-02 
420	 3.60439550704831E-02 
421	 3.59190172559934E-02 
422	 3.58175567892833E-02 
423	 3.61256200240615E-02 
424	 3.61320359647209E-02 
425	 3.58581279730892E-02 
426	 3.56100305497524E-02 
427	 3.59267997068791E-02 
428	 3.57567898570733E-02 
429	 3.56024031865563E-02 
430	 3.58704503767756E-02 
431	 3.55389314472185E-02 
432	 3.55087675465877E-02 
433	 3.56700583622551E-02 
434	 0.035440730793652 
435	 3.56294955364177E-02 
436	 3.57171107823302E-02 
437	 3.54748850417764E-02 
438	 3.53352046133205E-02 
439	 3.54257566528033E-02 
440	 3.55523514311033E-02 
441	 3.54966536017334E-02 
442	 3.54115390031915E-02 
443	 0.035387492912735 
444	 3.54204972038609E-02 
445	 3.54267011906244E-02 
446	 3.53103880944398E-02 
447	 3.51845132573369E-02 
448	 3.51585903123311E-02 
449	 3.52833564232682E-02 
450	 3.52808797754585E-02 
451	 3.52163912281789E-02 
452	 3.52469278367703E-02 
453	 3.51600970740131E-02 
454	 3.51217456132918E-02 
455	 3.51244988853796E-02 
456	 3.49513754600199E-02 
457	 3.50123315674426E-02 
458	 3.51177187437937E-02 
459	 3.50765302304829E-02 
460	 3.51190180675288E-02 
461	 3.51381723750852E-02 
462	 3.50365778786036E-02 
463	 3.47792388391243E-02 
464	 3.47933556934964E-02 
465	 3.48826345850068E-02 
466	 3.48942458709373E-02 
467	 3.48577923387189E-02 
468	 3.48189894034598E-02 
469	 3.47670461650291E-02 
470	 3.47163380930368E-02 
471	 3.48855033231753E-02 
472	 3.48950890176349E-02 
473	 0.034774415078715 
474	 3.48629543099469E-02 
475	 3.47827533799574E-02 
476	 3.46541866544218E-02 
477	 0.034627092564177 
478	 3.47599477556822E-02 
479	 0.03479527908705 
480	 3.47260233578151E-02 
481	 3.46558594374337E-02 
482	 3.46533695644178E-02 
483	 3.46512314104633E-02 
484	 3.46298855465427E-02 
485	 3.46365352909676E-02 
486	 3.46730700568328E-02 
487	 3.46257341802057E-02 
488	 3.44689209586546E-02 
489	 3.45330368535638E-02 
490	 3.45357924879197E-02 
491	 0.034515945770301 
492	 3.46592595202845E-02 
493	 3.45978944188519E-02 
494	 3.45233049426135E-02 
495	 3.45498944981772E-02 
496	 3.45555078127541E-02 
497	 3.45113285613044E-02 
498	 3.44648027124056E-02 
499	 3.44637898339565E-02 
500	 3.44178996724778E-02 
501	 3.44129284414276E-02 
502	 0.034439538169902 
503	 3.44060844973998E-02 
504	 3.44245426915795E-02 
505	 3.44137607751087E-02 
506	 3.43338457367304E-02 
507	 3.43310860095151E-02 
508	 0.034287758910029 
509	 3.42543345623462E-02 
510	 3.43161552085166E-02 
511	 3.42457057658725E-02 
512	 3.41985828530255E-02 
513	 3.42330012678433E-02 
514	 3.42398973719613E-02 
515	 3.42090641918105E-02 
516	 3.41662337506295E-02 
517	 3.41382030265227E-02 
518	 3.41053571168831E-02 
519	 3.41030933093522E-02 
520	 3.41260286331401E-02 
521	 0.034138083083329 
522	 3.41027391176721E-02 
523	 0.034071209450615 
524	 3.40726225623652E-02 
525	 3.40706110560887E-02 
526	 0.03404044539302 
527	 3.40192933006514E-02 
528	 3.40486133471815E-02 
529	 3.40614725481032E-02 
530	 3.40084463665877E-02 
531	 0.033933597299252 
532	 3.39716261380809E-02 
533	 3.39763748399004E-02 
534	 3.39513814152589E-02 
535	 3.39227458138962E-02 
536	 3.38779456844455E-02 
537	 0.033851445642841 
538	 3.38254769466894E-02 
539	 3.37627639428154E-02 
540	 3.37350227202358E-02 
541	 0.033736235637066 
542	 3.37331657954256E-02 
543	 3.36615917723892E-02 
544	 3.36154262331257E-02 
545	 3.35832622151322E-02 
546	 3.35361486034835E-02 
547	 3.35215799072369E-02 
548	 0.033534214758809 
549	 0.033552679533558 
550	 3.35452744090463E-02 
551	 3.35266471320963E-02 
552	 3.35332704268118E-02 
553	 3.35783333373761E-02 
554	 0.033607169479038 
555	 3.36444622154683E-02 
556	 3.36900633774196E-02 
557	 3.37351515292879E-02 
558	 3.37936914416302E-02 
559	 3.38624668976017E-02 
560	 3.39214458397829E-02 
561	 3.39305673937822E-02 
562	 3.39010703843535E-02 
563	 3.38698427692964E-02 
564	 3.38594865671538E-02 
565	 3.38141719582797E-02 
566	 3.37202347501805E-02 
567	 3.36208293573724E-02 
568	 3.35932917419681E-02 
569	 3.35727541180229E-02 
570	 3.35479348486399E-02 
571	 3.35192762473224E-02 
572	 3.34923214020287E-02 
573	 3.34801080887689E-02 
574	 3.34841863312978E-02 
575	 3.34938816661943E-02 
576	 3.34704658708173E-02 
577	 0.033401091055744 
578	 3.33075142912791E-02 
579	 3.32462675196705E-02 
580	 3.32043023630209E-02 
581	 3.31721247272848E-02 
582	 3.31511711533246E-02 
583	 3.31834655259043E-02 
584	 3.31982829360136E-02 
585	 0.03319557510731 
586	 3.32131288665758E-02 
587	 3.32078555853399E-02 
588	 3.31938181161984E-02 
589	 3.31887538989976E-02 
590	 0.033208584700191 
591	 3.31626605748232E-02 
592	 3.31262395499244E-02 
593	 3.31776804337446E-02 
594	 3.31718582307095E-02 
595	 3.31293008566943E-02 
596	 3.30867929995949E-02 
597	 3.30846944937022E-02 
598	 3.30427689717796E-02 
599	 3.30262132245439E-02 
600	 3.30627728857743E-02 
601	 3.30215200874712E-02 
602	 3.30203537286849E-02 
603	 3.30483080549136E-02 
604	 3.30466017391243E-02 
605	 3.30431699646145E-02 
606	 3.30352115159455E-02 
607	 3.30343628449752E-02 
608	 3.30721751074399E-02 
609	 3.30322267338082E-02 
610	 3.29894691678702E-02 
611	 3.30216391110861E-02 
612	 3.30565032453237E-02 
613	 3.30204800548403E-02 
614	 0.032960656706424 
615	 3.29873121084064E-02 
616	 3.29752964060492E-02 
617	 3.29584264239872E-02 
618	 3.29607824669934E-02 
619	 3.29517375368868E-02 
620	 3.29467723309911E-02 
621	 3.29367954697612E-02 
622	 3.29125497653575E-02 
623	 3.29021506355555E-02 
624	 3.28848741032679E-02 
625	 3.28680223164114E-02 
626	 3.28829690433673E-02 
627	 3.28721763359995E-02 
628	 3.28425496496128E-02 
629	 3.28184655230088E-02 
630	 3.28386648503832E-02 
631	 3.28449614033228E-02 
632	 3.28317746427237E-02 
633	 3.28201582308361E-02 
634	 3.28358468056621E-02 
635	 3.28178052535183E-02 
636	 3.27755334908542E-02 
637	 3.28129492708596E-02 
638	 3.27955943090721E-02 
639	 3.27519560143388E-02 
640	 3.27343944874773E-02 
641	 3.27340592203118E-02 
642	 0.03273383212924 
643	 3.27286664044108E-02 
644	 3.27223799933978E-02 
645	 3.27239411622907E-02 
646	 3.27054389761122E-02 
647	 3.26660045842772E-02 
648	 3.26542536489939E-02 
649	 3.26775216595288E-02 
650	 3.26884294840685E-02 
651	 3.26507826122545E-02 
652	 3.26575086551922E-02 
653	 3.26456324482564E-02 
654	 3.26137930692915E-02 
655	 3.26107360596415E-02 
656	 3.26054314451821E-02 
657	 3.25894878532022E-02 
658	 3.25721983314181E-02 
659	 3.25947822415167E-02 
660	 3.26142263647082E-02 
661	 3.26148575734597E-02 
662	 3.25966483276761E-02 
663	 0.032584976247295 
664	 3.25584935885993E-02 
665	 3.25210705024269E-02 
666	 3.25038415890681E-02 
667	 0.032511013743895 
668	 3.25115476781631E-02 
669	 3.24872937541324E-02 
670	 3.24697576500843E-02 
671	 3.24682151929842E-02 
672	 3.24627250032458E-02 
673	 3.24312094413803E-02 
674	 3.24438181511432E-02 
675	 3.24416795400221E-02 
676	 3.24118539184735E-02 
677	 3.24086092909791E-02 
678	 3.23992699785161E-02 
679	 3.23858263413171E-02 
680	 3.23795622440095E-02 
681	 3.24002808620991E-02 
682	 3.23932973066644E-02 
683	 3.23680463653708E-02 
684	 3.23644283694326E-02 
685	 0.032350693940246 
686	 3.23301882400018E-02 
687	 3.23156694908723E-02 
688	 3.23281778396227E-02 
689	 3.23134602788353E-02 
690	 3.22867701599513E-02 
691	 3.22764365231973E-02 
692	 3.22875201377716E-02 
693	 3.22903896949164E-02 
694	 3.22752827717485E-02 
695	 3.22497129065163E-02 
696	 3.22454760433723E-02 
697	 3.22405109135934E-02 
698	 3.22270040027908E-02 
699	 3.22312446952671E-02 
700	 3.22066049743063E-02 
701	 3.21772943307135E-02 
702	 3.21754818519619E-02 
703	 3.21824822077918E-02 
704	 3.21828971092554E-02 
705	 3.21712606694355E-02 
706	 3.21514633621919E-02 
707	 0.032139327822768 
708	 3.21402739953195E-02 
709	 3.21444907470662E-02 
710	 3.21185299528152E-02 
711	 3.21298019557233E-02 
712	 3.21413733042125E-02 
713	 3.21095603336554E-02 
714	 3.20950783158741E-02 
715	 3.20916809116899E-02 
716	 3.20843050204777E-02 
717	 3.20579192296509E-02 
718	 3.20612195511885E-02 
719	 0.032064105993745 
720	 3.20490907365035E-02 
721	 3.20381386352554E-02 
722	 3.20326917944206E-02 
723	 3.20310430503855E-02 
724	 3.20280487284884E-02 
725	 3.20126615893467E-02 
726	 3.19932807772832E-02 
727	 3.19841820561843E-02 
728	 3.19968613884586E-02 
729	 3.19741729982353E-02 
730	 0.031962761934611 
731	 3.19788734347051E-02 
732	 3.19663969305287E-02 
733	 3.19566075448246E-02 
734	 3.19577586247602E-02 
735	 3.19654340360503E-02 
736	 3.19529922072192E-02 
737	 3.19385504484097E-02 
738	 3.19312612081426E-02 
739	 3.19330028227564E-02 
740	 3.19452820073931E-02 
741	 3.19512240017052E-02 
742	 3.19437978930218E-02 
743	 3.19333836027358E-02 
744	 3.19307664823802E-02 
745	 3.19287275269078E-02 
746	 3.19205658587561E-02 
747	 0.031920957011767 
748	 3.19144424000887E-02 
749	 3.19089483626118E-02 
750	 3.19197106161445E-02 
751	 3.19042669726297E-02 
752	 3.18935030178694E-02 
753	 3.18992977712948E-02 
754	 3.18994265845712E-02 
755	 3.18848001595889E-02 
756	 0.031872593705996 
757	 3.18736502105418E-02 
758	 3.18611547062623E-02 
759	 3.18491704549756E-02 
760	 3.18356905469277E-02 
761	 3.18158686448401E-02 
762	 3.18170510592502E-02 
763	 3.18080176429979E-02 
764	 0.03179073623634 
765	 3.18035533936149E-02 
766	 3.17878889440132E-02 
767	 3.17761581159403E-02 
768	 3.17916847732076E-02 
769	 0.031797546167637 
770	 3.17921303861295E-02 
771	 3.17773988043015E-02 
772	 3.17601350015056E-02 
773	 3.17541880216027E-02 
774	 3.17469868089721E-02 
775	 3.17381366771147E-02 
776	 0.031737859477905 
777	 3.17490300573964E-02 
778	 3.17518424144466E-02 
779	 3.17350227792938E-02 
780	 3.17055624790183E-02 
781	 3.17131716602888E-02 
782	 3.17276251226263E-02 
783	 3.17158545376413E-02 
784	 3.17261500380305E-02 
785	 3.17222750378563E-02 
786	 3.17065423462367E-02 
787	 3.17025578948262E-02 
788	 3.17117926031152E-02 
789	 3.17049290909823E-02 
790	 3.16869243561117E-02 
791	 0.031703183901403 
792	 3.16892773215261E-02 
793	 3.16799420482029E-02 
794	 3.16994480462522E-02 
795	 3.16973259573033E-02 
796	 0.031684653244944 
797	 0.031681256007954 
798	 3.16972044030239E-02 
799	 3.16741800856476E-02 
800	 3.16556177252664E-02 
801	 3.16523342326652E-02 
802	 3.16466960980562E-02 
803	 3.16412195619358E-02 
804	 3.16339425689414E-02 
805	 3.16248287360909E-02 
806	 3.16170538573645E-02 
807	 3.16149296020093E-02 
808	 3.16108589664672E-02 
809	 3.16014632477441E-02 
810	 3.16048500136908E-02 
811	 3.16121867440413E-02 
812	 0.031614705506746 
813	 3.16066141352548E-02 
814	 3.15965482898155E-02 
815	 3.16022202928971E-02 
816	 3.16110883111409E-02 
817	 3.15889732830513E-02 
818	 0.031582649347405 
819	 3.15684703664885E-02 
820	 3.15456607213356E-02 
821	 3.15675348978704E-02 
822	 3.15602403705734E-02 
823	 3.15517274860849E-02 
824	 3.15728827431325E-02 
825	 3.15783580676808E-02 
826	 3.15567823065572E-02 
827	 3.15344864033676E-02 
828	 3.15454495992494E-02 
829	 3.15529251190812E-02 
830	 3.15616553476877E-02 
831	 3.15725496005181E-02 
832	 3.15797883955872E-02 
833	 3.15587181286715E-02 
834	 3.15540384171642E-02 
835	 3.15768909807189E-02 
836	 3.15726091076601E-02 
837	 0.031565996182202 
838	 3.15615858982148E-02 
839	 3.15608198849888E-02 
840	 3.15703306576492E-02 
841	 0.031572103097464 
842	 3.15691645373765E-02 
843	 3.15711885843588E-02 
844	 3.15742681889834E-02 
845	 3.15624111399418E-02 
846	 3.15431699963236E-02 
847	 3.15395322551884E-02 
848	 0.031547008921808 
849	 3.15344792826863E-02 
850	 3.15005873669952E-02 
851	 3.14841129053228E-02 
852	 3.14960676593443E-02 
853	 3.15210025348107E-02 
854	 3.15323441076622E-02 
855	 3.14938079397046E-02 
856	 3.14607784013775E-02 
857	 3.14557864063492E-02 
858	 3.14762106454616E-02 
859	 3.14783470421621E-02 
860	 3.14646452561246E-02 
861	 3.14548867351353E-02 
862	 3.14655341380971E-02 
863	 3.14334719167461E-02 
864	 0.031432350457462 
865	 3.14561773615426E-02 
866	 3.14316398161718E-02 
867	 3.14127751167854E-02 
868	 3.14267396306175E-02 
869	 3.14475927174996E-02 
870	 3.13894706050295E-02 
871	 3.13848075723131E-02 
872	 3.14065606789929E-02 
873	 3.14175130147046E-02 
874	 3.14408280955854E-02 
875	 3.14545571919761E-02 
876	 3.14577146498183E-02 
877	 3.14521969626471E-02 
878	 3.14195118559544E-02 
879	 3.14183367845792E-02 
880	 3.14451127019148E-02 
881	 3.14627367651723E-02 
882	 3.14466811077521E-02 
883	 3.14230271525148E-02 
884	 3.14154636150631E-02 
885	 3.14369267654175E-02 
886	 3.14645370736508E-02 
887	 3.14479489389305E-02 
888	 3.14084931539585E-02 
889	 3.14409919816371E-02 
890	 3.14277016947902E-02 
891	 3.14249189317652E-02 
892	 0.031457964590638 
893	 3.14482004700255E-02 
894	 3.14546195064273E-02 
895	 3.14578753700736E-02 
896	 0.031440809318354 
897	 3.14434115312473E-02 
898	 0.031435250599514 
899	 3.14127415231431E-02 
900	 3.13868564231591E-02 
901	 3.13845497756777E-02 
902	 3.13821743420982E-02 
903	 3.13801977725695E-02 
904	 3.13875757533957E-02 
905	 3.13885632929461E-02 
906	 3.13774870221657E-02 
907	 3.13638264180294E-02 
908	 3.13626796891179E-02 
909	 3.13500554845243E-02 
910	 3.13182824680171E-02 
911	 3.12932495131065E-02 
912	 0.031319959757035 
913	 3.12912708961272E-02 
914	 3.12727141377535E-02 
915	 3.12945123259715E-02 
916	 3.13025185242902E-02 
917	 3.12636924468092E-02 
918	 3.12538520531473E-02 
919	 3.13072078703198E-02 
920	 3.13415922256228E-02 
921	 3.12997988157853E-02 
922	 3.12480414399986E-02 
923	 3.12515327117857E-02 
924	 3.12821993261281E-02 
925	 3.12972746822964E-02 
926	 3.12955036282477E-02 
927	 3.12879325886164E-02 
928	 0.031266969618944 
929	 3.12602192480806E-02 
930	 0.031251173931204 
931	 3.12241420685102E-02 
932	 3.12567234427159E-02 
933	 0.031241890697434 
934	 0.031227855997693 
935	 3.13021409224502E-02 
936	 0.031261785728608 
937	 0.031255800520979 
938	 3.12794186067467E-02 
939	 0.031232592612095 
940	 3.12309475814341E-02 
941	 3.12451309576123E-02 
942	 3.12604815068307E-02 
943	 3.12866595422869E-02 
944	 3.13431228976371E-02 
945	 3.13478268939097E-02 
946	 3.13094121340566E-02 
947	 3.13283331096448E-02 
948	 3.12914614207104E-02 
949	 3.12871264139775E-02 
950	 3.13350891648761E-02 
951	 3.13373393634093E-02 
952	 3.12869998649736E-02 
953	 3.12707535914009E-02 
954	 3.13032509055789E-02 
955	 3.12748722732651E-02 
956	 3.13018842868064E-02 
957	 3.13419730846406E-02 
958	 3.13592551388244E-02 
959	 3.13855635730574E-02 
960	 3.12892466438726E-02 
961	 3.11945644639832E-02 
962	 3.12126977219554E-02 
963	 3.13027372245598E-02 
964	 3.12792047877411E-02 
965	 3.12419574342926E-02 
966	 3.12743663485847E-02 
967	 0.031238649846628 
968	 3.12158948749993E-02 
969	 0.031253736439664 
970	 3.13188165883704E-02 
971	 3.12030184265632E-02 
972	 3.11893247627292E-02 
973	 3.12139445821768E-02 
974	 3.11704138053571E-02 
975	 0.031148964327638 
976	 3.11542422394475E-02 
977	 3.11620675794787E-02 
978	 3.11430592539257E-02 
979	 3.10827434529146E-02 
980	 3.10997962806619E-02 
981	 3.11094927128058E-02 
982	 3.10357753558903E-02 
983	 3.10636664389222E-02 
984	 3.11046146532512E-02 
985	 3.11402437248605E-02 
986	 3.11682593311002E-02 
987	 3.11622406688928E-02 
988	 3.11268137584465E-02 
989	 3.10805447740267E-02 
990	 3.10546351431833E-02 
991	 3.11096504403689E-02 
992	 3.10669660420109E-02 
993	 0.031037506531269 
994	 3.11354098522813E-02 
995	 3.11018188476501E-02 
996	 0.031149983459491 
997	 3.11388339328334E-02 
998	 3.09672360310086E-02 
999	 3.10871676995431E-02 
1000	 3.12066320863696E-02 
1001	 3.33507400563348E-02 
1002	 3.33480550000512E-02 
1003	 3.33329421251264E-02 
1004	 3.33272768384307E-02 
1005	 3.33200277091007E-02 
1006	 3.33291900593375E-02 
1007	 3.33357943354513E-02 
1008	 3.33611439330901E-02 
1009	 3.34342571149072E-02 
1010	 3.34540376992247E-02 
1011	 3.34574414356799E-02 
1012	 3.34512172277852E-02 
1013	 3.34015346076601E-02 
1014	 3.33836003723276E-02 
1015	 3.33630171177789E-02 
1016	 0.033365483476754 
1017	 3.34142389117882E-02 
1018	 3.34389421685026E-02 
1019	 0.033452427884105 
1020	 3.34563701719716E-02 
1021	 3.34647749200826E-02 
1022	 3.34612482317049E-02 
1023	 3.34552502943635E-02 
1024	 3.34671509484645E-02 
1025	 3.34535933810461E-02 
1026	 3.33996048405905E-02 
1027	 3.33744056160662E-02 
1028	 3.33531650658359E-02 
1029	 3.33371207407469E-02 
1030	 3.33401700462143E-02 
1031	 3.33169291954515E-02 
1032	 3.32607100640997E-02 
1033	 3.32141941597438E-02 
1034	 3.31965648244287E-02 
1035	 3.31908549954085E-02 
1036	 3.31889975967346E-02 
1037	 3.32377041916558E-02 
1038	 3.32283376854499E-02 
1039	 3.31710283281989E-02 
1040	 3.31517444169636E-02 
1041	 3.31362590330879E-02 
1042	 3.31237050230035E-02 
1043	 3.31285913149853E-02 
1044	 3.31181895939916E-02 
1045	 0.033132027420629 
1046	 3.31315403196632E-02 
1047	 3.31228199186724E-02 
1048	 3.31356458104193E-02 
1049	 3.31438382309263E-02 
1050	 3.31372276759639E-02 
1051	 0.033116791817071 
1052	 3.31287198785158E-02 
1053	 3.31474959178516E-02 
1054	 3.31690220221707E-02 
1055	 3.31769633788433E-02 
1056	 3.31961165539091E-02 
1057	 3.32153493126578E-02 
1058	 0.033214872347961 
1059	 3.32381063667715E-02 
1060	 3.32776097076354E-02 
1061	 3.33097112325768E-02 
1062	 3.33427760026065E-02 
1063	 0.033354234748265 
1064	 3.33582884231278E-02 
1065	 3.33817842833804E-02 
1066	 3.33998983124496E-02 
1067	 3.34102174466181E-02 
1068	 3.34298813984339E-02 
1069	 0.033446329103329 
1070	 3.34631758730506E-02 
1071	 3.34790416142202E-02 
1072	 3.34905726097812E-02 
1073	 3.35002360142335E-02 
1074	 3.35210062499741E-02 
1075	 3.35400265936383E-02 
1076	 3.35764484728501E-02 
1077	 0.03363394021287 
1078	 3.36767063507527E-02 
1079	 0.033701677521915 
1080	 3.37378884257207E-02 
1081	 3.37588895089092E-02 
1082	 3.37593166225171E-02 
1083	 3.37642490178526E-02 
1084	 3.37616355634652E-02 
1085	 3.37702221951926E-02 
1086	 3.37901590378275E-02 
1087	 3.38276384168951E-02 
1088	 3.38620376983326E-02 
1089	 3.38849237992787E-02 
1090	 3.38860065774719E-02 
1091	 3.38783614583201E-02 
1092	 3.38996741876898E-02 
1093	 3.39309157924691E-02 
1094	 3.39437536614552E-02 
1095	 3.39463772964541E-02 
1096	 0.033940702627551 
1097	 3.39311517318239E-02 
1098	 0.033936489890928 
1099	 3.39680105340206E-02 
1100	 3.40005167933119E-02 
1101	 3.40071650690389E-02 
1102	 3.39976195437418E-02 
1103	 3.39945580271097E-02 
1104	 3.39830002114639E-02 
1105	 3.39694099862783E-02 
1106	 3.39578888811273E-02 
1107	 3.39826010268831E-02 
1108	 3.40201979538903E-02 
1109	 3.40196176902818E-02 
1110	 0.034026936362872 
1111	 3.40387127941035E-02 
1112	 3.40168562727658E-02 
1113	 3.40061699047953E-02 
1114	 3.40232531239971E-02 
1115	 3.40279928613176E-02 
1116	 3.40201513974885E-02 
1117	 3.40185817806521E-02 
1118	 3.40092447105337E-02 
1119	 3.39765285218711E-02 
1120	 3.39622875434423E-02 
1121	 3.39560436325451E-02 
1122	 0.033952297020639 
1123	 3.39462513765887E-02 
1124	 3.39438446383798E-02 
1125	 3.39299712638385E-02 
1126	 0.033908917684626 
1127	 3.38883213763763E-02 
1128	 0.03387941263894 
1129	 3.38795454891768E-02 
1130	 3.38723179041539E-02 
1131	 3.38747020794886E-02 
1132	 3.38689842516925E-02 
1133	 3.38384183674034E-02 
1134	 3.38332824633369E-02 
1135	 0.033833534551266 
1136	 3.38489405311829E-02 
1137	 3.38351080101298E-02 
1138	 3.38151733711577E-02 
1139	 3.37970866999208E-02 
1140	 3.37564190829966E-02 
1141	 3.37315366570105E-02 
1142	 3.37253645410006E-02 
1143	 3.37258377511742E-02 
1144	 3.37237795945412E-02 
1145	 3.37151075514474E-02 
1146	 3.37034592091049E-02 
1147	 3.36923424120432E-02 
1148	 3.36775701785648E-02 
1149	 3.36624702813194E-02 
1150	 3.36479621421019E-02 
1151	 3.36356874594641E-02 
1152	 3.36262192337514E-02 
1153	 3.36131111461575E-02 
1154	 3.36026210064523E-02 
1155	 3.36068162167926E-02 
1156	 3.35977316991577E-02 
1157	 0.033578372853669 
1158	 3.35675868245454E-02 
1159	 3.35620455464354E-02 
1160	 3.35377448712188E-02 
1161	 3.35160868535943E-02 
1162	 3.35098662198237E-02 
1163	 3.34979203821344E-02 
1164	 3.34792155641006E-02 
1165	 0.033469486688822 
1166	 0.03345415051469 
1167	 3.34442880659224E-02 
1168	 3.34542388714315E-02 
1169	 3.34560649321256E-02 
1170	 0.033466855996003 
1171	 0.033469208999709 
1172	 3.34578668940579E-02 
1173	 3.34605766199527E-02 
1174	 3.34781022449026E-02 
1175	 3.34805972574585E-02 
1176	 3.34767770240425E-02 
1177	 3.34807890680779E-02 
1178	 3.34810737839702E-02 
1179	 3.34787843935101E-02 
1180	 3.34933839846738E-02 
1181	 3.35000046855524E-02 
1182	 3.34925821201092E-02 
1183	 3.34872230056381E-02 
1184	 3.34834924574161E-02 
1185	 3.34860259672548E-02 
1186	 3.34867404125581E-02 
1187	 3.34925659741414E-02 
1188	 0.03349469344415 
1189	 3.34840602666834E-02 
1190	 3.34965914040391E-02 
1191	 3.35319131346449E-02 
1192	 0.033541285247323 
1193	 3.35490012456128E-02 
1194	 3.35598570404179E-02 
1195	 3.35473355067389E-02 
1196	 3.35543692177156E-02 
1197	 3.35777616871189E-02 
1198	 3.36064419198887E-02 
1199	 3.36321657699079E-02 
1200	 3.36479816281235E-02 
1201	 3.36530915002601E-02 
1202	 3.36522111650652E-02 
1203	 3.36408889416241E-02 
1204	 3.36418374584452E-02 
1205	 3.36513646239966E-02 
1206	 3.36757837324312E-02 
1207	 3.36858408226649E-02 
1208	 3.36973653925281E-02 
1209	 3.37087029424234E-02 
1210	 3.37120125451481E-02 
1211	 3.37209201389049E-02 
1212	 3.37343793383097E-02 
1213	 0.033748142441728 
1214	 3.37634453870316E-02 
1215	 3.37789497400384E-02 
1216	 3.38000234552165E-02 
1217	 3.38150012628505E-02 
1218	 3.38262790253042E-02 
1219	 0.033831718762225 
1220	 3.38459666205747E-02 
1221	 3.38594676564425E-02 
1222	 3.38821285335762E-02 
1223	 3.39053104734788E-02 
1224	 3.39161911934901E-02 
1225	 3.39201477554757E-02 
1226	 3.39279877864289E-02 
1227	 3.39219317324195E-02 
1228	 3.39319456771543E-02 
1229	 3.39528053512848E-02 
1230	 3.39728599353143E-02 
1231	 3.40073024822103E-02 
1232	 3.40231527415184E-02 
1233	 3.40237666480336E-02 
1234	 3.40377117437524E-02 
1235	 0.034051716787573 
1236	 3.40627297181271E-02 
1237	 3.40817533593006E-02 
1238	 3.40982613819598E-02 
1239	 3.41056835978261E-02 
1240	 3.41114295466613E-02 
1241	 3.41412778504761E-02 
1242	 3.41649995656401E-02 
1243	 3.41823570377589E-02 
1244	 3.41993104887748E-02 
1245	 3.42131733622241E-02 
1246	 3.42234824158465E-02 
1247	 3.42264519089631E-02 
1248	 3.42237199752956E-02 
1249	 3.42252476496797E-02 
1250	 0.034220319468323 
1251	 3.42158178887093E-02 
1252	 3.42165444334117E-02 
1253	 3.42144169556917E-02 
1254	 3.42111603500585E-02 
1255	 3.41995394981812E-02 
1256	 0.034180690218116 
1257	 3.41683281711596E-02 
1258	 3.41444375650934E-02 
1259	 0.034132459408643 
1260	 3.41356575466778E-02 
1261	 3.41365604199304E-02 
1262	 3.41384656534816E-02 
1263	 3.41459230201819E-02 
1264	 0.034147566846391 
1265	 0.03415072159753 
1266	 0.034145259140606 
1267	 3.41264605546762E-02 
1268	 3.41294057293621E-02 
1269	 3.41388791759649E-02 
1270	 3.41458725425571E-02 
1271	 3.41665630867503E-02 
1272	 3.41785368408825E-02 
1273	 3.41776102271701E-02 
1274	 3.41889396692903E-02 
1275	 3.42035526240838E-02 
1276	 3.42262479357023E-02 
1277	 3.42609623115009E-02 
1278	 3.42882133565465E-02 
1279	 3.43071609329716E-02 
1280	 3.43462026486568E-02 
1281	 3.44015280498053E-02 
1282	 3.44434941212273E-02 
1283	 3.44981917890248E-02 
1284	 3.45444345457891E-02 
1285	 3.45823790091651E-02 
1286	 3.45998039508097E-02 
1287	 0.034630775347909 
1288	 0.034664990614292 
1289	 3.47007040995525E-02 
1290	 3.47370640960406E-02 
1291	 3.47707282656856E-02 
1292	 3.48050375213633E-02 
1293	 3.48425744060276E-02 
1294	 3.48781923376042E-02 
1295	 3.49148707509581E-02 
1296	 3.49603764255953E-02 
1297	 3.49962266172141E-02 
1298	 3.50200850486326E-02 
1299	 0.035055034518602 
1300	 3.51026910920283E-02 
1301	 0.035131592364033 
1302	 3.51503175212053E-02 
1303	 3.51771060804011E-02 
1304	 0.035191604393093 
1305	 3.52141034915414E-02 
1306	 3.52522555629384E-02 
1307	 3.52848366022116E-02 
1308	 3.53145534904291E-02 
1309	 3.53452277143357E-02 
1310	 3.53666164089432E-02 
1311	 3.53895662939794E-02 
1312	 3.53964346184011E-02 
1313	 3.53828710743361E-02 
1314	 3.53919567454828E-02 
1315	 3.54041189696904E-02 
1316	 3.54118470625404E-02 
1317	 3.54314485251143E-02 
1318	 3.54388567260766E-02 
1319	 3.54344409195394E-02 
1320	 3.54326988200956E-02 
1321	 3.54289704442698E-02 
1322	 3.54281619085807E-02 
1323	 3.54279759822634E-02 
1324	 3.54237710800066E-02 
1325	 3.54203730275535E-02 
1326	 3.54167520474382E-02 
1327	 0.035411666235137 
1328	 3.54009066308558E-02 
1329	 3.53844156884019E-02 
1330	 3.53750403282294E-02 
1331	 3.53645982595827E-02 
1332	 3.53534400694001E-02 
1333	 3.53487177802942E-02 
1334	 3.53455581286985E-02 
1335	 3.53298352669187E-02 
1336	 3.53001145788025E-02 
1337	 3.52894975956396E-02 
1338	 3.52831287303914E-02 
1339	 3.52707110740117E-02 
1340	 3.52677502847135E-02 
1341	 3.52547624842467E-02 
1342	 3.52294005154463E-02 
1343	 3.52105329576564E-02 
1344	 3.51939617980996E-02 
1345	 3.51772960584191E-02 
1346	 3.51585445676914E-02 
1347	 3.51427271515322E-02 
1348	 3.51301311582443E-02 
1349	 3.51161801149083E-02 
1350	 3.51033499544898E-02 
1351	 3.50884990784321E-02 
1352	 3.50764096902091E-02 
1353	 3.50576447437094E-02 
1354	 3.50321888099063E-02 
1355	 3.50091264601812E-02 
1356	 3.49787188031578E-02 
1357	 3.49563536031628E-02 
1358	 3.49345219398497E-02 
1359	 0.034921590427143 
1360	 3.49183906051508E-02 
1361	 3.49190154778536E-02 
1362	 3.49122491831818E-02 
1363	 3.49052365363523E-02 
1364	 3.48893456264739E-02 
1365	 3.48594336671335E-02 
1366	 3.48421097088209E-02 
1367	 3.48254915449124E-02 
1368	 3.48133044285438E-02 
1369	 3.48125093087526E-02 
1370	 0.03479293551403 
1371	 0.034766250180759 
1372	 3.47424168003346E-02 
1373	 3.47049136503102E-02 
1374	 3.46822122383905E-02 
1375	 3.46707332529844E-02 
1376	 3.46539727309538E-02 
1377	 3.46398240711246E-02 
1378	 3.46229659246435E-02 
1379	 3.46025004060466E-02 
1380	 3.45857906252045E-02 
1381	 3.45747388705303E-02 
1382	 3.45551007843788E-02 
1383	 3.45314228356439E-02 
1384	 3.45100450415367E-02 
1385	 3.44769848569256E-02 
1386	 0.03445660059286 
1387	 3.44561621063924E-02 
1388	 3.44392534076334E-02 
1389	 3.44143983336635E-02 
1390	 3.43951279801748E-02 
1391	 3.43709993830185E-02 
1392	 3.43408714436999E-02 
1393	 3.43289921944786E-02 
1394	 3.43266118436634E-02 
1395	 3.43110312348207E-02 
1396	 0.034292975672376 
1397	 3.42754947354298E-02 
1398	 3.42510906501205E-02 
1399	 3.42336375546313E-02 
1400	 3.42213709941264E-02 
1401	 3.42051753795866E-02 
1402	 3.41893978654586E-02 
1403	 3.41719854842987E-02 
1404	 3.41557758436564E-02 
1405	 3.41324232284298E-02 
1406	 3.41040489426864E-02 
1407	 3.40767332245452E-02 
1408	 3.40482533809622E-02 
1409	 3.40141823086927E-02 
1410	 3.39726842316144E-02 
1411	 3.39405110066662E-02 
1412	 3.39062365840202E-02 
1413	 3.38756466653599E-02 
1414	 3.38624974599496E-02 
1415	 3.38322099480723E-02 
1416	 3.37848796928471E-02 
1417	 3.37496875999117E-02 
1418	 3.37112425800291E-02 
1419	 3.36792875486444E-02 
1420	 0.033658643764875 
1421	 3.36367128455898E-02 
1422	 3.36172339433183E-02 
1423	 3.35949333829862E-02 
1424	 0.033575022034711 
1425	 3.35520155501743E-02 
1426	 3.35207021717961E-02 
1427	 0.03349015078154 
1428	 3.34695826875595E-02 
1429	 3.34510107347799E-02 
1430	 3.34288483602489E-02 
1431	 3.34130096918891E-02 
1432	 0.033391021984416 
1433	 3.33622562392668E-02 
1434	 3.33339741506522E-02 
1435	 3.33073512478156E-02 
1436	 3.32781306372122E-02 
1437	 3.32420170266151E-02 
1438	 3.32127743108423E-02 
1439	 3.31893617956536E-02 
1440	 3.31586454278764E-02 
1441	 3.31195609115858E-02 
1442	 3.30964362142672E-02 
1443	 3.30748936050558E-02 
1444	 3.30599696481145E-02 
1445	 3.30554836699885E-02 
1446	 3.30577879260668E-02 
1447	 0.03305937968921 
1448	 3.30752003801918E-02 
1449	 3.31097682999779E-02 
1450	 3.31403652849807E-02 
1451	 3.31786104859432E-02 
1452	 3.32155066154562E-02 
1453	 3.32522859841859E-02 
1454	 3.32921476334402E-02 
1455	 3.33321933878723E-02 
1456	 3.33754874242526E-02 
1457	 3.34304452991736E-02 
1458	 3.34731525200709E-02 
1459	 0.033515623854458 
1460	 3.35500055551742E-02 
1461	 3.35708966812705E-02 
1462	 3.35928663638746E-02 
1463	 0.033606444146327 
1464	 3.36264427671357E-02 
1465	 3.36523523388498E-02 
1466	 3.36722226462614E-02 
1467	 3.36923589255429E-02 
1468	 3.37153315864628E-02 
1469	 3.37260863526634E-02 
1470	 3.37337329618111E-02 
1471	 3.37439441202106E-02 
1472	 3.37525673049859E-02 
1473	 3.37624587872743E-02 
1474	 3.37746904431472E-02 
1475	 3.37821748563398E-02 
1476	 3.37852073797641E-02 
1477	 3.37951222974539E-02 
1478	 3.38072461686869E-02 
1479	 3.38157296765984E-02 
1480	 3.38290844087178E-02 
1481	 3.38352016275826E-02 
1482	 3.38332977972938E-02 
1483	 3.38350258787825E-02 
1484	 3.38333628719683E-02 
1485	 3.38390433092961E-02 
1486	 3.38504942719781E-02 
1487	 3.38561646616609E-02 
1488	 3.38607995255021E-02 
1489	 3.38710467178907E-02 
1490	 3.38773051554587E-02 
1491	 3.38913710896596E-02 
1492	 3.39187068543871E-02 
1493	 3.39383967181347E-02 
1494	 3.39545512427553E-02 
1495	 3.39739143813661E-02 
1496	 3.39879482799969E-02 
1497	 3.40142329648028E-02 
1498	 3.40531831148428E-02 
1499	 3.40840620576215E-02 
1500	 0.034120208976622 
1501	 3.41520769021564E-02 
1502	 3.41722274615506E-02 
1503	 3.42019198617838E-02 
1504	 3.42432293251203E-02 
1505	 3.42725812274843E-02 
1506	 0.034298658652994 
1507	 3.43241843329284E-02 
1508	 3.43452805058303E-02 
1509	 3.43619127852565E-02 
1510	 3.43727990309062E-02 
1511	 3.43896082751973E-02 
1512	 3.44045921433427E-02 
1513	 3.44184164883997E-02 
1514	 3.44415356696198E-02 
1515	 3.44567576529067E-02 
1516	 3.44665862109448E-02 
1517	 3.44713439903228E-02 
1518	 3.44602155807998E-02 
1519	 3.44637231253649E-02 
1520	 3.44704601038231E-02 
1521	 3.44825125102431E-02 
1522	 3.44978248487017E-02 
1523	 3.45071319847089E-02 
1524	 3.45109152290829E-02 
1525	 3.45003196419448E-02 
1526	 3.45048927169294E-02 
1527	 0.034515330222819 
1528	 3.45203216514436E-02 
1529	 3.45276469246787E-02 
1530	 3.45319322224611E-02 
1531	 3.45281856812697E-02 
1532	 3.45400633800535E-02 
1533	 3.45600768048677E-02 
1534	 3.45748572334838E-02 
1535	 3.45997884409595E-02 
1536	 3.46075229960968E-02 
1537	 3.46018415060243E-02 
1538	 3.46071811693703E-02 
1539	 3.46068806132434E-02 
1540	 3.46187259765988E-02 
1541	 0.034643482832469 
1542	 3.46579407064102E-02 
1543	 3.46693906283543E-02 
1544	 3.46887525941178E-02 
1545	 3.47069444412308E-02 
1546	 3.47304790293761E-02 
1547	 0.034765565428566 
1548	 3.47921552892459E-02 
1549	 3.48178373950275E-02 
1550	 3.48387195471726E-02 
1551	 3.48551068539857E-02 
1552	 3.48733721672551E-02 
1553	 3.48831229829157E-02 
1554	 3.49067345488316E-02 
1555	 3.49451665785369E-02 
1556	 3.49667333785025E-02 
1557	 3.49824588469467E-02 
1558	 3.50072678586577E-02 
1559	 3.50314593831793E-02 
1560	 3.50474454276073E-02 
1561	 3.50674367664716E-02 
1562	 3.50863822618036E-02 
1563	 3.50904344679797E-02 
1564	 3.51045200092475E-02 
1565	 3.51308796627548E-02 
1566	 3.51522148051125E-02 
1567	 3.51710417209554E-02 
1568	 3.51886014805616E-02 
1569	 3.52054023027089E-02 
1570	 0.035225802993371 
1571	 3.52494672206204E-02 
1572	 3.52646736122485E-02 
1573	 3.52778923971366E-02 
1574	 3.52930466990347E-02 
1575	 3.53012827489948E-02 
1576	 3.53117644787499E-02 
1577	 3.53296054198994E-02 
1578	 3.53417399758449E-02 
1579	 3.53430644983531E-02 
1580	 3.53548162638327E-02 
1581	 3.53702125431837E-02 
1582	 3.53882220320118E-02 
1583	 3.54161176276563E-02 
1584	 0.035436883752194 
1585	 3.54607894420541E-02 
1586	 3.54750208873285E-02 
1587	 3.54741735903023E-02 
1588	 3.54858469186642E-02 
1589	 3.55006441388737E-02 
1590	 3.55118250730213E-02 
1591	 3.55242834889233E-02 
1592	 3.55433076505346E-02 
1593	 3.55671472538953E-02 
1594	 3.55819157328116E-02 
1595	 3.55966286296681E-02 
1596	 3.56145105348911E-02 
1597	 3.56220669467807E-02 
1598	 3.56363147033021E-02 
1599	 3.56713046130947E-02 
1600	 0.035687041858109 
1601	 3.56810342433624E-02 
1602	 3.56932346400607E-02 
1603	 0.03570757377206 
1604	 3.57213481983635E-02 
1605	 0.03575152709942 
1606	 3.57699956141197E-02 
1607	 3.57731150000703E-02 
1608	 3.57865290815991E-02 
1609	 3.58073496651058E-02 
1610	 3.58210181403217E-02 
1611	 3.58319206695671E-02 
1612	 3.58460990463878E-02 
1613	 3.58612681442584E-02 
1614	 3.58699114921871E-02 
1615	 3.58770741094604E-02 
1616	 0.03588632321962 
1617	 3.58876690493357E-02 
1618	 3.58934893582575E-02 
1619	 3.59028813728948E-02 
1620	 3.59164838151687E-02 
1621	 0.035935772992944 
1622	 3.59505531226299E-02 
1623	 3.59726145544934E-02 
1624	 3.59859034275093E-02 
1625	 3.59825957476992E-02 
1626	 3.59916199545567E-02 
1627	 3.60137612425631E-02 
1628	 3.60190105177388E-02 
1629	 3.60163251951248E-02 
1630	 3.60199372124846E-02 
1631	 3.60048028788769E-02 
1632	 3.60090594019874E-02 
1633	 0.036040983480086 
1634	 3.60574519845225E-02 
1635	 3.60782244976692E-02 
1636	 3.60879032990176E-02 
1637	 3.60771059351413E-02 
1638	 3.60797233866766E-02 
1639	 3.60852121317785E-02 
1640	 3.60890088426165E-02 
1641	 3.61009052643234E-02 
1642	 3.61074101634932E-02 
1643	 3.61053035480255E-02 
1644	 3.61093328146907E-02 
1645	 3.61155329635984E-02 
1646	 3.61233243153732E-02 
1647	 3.61379160581228E-02 
1648	 3.61454481376791E-02 
1649	 3.61419897130216E-02 
1650	 3.61530396075628E-02 
1651	 0.036179803276494 
1652	 0.036184501287575 
1653	 3.61845464505089E-02 
1654	 3.61904093260728E-02 
1655	 3.61821997346629E-02 
1656	 3.61761844854148E-02 
1657	 3.61780038404076E-02 
1658	 3.61804280358264E-02 
1659	 0.036176173418248 
1660	 3.61742368955835E-02 
1661	 3.61930803321051E-02 
1662	 0.036187055851601 
1663	 3.61522292929572E-02 
1664	 3.61389902257132E-02 
1665	 0.036132818961912 
1666	 3.61110752424934E-02 
1667	 3.60862315635498E-02 
1668	 3.60727552794228E-02 
1669	 3.60468530306953E-02 
1670	 3.60361938170403E-02 
1671	 3.60588301643016E-02 
1672	 3.60535339798428E-02 
1673	 3.60312121483793E-02 
1674	 3.60139935063307E-02 
1675	 3.59956025474671E-02 
1676	 3.59695860992045E-02 
1677	 3.59413339862329E-02 
1678	 3.59085417384421E-02 
1679	 3.58587653246588E-02 
1680	 3.58253567357452E-02 
1681	 0.035801943453903 
1682	 0.035773845363411 
1683	 3.57531155385398E-02 
1684	 3.57169106408891E-02 
1685	 3.56638146606374E-02 
1686	 3.56288902924541E-02 
1687	 3.55983221813401E-02 
1688	 0.035566390673243 
1689	 3.55470803100628E-02 
1690	 3.55141876244418E-02 
1691	 3.54701331330841E-02 
1692	 3.54339949845263E-02 
1693	 3.54005634379325E-02 
1694	 3.53627733130202E-02 
1695	 3.53182521175462E-02 
1696	 3.52819634733431E-02 
1697	 3.52485422948192E-02 
1698	 3.52100697123372E-02 
1699	 0.035187262504472 
1700	 3.51404643254021E-02 
1701	 0.035064707483393 
1702	 0.035016430821965 
1703	 3.49681707003354E-02 
1704	 3.49269404376154E-02 
1705	 0.034909654117626 
1706	 3.48786264847417E-02 
1707	 3.48300854463703E-02 
1708	 3.47741304984316E-02 
1709	 3.47257469966806E-02 
1710	 3.46971885039304E-02 
1711	 3.46578884901608E-02 
1712	 3.46246831248059E-02 
1713	 3.45983807561825E-02 
1714	 3.45449342465716E-02 
1715	 3.44999608498604E-02 
1716	 3.44711819458179E-02 
1717	 3.44335413608486E-02 
1718	 3.43902330251069E-02 
1719	 0.034339250796057 
1720	 3.42998859658314E-02 
1721	 3.42686274578236E-02 
1722	 3.42412792073122E-02 
1723	 0.034242809036184 
1724	 3.42315005585293E-02 
1725	 3.41995814990322E-02 
1726	 3.41697917442538E-02 
1727	 3.41376876641297E-02 
1728	 3.41148555884402E-02 
1729	 3.40949302308091E-02 
1730	 3.40890551562611E-02 
1731	 3.40897327509195E-02 
1732	 3.40861575781277E-02 
1733	 3.40935806216445E-02 
1734	 0.034101001754838 
1735	 3.41081728285055E-02 
1736	 3.41142045798436E-02 
1737	 3.41153682211659E-02 
1738	 3.41064617544807E-02 
1739	 3.40974914956745E-02 
1740	 3.40787916774743E-02 
1741	 3.40675044221591E-02 
1742	 3.40723877191318E-02 
1743	 3.40523841167089E-02 
1744	 3.40068276220017E-02 
1745	 3.39899397659197E-02 
1746	 3.39785733544343E-02 
1747	 3.39631432280477E-02 
1748	 3.39632743810624E-02 
1749	 3.39626149921839E-02 
1750	 3.39475716598119E-02 
1751	 3.39446354597987E-02 
1752	 0.033960118780358 
1753	 3.39679867586382E-02 
1754	 3.39692746151124E-02 
1755	 3.39671369951151E-02 
1756	 3.39655903546267E-02 
1757	 3.39644733800547E-02 
1758	 3.39841772990022E-02 
1759	 3.40041073244792E-02 
1760	 3.40277257086845E-02 
1761	 3.40616627321579E-02 
1762	 3.40772982764495E-02 
1763	 3.40953063744626E-02 
1764	 3.41318891479138E-02 
1765	 3.41774364680389E-02 
1766	 3.42179999954883E-02 
1767	 3.42386959892154E-02 
1768	 3.42522090062222E-02 
1769	 3.42676657513125E-02 
1770	 3.42817978283821E-02 
1771	 3.43061726426277E-02 
1772	 3.43384444764304E-02 
1773	 3.43524830701879E-02 
1774	 0.034361168300126 
1775	 3.43948424216022E-02 
1776	 3.44231236087563E-02 
1777	 0.03444223090965 
1778	 3.44725333232178E-02 
1779	 3.44779682671465E-02 
1780	 0.034483688113072 
1781	 3.45285358608996E-02 
1782	 3.45561191962954E-02 
1783	 3.45772160135738E-02 
1784	 3.46187621756776E-02 
1785	 0.034619771605818 
1786	 3.46335528544792E-02 
1787	 3.46553543721785E-02 
1788	 3.46727035623234E-02 
1789	 3.46898420054204E-02 
1790	 3.46995582000709E-02 
1791	 3.47045521512843E-02 
1792	 3.47269590404801E-02 
1793	 0.034759645555048 
1794	 3.48099240729936E-02 
1795	 3.48239863143422E-02 
1796	 3.48426366561727E-02 
1797	 3.48501681233079E-02 
1798	 3.48334993490238E-02 
1799	 3.48511214477382E-02 
1800	 3.48855219269456E-02 
1801	 0.035246077294181 
1802	 3.52765107369809E-02 
1803	 3.53095515867059E-02 
1804	 3.53540010267869E-02 
1805	 3.53838143862906E-02 
1806	 3.54136622374021E-02 
1807	 3.54474094915709E-02 
1808	 3.54693122969804E-02 
1809	 3.54775624865899E-02 
1810	 3.54949548661596E-02 
1811	 3.55056471839395E-02 
1812	 3.55255264415745E-02 
1813	 3.55437461365835E-02 
1814	 3.55839948288747E-02 
1815	 3.56273483525406E-02 
1816	 3.56532003596589E-02 
1817	 3.56731440100394E-02 
1818	 3.56804618985417E-02 
1819	 3.56958961089566E-02 
1820	 3.57030407281956E-02 
1821	 3.57191710119291E-02 
1822	 3.57442428330193E-02 
1823	 3.57730838663744E-02 
1824	 3.57844828253113E-02 
1825	 3.58002283131004E-02 
1826	 3.58183015728697E-02 
1827	 3.58303245657389E-02 
1828	 3.58507851371687E-02 
1829	 0.035883396520407 
1830	 3.59042161788345E-02 
1831	 3.59228369461036E-02 
1832	 3.59452849263285E-02 
1833	 3.59512089357013E-02 
1834	 3.59606221101276E-02 
1835	 3.59687356960316E-02 
1836	 3.59761738547179E-02 
1837	 0.035989394818126 
1838	 3.60102054382033E-02 
1839	 3.60209140194361E-02 
1840	 3.60252423207069E-02 
1841	 3.60399019633081E-02 
1842	 3.60547510620728E-02 
1843	 3.60707054637007E-02 
1844	 3.60961584289107E-02 
1845	 3.61205204047334E-02 
1846	 3.61217216819071E-02 
1847	 3.61179722605285E-02 
1848	 3.61206429125138E-02 
1849	 3.61166116410921E-02 
1850	 3.61159845257652E-02 
1851	 3.61200790533939E-02 
1852	 3.61305858940773E-02 
1853	 0.0361276142143 
1854	 0.036119184505903 
1855	 3.60948105744294E-02 
1856	 0.036065501125075 
1857	 3.60457897314542E-02 
1858	 3.60326745487525E-02 
1859	 0.036019506027852 
1860	 3.60226864718551E-02 
1861	 3.60067696002629E-02 
1862	 3.59795624994213E-02 
1863	 3.59570516419626E-02 
1864	 3.59258071915133E-02 
1865	 3.59045310561579E-02 
1866	 3.58917898834415E-02 
1867	 3.58539304308581E-02 
1868	 3.58065601989935E-02 
1869	 3.57573037638354E-02 
1870	 3.56975803060955E-02 
1871	 3.56198497761507E-02 
1872	 3.55484152491111E-02 
1873	 3.54752423686947E-02 
1874	 3.54004287539388E-02 
1875	 3.53246400830161E-02 
1876	 3.52354623351185E-02 
1877	 3.51487333690796E-02 
1878	 3.50579878012165E-02 
1879	 0.034960304251375 
1880	 3.48791097620635E-02 
1881	 3.47973693082295E-02 
1882	 0.034724173030877 
1883	 3.46389161055668E-02 
1884	 3.45337085739595E-02 
1885	 3.44178943705562E-02 
1886	 3.43045987145302E-02 
1887	 3.41722166804556E-02 
1888	 3.40410211946353E-02 
1889	 3.39311849566722E-02 
1890	 3.38068593875757E-02 
1891	 3.36805918859289E-02 
1892	 3.35620194452301E-02 
1893	 3.34357595971881E-02 
1894	 3.33002313703262E-02 
1895	 3.31613358487217E-02 
1896	 3.30188379556689E-02 
1897	 3.28839548642619E-02 
1898	 3.27609666038712E-02 
1899	 3.26134802072467E-02 
1900	 3.24740604924381E-02 
1901	 3.23508813090248E-02 
1902	 3.22103139543934E-02 
1903	 3.20785296379829E-02 
1904	 3.19432467266661E-02 
1905	 0.031810440938709 
1906	 3.16626151548045E-02 
1907	 3.15209844896056E-02 
1908	 3.13868395366798E-02 
1909	 3.12615961747056E-02 
1910	 3.11409509739747E-02 
1911	 3.10302912147967E-02 
1912	 3.09220030654223E-02 
1913	 3.08088280418669E-02 
1914	 3.06997693259576E-02 
1915	 3.05938379777067E-02 
1916	 3.04872961993865E-02 
1917	 3.03872064356888E-02 
1918	 3.02880718317139E-02 
1919	 3.01807192733553E-02 
1920	 0.030075094557339 
1921	 2.99815084925404E-02 
1922	 2.98819990624064E-02 
1923	 2.97832941412475E-02 
1924	 2.96968376199637E-02 
1925	 2.95969615671645E-02 
1926	 2.95105932576801E-02 
1927	 2.94418732146644E-02 
1928	 2.93631008711761E-02 
1929	 2.92828751275438E-02 
1930	 2.92072949366648E-02 
1931	 2.91238337390581E-02 
1932	 2.90570418256052E-02 
1933	 2.90063667819075E-02 
1934	 2.89501748835724E-02 
1935	 2.89093065248686E-02 
1936	 2.88706208074711E-02 
1937	 0.028831293569451 
1938	 2.87929182014298E-02 
1939	 2.87664588052561E-02 
1940	 2.87435084049634E-02 
1941	 2.87243147986496E-02 
1942	 2.87208868406932E-02 
1943	 2.87109124002848E-02 
1944	 2.87062518392312E-02 
1945	 2.87192789104009E-02 
1946	 2.87417434767024E-02 
1947	 2.87817965447479E-02 
1948	 2.88193331203924E-02 
1949	 2.88565919722525E-02 
1950	 2.89093799784503E-02 
1951	 2.89678074920812E-02 
1952	 2.90364156958742E-02 
1953	 2.91227072630891E-02 
1954	 2.92045546654043E-02 
1955	 2.93058432239365E-02 
1956	 2.94100236374924E-02 
1957	 2.95004335310381E-02 
1958	 2.96161142651182E-02 
1959	 2.97125893737125E-02 
1960	 2.97781156544389E-02 
1961	 0.02985868286782 
1962	 2.99467387218169E-02 
1963	 3.00191599234077E-02 
1964	 3.00939817123095E-02 
1965	 3.01557989368706E-02 
1966	 3.02056248064763E-02 
1967	 3.02462450891585E-02 
1968	 3.02832108230435E-02 
1969	 3.03028133588232E-02 
1970	 3.03270231398249E-02 
1971	 3.03643395206741E-02 
1972	 3.04126866934425E-02 
1973	 3.04695946849708E-02 
1974	 3.05207141047282E-02 
1975	 3.05813613367462E-02 
1976	 3.06280833986211E-02 
1977	 3.06569825677498E-02 
1978	 3.07024417492072E-02 
1979	 3.07495518539756E-02 
1980	 0.030799274909275 
1981	 3.08669579285055E-02 
1982	 3.09333805525808E-02 
1983	 3.10023223095396E-02 
1984	 3.10748648206329E-02 
1985	 0.031138433777016 
1986	 0.031217611405196 
1987	 3.12999933616697E-02 
1988	 3.13807013872638E-02 
1989	 3.14783558085368E-02 
1990	 3.15873400170686E-02 
1991	 3.17024686210924E-02 
1992	 3.18278116243932E-02 
1993	 3.19659727053612E-02 
1994	 3.21024037047949E-02 
1995	 3.22464331035768E-02 
1996	 3.23921559026772E-02 
1997	 3.25412124035379E-02 
1998	 3.26949096960092E-02 
1999	 0.032856250044246 
2000	 3.30129441978213E-02 
2001	 3.31792256356097E-02 
2002	 3.33280686640654E-02 
2003	 3.34694740127239E-02 
2004	 3.36063402031344E-02 
2005	 3.37312991289228E-02 
2006	 3.38567472653505E-02 
2007	 3.39804893915879E-02 
2008	 3.41009578442437E-02 
2009	 3.42188373487233E-02 
2010	 3.43218951216435E-02 
2011	 3.44181711624003E-02 
2012	 3.45106353457876E-02 
2013	 0.034596038346974 
2014	 3.46703877739862E-02 
2015	 3.47479964428394E-02 
2016	 3.48315503600723E-02 
2017	 3.48967747191185E-02 
2018	 3.49494119016098E-02 
2019	 3.50017183223491E-02 
2020	 3.50476010571748E-02 
2021	 0.035075181668132 
2022	 3.51142847370877E-02 
2023	 3.51659988456547E-02 
2024	 3.52071474487934E-02 
2025	 3.52397470404732E-02 
2026	 3.52717137005817E-02 
2027	 3.53023773990095E-02 
2028	 3.53210209527292E-02 
2029	 3.53231414320106E-02 
2030	 3.53452027698786E-02 
2031	 0.035374164868651 
2032	 3.53904728116936E-02 
2033	 3.54145921763517E-02 
2034	 3.54335351013889E-02 
2035	 3.54423574613207E-02 
2036	 3.54359670966922E-02 
2037	 3.54561294345084E-02 
2038	 3.54721407584069E-02 
2039	 3.54727574586319E-02 
2040	 3.54542978463842E-02 
2041	 3.54654570574507E-02 
2042	 3.54763102476959E-02 
2043	 3.54934867421741E-02 
2044	 3.55412419140039E-02 
2045	 3.55663275226817E-02 
2046	 3.55685712988579E-02 
2047	 3.55907067055415E-02 
2048	 3.56171975491399E-02 
2049	 3.56467969433698E-02 
2050	 3.56818410896992E-02 
2051	 3.57313211299998E-02 
2052	 3.57791555342238E-02 
2053	 3.58155769235454E-02 
2054	 3.58474375738775E-02 
2055	 3.58785414765142E-02 
2056	 3.59000353327619E-02 
2057	 3.59053545545172E-02 
2058	 3.59211281444014E-02 
2059	 3.59309365458192E-02 
2060	 3.59528460342652E-02 
2061	 3.59846545234345E-02 
2062	 3.60143659782522E-02 
2063	 3.60605484958237E-02 
2064	 3.60879161613477E-02 
2065	 3.61000353609121E-02 
2066	 3.61181543375193E-02 
2067	 3.61351175128732E-02 
2068	 3.61414379924036E-02 
2069	 3.61658040475664E-02 
2070	 3.62020898384415E-02 
2071	 3.62345365102368E-02 
2072	 3.62807205459982E-02 
2073	 3.63097576231278E-02 
2074	 3.63280869607061E-02 
2075	 3.63548645408111E-02 
2076	 3.63781772658342E-02 
2077	 3.63992934135386E-02 
2078	 3.64288512346733E-02 
2079	 3.64492865022602E-02 
2080	 3.64542819818924E-02 
2081	 3.64682207060875E-02 
2082	 3.64850314790031E-02 
2083	 3.65037723565573E-02 
2084	 3.65240239094431E-02 
2085	 3.65349968944345E-02 
2086	 3.65379360460931E-02 
2087	 3.65257230201436E-02 
2088	 3.65246632455615E-02 
2089	 0.036513644744124 
2090	 3.65223215857658E-02 
2091	 3.65568073546514E-02 
2092	 3.65642952334443E-02 
2093	 3.65649500867606E-02 
2094	 3.65698077125164E-02 
2095	 3.65545284520336E-02 
2096	 3.65540665874804E-02 
2097	 0.03656802723958 
2098	 3.65882829825799E-02 
2099	 3.65892890541976E-02 
2100	 3.65841133839918E-02 
2101	 3.65862082683488E-02 
2102	 3.65835078790308E-02 
2103	 3.65849522000429E-02 
2104	 3.65961652397767E-02 
2105	 3.65969304586959E-02 
2106	 3.65882166519904E-02 
2107	 3.65879617524694E-02 
2108	 3.65967543270824E-02 
2109	 3.65902512127722E-02 
2110	 3.65711306436024E-02 
2111	 3.65661924223888E-02 
2112	 3.65598636131729E-02 
2113	 3.65529814291623E-02 
2114	 3.65582616517454E-02 
2115	 0.036559668928087 
2116	 3.65533514414268E-02 
2117	 3.65454302890449E-02 
2118	 0.036544030590758 
2119	 3.65542398870349E-02 
2120	 3.65475239750793E-02 
2121	 3.65317505455313E-02 
2122	 3.65230323694802E-02 
2123	 3.65035225627838E-02 
2124	 3.65032014048951E-02 
2125	 3.65311967745677E-02 
2126	 3.65252560396431E-02 
2127	 0.036504987299685 
2128	 3.64934660122889E-02 
2129	 3.64651338817805E-02 
2130	 3.64440127716588E-02 
2131	 3.64378832060739E-02 
2132	 3.64274410508547E-02 
2133	 3.64119473873767E-02 
2134	 3.63943851904283E-02 
2135	 3.63807213080412E-02 
2136	 3.63638032802406E-02 
2137	 3.63406931354764E-02 
2138	 3.63056282604991E-02 
2139	 3.62822598515288E-02 
2140	 3.62629009717994E-02 
2141	 3.62370716805278E-02 
2142	 3.62126802137573E-02 
2143	 3.61863996950288E-02 
2144	 3.61489826960952E-02 
2145	 0.036125262289275 
2146	 3.61173552287452E-02 
2147	 3.60938244908017E-02 
2148	 3.60812224777856E-02 
2149	 3.60423720755498E-02 
2150	 3.59659439005595E-02 
2151	 3.59131770688802E-02 
2152	 3.58584357878384E-02 
2153	 3.58019304715561E-02 
2154	 3.57697788964591E-02 
2155	 3.57468815222851E-02 
2156	 3.57151472261272E-02 
2157	 0.035686149895355 
2158	 3.56465574351556E-02 
2159	 3.56053581012824E-02 
2160	 3.55529575742913E-02 
2161	 3.54826886196649E-02 
2162	 3.54289554105832E-02 
2163	 3.53726956966433E-02 
2164	 3.53249301352021E-02 
2165	 3.52921218369817E-02 
2166	 3.52489654961256E-02 
2167	 3.51985322667734E-02 
2168	 3.51576382804795E-02 
2169	 3.51184546925353E-02 
2170	 0.035082789688511 
2171	 3.50635040003676E-02 
2172	 3.50302815360724E-02 
2173	 3.49891097551842E-02 
2174	 3.49419407089204E-02 
2175	 3.49115276943495E-02 
2176	 0.034895796020995 
2177	 3.48759219580678E-02 
2178	 3.48732599320381E-02 
2179	 3.48595052565994E-02 
2180	 3.48321095796954E-02 
2181	 3.48224959560382E-02 
2182	 3.48348602260792E-02 
2183	 0.034821618066144 
2184	 3.47927398795357E-02 
2185	 3.47811381913813E-02 
2186	 3.47656721728834E-02 
2187	 0.034751394256437 
2188	 3.47566658893875E-02 
2189	 3.47487969842484E-02 
2190	 3.47220749636334E-02 
2191	 3.47083523118434E-02 
2192	 3.47083370607399E-02 
2193	 3.46934568279987E-02 
2194	 0.034665019971557 
2195	 3.46500997702248E-02 
2196	 3.46273785896661E-02 
2197	 3.46231542995035E-02 
2198	 3.46164760687915E-02 
2199	 3.46215267640024E-02 
2200	 3.46123172267058E-02 
2201	 3.45933428253544E-02 
2202	 3.45731902744441E-02 
2203	 3.45496984181668E-02 
2204	 3.45284378905787E-02 
2205	 3.45043139848874E-02 
2206	 3.44793529719325E-02 
2207	 3.44515670319074E-02 
2208	 3.44323468590122E-02 
2209	 3.44126065547368E-02 
2210	 0.03439627651821 
2211	 0.034395214026065 
2212	 3.43809501075315E-02 
2213	 3.43500509887603E-02 
2214	 3.43409194467064E-02 
2215	 3.43355466829974E-02 
2216	 3.43354434376256E-02 
2217	 3.43513856365977E-02 
2218	 3.43653660879536E-02 
2219	 3.43829441556998E-02 
2220	 3.44004814443652E-02 
2221	 3.44225274083601E-02 
2222	 3.44423861995263E-02 
2223	 3.44634994822571E-02 
2224	 3.44810749794447E-02 
2225	 3.45021026918027E-02 
2226	 3.45499410571537E-02 
2227	 3.45966230713088E-02 
2228	 3.46610816566246E-02 
2229	 3.46995946976538E-02 
2230	 3.47403614453087E-02 
2231	 3.47578751987435E-02 
2232	 3.47486447093599E-02 
2233	 3.47549825772835E-02 
2234	 3.47538351444941E-02 
2235	 3.47579225921978E-02 
2236	 3.47743727829042E-02 
2237	 3.47724654633686E-02 
2238	 3.47707076053634E-02 
2239	 3.47504211120856E-02 
2240	 3.47054185107777E-02 
2241	 3.46681841508908E-02 
2242	 3.46284281998985E-02 
2243	 3.45789704648396E-02 
2244	 3.45261672102898E-02 
2245	 3.44701860121579E-02 
2246	 3.43866704054681E-02 
2247	 3.43273452678715E-02 
2248	 0.03430107411036 
2249	 3.42446581701632E-02 
2250	 3.41832383897641E-02 
2251	 3.41206691369404E-02 
2252	 3.40100807802041E-02 
2253	 3.39186548585032E-02 
2254	 3.38661115807263E-02 
2255	 0.033784616786089 
2256	 3.37267388179593E-02 
2257	 3.36782491144704E-02 
2258	 3.36136414430761E-02 
2259	 3.35407031477132E-02 
2260	 3.34659929752653E-02 
2261	 3.33784921197661E-02 
2262	 3.33076377986717E-02 
2263	 3.32346670582425E-02 
2264	 3.31756085879585E-02 
2265	 3.31416589700676E-02 
2266	 3.30850712086813E-02 
2267	 0.033001987253807 
2268	 3.29649497518168E-02 
2269	 3.29510428443424E-02 
2270	 3.29241982948878E-02 
2271	 3.29278475121641E-02 
2272	 3.29090830667863E-02 
2273	 3.28607681729632E-02 
2274	 3.28309906913611E-02 
2275	 3.28157226000572E-02 
2276	 3.27975463789722E-02 
2277	 3.27674990155775E-02 
2278	 3.27478119687575E-02 
2279	 3.27512603506101E-02 
2280	 3.27308952615731E-02 
2281	 3.27007581495194E-02 
2282	 3.26772647158753E-02 
2283	 3.26517742171974E-02 
2284	 3.26058020911892E-02 
2285	 3.25555579601441E-02 
2286	 3.25309996991865E-02 
2287	 3.25022491158636E-02 
2288	 3.24458223210301E-02 
2289	 3.23800921291872E-02 
2290	 3.23276934445797E-02 
2291	 3.22990073166813E-02 
2292	 3.22687103541867E-02 
2293	 3.22750657158584E-02 
2294	 3.22827449613064E-02 
2295	 3.22171704456875E-02 
2296	 3.21506632023347E-02 
2297	 3.21173689425043E-02 
2298	 3.20764157300618E-02 
2299	 3.20637109339356E-02 
2300	 0.032103636561807 
2301	 3.21065219368034E-02 
2302	 0.03209210879843 
2303	 3.20889404228332E-02 
2304	 3.20795632116792E-02 
2305	 3.20926452023976E-02 
2306	 3.21108790128559E-02 
2307	 3.21537570087522E-02 
2308	 0.032223066968126 
2309	 3.22928936441781E-02 
2310	 3.23838640995296E-02 
2311	 3.24680423357877E-02 
2312	 3.25736797287988E-02 
2313	 3.26379203421767E-02 
2314	 3.26651974124868E-02 
2315	 3.27248053152573E-02 
2316	 3.27697279162944E-02 
2317	 3.28291661842036E-02 
2318	 3.29333618893055E-02 
2319	 3.30096041392891E-02 
2320	 3.30808326586561E-02 
2321	 3.31283403352762E-02 
2322	 3.31440661542254E-02 
2323	 3.31766252667868E-02 
2324	 3.32018844344658E-02 
2325	 3.32190744345181E-02 
2326	 3.32421731178089E-02 
2327	 3.32692820888637E-02 
2328	 3.32956756997289E-02 
2329	 3.32998707297877E-02 
2330	 3.33006936673079E-02 
2331	 3.33057588586704E-02 
2332	 0.033261316366043 
2333	 3.32192388444131E-02 
2334	 3.31973933122443E-02 
2335	 3.31477240649047E-02 
2336	 3.31192386584782E-02 
2337	 0.033089513876574 
2338	 0.033059953222343 
2339	 3.30247918460825E-02 
2340	 3.29584941981067E-02 
2341	 0.032905293147349 
2342	 3.28282588049441E-02 
2343	 3.27496409468206E-02 
2344	 3.27109748579504E-02 
2345	 3.26803516595089E-02 
2346	 3.26977417939749E-02 
2347	 3.27535273678501E-02 
2348	 3.27697946755932E-02 
2349	 3.27673362722982E-02 
2350	 3.27784403477009E-02 
2351	 3.27829165724222E-02 
2352	 3.28063203106867E-02 
2353	 3.28496999494554E-02 
2354	 3.28726650198688E-02 
2355	 3.28882171906308E-02 
2356	 3.28851298929887E-02 
2357	 0.032901814918256 
2358	 3.29531105550898E-02 
2359	 3.29432413185951E-02 
2360	 3.29089939845793E-02 
2361	 3.29122140542483E-02 
2362	 0.032886906131792 
2363	 3.28761632321678E-02 
2364	 3.28847344599685E-02 
2365	 3.28498457432153E-02 
2366	 3.28407299559112E-02 
2367	 3.28091170081683E-02 
2368	 3.27378080072378E-02 
2369	 3.26969175214453E-02 
2370	 3.26539025008805E-02 
2371	 3.26011047457039E-02 
2372	 3.25979559377598E-02 
2373	 3.26004847909377E-02 
2374	 3.25470141276427E-02 
2375	 3.25133592077039E-02 
2376	 3.24563929546624E-02 
2377	 3.23926282814792E-02 
2378	 3.23786761975451E-02 
2379	 3.23393784892868E-02 
2380	 3.23383966043285E-02 
2381	 3.23276119829258E-02 
2382	 3.22929026647719E-02 
2383	 3.22402785181049E-02 
2384	 3.21839122609292E-02 
2385	 3.21043487140854E-02 
2386	 3.20655699624967E-02 
2387	 3.20275189305953E-02 
2388	 3.19678170784763E-02 
2389	 0.031919438099906 
2390	 3.18526090561049E-02 
2391	 3.17721615986904E-02 
2392	 3.17083700967693E-02 
2393	 3.16473031388298E-02 
2394	 3.15828112947247E-02 
2395	 3.15094104561407E-02 
2396	 0.031438313869905 
2397	 3.13594231359408E-02 
2398	 3.13230145818225E-02 
2399	 3.13384906413646E-02 
2400	 3.12982747379441E-02 
2401	 3.12525214203843E-02 
2402	 3.10959102397789E-02 
2403	 3.09711440174156E-02 
2404	 3.09242479036642E-02 
2405	 3.08969187195918E-02 
2406	 3.09048491183864E-02 
2407	 3.08860232143651E-02 
2408	 0.030721435314807 
2409	 3.06391704261966E-02 
2410	 3.06495985003446E-02 
2411	 3.05456458236522E-02 
2412	 3.04858405086339E-02 
2413	 3.03980136467289E-02 
2414	 3.02221858296065E-02 
2415	 3.01869515188537E-02 
2416	 3.02185979888855E-02 
2417	 3.02533410551376E-02 
2418	 3.02584961498042E-02 
2419	 3.02142474388675E-02 
2420	 0.030181681737555 
2421	 3.01214289731576E-02 
2422	 3.00706438874413E-02 
2423	 0.030040578214288 
2424	 2.99359689514219E-02 
2425	 2.98948937104235E-02 
2426	 2.99335173995951E-02 
2427	 2.99061571357628E-02 
2428	 3.00285381564734E-02 
2429	 3.01287296039511E-02 
2430	 3.00393229456288E-02 
2431	 0.030019603327477 
2432	 2.99113249388141E-02 
2433	 2.97117323551762E-02 
2434	 2.97436369391864E-02 
2435	 2.98297598553475E-02 
2436	 2.98420991583685E-02 
2437	 2.99008276957701E-02 
2438	 2.98714148282238E-02 
2439	 2.97816236924316E-02 
2440	 2.97181297685462E-02 
2441	 2.97267845962275E-02 
2442	 2.96537159789152E-02 
2443	 2.94844696040792E-02 
2444	 2.94455183828649E-02 
2445	 2.93501309042297E-02 
2446	 2.93449600846337E-02 
2447	 2.95087130471026E-02 
2448	 2.95236078978844E-02 
2449	 2.95054704913139E-02 
2450	 2.95269203595255E-02 
2451	 0.029537966210357 
2452	 0.029503336446869 
2453	 2.93764438349345E-02 
2454	 2.93047738980691E-02 
2455	 2.92377977125359E-02 
2456	 2.91559535104997E-02 
2457	 2.92187793026922E-02 
2458	 2.92675998105999E-02 
2459	 2.91491076122241E-02 
2460	 2.90792273076649E-02 
2461	 2.91264653550782E-02 
2462	 2.89889857166829E-02 
2463	 0.028883008131495 
2464	 2.90058103231989E-02 
2465	 2.89285476528645E-02 
2466	 2.89061959468112E-02 
2467	 2.89957881473071E-02 
2468	 2.87732916577083E-02 
2469	 2.86879730188567E-02 
2470	 2.88843971963725E-02 
2471	 0.029014503510787 
2472	 2.91483894089172E-02 
2473	 0.029228883066489 
2474	 2.89715085963425E-02 
2475	 2.86082664555121E-02 
2476	 2.84904087067333E-02 
2477	 0.028527973222859 
2478	 2.87214880785837E-02 
2479	 2.89271787419435E-02 
2480	 0.029026713183431 
2481	 2.89402536227393E-02 
2482	 2.86684510756508E-02 
2483	 0.028454797638222 
2484	 2.82143876936575E-02 
2485	 2.84153221508916E-02 
2486	 2.85860989571422E-02 
2487	 2.87590128258188E-02 
2488	 2.91183429136257E-02 
2489	 0.029119765064087 
2490	 2.89930651572614E-02 
2491	 2.89595493448109E-02 
2492	 2.87630269183815E-02 
2493	 2.87374722758555E-02 
2494	 2.88622595376513E-02 
2495	 2.87980493694542E-02 
2496	 2.87350333950695E-02 
2497	 2.86529115756282E-02 
2498	 2.84151689966607E-02 
2499	 2.82864847849616E-02 
2500	 2.84705348708513E-02 
