Wavelength	spectrum00012.asd
350	 2.05386309101817E-02 
351	 1.95003871292026E-02 
352	 1.79266538386192E-02 
353	 1.69785075974313E-02 
354	 0.019501040125443 
355	 1.93175315007743E-02 
356	 1.77835624816403E-02 
357	 1.69401847665668E-02 
358	 1.51884110730615E-02 
359	 1.46886997552737E-02 
360	 1.51510855841047E-02 
361	 1.50980905986606E-02 
362	 1.48597146279383E-02 
363	 0.014789010294992 
364	 1.47793155856107E-02 
365	 1.41032636095532E-02 
366	 1.45459950962057E-02 
367	 1.52658038018107E-02 
368	 1.52001776137865E-02 
369	 1.46245509646536E-02 
370	 1.47295784162501E-02 
371	 1.53371447426977E-02 
372	 0.015491073135794 
373	 1.51727600761126E-02 
374	 1.45300861523672E-02 
375	 1.44181408729123E-02 
376	 1.66982809277165E-02 
377	 1.62881390980337E-02 
378	 1.52035948581494E-02 
379	 1.58763236742324E-02 
380	 1.51062207135679E-02 
381	 1.53493644889889E-02 
382	 1.58192985870961E-02 
383	 1.43006266889509E-02 
384	 1.52156838583513E-02 
385	 1.64511776805156E-02 
386	 1.63852733920975E-02 
387	 1.52416102948341E-02 
388	 1.50832682013339E-02 
389	 1.55865665368659E-02 
390	 1.58451125350708E-02 
391	 1.56648856671075E-02 
392	 0.015245036759516 
393	 1.50591564297705E-02 
394	 1.56134817320015E-02 
395	 1.60504547049728E-02 
396	 1.61847804429588E-02 
397	 1.61171898875453E-02 
398	 1.62442856486047E-02 
399	 1.63001897923977E-02 
400	 1.62593376242118E-02 
401	 1.61049438997263E-02 
402	 1.54254987877462E-02 
403	 1.56587111516372E-02 
404	 1.64007269481876E-02 
405	 0.016016890228438 
406	 1.62139238159873E-02 
407	 1.63857754557766E-02 
408	 1.61472353608183E-02 
409	 0.016159020298584 
410	 1.64030095465318E-02 
411	 1.65339658927345E-02 
412	 1.63098083775878E-02 
413	 1.66530929383742E-02 
414	 1.67846500623106E-02 
415	 1.65466128544063E-02 
416	 1.64154332708556E-02 
417	 1.66540924569942E-02 
418	 1.69701310007059E-02 
419	 1.70498013133739E-02 
420	 1.67284485071829E-02 
421	 1.65580263231111E-02 
422	 1.67946010155134E-02 
423	 0.017388610763005 
424	 0.017366178657697 
425	 1.73138611216723E-02 
426	 0.017465657835328 
427	 1.75101168782478E-02 
428	 1.74531406144829E-02 
429	 0.017591834341129 
430	 1.79946048166776E-02 
431	 1.78153999792808E-02 
432	 0.017901712329338 
433	 1.81142212560549E-02 
434	 1.78698256518882E-02 
435	 1.80618821482399E-02 
436	 1.83234010138692E-02 
437	 1.84230241631372E-02 
438	 1.85636857634394E-02 
439	 1.86977608990127E-02 
440	 1.88002484090698E-02 
441	 1.88733599227695E-02 
442	 1.90072758247552E-02 
443	 1.92096818858321E-02 
444	 1.94145613917108E-02 
445	 0.019515545061037 
446	 1.96878177317228E-02 
447	 1.98351213621378E-02 
448	 1.98868806848287E-02 
449	 1.98958044066905E-02 
450	 2.01373532799355E-02 
451	 2.03836186368997E-02 
452	 2.03277003466391E-02 
453	 2.05178781188987E-02 
454	 2.07083408471572E-02 
455	 2.07893470010472E-02 
456	 2.08662007254592E-02 
457	 2.10659150620039E-02 
458	 2.11864974812581E-02 
459	 2.11495635763157E-02 
460	 2.14956440692491E-02 
461	 2.17049249510786E-02 
462	 0.021708860753146 
463	 2.17154563603424E-02 
464	 2.19021162999535E-02 
465	 2.21130340533733E-02 
466	 2.22140201043457E-02 
467	 2.21568942292876E-02 
468	 2.23243526873143E-02 
469	 2.25172734522353E-02 
470	 2.25077036382982E-02 
471	 2.27366605354167E-02 
472	 2.29184210336124E-02 
473	 2.29900814329066E-02 
474	 2.30784299906916E-02 
475	 2.30788150431904E-02 
476	 2.31365042622462E-02 
477	 2.33126402655516E-02 
478	 2.33932092255896E-02 
479	 2.35598109846604E-02 
480	 2.37526331291598E-02 
481	 2.38507036382861E-02 
482	 2.39718964089873E-02 
483	 2.41226135025971E-02 
484	 0.024297388880525 
485	 2.44859362600889E-02 
486	 2.46538259285527E-02 
487	 2.48029188684538E-02 
488	 2.49496720935251E-02 
489	 2.51292303626731E-02 
490	 2.52546373145225E-02 
491	 0.025379508204371 
492	 2.56183637995678E-02 
493	 2.58099877169141E-02 
494	 2.59858775714983E-02 
495	 0.026170775954376 
496	 2.63348283665664E-02 
497	 2.65312881813322E-02 
498	 2.67601959954393E-02 
499	 2.69973841351015E-02 
500	 2.71975002282354E-02 
501	 0.027421058495468 
502	 2.76529432623481E-02 
503	 2.78177967327442E-02 
504	 2.80830385683861E-02 
505	 2.83445090633481E-02 
506	 2.85388325770322E-02 
507	 2.88275680166545E-02 
508	 2.90813594186458E-02 
509	 2.93300716645285E-02 
510	 2.96399377104854E-02 
511	 2.98001213724416E-02 
512	 0.030002998865847 
513	 3.03173789822981E-02 
514	 3.06119431797589E-02 
515	 3.08138427719391E-02 
516	 3.10041015285515E-02 
517	 3.12678890557606E-02 
518	 3.15468627825974E-02 
519	 3.17964848018174E-02 
520	 3.20408281548548E-02 
521	 0.032341690141097 
522	 3.26099119479224E-02 
523	 3.28278562733188E-02 
524	 3.30217066375344E-02 
525	 3.32850110369637E-02 
526	 3.35306126222948E-02 
527	 3.37655015915863E-02 
528	 3.40176644008168E-02 
529	 3.42371752386217E-02 
530	 3.44410688250262E-02 
531	 3.46634890675994E-02 
532	 3.49480195880799E-02 
533	 3.51555849333808E-02 
534	 3.53561655775702E-02 
535	 3.56142233105989E-02 
536	 3.58420567627404E-02 
537	 3.60491805035518E-02 
538	 3.62691961353484E-02 
539	 3.65369760706446E-02 
540	 3.67598954914456E-02 
541	 3.69804060749386E-02 
542	 3.72128590672492E-02 
543	 3.73983172928309E-02 
544	 3.76015419596497E-02 
545	 3.78047581865492E-02 
546	 3.79786676379466E-02 
547	 3.81644961792823E-02 
548	 3.83375568235885E-02 
549	 3.84920267775249E-02 
550	 3.86426029508835E-02 
551	 3.88274301925924E-02 
552	 3.90212653298535E-02 
553	 3.91935733320503E-02 
554	 3.93284199962763E-02 
555	 3.94775120994351E-02 
556	 3.96586161269236E-02 
557	 3.98641181184574E-02 
558	 4.00454643907608E-02 
559	 4.02122941759804E-02 
560	 4.03825405032311E-02 
561	 4.05772979985204E-02 
562	 4.07518470434576E-02 
563	 4.09283374381194E-02 
564	 4.11297408965061E-02 
565	 4.13167729437355E-02 
566	 4.14426195010115E-02 
567	 4.15200099183287E-02 
568	 4.16040744411934E-02 
569	 4.16734949778548E-02 
570	 4.17429581628468E-02 
571	 4.18273562844909E-02 
572	 4.19302696090809E-02 
573	 4.20767419216258E-02 
574	 4.22446897990578E-02 
575	 4.24009612484288E-02 
576	 4.25813563108928E-02 
577	 4.27223324650234E-02 
578	 4.28150226685039E-02 
579	 4.29178896332811E-02 
580	 0.04299820981773 
581	 4.30713638015075E-02 
582	 4.31554898343642E-02 
583	 4.32433345281193E-02 
584	 4.33446298062742E-02 
585	 4.34593002103996E-02 
586	 4.35783231300358E-02 
587	 4.36732388319417E-02 
588	 0.043765936067787 
589	 4.38669451079138E-02 
590	 4.39578168829611E-02 
591	 4.40432164532134E-02 
592	 4.41286570704145E-02 
593	 4.42143013304969E-02 
594	 4.42702686581417E-02 
595	 4.43505001638543E-02 
596	 4.44504463788204E-02 
597	 4.45153542475745E-02 
598	 4.45917608848641E-02 
599	 4.46790605719676E-02 
600	 4.47668774026564E-02 
601	 4.48408831888787E-02 
602	 4.49193548849549E-02 
603	 4.50042050185185E-02 
604	 4.50889919753042E-02 
605	 4.51660228922666E-02 
606	 4.52358145516305E-02 
607	 4.53116838754559E-02 
608	 4.54211011584917E-02 
609	 4.54800271200803E-02 
610	 4.55395821418547E-02 
611	 4.56482594703766E-02 
612	 4.57279743729247E-02 
613	 0.045792196990287 
614	 4.58563381325764E-02 
615	 4.59320945748307E-02 
616	 0.045968381091411 
617	 4.60332648717995E-02 
618	 4.61418873796025E-02 
619	 4.61871172870573E-02 
620	 4.62478216769441E-02 
621	 4.63305992754741E-02 
622	 4.64122679550891E-02 
623	 4.64463106635394E-02 
624	 4.64829039216954E-02 
625	 4.65444049379604E-02 
626	 4.66209556893517E-02 
627	 4.66825805636515E-02 
628	 4.67412315293489E-02 
629	 4.68060834151051E-02 
630	 4.68542841672418E-02 
631	 4.69242356981036E-02 
632	 4.70059201981419E-02 
633	 4.70705087048234E-02 
634	 4.71268995401326E-02 
635	 4.71958791182845E-02 
636	 4.72693957421585E-02 
637	 4.73030047251354E-02 
638	 4.73505730926536E-02 
639	 4.74161197197531E-02 
640	 0.047483692360887 
641	 4.75142730239448E-02 
642	 4.75589696197843E-02 
643	 4.76277622195612E-02 
644	 4.77013278261916E-02 
645	 4.77522141898154E-02 
646	 4.78054298699251E-02 
647	 0.047874982173964 
648	 4.79471436770437E-02 
649	 4.79909064932712E-02 
650	 4.80360096547643E-02 
651	 0.048109440192074 
652	 4.81361855490067E-02 
653	 4.81788398485413E-02 
654	 4.82455658190487E-02 
655	 4.82987779495956E-02 
656	 4.83555314528342E-02 
657	 4.84156195329369E-02 
658	 4.84789703148608E-02 
659	 0.048552071365925 
660	 4.86237047722784E-02 
661	 4.86789423234911E-02 
662	 4.87124816976956E-02 
663	 4.87762256750165E-02 
664	 4.88276216316683E-02 
665	 4.88710754661021E-02 
666	 4.89594071208012E-02 
667	 4.90036717854431E-02 
668	 4.90422566632461E-02 
669	 0.049111130516895 
670	 4.91745387663029E-02 
671	 4.92235107470219E-02 
672	 4.92724956585753E-02 
673	 4.93460963441774E-02 
674	 4.94529248915949E-02 
675	 4.95333052298073E-02 
676	 4.95749565640223E-02 
677	 4.96286928742785E-02 
678	 4.96897962960206E-02 
679	 4.97632125773057E-02 
680	 4.98487885531293E-02 
681	 4.99302352658607E-02 
682	 5.00105155642693E-02 
683	 5.00798434190655E-02 
684	 0.050127289261444 
685	 5.01834226728397E-02 
686	 5.02568477899395E-02 
687	 5.03499581063202E-02 
688	 5.04615184679431E-02 
689	 5.05384913079773E-02 
690	 5.06037022710186E-02 
691	 5.06932348882998E-02 
692	 5.08127761116833E-02 
693	 5.09170486808185E-02 
694	 5.10031182079237E-02 
695	 5.10944269245254E-02 
696	 5.11760567169065E-02 
697	 5.12717069185756E-02 
698	 5.13854183342561E-02 
699	 5.14845424373073E-02 
700	 5.15806649103511E-02 
701	 5.16779927042177E-02 
702	 0.051781764770322 
703	 5.19051502923015E-02 
704	 5.20454956237987E-02 
705	 5.21808442221579E-02 
706	 5.22837038662107E-02 
707	 0.052405592052663 
708	 5.25439790727876E-02 
709	 5.26849143537227E-02 
710	 5.28078123243817E-02 
711	 5.29443942086256E-02 
712	 5.30921109799052E-02 
713	 5.32411280926385E-02 
714	 5.33995345011295E-02 
715	 5.35514710078631E-02 
716	 5.36897491395938E-02 
717	 5.38189700741165E-02 
718	 5.39915900074954E-02 
719	 5.41870096226187E-02 
720	 5.43754013876389E-02 
721	 5.45285346578223E-02 
722	 5.46933958637739E-02 
723	 5.48801028014884E-02 
724	 5.50779407195669E-02 
725	 5.52441908095989E-02 
726	 0.055424496406856 
727	 5.56310650516945E-02 
728	 5.58473541782531E-02 
729	 5.60459153662233E-02 
730	 5.62360364867679E-02 
731	 5.64355659998709E-02 
732	 5.66679991148855E-02 
733	 5.68931815820968E-02 
734	 5.71058166757021E-02 
735	 5.73165074872949E-02 
736	 5.75473714715444E-02 
737	 5.77926965724652E-02 
738	 5.80473546692146E-02 
739	 5.83052171332696E-02 
740	 5.85499450684924E-02 
741	 5.87969514882287E-02 
742	 5.90580354296174E-02 
743	 0.059333740288264 
744	 5.96096243252435E-02 
745	 5.98791184864425E-02 
746	 6.01475817557526E-02 
747	 6.04511395902671E-02 
748	 6.07451603567467E-02 
749	 6.10193454024937E-02 
750	 6.12901073047181E-02 
751	 6.16028573308238E-02 
752	 6.19162284973698E-02 
753	 6.22161114723608E-02 
754	 6.25350857138347E-02 
755	 6.28616922156589E-02 
756	 6.31812658045059E-02 
757	 0.063488948352626 
758	 6.38069563954939E-02 
759	 6.41403819035872E-02 
760	 6.44723460290267E-02 
761	 6.47853233355407E-02 
762	 6.51312704011467E-02 
763	 6.54827768557155E-02 
764	 6.58228858035631E-02 
765	 6.61551968950136E-02 
766	 6.65119638701238E-02 
767	 6.68695430238466E-02 
768	 6.72143637870504E-02 
769	 6.75824730046071E-02 
770	 6.79530053789229E-02 
771	 6.83124879363226E-02 
772	 6.86585052624048E-02 
773	 6.90295752951388E-02 
774	 6.93910258039756E-02 
775	 6.97392246852025E-02 
776	 7.00969069070057E-02 
777	 7.04443412805665E-02 
778	 7.08082124493017E-02 
779	 7.11920254423811E-02 
780	 7.15495016693995E-02 
781	 7.19035548199068E-02 
782	 7.22607781219607E-02 
783	 7.26190724612402E-02 
784	 7.29580356103107E-02 
785	 7.33158839567569E-02 
786	 7.36823148016491E-02 
787	 7.40206931311538E-02 
788	 7.43259270735947E-02 
789	 7.46502378232399E-02 
790	 7.49997900422072E-02 
791	 7.53227227815226E-02 
792	 0.075654688280068 
793	 7.59863859386588E-02 
794	 7.63042061927245E-02 
795	 0.076604697613891 
796	 7.68970952082305E-02 
797	 7.71967009550058E-02 
798	 7.75103669801684E-02 
799	 7.77983913670944E-02 
800	 7.80743760263944E-02 
801	 0.078337937134455 
802	 7.85798664094063E-02 
803	 7.88283397409297E-02 
804	 7.90817939027915E-02 
805	 7.93396292644554E-02 
806	 7.96094115753472E-02 
807	 7.98392192198395E-02 
808	 0.080043198194153 
809	 8.02506579725504E-02 
810	 8.04785782902309E-02 
811	 8.07118532864164E-02 
812	 8.09302760595752E-02 
813	 8.11200191026381E-02 
814	 8.13130233036506E-02 
815	 8.14953110435591E-02 
816	 8.16674567159586E-02 
817	 8.18421455274742E-02 
818	 8.19864961977011E-02 
819	 8.21417742544008E-02 
820	 0.082319213701396 
821	 8.24636396967452E-02 
822	 8.26116234487654E-02 
823	 8.27724714786659E-02 
824	 8.29343191052666E-02 
825	 8.30419541995436E-02 
826	 8.31582196725275E-02 
827	 8.32862096073176E-02 
828	 8.34041589904617E-02 
829	 8.35263363889138E-02 
830	 8.36500056965131E-02 
831	 8.37553116396719E-02 
832	 0.083816540855402 
833	 8.38973730735626E-02 
834	 8.39894787858763E-02 
835	 8.40769394654227E-02 
836	 8.41505348547771E-02 
837	 8.42309958110834E-02 
838	 8.43107037181579E-02 
839	 8.43803896741327E-02 
840	 8.44468294220066E-02 
841	 8.45161765353648E-02 
842	 8.45742199099741E-02 
843	 8.46089533472345E-02 
844	 8.46605785928836E-02 
845	 8.47138552450817E-02 
846	 8.47631133022174E-02 
847	 8.48085205131103E-02 
848	 8.48188974411225E-02 
849	 8.48417915445376E-02 
850	 8.48923689996753E-02 
851	 8.49343555024063E-02 
852	 0.084972800197122 
853	 0.085007589530996 
854	 8.50416389432278E-02 
855	 8.50849094527294E-02 
856	 8.51285472737084E-02 
857	 8.51550621829191E-02 
858	 8.51602785979517E-02 
859	 8.51946747651718E-02 
860	 8.52251093315782E-02 
861	 8.52539091440107E-02 
862	 8.52973937019883E-02 
863	 8.53374256632823E-02 
864	 8.53704833659814E-02 
865	 0.085397322900154 
866	 8.54215056702726E-02 
867	 8.54372938155647E-02 
868	 0.085477508238512 
869	 8.55423890946439E-02 
870	 8.55834489324959E-02 
871	 8.56341917353547E-02 
872	 0.085661605663866 
873	 8.56677166144717E-02 
874	 8.57622275703817E-02 
875	 8.58343447559748E-02 
876	 0.085875832880305 
877	 8.59149708842143E-02 
878	 8.59800496494848E-02 
879	 8.60635187093854E-02 
880	 8.61401980360816E-02 
881	 8.61895688828837E-02 
882	 8.62598349654582E-02 
883	 8.63486912021333E-02 
884	 8.64380757849318E-02 
885	 8.65051125272663E-02 
886	 8.65688543113003E-02 
887	 8.66518830152257E-02 
888	 8.67524793813539E-02 
889	 8.68421549274386E-02 
890	 0.086928604929349 
891	 8.70053175932541E-02 
892	 8.70792589027182E-02 
893	 0.087181422318396 
894	 0.087318435538059 
895	 8.74491791511074E-02 
896	 8.75458574046521E-02 
897	 8.76458999823124E-02 
898	 0.087752268620428 
899	 8.78630841986563E-02 
900	 8.79763885351715E-02 
901	 8.81010780135803E-02 
902	 8.82331548592012E-02 
903	 8.83700688272364E-02 
904	 8.85055048885857E-02 
905	 8.86061828762549E-02 
906	 0.088743337574201 
907	 0.088908551878951 
908	 8.90385125093893E-02 
909	 8.91541871091248E-02 
910	 8.92667754657276E-02 
911	 0.089409824172802 
912	 8.96254402213042E-02 
913	 8.98103653234763E-02 
914	 8.99556074600922E-02 
915	 0.090102790630901 
916	 9.03300891695793E-02 
917	 9.04778410331499E-02 
918	 9.06294592192922E-02 
919	 9.08474908142238E-02 
920	 9.10625194415739E-02 
921	 9.12184032365339E-02 
922	 9.13703899556653E-02 
923	 0.09157228440557 
924	 9.17913323392756E-02 
925	 9.20212427492424E-02 
926	 9.22325137821101E-02 
927	 9.24149509562427E-02 
928	 9.26439266541266E-02 
929	 9.28276536712473E-02 
930	 9.30016698595135E-02 
931	 9.32360247928081E-02 
932	 9.35067380900897E-02 
933	 9.36965569064384E-02 
934	 9.38703985855533E-02 
935	 9.41520222174275E-02 
936	 9.43909205096654E-02 
937	 9.46379057432609E-02 
938	 9.48911303130004E-02 
939	 9.51156789405694E-02 
940	 9.53599546389449E-02 
941	 9.55994772186513E-02 
942	 9.58358023865735E-02 
943	 0.096093395264525 
944	 9.63459762620533E-02 
945	 9.65921284542794E-02 
946	 0.096822081772694 
947	 9.70197077010985E-02 
948	 9.72281429339007E-02 
949	 9.74337316319198E-02 
950	 9.76435602294707E-02 
951	 9.78956165448444E-02 
952	 9.81320009870908E-02 
953	 9.84140355910481E-02 
954	 9.87173105665847E-02 
955	 0.098878087315297 
956	 9.91071518910554E-02 
957	 9.93580789772401E-02 
958	 9.95761206378449E-02 
959	 9.97882284936878E-02 
960	 0.100027800607203 
961	 0.10026610053616 
962	 0.10048219977169 
963	 0.10070257336946 
964	 0.100882740778992 
965	 0.101051482639657 
966	 0.101250912320441 
967	 0.101506733704995 
968	 0.101734201717413 
969	 0.10192365362522 
970	 0.102103490659954 
971	 0.102332892447495 
972	 0.10253398378211 
973	 0.102740359354612 
974	 0.102978925945241 
975	 0.103161611191076 
976	 0.103310427685579 
977	 0.103559311878338 
978	 0.103928495237446 
979	 0.103996346509565 
980	 0.104108671908786 
981	 0.104300087488132 
982	 0.10451135495077 
983	 0.104754028107204 
984	 0.104936968080471 
985	 0.105113249529839 
986	 0.105345469275697 
987	 0.105549876150995 
988	 0.105678838215485 
989	 0.105826582184764 
990	 0.106067931765327 
991	 0.106226342356582 
992	 0.106437872389898 
993	 0.106585815904208 
994	 0.106599642116177 
995	 0.10685704223692 
996	 0.107210759756299 
997	 0.107445701681299 
998	 0.107482423703911 
999	 0.107754098677285 
1000	 0.10795705148191 
1001	 0.113091403688091 
1002	 0.113278851122792 
1003	 0.113477862076735 
1004	 0.113671535852525 
1005	 0.113845288853597 
1006	 0.114020809611238 
1007	 0.11421385952825 
1008	 0.114390300968995 
1009	 0.11453639197968 
1010	 0.1146993923901 
1011	 0.114863656933437 
1012	 0.115043347550581 
1013	 0.115251950220499 
1014	 0.115426741928241 
1015	 0.115593572521669 
1016	 0.11575289646812 
1017	 0.115932252741164 
1018	 0.116100771584556 
1019	 0.116275757105113 
1020	 0.116473855673531 
1021	 0.116629668500439 
1022	 0.116728862848384 
1023	 0.116864309419017 
1024	 0.116994379705783 
1025	 0.117149194893637 
1026	 0.117342427409547 
1027	 0.11749622127657 
1028	 0.117649386110593 
1029	 0.117794765405678 
1030	 0.117897334789727 
1031	 0.118031136576561 
1032	 0.118194693846751 
1033	 0.118338586568425 
1034	 0.118469231975701 
1035	 0.118585224094937 
1036	 0.118711724533747 
1037	 0.118826299558038 
1038	 0.118948342209139 
1039	 0.119072941774358 
1040	 0.119221290222729 
1041	 0.119389415099164 
1042	 0.119529201660793 
1043	 0.119670608926671 
1044	 0.119824203798421 
1045	 0.119947641155227 
1046	 0.120086550511 
1047	 0.120250306950726 
1048	 0.120385771514274 
1049	 0.120503112679764 
1050	 0.12064047996671 
1051	 0.12080326020559 
1052	 0.12098440252547 
1053	 0.121148779005052 
1054	 0.121314333211432 
1055	 0.12147573194614 
1056	 0.121613434181372 
1057	 0.121775748988164 
1058	 0.121959456232725 
1059	 0.122139702289335 
1060	 0.122294460354038 
1061	 0.122467286687528 
1062	 0.122603793519512 
1063	 0.122751302208921 
1064	 0.122971944498879 
1065	 0.123163130498257 
1066	 0.123314032528059 
1067	 0.123494818953075 
1068	 0.123661633605881 
1069	 0.123835918972084 
1070	 0.124025802585869 
1071	 0.12425983632712 
1072	 0.124459870611571 
1073	 0.124636224213463 
1074	 0.124814026040052 
1075	 0.124984636031344 
1076	 0.125169452434287 
1077	 0.125380662046696 
1078	 0.125573993656397 
1079	 0.125776243031817 
1080	 0.125999252652636 
1081	 0.126178665177374 
1082	 0.126377597219684 
1083	 0.126570151889727 
1084	 0.126751912497333 
1085	 0.126990613697338 
1086	 0.127199824877485 
1087	 0.127393148001733 
1088	 0.12759995405762 
1089	 0.127840114207334 
1090	 0.128021098280657 
1091	 0.128216828429831 
1092	 0.128422332811148 
1093	 0.12859744241308 
1094	 0.128812583131001 
1095	 0.12903360990892 
1096	 0.129235750236123 
1097	 0.129445659783232 
1098	 0.129642663243877 
1099	 0.129852411327163 
1100	 0.13007992251599 
1101	 0.130289689445367 
1102	 0.130490617048233 
1103	 0.130694247629532 
1104	 0.130883894310337 
1105	 0.131094623937192 
1106	 0.131339648947052 
1107	 0.131567981664581 
1108	 0.131800307275875 
1109	 0.132025344253862 
1110	 0.132222286895297 
1111	 0.132439962514126 
1112	 0.132663014399683 
1113	 0.132883308498315 
1114	 0.133111330085374 
1115	 0.133328141332591 
1116	 0.133545662631888 
1117	 0.133763129330611 
1118	 0.1339932331576 
1119	 0.134237428798959 
1120	 0.134477474461115 
1121	 0.134723306934005 
1122	 0.134968704335996 
1123	 0.135210100205548 
1124	 0.135420003271821 
1125	 0.135640178125307 
1126	 0.135870360765184 
1127	 0.136101871954088 
1128	 0.13634107419594 
1129	 0.136569616857784 
1130	 0.136812031463478 
1131	 0.137061860218504 
1132	 0.137298059508727 
1133	 0.137544357881291 
1134	 0.137781652585123 
1135	 0.138017667964849 
1136	 0.138247027817312 
1137	 0.138477602693153 
1138	 0.138713830936988 
1139	 0.138943712112433 
1140	 0.139167844995735 
1141	 0.139378719786669 
1142	 0.13961391115629 
1143	 0.139846730990636 
1144	 0.140072371976568 
1145	 0.140309172128969 
1146	 0.140534951689872 
1147	 0.140746896333353 
1148	 0.14096415604582 
1149	 0.141184968865782 
1150	 0.141412665854347 
1151	 0.141636603174038 
1152	 0.141857256408484 
1153	 0.142082279051114 
1154	 0.142302759157244 
1155	 0.142515368484847 
1156	 0.142730143554682 
1157	 0.142945051435683 
1158	 0.143153456435986 
1159	 0.143360233884138 
1160	 0.143564974598766 
1161	 0.143751174685664 
1162	 0.143954185275199 
1163	 0.144156696398764 
1164	 0.144358501221644 
1165	 0.144579207555379 
1166	 0.144793258439998 
1167	 0.145005409619935 
1168	 0.145210279641122 
1169	 0.145426077600571 
1170	 0.145645423934941 
1171	 0.145873319326103 
1172	 0.146111837179598 
1173	 0.146344920756594 
1174	 0.146577438412017 
1175	 0.146811145166388 
1176	 0.147040884409318 
1177	 0.147281667519964 
1178	 0.147527687955683 
1179	 0.147779489855169 
1180	 0.148038873651946 
1181	 0.148308149381196 
1182	 0.148575050220959 
1183	 0.148839204027422 
1184	 0.14911534680654 
1185	 0.149392321985543 
1186	 0.149687119530483 
1187	 0.150007737528538 
1188	 0.150316002849999 
1189	 0.150626654949051 
1190	 0.150942236217228 
1191	 0.151250737260741 
1192	 0.151572014664415 
1193	 0.151907567794487 
1194	 0.152238949996465 
1195	 0.152579508829198 
1196	 0.152920060059918 
1197	 0.153251480497321 
1198	 0.153593725817936 
1199	 0.153977542278757 
1200	 0.154338092618893 
1201	 0.154707858188184 
1202	 0.155084528768979 
1203	 0.155455764048735 
1204	 0.155868324763206 
1205	 0.156299457647298 
1206	 0.156771053782829 
1207	 0.157240826546154 
1208	 0.157719128170887 
1209	 0.158209349555067 
1210	 0.158704318781739 
1211	 0.159231623716233 
1212	 0.159788409441879 
1213	 0.160353928164985 
1214	 0.160941756694092 
1215	 0.161543740355439 
1216	 0.162161863170503 
1217	 0.162776696380532 
1218	 0.163415283129236 
1219	 0.164043702539728 
1220	 0.164651667533812 
1221	 0.165294950652007 
1222	 0.165919092046864 
1223	 0.166541779784662 
1224	 0.16716646545233 
1225	 0.167790297401865 
1226	 0.168406070656443 
1227	 0.169025972383603 
1228	 0.16963046608177 
1229	 0.17022108425523 
1230	 0.170815991349033 
1231	 0.17140546052783 
1232	 0.17199632236183 
1233	 0.172585313054399 
1234	 0.173170746756769 
1235	 0.173756733090085 
1236	 0.174334506776008 
1237	 0.174907001054679 
1238	 0.175481306689357 
1239	 0.176040681922703 
1240	 0.176616254737796 
1241	 0.177221415947138 
1242	 0.177771938776184 
1243	 0.178334809733057 
1244	 0.178894054165433 
1245	 0.179456130389547 
1246	 0.180015136603241 
1247	 0.180567341080433 
1248	 0.181128466269492 
1249	 0.181668962389279 
1250	 0.182188609687149 
1251	 0.182708008052942 
1252	 0.183215311665055 
1253	 0.183732874209812 
1254	 0.184256291134518 
1255	 0.184771129772699 
1256	 0.18528410400854 
1257	 0.185801000167902 
1258	 0.186316888230372 
1259	 0.18682383208593 
1260	 0.187333149290963 
1261	 0.187840494666659 
1262	 0.188322743348622 
1263	 0.188834242069447 
1264	 0.189335699318591 
1265	 0.189839927347158 
1266	 0.190352232819638 
1267	 0.19086568317145 
1268	 0.191380146996432 
1269	 0.191906686369794 
1270	 0.192422390363587 
1271	 0.192928746972503 
1272	 0.193444087172853 
1273	 0.193957406134663 
1274	 0.194478335825293 
1275	 0.19500101841196 
1276	 0.195530316858588 
1277	 0.19605936287242 
1278	 0.196601330602226 
1279	 0.197167712166699 
1280	 0.197712697258471 
1281	 0.1982446612597 
1282	 0.198791149826278 
1283	 0.199327148110195 
1284	 0.199869740197059 
1285	 0.200419817426145 
1286	 0.200990335251265 
1287	 0.201542007524756 
1288	 0.202086152665823 
1289	 0.202631870397846 
1290	 0.203176214349516 
1291	 0.203716563914012 
1292	 0.204245976500991 
1293	 0.204790129846565 
1294	 0.205338688115227 
1295	 0.205884666077166 
1296	 0.206444809300553 
1297	 0.206986073713536 
1298	 0.207506139718058 
1299	 0.208043437729429 
1300	 0.208593392718603 
1301	 0.2091207444659 
1302	 0.209648895659994 
1303	 0.210165456655471 
1304	 0.210651030493133 
1305	 0.211149009273283 
1306	 0.211644668066096 
1307	 0.212149027939021 
1308	 0.212645384839232 
1309	 0.213175793155904 
1310	 0.213673202402765 
1311	 0.214172472268789 
1312	 0.214658335100238 
1313	 0.215127707414994 
1314	 0.215594006542964 
1315	 0.21605165303946 
1316	 0.216516896440599 
1317	 0.216977606741747 
1318	 0.217436222442596 
1319	 0.217907849201207 
1320	 0.218357404529481 
1321	 0.21879123171423 
1322	 0.219221345850148 
1323	 0.219642480072107 
1324	 0.220059736322015 
1325	 0.220480577172586 
1326	 0.22087814699527 
1327	 0.221253563364895 
1328	 0.221635418609021 
1329	 0.222009139239182 
1330	 0.22237340878333 
1331	 0.222738758657336 
1332	 0.223097827265688 
1333	 0.223439138935048 
1334	 0.22378515430089 
1335	 0.224121699534505 
1336	 0.224460790292119 
1337	 0.224780978454834 
1338	 0.225091838867132 
1339	 0.225386133544464 
1340	 0.225665167657244 
1341	 0.225942468293569 
1342	 0.226207251062486 
1343	 0.226468873352289 
1344	 0.226733036893027 
1345	 0.226977553922648 
1346	 0.227207395138477 
1347	 0.227432416588252 
1348	 0.227643328623781 
1349	 0.227855517053742 
1350	 0.228065797340539 
1351	 0.228269124100936 
1352	 0.228466827806618 
1353	 0.228662757886403 
1354	 0.228855036684122 
1355	 0.22904096402137 
1356	 0.229224752713977 
1357	 0.22940253261368 
1358	 0.229563006603986 
1359	 0.229737401554679 
1360	 0.229919213301071 
1361	 0.230096238180586 
1362	 0.230284378364995 
1363	 0.230461434659223 
1364	 0.230631350663035 
1365	 0.230794263922246 
1366	 0.230947893786421 
1367	 0.231097908489102 
1368	 0.23123103543646 
1369	 0.231355205780927 
1370	 0.231461041147789 
1371	 0.23155448079276 
1372	 0.231629624637329 
1373	 0.231690100070034 
1374	 0.23173228054984 
1375	 0.231759149007065 
1376	 0.23176705085499 
1377	 0.231763929581672 
1378	 0.231729722398304 
1379	 0.231689564673754 
1380	 0.231594503762538 
1381	 0.231486830999245 
1382	 0.231296880218026 
1383	 0.231060609701764 
1384	 0.230749466161267 
1385	 0.230378926609574 
1386	 0.229928420292617 
1387	 0.229360971870767 
1388	 0.228804741209668 
1389	 0.228139332479275 
1390	 0.227543388264499 
1391	 0.226958579980444 
1392	 0.22639370500728 
1393	 0.225938451303927 
1394	 0.225539041252583 
1395	 0.225204273153319 
1396	 0.22497484981546 
1397	 0.224723654646711 
1398	 0.224537496966955 
1399	 0.224270966303333 
1400	 0.224022200602981 
1401	 0.223685914883999 
1402	 0.223302051473033 
1403	 0.222851239891407 
1404	 0.22234713219043 
1405	 0.22179097676675 
1406	 0.221157769541473 
1407	 0.220509585504426 
1408	 0.219784239391918 
1409	 0.219104915584327 
1410	 0.218389283768378 
1411	 0.217729493177603 
1412	 0.217096191379044 
1413	 0.216503004288888 
1414	 0.215930461279922 
1415	 0.215407233371616 
1416	 0.214926175734825 
1417	 0.21448013087321 
1418	 0.214079799073708 
1419	 0.213706701325804 
1420	 0.213368173827897 
1421	 0.213062204943067 
1422	 0.212789225442908 
1423	 0.212543280144428 
1424	 0.212343528805205 
1425	 0.212152714364768 
1426	 0.211987336819853 
1427	 0.211794634343508 
1428	 0.211566157659072 
1429	 0.211323670810683 
1430	 0.211012260848112 
1431	 0.210675814068799 
1432	 0.210229243956046 
1433	 0.209713363245342 
1434	 0.209124200664955 
1435	 0.208442860810159 
1436	 0.207711035358634 
1437	 0.206889860875733 
1438	 0.206089411340022 
1439	 0.205177614164231 
1440	 0.204411298362551 
1441	 0.203608395917428 
1442	 0.203038176515845 
1443	 0.202519695622655 
1444	 0.202289179225318 
1445	 0.202227049064793 
1446	 0.202441186467053 
1447	 0.202905099056568 
1448	 0.20358076398204 
1449	 0.204585041557515 
1450	 0.20563849438135 
1451	 0.206947209778562 
1452	 0.208224033906325 
1453	 0.209635149437877 
1454	 0.210966530667092 
1455	 0.212342316745363 
1456	 0.213632309703271 
1457	 0.214903495962655 
1458	 0.216075223595089 
1459	 0.217158847665497 
1460	 0.218201352984396 
1461	 0.219156644481158 
1462	 0.220068960580691 
1463	 0.22092511775012 
1464	 0.221759059729338 
1465	 0.22252431804874 
1466	 0.223299716409685 
1467	 0.224028192713426 
1468	 0.224736504727388 
1469	 0.225453452620984 
1470	 0.226105608244415 
1471	 0.226766350329343 
1472	 0.227430587804782 
1473	 0.228055542949945 
1474	 0.228653881302194 
1475	 0.229225797782037 
1476	 0.229786343902854 
1477	 0.230288746485692 
1478	 0.230759157691794 
1479	 0.23116546332209 
1480	 0.231523916599281 
1481	 0.231827496564307 
1482	 0.232059236549161 
1483	 0.232282830027011 
1484	 0.232433194852008 
1485	 0.232635215477933 
1486	 0.232808238806209 
1487	 0.233050327215547 
1488	 0.233291117372506 
1489	 0.233647861069413 
1490	 0.234057476793658 
1491	 0.234565791088443 
1492	 0.235171012180324 
1493	 0.235854382461893 
1494	 0.23663967269217 
1495	 0.237456936788959 
1496	 0.238364756759518 
1497	 0.2392917870478 
1498	 0.240288439825692 
1499	 0.241262073801266 
1500	 0.242271124078543 
1501	 0.243265235976314 
1502	 0.24426739357807 
1503	 0.245223815673386 
1504	 0.246191125341674 
1505	 0.247095076382106 
1506	 0.247958449475243 
1507	 0.248761863994905 
1508	 0.249509829835128 
1509	 0.25021893591124 
1510	 0.250861337452009 
1511	 0.251474363834561 
1512	 0.252049474982404 
1513	 0.252595420704909 
1514	 0.253096690893947 
1515	 0.253577926847057 
1516	 0.254040035096803 
1517	 0.254465112346448 
1518	 0.254847591224605 
1519	 0.25521562452861 
1520	 0.255549713662165 
1521	 0.255867381725495 
1522	 0.256184302611706 
1523	 0.256495192970337 
1524	 0.256766739684014 
1525	 0.257016521990913 
1526	 0.257255678583103 
1527	 0.257457485185958 
1528	 0.257680028782019 
1529	 0.257902580828299 
1530	 0.258126139726963 
1531	 0.25834641512032 
1532	 0.258573791126656 
1533	 0.258795041276199 
1534	 0.259050631590679 
1535	 0.259306241032967 
1536	 0.259615326068348 
1537	 0.259955247070697 
1538	 0.260336847153214 
1539	 0.260757247036373 
1540	 0.261212744617256 
1541	 0.261702791438938 
1542	 0.262239313737127 
1543	 0.262811009891095 
1544	 0.263434244670896 
1545	 0.264120982656697 
1546	 0.264811455321381 
1547	 0.265548947466524 
1548	 0.26628010866818 
1549	 0.267021351842426 
1550	 0.267777927101918 
1551	 0.268561626275357 
1552	 0.269323535023605 
1553	 0.270096205314138 
1554	 0.270847607221015 
1555	 0.271589242203722 
1556	 0.272309329536299 
1557	 0.27300539634142 
1558	 0.273711885772353 
1559	 0.274407642904356 
1560	 0.275096748543483 
1561	 0.275791695849253 
1562	 0.276475253819584 
1563	 0.277148683926596 
1564	 0.277804773405142 
1565	 0.278443504938689 
1566	 0.279095254946326 
1567	 0.279738158126924 
1568	 0.280376541331316 
1569	 0.281036133694363 
1570	 0.281665601513346 
1571	 0.282263223929932 
1572	 0.282868779882937 
1573	 0.283471171063675 
1574	 0.284064644079423 
1575	 0.28465276896 
1576	 0.285235816790838 
1577	 0.28580628323195 
1578	 0.286381608330523 
1579	 0.286962853768276 
1580	 0.287527624677265 
1581	 0.288082073696738 
1582	 0.288638901761731 
1583	 0.289188789795518 
1584	 0.289734829477953 
1585	 0.290277361429163 
1586	 0.290824394214485 
1587	 0.291368046739193 
1588	 0.291907415883178 
1589	 0.292451981914057 
1590	 0.292992472278722 
1591	 0.293521001678533 
1592	 0.294057595773876 
1593	 0.294602517632801 
1594	 0.295141183399868 
1595	 0.295675841088246 
1596	 0.296211765563656 
1597	 0.296741460676914 
1598	 0.297279952315802 
1599	 0.297838212461856 
1600	 0.298372986230911 
1601	 0.298899848154979 
1602	 0.29942331055296 
1603	 0.299928499949248 
1604	 0.300434098486232 
1605	 0.30094244845601 
1606	 0.301445088053682 
1607	 0.301947106883575 
1608	 0.3024338761577 
1609	 0.302917845023653 
1610	 0.303385046626228 
1611	 0.303829068967787 
1612	 0.304270122104134 
1613	 0.304701464661541 
1614	 0.305127049544517 
1615	 0.305550537453655 
1616	 0.305959227835093 
1617	 0.306355764778325 
1618	 0.306744936285124 
1619	 0.307123031609335 
1620	 0.307490541219956 
1621	 0.307849961951876 
1622	 0.308198608259556 
1623	 0.30852671833893 
1624	 0.308860516960516 
1625	 0.309177968243806 
1626	 0.30951664194354 
1627	 0.30987149317731 
1628	 0.310218995661986 
1629	 0.310583112823258 
1630	 0.310931170017676 
1631	 0.311266730917576 
1632	 0.311602550365021 
1633	 0.311928067499345 
1634	 0.31226101739244 
1635	 0.312605046751765 
1636	 0.312926811219818 
1637	 0.31324218939456 
1638	 0.313549695499606 
1639	 0.31383192885127 
1640	 0.314126471419231 
1641	 0.314436554604292 
1642	 0.314725536109729 
1643	 0.31501255594903 
1644	 0.315278724302815 
1645	 0.315521444175233 
1646	 0.315760455243374 
1647	 0.315991363897112 
1648	 0.316208862459981 
1649	 0.316424177554895 
1650	 0.316609408214799 
1651	 0.316768229111627 
1652	 0.316917602655721 
1653	 0.317054159234464 
1654	 0.31716284642067 
1655	 0.317252273680806 
1656	 0.317325793305335 
1657	 0.317384881510585 
1658	 0.317403057663378 
1659	 0.317409266458766 
1660	 0.317364706966919 
1661	 0.317259210925474 
1662	 0.317140968098378 
1663	 0.317001500046924 
1664	 0.316815982543071 
1665	 0.31661030957755 
1666	 0.316341736314496 
1667	 0.316022093542745 
1668	 0.31565836050426 
1669	 0.315247446024115 
1670	 0.314779741672493 
1671	 0.31425330244829 
1672	 0.313681145631402 
1673	 0.313061349703918 
1674	 0.312383370888306 
1675	 0.311655416165981 
1676	 0.310886044329771 
1677	 0.310068897718268 
1678	 0.30918317299868 
1679	 0.3082394587301 
1680	 0.307242809495483 
1681	 0.306174949851296 
1682	 0.305051052381048 
1683	 0.30388346723928 
1684	 0.302670024841094 
1685	 0.301385128420741 
1686	 0.300071136095712 
1687	 0.298709420342626 
1688	 0.297300910226325 
1689	 0.29584631446515 
1690	 0.294341625201376 
1691	 0.292795922498371 
1692	 0.291231964777767 
1693	 0.289627578168364 
1694	 0.287980468196641 
1695	 0.286295650058202 
1696	 0.284554484345732 
1697	 0.28275120974242 
1698	 0.280918351464 
1699	 0.279025923333954 
1700	 0.277200132177612 
1701	 0.27533838080986 
1702	 0.273565850283266 
1703	 0.271810123987974 
1704	 0.270184808033123 
1705	 0.268618817597482 
1706	 0.267156847888125 
1707	 0.265868922982847 
1708	 0.264616635775672 
1709	 0.263454579975478 
1710	 0.262391232065365 
1711	 0.261311743036475 
1712	 0.260301021723898 
1713	 0.259299997724781 
1714	 0.258276247166744 
1715	 0.257329812502122 
1716	 0.256362100044284 
1717	 0.255403754628729 
1718	 0.254463617476471 
1719	 0.253519634732208 
1720	 0.252656879982601 
1721	 0.251837437701651 
1722	 0.251109694195961 
1723	 0.250518127989986 
1724	 0.249988685567711 
1725	 0.249583937040243 
1726	 0.249321129074255 
1727	 0.249166211453564 
1728	 0.24914651920092 
1729	 0.24921929576345 
1730	 0.249385067291974 
1731	 0.249618884671347 
1732	 0.249914829737975 
1733	 0.25023666931335 
1734	 0.250548922805703 
1735	 0.250834101845118 
1736	 0.251050680402864 
1737	 0.251200984022976 
1738	 0.251249109837166 
1739	 0.251227032607429 
1740	 0.251094596271099 
1741	 0.250938679675638 
1742	 0.250699974365358 
1743	 0.250481364442321 
1744	 0.250193631963824 
1745	 0.249996376804262 
1746	 0.249812799855432 
1747	 0.249714416080942 
1748	 0.249666428557907 
1749	 0.249715482263595 
1750	 0.249821709362042 
1751	 0.250066332381349 
1752	 0.250434945958385 
1753	 0.250887172501579 
1754	 0.251445901010319 
1755	 0.252093857968939 
1756	 0.252833341230394 
1757	 0.253656158262853 
1758	 0.254599014589213 
1759	 0.255574254890478 
1760	 0.256669692924586 
1761	 0.25786305268131 
1762	 0.259051844603644 
1763	 0.260313405993976 
1764	 0.261584698020772 
1765	 0.262865067191822 
1766	 0.264224204367111 
1767	 0.265539315908844 
1768	 0.266872405262428 
1769	 0.268195678238345 
1770	 0.269385821747128 
1771	 0.270560069469315 
1772	 0.271644630403505 
1773	 0.272632824385804 
1774	 0.273662808987418 
1775	 0.274627782270922 
1776	 0.275588597618043 
1777	 0.276541441174002 
1778	 0.277367787872394 
1779	 0.278205475560584 
1780	 0.279023020998117 
1781	 0.279788580391608 
1782	 0.280591415992752 
1783	 0.281333563366556 
1784	 0.282058719680668 
1785	 0.28277493701824 
1786	 0.28346887454661 
1787	 0.284164251953666 
1788	 0.284843263957237 
1789	 0.285509742515236 
1790	 0.286168132085093 
1791	 0.28681923829372 
1792	 0.287459215882156 
1793	 0.288055930018388 
1794	 0.28867813428036 
1795	 0.289293988356262 
1796	 0.289870779166377 
1797	 0.290484535577598 
1798	 0.291055666466114 
1799	 0.291593870504835 
1800	 0.292159168568309 
1801	 0.285124163516649 
1802	 0.285656085777257 
1803	 0.286172410314142 
1804	 0.286663123455544 
1805	 0.287159045225457 
1806	 0.287624517759018 
1807	 0.288074181582776 
1808	 0.288513338065934 
1809	 0.288930150654287 
1810	 0.289346161843986 
1811	 0.28975307429358 
1812	 0.290161144091718 
1813	 0.290554937414515 
1814	 0.290973143369553 
1815	 0.291363305551163 
1816	 0.291768806375838 
1817	 0.292183151106156 
1818	 0.292593508422698 
1819	 0.293009116255082 
1820	 0.293458307977162 
1821	 0.293876156598569 
1822	 0.294269102834505 
1823	 0.294698127635851 
1824	 0.295085195525927 
1825	 0.295450487599594 
1826	 0.295816366344156 
1827	 0.296167014100583 
1828	 0.296507670550387 
1829	 0.296850615931996 
1830	 0.297173082544858 
1831	 0.297477904229976 
1832	 0.297783055550692 
1833	 0.298054877453512 
1834	 0.298324516498591 
1835	 0.298598997314163 
1836	 0.298838680802084 
1837	 0.299077826036288 
1838	 0.299322646721049 
1839	 0.299542924905126 
1840	 0.299743099017907 
1841	 0.299931691903159 
1842	 0.300120656901707 
1843	 0.300269736960218 
1844	 0.300395143300734 
1845	 0.300504889830105 
1846	 0.300590984370921 
1847	 0.300648361504481 
1848	 0.300658533847651 
1849	 0.300644164891926 
1850	 0.300583591299053 
1851	 0.300492562288462 
1852	 0.300327081517611 
1853	 0.300118989297108 
1854	 0.299852261772149 
1855	 0.299516570170788 
1856	 0.299155700460163 
1857	 0.298729421704555 
1858	 0.298224195644271 
1859	 0.297658437323638 
1860	 0.297021718368803 
1861	 0.29630530765673 
1862	 0.29551253984077 
1863	 0.294698317819712 
1864	 0.293755984047953 
1865	 0.292773180562226 
1866	 0.291723331665694 
1867	 0.290512832925874 
1868	 0.289271764712277 
1869	 0.287911712719973 
1870	 0.286459800749399 
1871	 0.284923579352363 
1872	 0.283335855528421 
1873	 0.281658972205326 
1874	 0.279940247035067 
1875	 0.27816799606718 
1876	 0.276173006402262 
1877	 0.274156362150219 
1878	 0.271974919122481 
1879	 0.269608866801065 
1880	 0.267311249726634 
1881	 0.26485505531978 
1882	 0.262250968837398 
1883	 0.259591083121884 
1884	 0.256829029102018 
1885	 0.253741744884529 
1886	 0.250643365875647 
1887	 0.247338226470154 
1888	 0.243835814092662 
1889	 0.240508335972187 
1890	 0.23696395269032 
1891	 0.233377871179514 
1892	 0.229815779620997 
1893	 0.226084273888236 
1894	 0.222147073778704 
1895	 0.21832403886226 
1896	 0.21440481729285 
1897	 0.210404268544663 
1898	 0.206708391000004 
1899	 0.202902939594031 
1900	 0.199171177431907 
1901	 0.195611950782998 
1902	 0.191873446655324 
1903	 0.188325576583846 
1904	 0.184875577493756 
1905	 0.181472806170749 
1906	 0.178167932320198 
1907	 0.17522051940352 
1908	 0.172281696921947 
1909	 0.169488032145456 
1910	 0.166868689382162 
1911	 0.16416051873269 
1912	 0.161644262483497 
1913	 0.159173589672749 
1914	 0.1567016529772 
1915	 0.154367290710189 
1916	 0.152198524168526 
1917	 0.149949295629762 
1918	 0.147764726625451 
1919	 0.145642080135746 
1920	 0.143354373350748 
1921	 0.141140093374224 
1922	 0.138869059002192 
1923	 0.13649739115706 
1924	 0.134295716782137 
1925	 0.132011327910548 
1926	 0.129756565969791 
1927	 0.127563896746342 
1928	 0.125335933474927 
1929	 0.123027501128757 
1930	 0.120841153492786 
1931	 0.1187184512334 
1932	 0.116649766800252 
1933	 0.11486980258782 
1934	 0.113209574614116 
1935	 0.111681366550867 
1936	 0.110408546971002 
1937	 0.109281169106275 
1938	 0.108282881032615 
1939	 0.107533412731628 
1940	 0.106985495568225 
1941	 0.10663263695127 
1942	 0.106504687101668 
1943	 0.106546310981608 
1944	 0.106747972997068 
1945	 0.107137799656539 
1946	 0.107746810286686 
1947	 0.108494743319522 
1948	 0.109501069169894 
1949	 0.11077525667524 
1950	 0.1122006189152 
1951	 0.113844899505928 
1952	 0.115679686773163 
1953	 0.117693888577216 
1954	 0.119902716631464 
1955	 0.122378954839448 
1956	 0.12485246014333 
1957	 0.127387408841716 
1958	 0.12991081807526 
1959	 0.132157624479296 
1960	 0.134305182997305 
1961	 0.136238669407243 
1962	 0.137966128158644 
1963	 0.139509374770514 
1964	 0.140871335773726 
1965	 0.142042173322487 
1966	 0.143001496177658 
1967	 0.143835739016988 
1968	 0.144498030478019 
1969	 0.145149476594923 
1970	 0.14575299824043 
1971	 0.146367997526438 
1972	 0.147056695494857 
1973	 0.147768875556925 
1974	 0.148555363750907 
1975	 0.14943640963726 
1976	 0.150326390590226 
1977	 0.151250911521825 
1978	 0.152229426179442 
1979	 0.153243962431552 
1980	 0.154282317452446 
1981	 0.155461702114424 
1982	 0.15664027663239 
1983	 0.157896006815965 
1984	 0.159231949462683 
1985	 0.160540556386456 
1986	 0.161983145391064 
1987	 0.163546434745011 
1988	 0.1651360491238 
1989	 0.166986821862713 
1990	 0.169029603839927 
1991	 0.171181388797431 
1992	 0.173514216632885 
1993	 0.176047532529642 
1994	 0.178505065053955 
1995	 0.181157186459908 
1996	 0.183823533151102 
1997	 0.186481122437861 
1998	 0.189220400032611 
1999	 0.192100263924763 
2000	 0.194786790683502 
2001	 0.197578493231327 
2002	 0.200075491499394 
2003	 0.202375214545931 
2004	 0.204615515042506 
2005	 0.206663433778931 
2006	 0.208670251868085 
2007	 0.210656113351361 
2008	 0.212455263510724 
2009	 0.214142870345475 
2010	 0.215765377750511 
2011	 0.217173131971612 
2012	 0.218522408762549 
2013	 0.219785458134077 
2014	 0.2209210471604 
2015	 0.222029322306468 
2016	 0.223080497951791 
2017	 0.224040832085536 
2018	 0.224948649057343 
2019	 0.225762388824845 
2020	 0.226450073002446 
2021	 0.227124287224593 
2022	 0.227733877154272 
2023	 0.228255386258997 
2024	 0.228756182237804 
2025	 0.229186471295908 
2026	 0.229574129201678 
2027	 0.229904325292537 
2028	 0.230200311834088 
2029	 0.230436720751426 
2030	 0.230656458335988 
2031	 0.230809552107761 
2032	 0.230986445528166 
2033	 0.231155530564765 
2034	 0.231309012582678 
2035	 0.23144897607345 
2036	 0.231602339758286 
2037	 0.231727619062787 
2038	 0.231849501677911 
2039	 0.231994969089227 
2040	 0.232147783057961 
2041	 0.23232059932552 
2042	 0.232507936491451 
2043	 0.232710347290129 
2044	 0.232945500644867 
2045	 0.233163355801771 
2046	 0.233384460860019 
2047	 0.233608888186126 
2048	 0.233829305284097 
2049	 0.234053052098737 
2050	 0.234303335127086 
2051	 0.234520671839513 
2052	 0.234716231180428 
2053	 0.234919433069883 
2054	 0.235093774967647 
2055	 0.235234839708609 
2056	 0.235392069289155 
2057	 0.23554409660223 
2058	 0.235686023933111 
2059	 0.23583059277136 
2060	 0.235956381666848 
2061	 0.236056084908413 
2062	 0.236170327166267 
2063	 0.236274036168398 
2064	 0.236391561666494 
2065	 0.236525083623465 
2066	 0.236656594091094 
2067	 0.236771378836183 
2068	 0.236885469007318 
2069	 0.236992361656031 
2070	 0.237084259395799 
2071	 0.237181066947143 
2072	 0.237289977922832 
2073	 0.237366076500285 
2074	 0.237439339078418 
2075	 0.237479555035278 
2076	 0.237499958466239 
2077	 0.237488167519474 
2078	 0.237439509958919 
2079	 0.237381140869608 
2080	 0.237311248963296 
2081	 0.23720050180753 
2082	 0.237072481010841 
2083	 0.236906671750295 
2084	 0.236693678500153 
2085	 0.236456757544294 
2086	 0.236193188985623 
2087	 0.235893008272766 
2088	 0.235592292782349 
2089	 0.23526659423458 
2090	 0.234932950622056 
2091	 0.23461093936559 
2092	 0.234233651524239 
2093	 0.233815581871889 
2094	 0.233390823963463 
2095	 0.232915502490722 
2096	 0.232455718920652 
2097	 0.232016756249204 
2098	 0.231534328418817 
2099	 0.231037251631071 
2100	 0.230529769363922 
2101	 0.229973740553659 
2102	 0.229363444542644 
2103	 0.228778397826919 
2104	 0.228164215319008 
2105	 0.227570119885817 
2106	 0.226994813435014 
2107	 0.226390586126556 
2108	 0.225795935915368 
2109	 0.225156416317496 
2110	 0.224474928593222 
2111	 0.223808070428833 
2112	 0.223095909191938 
2113	 0.222414756042268 
2114	 0.221765663777404 
2115	 0.221099684945598 
2116	 0.220434571824823 
2117	 0.219782518292589 
2118	 0.219092890388951 
2119	 0.218372413757597 
2120	 0.217685917266303 
2121	 0.216971559683353 
2122	 0.216317824760924 
2123	 0.215713851651004 
2124	 0.215091686480315 
2125	 0.21448628664754 
2126	 0.213889720522821 
2127	 0.213280354136783 
2128	 0.21271226320761 
2129	 0.212158182585551 
2130	 0.211643798939079 
2131	 0.211173467810804 
2132	 0.210712027787211 
2133	 0.210282072247904 
2134	 0.20987355278683 
2135	 0.209455099016567 
2136	 0.209051419799769 
2137	 0.208661395615919 
2138	 0.208274786658475 
2139	 0.207920318184463 
2140	 0.207595093483543 
2141	 0.20726672593697 
2142	 0.206960694765313 
2143	 0.206651822439819 
2144	 0.206331129211848 
2145	 0.206046768557952 
2146	 0.205784163041629 
2147	 0.205527869605892 
2148	 0.205304794669497 
2149	 0.205068461661031 
2150	 0.204822698388257 
2151	 0.204596353766491 
2152	 0.204376617181324 
2153	 0.204170164737257 
2154	 0.203966540909201 
2155	 0.20376258910807 
2156	 0.203552196042242 
2157	 0.203326365714636 
2158	 0.203121580519185 
2159	 0.202931353888573 
2160	 0.202729006697539 
2161	 0.202531029420525 
2162	 0.202331490480551 
2163	 0.202109495168779 
2164	 0.201917535220173 
2165	 0.20175318417092 
2166	 0.201571180951817 
2167	 0.201388940793895 
2168	 0.201216959162638 
2169	 0.201015718936797 
2170	 0.200864025167155 
2171	 0.200735841818337 
2172	 0.200638359863424 
2173	 0.200586536893172 
2174	 0.200542658240141 
2175	 0.200493923104153 
2176	 0.20047891515467 
2177	 0.200475636587274 
2178	 0.200475497546116 
2179	 0.200508742061353 
2180	 0.200584307638037 
2181	 0.200640915709612 
2182	 0.200719670136331 
2183	 0.200765908106378 
2184	 0.200808426432504 
2185	 0.200831302150117 
2186	 0.200834969271419 
2187	 0.200824126394798 
2188	 0.200802176116288 
2189	 0.200759259473903 
2190	 0.200701234061083 
2191	 0.200619685716635 
2192	 0.200519850504193 
2193	 0.200393700314033 
2194	 0.20025062727975 
2195	 0.20006950914878 
2196	 0.199845738975671 
2197	 0.199614682153918 
2198	 0.199358895829792 
2199	 0.19907200046323 
2200	 0.198781456166254 
2201	 0.198491767436649 
2202	 0.198151612667155 
2203	 0.197790776417805 
2204	 0.197385747014429 
2205	 0.196893117950172 
2206	 0.196488992996225 
2207	 0.196094270796415 
2208	 0.195695233159684 
2209	 0.195352037825578 
2210	 0.194966247983694 
2211	 0.194506049510373 
2212	 0.194128668190047 
2213	 0.19374607665344 
2214	 0.193455050977598 
2215	 0.193236189929823 
2216	 0.193051564994179 
2217	 0.192926038207393 
2218	 0.192852054646432 
2219	 0.19282159097045 
2220	 0.192838388719096 
2221	 0.192933136312146 
2222	 0.193057133185489 
2223	 0.193160908243382 
2224	 0.193304216798769 
2225	 0.193409794011345 
2226	 0.193448414345699 
2227	 0.193439455752684 
2228	 0.193404833711535 
2229	 0.193267960709423 
2230	 0.193076003697202 
2231	 0.192768054801773 
2232	 0.19235880496646 
2233	 0.191884447039088 
2234	 0.191343882857494 
2235	 0.19065674950703 
2236	 0.189875025879716 
2237	 0.188983585928314 
2238	 0.187904588538653 
2239	 0.186822145175033 
2240	 0.185665817533551 
2241	 0.184458083386837 
2242	 0.183222998332146 
2243	 0.181873727050832 
2244	 0.180437751878945 
2245	 0.178940497288486 
2246	 0.177259978205322 
2247	 0.175656285463615 
2248	 0.174069224878547 
2249	 0.172421039733265 
2250	 0.170768982219282 
2251	 0.169125610245634 
2252	 0.167295490972442 
2253	 0.165500897557895 
2254	 0.163663827064265 
2255	 0.161785862348318 
2256	 0.160079841517862 
2257	 0.15833951018194 
2258	 0.156613170333664 
2259	 0.154965950062188 
2260	 0.153233493269418 
2261	 0.151428328850628 
2262	 0.149703255409433 
2263	 0.147934607401358 
2264	 0.146304842303812 
2265	 0.144770999062794 
2266	 0.143219725664657 
2267	 0.141768882290593 
2268	 0.14026833940603 
2269	 0.138716831223146 
2270	 0.137256681746513 
2271	 0.135809881606503 
2272	 0.134426697835218 
2273	 0.133137106904366 
2274	 0.131820391603512 
2275	 0.130569826591208 
2276	 0.129264961436235 
2277	 0.127961502505511 
2278	 0.126611702291917 
2279	 0.125192860981302 
2280	 0.123784166448655 
2281	 0.122374123388268 
2282	 0.120914324407054 
2283	 0.119430652083865 
2284	 0.117949191513564 
2285	 0.116359698858116 
2286	 0.114773383006193 
2287	 0.113145339488952 
2288	 0.111506011042872 
2289	 0.109983356006694 
2290	 0.108394998735746 
2291	 0.106842542224282 
2292	 0.105380765819776 
2293	 0.103886117758287 
2294	 0.102526393403519 
2295	 0.101278428759195 
2296	 0.100164970195619 
2297	 9.92765758341455E-02 
2298	 9.85616650765014E-02 
2299	 9.80227301075857E-02 
2300	 9.77247098457251E-02 
2301	 0.097537522113556 
2302	 0.097482807334894 
2303	 9.76583074474781E-02 
2304	 9.80499011782168E-02 
2305	 9.85617552622622E-02 
2306	 9.92825789524839E-02 
2307	 0.100126542936052 
2308	 0.101117331295419 
2309	 0.102252372908644 
2310	 0.103628533895084 
2311	 0.10497146332625 
2312	 0.106490316575196 
2313	 0.107891703113324 
2314	 0.109316206948134 
2315	 0.110662888344627 
2316	 0.111971988421094 
2317	 0.113171544947591 
2318	 0.114339232616381 
2319	 0.115329953032702 
2320	 0.116229877487935 
2321	 0.116939967016912 
2322	 0.117443133308941 
2323	 0.117862001923985 
2324	 0.118106767208785 
2325	 0.118260210696797 
2326	 0.118335919091852 
2327	 0.118245352677175 
2328	 0.117978280566767 
2329	 0.117624334716507 
2330	 0.117142632933612 
2331	 0.116515383638472 
2332	 0.115814397727776 
2333	 0.115004720873021 
2334	 0.114008415862526 
2335	 0.112992454847012 
2336	 0.111891252112924 
2337	 0.110689695738304 
2338	 0.109581562522271 
2339	 0.108439125988806 
2340	 0.10733888145556 
2341	 0.106351365953608 
2342	 0.105394440371752 
2343	 0.104596911456371 
2344	 0.104010160980253 
2345	 0.103657575504247 
2346	 0.10353427340707 
2347	 0.103668917226564 
2348	 0.103960354722049 
2349	 0.104434679178442 
2350	 0.105137440756676 
2351	 0.105969081077919 
2352	 0.106848928307354 
2353	 0.107771093963799 
2354	 0.108603132825361 
2355	 0.109303196569661 
2356	 0.1099313047955 
2357	 0.110426674751198 
2358	 0.110848753971722 
2359	 0.111113327844985 
2360	 0.1112274391772 
2361	 0.111264622351601 
2362	 0.111226472106326 
2363	 0.11111110938192 
2364	 0.110918328601422 
2365	 0.110669509830526 
2366	 0.110318680783259 
2367	 0.109942384049788 
2368	 0.109661653315529 
2369	 0.109399754892805 
2370	 0.109086450446214 
2371	 0.108791181263597 
2372	 0.10848769155488 
2373	 0.108118824660154 
2374	 0.107794546205148 
2375	 0.107484977421306 
2376	 0.107154947529009 
2377	 0.106844166003886 
2378	 0.106501815029671 
2379	 0.10619628386011 
2380	 0.105868040703437 
2381	 0.105480823839942 
2382	 0.105111390924609 
2383	 0.104749643916591 
2384	 0.104356232090433 
2385	 0.103931434799649 
2386	 0.103545070047761 
2387	 0.103164588105794 
2388	 0.102758419117438 
2389	 0.102377140175145 
2390	 0.101927220141157 
2391	 0.101466984904407 
2392	 0.100959318757047 
2393	 0.100325931592703 
2394	 9.98106248780273E-02 
2395	 0.099313394979932 
2396	 9.87898110825248E-02 
2397	 9.83867398550469E-02 
2398	 9.78381193134206E-02 
2399	 0.097135467838983 
2400	 9.65711833015767E-02 
2401	 9.59857245579126E-02 
2402	 0.095487058411846 
2403	 9.50583342416488E-02 
2404	 9.45566411138857E-02 
2405	 0.094020128364443 
2406	 9.34441498939802E-02 
2407	 9.29136704347316E-02 
2408	 9.24195541780388E-02 
2409	 9.18763553585612E-02 
2410	 9.14537140392125E-02 
2411	 9.09778088187711E-02 
2412	 9.05181983737952E-02 
2413	 9.02257959705395E-02 
2414	 8.98034226550945E-02 
2415	 8.93772703314869E-02 
2416	 8.89985443679383E-02 
2417	 0.088592958339452 
2418	 8.82884200167145E-02 
2419	 8.80761839688634E-02 
2420	 8.78266984726835E-02 
2421	 8.75959452663099E-02 
2422	 8.74555302809478E-02 
2423	 8.73165955800764E-02 
2424	 8.71772324234312E-02 
2425	 8.69738923958688E-02 
2426	 8.67419694202553E-02 
2427	 8.64487629897906E-02 
2428	 0.08614044217267 
2429	 8.59514823691414E-02 
2430	 8.57107388232575E-02 
2431	 8.54795263546483E-02 
2432	 8.53489328180353E-02 
2433	 8.51495869934076E-02 
2434	 8.48878838934006E-02 
2435	 8.46855408236891E-02 
2436	 8.44435577371711E-02 
2437	 8.42215388556031E-02 
2438	 8.40988750588332E-02 
2439	 8.39681781165447E-02 
2440	 8.38591912705976E-02 
2441	 8.36603668024454E-02 
2442	 8.33432235711915E-02 
2443	 8.31085873189615E-02 
2444	 8.28819679204344E-02 
2445	 8.25535135064968E-02 
2446	 8.23977487715341E-02 
2447	 8.22718785250162E-02 
2448	 8.19744249528905E-02 
2449	 8.17342471548786E-02 
2450	 8.13736019762392E-02 
2451	 8.09362871600757E-02 
2452	 8.06802473516296E-02 
2453	 8.04168224284333E-02 
2454	 8.01446159423826E-02 
2455	 7.99331122835708E-02 
2456	 7.95907476265777E-02 
2457	 7.91895459428408E-02 
2458	 7.88515478479394E-02 
2459	 0.078462953871579 
2460	 7.80163451693809E-02 
2461	 7.76822853474473E-02 
2462	 7.75122743452841E-02 
2463	 7.71725081183787E-02 
2464	 7.67563649450866E-02 
2465	 7.64729764637376E-02 
2466	 7.60387666859725E-02 
2467	 0.075619514188239 
2468	 7.52939787603727E-02 
2469	 7.48499557095572E-02 
2470	 7.44363697941701E-02 
2471	 0.07407541671806 
2472	 7.37258103687957E-02 
2473	 7.35213133884337E-02 
2474	 7.33453929454548E-02 
2475	 7.31739372717018E-02 
2476	 0.073080803300048 
2477	 7.29645247372134E-02 
2478	 7.27885029694404E-02 
2479	 7.25621828709891E-02 
2480	 7.24686367634298E-02 
2481	 7.23878626757817E-02 
2482	 7.22528559001926E-02 
2483	 7.23333606341116E-02 
2484	 7.24921949047001E-02 
2485	 7.25219016638058E-02 
2486	 7.26274467905035E-02 
2487	 7.27494351923434E-02 
2488	 7.28581439461056E-02 
2489	 7.29750015851815E-02 
2490	 0.072868031857776 
2491	 0.072894267148798 
2492	 0.073006519610679 
2493	 7.30697521976486E-02 
2494	 7.34371656603376E-02 
2495	 7.37118476370755E-02 
2496	 7.37472133317726E-02 
2497	 7.41236640278583E-02 
2498	 7.45870052149728E-02 
2499	 7.48039608933022E-02 
2500	 0.075084846629112 
