Wavelength	spectrum00018.asd
350	 3.52024376317107E-02 
351	 3.51985128021028E-02 
352	 3.40878191473377E-02 
353	 3.35000967782952E-02 
354	 3.32853299337525E-02 
355	 3.49838865037067E-02 
356	 0.035334557731324 
357	 3.26995739543509E-02 
358	 3.32747638735716E-02 
359	 3.27813972655565E-02 
360	 3.21492586220053E-02 
361	 3.41752433493758E-02 
362	 3.35951803198046E-02 
363	 3.23386835406011E-02 
364	 3.18958947393376E-02 
365	 3.22197619860651E-02 
366	 3.25635718067583E-02 
367	 3.30349628725132E-02 
368	 3.35837145506017E-02 
369	 3.27798944220755E-02 
370	 3.26996050202325E-02 
371	 3.29883144142317E-02 
372	 3.22008375317676E-02 
373	 3.26623133209854E-02 
374	 3.29493408459264E-02 
375	 3.26404384464667E-02 
376	 0.033303869732789 
377	 3.36104868321365E-02 
378	 3.36778999088117E-02 
379	 3.37977253406201E-02 
380	 3.34496501764953E-02 
381	 3.34875805920825E-02 
382	 3.33856177380455E-02 
383	 3.21335190720672E-02 
384	 3.25441219973602E-02 
385	 3.35468848483754E-02 
386	 3.40727661049354E-02 
387	 3.37822343901572E-02 
388	 3.34396519964963E-02 
389	 3.35084688840228E-02 
390	 3.38866127435804E-02 
391	 3.27302812250887E-02 
392	 3.24894789144531E-02 
393	 3.32809814894557E-02 
394	 3.36479786559502E-02 
395	 3.37119740483293E-02 
396	 3.36429741448176E-02 
397	 3.35096637601455E-02 
398	 3.31144385602701E-02 
399	 3.34381124747992E-02 
400	 3.38726764742598E-02 
401	 3.36165276952511E-02 
402	 3.30708325515039E-02 
403	 3.30451025801132E-02 
404	 3.34634416040956E-02 
405	 3.36039249554886E-02 
406	 0.033531695360523 
407	 3.35320836484504E-02 
408	 3.36803583194559E-02 
409	 3.35751609456204E-02 
410	 3.34624173556915E-02 
411	 3.34162935249919E-02 
412	 3.34367416257744E-02 
413	 3.34424796536953E-02 
414	 3.34678054745796E-02 
415	 3.34921791629342E-02 
416	 3.34484896630714E-02 
417	 3.34646301698754E-02 
418	 3.35600080726027E-02 
419	 3.36614537288044E-02 
420	 3.35288340088761E-02 
421	 3.33207880679284E-02 
422	 3.32769601771155E-02 
423	 3.35587068532565E-02 
424	 3.36746095966707E-02 
425	 3.35634101959857E-02 
426	 3.34348790574042E-02 
427	 3.37463796319193E-02 
428	 3.37067215080365E-02 
429	 3.34954627228878E-02 
430	 3.34159848570328E-02 
431	 3.34323043393337E-02 
432	 3.34983829275172E-02 
433	 3.35540648821453E-02 
434	 3.35493124898279E-02 
435	 3.35681464160704E-02 
436	 3.36889541793125E-02 
437	 3.38320220606222E-02 
438	 3.36621663230291E-02 
439	 3.37299944414445E-02 
440	 3.37855872368517E-02 
441	 3.35642097433982E-02 
442	 3.37910006478841E-02 
443	 3.39103082207426E-02 
444	 3.38053872306481E-02 
445	 0.033745597476686 
446	 3.37782272513226E-02 
447	 3.38235606873149E-02 
448	 3.38366622928223E-02 
449	 3.39162511195538E-02 
450	 3.39176954344127E-02 
451	 3.39010936725579E-02 
452	 3.39610296512043E-02 
453	 3.38535991730877E-02 
454	 3.39240732628501E-02 
455	 3.41505697174436E-02 
456	 3.40756222524475E-02 
457	 3.40507821319807E-02 
458	 3.40744970390009E-02 
459	 3.40999759396858E-02 
460	 3.42004300951326E-02 
461	 3.42004183673441E-02 
462	 3.41099355399528E-02 
463	 3.40541465349042E-02 
464	 3.41450721036979E-02 
465	 3.41949425391106E-02 
466	 3.41299471220759E-02 
467	 0.03409882318379 
468	 3.42007580119349E-02 
469	 3.42395630283174E-02 
470	 3.40933857032088E-02 
471	 3.43666556580092E-02 
472	 3.44364128515016E-02 
473	 3.42728384065235E-02 
474	 3.43236470412337E-02 
475	 3.42765931706942E-02 
476	 3.42609250955543E-02 
477	 3.43699323033268E-02 
478	 3.44964642474587E-02 
479	 3.44107983271625E-02 
480	 3.42920730678826E-02 
481	 3.44094321818438E-02 
482	 3.44348504935203E-02 
483	 3.44649548914852E-02 
484	 0.034511397519242 
485	 3.44583972372998E-02 
486	 3.45589852114068E-02 
487	 3.46219185360181E-02 
488	 3.44986529138192E-02 
489	 3.44801184398861E-02 
490	 3.45967265190382E-02 
491	 3.47264432583015E-02 
492	 3.46855586215236E-02 
493	 0.034655054332474 
494	 3.46762388830489E-02 
495	 3.47453834664144E-02 
496	 3.48253277136051E-02 
497	 3.47615306939882E-02 
498	 0.034697842527807 
499	 3.48008483175419E-02 
500	 3.48807685793783E-02 
501	 3.49031063076625E-02 
502	 3.48824173489353E-02 
503	 3.48703943243884E-02 
504	 3.48745162984895E-02 
505	 3.48523375970698E-02 
506	 3.48031844026474E-02 
507	 3.48575324847692E-02 
508	 3.48791573621694E-02 
509	 3.48800832636494E-02 
510	 3.49220878558769E-02 
511	 3.49054011015834E-02 
512	 3.49431246297281E-02 
513	 3.50443015924212E-02 
514	 3.50643974565632E-02 
515	 3.50182909406439E-02 
516	 3.49826812095464E-02 
517	 3.50118109762674E-02 
518	 3.50150574324728E-02 
519	 3.50245262378049E-02 
520	 3.50485313519161E-02 
521	 3.50773664798828E-02 
522	 3.51145214969713E-02 
523	 3.51185074053035E-02 
524	 3.50872494195914E-02 
525	 3.51070134884252E-02 
526	 3.51302218901161E-02 
527	 3.51560703484812E-02 
528	 3.51924502980197E-02 
529	 3.52108293797139E-02 
530	 3.52064634026497E-02 
531	 3.52013760168895E-02 
532	 3.52412975461491E-02 
533	 3.52544088863097E-02 
534	 3.52567781722011E-02 
535	 3.52648215492132E-02 
536	 3.52305572383178E-02 
537	 0.035233392979053 
538	 3.52617725406867E-02 
539	 3.52562574433051E-02 
540	 3.52275143286397E-02 
541	 3.52298155990968E-02 
542	 3.52651876199966E-02 
543	 3.52439855163568E-02 
544	 3.52262825972969E-02 
545	 3.52149019779008E-02 
546	 3.52020305173094E-02 
547	 3.52069585055917E-02 
548	 3.52430028970056E-02 
549	 0.035298641622527 
550	 3.53404915502966E-02 
551	 3.53393967831805E-02 
552	 0.035378108830686 
553	 3.54901207092164E-02 
554	 3.55301076155716E-02 
555	 3.55762570388056E-02 
556	 3.56349885058482E-02 
557	 3.56851982360659E-02 
558	 3.57581708622325E-02 
559	 3.58358991442529E-02 
560	 3.58991853756325E-02 
561	 3.59342220404759E-02 
562	 3.59400379875356E-02 
563	 3.59398921518533E-02 
564	 3.59486939940565E-02 
565	 3.59235242006476E-02 
566	 3.58779480252567E-02 
567	 0.035841647064357 
568	 3.58490402327596E-02 
569	 3.58359097119927E-02 
570	 3.58410447841891E-02 
571	 3.58815744207786E-02 
572	 3.58938773014948E-02 
573	 3.59068140653315E-02 
574	 0.035933260631016 
575	 3.59681782829447E-02 
576	 3.59347742564971E-02 
577	 3.58934389011755E-02 
578	 3.58645810404477E-02 
579	 3.58133734831255E-02 
580	 3.57800769610392E-02 
581	 3.57666071705336E-02 
582	 3.57715736797118E-02 
583	 0.035817639013543 
584	 3.58556657414483E-02 
585	 3.58773497804844E-02 
586	 3.58993744343667E-02 
587	 3.59171917247988E-02 
588	 3.59172819629317E-02 
589	 3.59087733444921E-02 
590	 3.59410733781554E-02 
591	 3.59336550582255E-02 
592	 0.035929440540923 
593	 3.59828950862841E-02 
594	 3.60258038631109E-02 
595	 3.60436983294453E-02 
596	 3.60450686250109E-02 
597	 0.036056336302742 
598	 3.60736294649311E-02 
599	 3.60917108903042E-02 
600	 0.036103603830362 
601	 3.60969793544606E-02 
602	 3.61048614061889E-02 
603	 3.61255071579693E-02 
604	 3.61414386255853E-02 
605	 3.61439235378485E-02 
606	 3.61679281802194E-02 
607	 3.62168626159713E-02 
608	 0.036251425280167 
609	 3.62495846817597E-02 
610	 3.62476374256747E-02 
611	 3.62777321901625E-02 
612	 3.63078551768094E-02 
613	 3.63088846414497E-02 
614	 3.62938918919401E-02 
615	 3.63007580753226E-02 
616	 3.63062237598004E-02 
617	 3.63308841110901E-02 
618	 3.63735901499601E-02 
619	 3.63866819262412E-02 
620	 3.63760176511672E-02 
621	 3.63799234135059E-02 
622	 0.036425296617107 
623	 3.64251258301966E-02 
624	 3.64247300577854E-02 
625	 3.64364949672739E-02 
626	 3.64378399028069E-02 
627	 3.64444128325881E-02 
628	 0.036462319459237 
629	 3.64868445377687E-02 
630	 3.64908580153305E-02 
631	 3.64907991617126E-02 
632	 3.65060759288309E-02 
633	 3.65462323515432E-02 
634	 3.65441615606915E-02 
635	 3.65435637031672E-02 
636	 3.65662735304925E-02 
637	 3.65947210974923E-02 
638	 3.65952684168264E-02 
639	 0.036583759113812 
640	 3.65822760089172E-02 
641	 3.65862291525029E-02 
642	 3.65950059825793E-02 
643	 3.66099589358578E-02 
644	 3.66313739680476E-02 
645	 3.66377858734707E-02 
646	 3.66457511954173E-02 
647	 3.66670367073056E-02 
648	 3.66976683200867E-02 
649	 3.67418712245892E-02 
650	 3.67660738582046E-02 
651	 3.67448264048762E-02 
652	 3.67299020087909E-02 
653	 3.67423007231071E-02 
654	 3.67739185796206E-02 
655	 3.67937546790406E-02 
656	 3.67922390266836E-02 
657	 3.67866454819867E-02 
658	 3.67887213804349E-02 
659	 3.67839121925867E-02 
660	 3.68244809738015E-02 
661	 3.68681017592666E-02 
662	 3.68599087708483E-02 
663	 0.036894772648962 
664	 3.68899872683303E-02 
665	 3.68512995944994E-02 
666	 3.68784047777808E-02 
667	 3.68977931003696E-02 
668	 3.69239977141228E-02 
669	 3.69618638670857E-02 
670	 3.69445087183314E-02 
671	 0.03693354125135 
672	 3.69444848326259E-02 
673	 3.69701921964079E-02 
674	 0.037010029300249 
675	 0.037030590348321 
676	 0.03703186777942 
677	 3.70555614566712E-02 
678	 3.70399033330679E-02 
679	 0.037027133087169 
680	 3.70567583431243E-02 
681	 3.70894749246444E-02 
682	 3.70924651033516E-02 
683	 3.70800197409162E-02 
684	 3.70901464101418E-02 
685	 3.71111974112428E-02 
686	 3.71272390588083E-02 
687	 3.71358707931673E-02 
688	 3.71545995135671E-02 
689	 3.71607980897159E-02 
690	 3.71529021940946E-02 
691	 3.71447247308481E-02 
692	 3.71828858695765E-02 
693	 3.72128283761184E-02 
694	 3.72187301296141E-02 
695	 3.72134093120268E-02 
696	 3.72146202882191E-02 
697	 3.72256210176374E-02 
698	 3.72425210604698E-02 
699	 0.037254008565288 
700	 3.72762308031746E-02 
701	 3.72925832006828E-02 
702	 3.72914901788993E-02 
703	 3.73188016339374E-02 
704	 3.73267841820097E-02 
705	 3.73158341639948E-02 
706	 3.73202855225299E-02 
707	 3.73440225760471E-02 
708	 3.73652070114307E-02 
709	 3.73749025058234E-02 
710	 3.73916424454308E-02 
711	 0.037409470146876 
712	 3.74305448419056E-02 
713	 3.74535576565314E-02 
714	 0.037454137494116 
715	 3.74672291400362E-02 
716	 3.74880002450114E-02 
717	 3.74858167860929E-02 
718	 3.74894218817361E-02 
719	 3.75030837959043E-02 
720	 0.037524941407445 
721	 3.75499237711023E-02 
722	 3.75573936902924E-02 
723	 3.75601770488576E-02 
724	 0.037575341871627 
725	 3.75900026229012E-02 
726	 3.76140710777577E-02 
727	 3.76374432703123E-02 
728	 0.037640751852858 
729	 3.76664908322488E-02 
730	 3.76894101397282E-02 
731	 0.037700990440967 
732	 3.77358775654493E-02 
733	 3.77472300651355E-02 
734	 3.77522102671352E-02 
735	 3.77753189564601E-02 
736	 3.77938799040912E-02 
737	 3.78115069803526E-02 
738	 3.78261388728522E-02 
739	 0.037834611835875 
740	 3.78606345035651E-02 
741	 3.78853025117146E-02 
742	 3.78963658172545E-02 
743	 3.78991929396101E-02 
744	 3.79146955111131E-02 
745	 3.79352868424185E-02 
746	 3.79507527646152E-02 
747	 3.79719187645097E-02 
748	 3.79940270134153E-02 
749	 3.80065045487395E-02 
750	 3.80019770793879E-02 
751	 3.80212871327143E-02 
752	 3.80525815392381E-02 
753	 3.80824955678535E-02 
754	 3.81037692549508E-02 
755	 0.038106596317489 
756	 3.81121406996331E-02 
757	 3.81325188879914E-02 
758	 3.81311548424899E-02 
759	 3.81362598526226E-02 
760	 3.81553170447225E-02 
761	 3.81825823999891E-02 
762	 3.81996626559567E-02 
763	 0.038209666126678 
764	 0.038219284199953 
765	 3.82364282520935E-02 
766	 3.82588311094832E-02 
767	 3.82755625964106E-02 
768	 3.82880734476421E-02 
769	 3.83334174802319E-02 
770	 3.83549546684611E-02 
771	 3.83561285354416E-02 
772	 3.83617699746476E-02 
773	 3.83797355023097E-02 
774	 0.038391911810099 
775	 3.83958304110604E-02 
776	 3.84032734142948E-02 
777	 3.84192080116916E-02 
778	 3.84501900265804E-02 
779	 3.84860022166594E-02 
780	 3.84892273853637E-02 
781	 3.84929941442989E-02 
782	 3.85110117679664E-02 
783	 3.85458035492675E-02 
784	 0.038585258350181 
785	 3.86108623433464E-02 
786	 3.86204293536163E-02 
787	 3.86257634926183E-02 
788	 3.86603073365375E-02 
789	 3.86734597097571E-02 
790	 3.86599882556499E-02 
791	 3.86757126995565E-02 
792	 3.87057045658293E-02 
793	 3.87345626523426E-02 
794	 3.87560678629599E-02 
795	 3.87886887962377E-02 
796	 3.88192409562339E-02 
797	 3.88390205551094E-02 
798	 3.88439272295675E-02 
799	 3.88411974859767E-02 
800	 3.88457126339797E-02 
801	 3.88591559846239E-02 
802	 0.038873769572342 
803	 3.89040631623738E-02 
804	 3.89277914144995E-02 
805	 3.89397297141332E-02 
806	 3.89666135803236E-02 
807	 3.89855965277438E-02 
808	 3.89966418913648E-02 
809	 3.90067389714354E-02 
810	 3.90237240300071E-02 
811	 3.90588911043047E-02 
812	 3.90967240143903E-02 
813	 3.91133134948149E-02 
814	 3.91123523781191E-02 
815	 3.91291577406309E-02 
816	 3.91634690654247E-02 
817	 3.91830822431931E-02 
818	 3.91955609999443E-02 
819	 3.91994322962838E-02 
820	 3.92038064504355E-02 
821	 3.92356294663856E-02 
822	 3.92558218507393E-02 
823	 3.92756513563823E-02 
824	 3.93081477282837E-02 
825	 3.93285732046805E-02 
826	 3.93429394289457E-02 
827	 3.93605956768955E-02 
828	 3.93881038552324E-02 
829	 3.94035800139454E-02 
830	 3.94390342271819E-02 
831	 3.94866932623793E-02 
832	 3.95043632064906E-02 
833	 3.94975825659822E-02 
834	 3.95153832099724E-02 
835	 3.95643727854436E-02 
836	 0.0395780086302 
837	 3.96003588163608E-02 
838	 3.96159105898441E-02 
839	 3.96139622426798E-02 
840	 3.96365342239853E-02 
841	 3.96656143579731E-02 
842	 3.96987916723552E-02 
843	 3.97351887292162E-02 
844	 0.039753204102775 
845	 3.97719418533243E-02 
846	 3.97997574299012E-02 
847	 3.98319870205172E-02 
848	 3.98411443782758E-02 
849	 3.98383973199434E-02 
850	 3.98391340679428E-02 
851	 3.98568895409059E-02 
852	 3.99116904629612E-02 
853	 3.99395418078578E-02 
854	 3.99209994833116E-02 
855	 3.99678015304295E-02 
856	 0.039989208941002 
857	 3.99961595155905E-02 
858	 4.00208223674474E-02 
859	 4.00544546562244E-02 
860	 0.040057498614948 
861	 4.00548437397771E-02 
862	 4.00928189087742E-02 
863	 4.01250474644803E-02 
864	 4.01659341778615E-02 
865	 4.01992192179853E-02 
866	 4.01869094661356E-02 
867	 4.01688425233217E-02 
868	 4.01968733430356E-02 
869	 4.02539987986021E-02 
870	 4.02352787095065E-02 
871	 4.02576538071685E-02 
872	 4.02909554409163E-02 
873	 4.03005085004296E-02 
874	 4.03128237358896E-02 
875	 4.03478834689782E-02 
876	 4.03820506201252E-02 
877	 4.03945409483753E-02 
878	 0.040429080462662 
879	 4.04610908695641E-02 
880	 0.040491289159742 
881	 4.05242001310589E-02 
882	 4.05137696375642E-02 
883	 4.05063541527358E-02 
884	 4.05142226044198E-02 
885	 4.05252167581023E-02 
886	 4.05979338266776E-02 
887	 0.040661118648533 
888	 4.06761096732007E-02 
889	 4.06636954882445E-02 
890	 4.06813803994754E-02 
891	 4.07013469147449E-02 
892	 4.07126854129543E-02 
893	 4.07608546123374E-02 
894	 4.08064590789311E-02 
895	 4.08254285305805E-02 
896	 4.08201954998083E-02 
897	 4.08479243577795E-02 
898	 4.08731018806652E-02 
899	 4.08849767004124E-02 
900	 4.08894050168678E-02 
901	 4.09215979975164E-02 
902	 4.09411431674163E-02 
903	 4.09627107658533E-02 
904	 4.10111039328088E-02 
905	 4.10057061886306E-02 
906	 4.10043653866735E-02 
907	 4.10344837971505E-02 
908	 4.10850806910983E-02 
909	 4.10870976815704E-02 
910	 4.11003051858681E-02 
911	 0.041141183576373 
912	 4.11710111197042E-02 
913	 4.12051113058868E-02 
914	 4.12247140303469E-02 
915	 4.12317453949559E-02 
916	 4.12603693871769E-02 
917	 0.041305421934038 
918	 0.041341543285186 
919	 4.13563561948165E-02 
920	 4.13699242311935E-02 
921	 4.13451993247221E-02 
922	 4.13607248811313E-02 
923	 4.14496863788678E-02 
924	 4.14611916308769E-02 
925	 4.14467789334378E-02 
926	 4.14638402470975E-02 
927	 4.15343757486975E-02 
928	 4.15529647351807E-02 
929	 4.15790156596742E-02 
930	 4.15808103182495E-02 
931	 4.15309889681529E-02 
932	 4.15849464315551E-02 
933	 4.16226380100662E-02 
934	 4.16340404057186E-02 
935	 4.16655010780449E-02 
936	 4.16865144080955E-02 
937	 4.17179214257372E-02 
938	 4.17576305712111E-02 
939	 4.17910229888489E-02 
940	 4.18491512111273E-02 
941	 4.18850655115889E-02 
942	 4.18771865737908E-02 
943	 4.18463169889213E-02 
944	 4.19163173869509E-02 
945	 4.19569930815246E-02 
946	 4.19491669367345E-02 
947	 4.20085481169028E-02 
948	 4.20390427408517E-02 
949	 4.20519643905815E-02 
950	 0.042071389820836 
951	 4.21125527695058E-02 
952	 4.21144473382797E-02 
953	 4.21357017701471E-02 
954	 4.21902868877252E-02 
955	 4.21995078323364E-02 
956	 4.22111628892726E-02 
957	 4.22261745705774E-02 
958	 4.22580809277531E-02 
959	 4.23529021820424E-02 
960	 4.23536284099585E-02 
961	 4.23285443668562E-02 
962	 0.042364819849959 
963	 4.24711067795898E-02 
964	 4.24722042566799E-02 
965	 4.24290807869495E-02 
966	 4.24301809365068E-02 
967	 4.24696366022747E-02 
968	 4.24634267390365E-02 
969	 4.24756998706821E-02 
970	 4.25453956883253E-02 
971	 4.25345513570337E-02 
972	 4.25856384190206E-02 
973	 4.26322447739225E-02 
974	 4.26023092464823E-02 
975	 0.042586449881372 
976	 4.26153874459341E-02 
977	 4.26858665666893E-02 
978	 4.27542601527766E-02 
979	 4.27053678957303E-02 
980	 4.26927537376099E-02 
981	 4.27186864625567E-02 
982	 4.27396941482397E-02 
983	 4.27494194619451E-02 
984	 4.27644844559808E-02 
985	 4.28256427049639E-02 
986	 0.042946430348628 
987	 0.043047572951673 
988	 4.29930556687347E-02 
989	 4.29458496185619E-02 
990	 4.30503101428926E-02 
991	 4.29919957416979E-02 
992	 0.042997418335683 
993	 4.30336760846059E-02 
994	 0.043034500339337 
995	 4.31619582270508E-02 
996	 4.32481446082094E-02 
997	 4.32428051091354E-02 
998	 4.31907031529587E-02 
999	 4.32751396757903E-02 
1000	 4.33197754759066E-02 
1001	 4.41856904182967E-02 
1002	 4.42009943673235E-02 
1003	 4.42022355995804E-02 
1004	 4.42067568048708E-02 
1005	 4.41892958197098E-02 
1006	 4.42269048313686E-02 
1007	 4.42938071552487E-02 
1008	 4.43400743251347E-02 
1009	 0.044423180592332 
1010	 4.44687128385999E-02 
1011	 4.44731166682113E-02 
1012	 4.45004484690958E-02 
1013	 4.45180077340722E-02 
1014	 4.45543981495669E-02 
1015	 4.46152461550791E-02 
1016	 4.46738841111275E-02 
1017	 4.46748012791483E-02 
1018	 4.46960372597116E-02 
1019	 4.47071148556542E-02 
1020	 4.46996823671913E-02 
1021	 0.044710770139841 
1022	 4.47478290372912E-02 
1023	 4.47786028801455E-02 
1024	 4.47983281098222E-02 
1025	 4.48301855229429E-02 
1026	 4.48990385815824E-02 
1027	 4.49275227816494E-02 
1028	 4.49292912441142E-02 
1029	 4.49382401636258E-02 
1030	 0.044965267104163 
1031	 4.49908202559314E-02 
1032	 4.49965382572069E-02 
1033	 4.50098867145001E-02 
1034	 4.50342747379576E-02 
1035	 4.50581957643749E-02 
1036	 4.50894540952335E-02 
1037	 4.51665244769863E-02 
1038	 4.52016900467944E-02 
1039	 4.51975424598657E-02 
1040	 4.52119905921164E-02 
1041	 4.52390516036786E-02 
1042	 4.52514471965591E-02 
1043	 4.52444009330352E-02 
1044	 4.52683926347552E-02 
1045	 0.04531127353677 
1046	 4.53251785866006E-02 
1047	 4.53438645487348E-02 
1048	 4.53832336229021E-02 
1049	 4.54091605751931E-02 
1050	 4.54453671107856E-02 
1051	 4.55091313803839E-02 
1052	 4.55703267179455E-02 
1053	 4.56104496509055E-02 
1054	 4.56221038749089E-02 
1055	 4.56550364080795E-02 
1056	 4.56883720896974E-02 
1057	 4.57208705823265E-02 
1058	 4.57517780896187E-02 
1059	 4.58119123589189E-02 
1060	 4.58666845321481E-02 
1061	 4.59000675764332E-02 
1062	 4.59514954978553E-02 
1063	 4.59729514865584E-02 
1064	 4.59726815962708E-02 
1065	 4.60078562542836E-02 
1066	 4.60546507086752E-02 
1067	 4.60968365942426E-02 
1068	 4.61462798557976E-02 
1069	 4.61861959218205E-02 
1070	 4.62244747137888E-02 
1071	 4.62481532677984E-02 
1072	 4.62892864867859E-02 
1073	 4.63401646952311E-02 
1074	 4.63837563303309E-02 
1075	 4.64179173757569E-02 
1076	 4.64673284608592E-02 
1077	 4.65209088656759E-02 
1078	 4.65582614545155E-02 
1079	 4.65959228290186E-02 
1080	 4.66492042581101E-02 
1081	 4.66951832089341E-02 
1082	 0.046727736577022 
1083	 4.67692054097878E-02 
1084	 4.67958639595993E-02 
1085	 4.68199820406481E-02 
1086	 4.68503396719799E-02 
1087	 4.68869761104882E-02 
1088	 4.69317278404001E-02 
1089	 4.69746942189986E-02 
1090	 4.70013276116591E-02 
1091	 4.70546289028491E-02 
1092	 4.70976225704152E-02 
1093	 4.71163816971536E-02 
1094	 4.71589039861845E-02 
1095	 4.71857841169991E-02 
1096	 4.72066540252083E-02 
1097	 4.72573747600466E-02 
1098	 0.047297021254146 
1099	 4.73195897127112E-02 
1100	 4.73473956654152E-02 
1101	 4.73658732557723E-02 
1102	 4.73825884676321E-02 
1103	 4.74041111090397E-02 
1104	 4.74287660274333E-02 
1105	 4.74564910635544E-02 
1106	 0.047494568443538 
1107	 4.75341419942796E-02 
1108	 4.75836426488674E-02 
1109	 4.76238388845357E-02 
1110	 4.76526219235981E-02 
1111	 4.76805743359849E-02 
1112	 4.76925317878062E-02 
1113	 4.77083738247793E-02 
1114	 4.77245488823453E-02 
1115	 0.047749491214911 
1116	 4.77833842137153E-02 
1117	 4.78145116443396E-02 
1118	 4.78509273223974E-02 
1119	 4.78986090080144E-02 
1120	 4.79243025825623E-02 
1121	 4.79397685933047E-02 
1122	 4.79687480790799E-02 
1123	 4.79788874095504E-02 
1124	 4.79964749206881E-02 
1125	 4.80242841083904E-02 
1126	 4.80454772073597E-02 
1127	 4.80761849464362E-02 
1128	 4.81017469671542E-02 
1129	 4.81041234650504E-02 
1130	 4.81063212483138E-02 
1131	 0.048128120211356 
1132	 4.81465497524744E-02 
1133	 4.81771962609511E-02 
1134	 4.82223656198414E-02 
1135	 4.82511771188404E-02 
1136	 4.82609641900173E-02 
1137	 4.82795574583616E-02 
1138	 4.82994602842355E-02 
1139	 4.83212746271525E-02 
1140	 0.04834785553383 
1141	 4.83583864541783E-02 
1142	 4.83774205065965E-02 
1143	 4.83864280795901E-02 
1144	 4.83854849608454E-02 
1145	 4.84009170200279E-02 
1146	 4.84113722481654E-02 
1147	 4.84280857904505E-02 
1148	 4.84580025038056E-02 
1149	 4.84708175150452E-02 
1150	 4.84883376484311E-02 
1151	 4.85174637078286E-02 
1152	 4.85338979557331E-02 
1153	 0.048538155178276 
1154	 0.048553007852116 
1155	 4.85692890015587E-02 
1156	 0.048580635884666 
1157	 4.85980323068817E-02 
1158	 4.86104705218985E-02 
1159	 4.86192638086881E-02 
1160	 4.86167628375577E-02 
1161	 4.86265310364137E-02 
1162	 4.86480739029073E-02 
1163	 4.86695478310894E-02 
1164	 4.86794983885301E-02 
1165	 4.86900553531644E-02 
1166	 4.87010702491807E-02 
1167	 4.87225999698027E-02 
1168	 4.87647199278915E-02 
1169	 4.87887753650969E-02 
1170	 4.88112319644615E-02 
1171	 4.88314178854228E-02 
1172	 0.048838648433377 
1173	 4.88554919910896E-02 
1174	 4.88770756526021E-02 
1175	 4.89026388007419E-02 
1176	 4.89353528568935E-02 
1177	 4.89599925522157E-02 
1178	 4.89805055427869E-02 
1179	 4.90109216950248E-02 
1180	 0.049047339333963 
1181	 4.90670783958331E-02 
1182	 4.91003197260841E-02 
1183	 4.91358543065875E-02 
1184	 4.91507350203459E-02 
1185	 4.91753169264398E-02 
1186	 0.049207878295238 
1187	 4.92502891876135E-02 
1188	 4.92860598173612E-02 
1189	 4.93266313863476E-02 
1190	 4.93583765483211E-02 
1191	 4.93794702587476E-02 
1192	 4.94119007309948E-02 
1193	 0.04945221648173 
1194	 0.049485935466957 
1195	 4.95173333820806E-02 
1196	 4.95489268670382E-02 
1197	 4.95707829737174E-02 
1198	 4.96090976855965E-02 
1199	 4.96395604747209E-02 
1200	 4.96761860089895E-02 
1201	 0.04971019265742 
1202	 4.97308774636362E-02 
1203	 4.97566225873601E-02 
1204	 4.97797241572387E-02 
1205	 0.049808468800999 
1206	 4.98304468741135E-02 
1207	 0.04987007161443 
1208	 4.99304656111261E-02 
1209	 4.99752310298249E-02 
1210	 5.00172469545145E-02 
1211	 5.00664038556559E-02 
1212	 5.01135204742539E-02 
1213	 5.01575592507247E-02 
1214	 5.02084096610349E-02 
1215	 5.02574557720864E-02 
1216	 5.02989851013233E-02 
1217	 5.03444168326213E-02 
1218	 5.03989891981515E-02 
1219	 5.04446845987032E-02 
1220	 5.04874642455326E-02 
1221	 5.05294109590054E-02 
1222	 5.05742917155494E-02 
1223	 5.06244015176965E-02 
1224	 5.06699737994557E-02 
1225	 5.07192000064505E-02 
1226	 5.07623412115253E-02 
1227	 5.07964042615343E-02 
1228	 0.050838658701072 
1229	 5.08835804667617E-02 
1230	 5.09282747177459E-02 
1231	 5.09774407809684E-02 
1232	 0.051023455214936 
1233	 5.10718135447895E-02 
1234	 5.11123611678806E-02 
1235	 5.11405963091213E-02 
1236	 5.11798125528572E-02 
1237	 5.12230404505147E-02 
1238	 5.12616875383684E-02 
1239	 5.12933733534315E-02 
1240	 5.13456664954426E-02 
1241	 0.051405759708601 
1242	 5.14528017916339E-02 
1243	 5.15004975936148E-02 
1244	 5.15593699023007E-02 
1245	 5.16055752617242E-02 
1246	 5.16360054947072E-02 
1247	 5.16778468414521E-02 
1248	 0.051726785982235 
1249	 5.17665138204111E-02 
1250	 5.17995188019665E-02 
1251	 5.18372431981179E-02 
1252	 5.18731944679556E-02 
1253	 5.19127758238427E-02 
1254	 5.19625046650207E-02 
1255	 5.19997220447806E-02 
1256	 0.052029231877896 
1257	 5.20625696651878E-02 
1258	 5.20918487868442E-02 
1259	 5.21206451145583E-02 
1260	 5.21474001290648E-02 
1261	 5.21797412923118E-02 
1262	 5.22109621532874E-02 
1263	 5.22455954173296E-02 
1264	 0.052284589031552 
1265	 5.23376683428877E-02 
1266	 5.23706657023225E-02 
1267	 5.23912055362212E-02 
1268	 5.24284459884364E-02 
1269	 5.24627908185534E-02 
1270	 5.25026845480345E-02 
1271	 5.25668816524707E-02 
1272	 5.26018109462806E-02 
1273	 5.26096980301438E-02 
1274	 5.26437952088168E-02 
1275	 5.26770187347861E-02 
1276	 5.27161201577718E-02 
1277	 5.27771486276298E-02 
1278	 5.28267516994311E-02 
1279	 5.28638346239133E-02 
1280	 5.29119818338113E-02 
1281	 5.29715554447312E-02 
1282	 5.30221271730634E-02 
1283	 0.053069712370625 
1284	 0.053120698106899 
1285	 5.31708770827374E-02 
1286	 5.32134530978719E-02 
1287	 5.32669314151549E-02 
1288	 5.33330436570612E-02 
1289	 5.33814434828053E-02 
1290	 5.34193063612749E-02 
1291	 5.34723918314573E-02 
1292	 5.35253696075847E-02 
1293	 5.35776174591656E-02 
1294	 5.36426845376032E-02 
1295	 5.36969675800626E-02 
1296	 5.37333982399163E-02 
1297	 5.37886407758422E-02 
1298	 5.38635511552363E-02 
1299	 5.39163817326082E-02 
1300	 5.39651305812895E-02 
1301	 5.40125292635939E-02 
1302	 5.40366620103609E-02 
1303	 5.40796727117327E-02 
1304	 5.41406219780089E-02 
1305	 5.41921034120254E-02 
1306	 5.42534463356043E-02 
1307	 5.42999337792295E-02 
1308	 5.43304549522019E-02 
1309	 0.054361387024004 
1310	 5.44014284386985E-02 
1311	 5.44415460407874E-02 
1312	 5.44753066436824E-02 
1313	 5.45154206765578E-02 
1314	 5.45485683846617E-02 
1315	 5.45682602401946E-02 
1316	 5.45971623125476E-02 
1317	 5.46296379248986E-02 
1318	 5.46661172699209E-02 
1319	 5.47075693734277E-02 
1320	 5.47408474436229E-02 
1321	 5.47797624253281E-02 
1322	 5.48085714635876E-02 
1323	 0.054823042003379 
1324	 0.054844349000612 
1325	 5.48669814593499E-02 
1326	 5.48874931920896E-02 
1327	 5.49047961864266E-02 
1328	 5.49261691978343E-02 
1329	 5.49532732509394E-02 
1330	 5.49723790207405E-02 
1331	 5.49832168826188E-02 
1332	 0.055004392423894 
1333	 5.50292263134284E-02 
1334	 5.50513140587709E-02 
1335	 5.50660616420107E-02 
1336	 5.50842874474812E-02 
1337	 5.51019523379665E-02 
1338	 5.51073214872293E-02 
1339	 5.51224169058685E-02 
1340	 5.51528504549809E-02 
1341	 5.51659898236621E-02 
1342	 5.51663801308134E-02 
1343	 5.51777362087941E-02 
1344	 5.51919679358664E-02 
1345	 5.52000338670087E-02 
1346	 5.52117984847995E-02 
1347	 5.52161868443725E-02 
1348	 5.52066603871159E-02 
1349	 0.055208814769921 
1350	 5.52139441415348E-02 
1351	 5.52208807652648E-02 
1352	 5.52346883507786E-02 
1353	 5.52453914197904E-02 
1354	 5.52544558271993E-02 
1355	 5.52648792739806E-02 
1356	 5.52760470782189E-02 
1357	 5.52870014414764E-02 
1358	 0.05529785454142 
1359	 0.055310977094427 
1360	 5.53297512608584E-02 
1361	 5.53392690743903E-02 
1362	 5.53531248644501E-02 
1363	 5.53624065910353E-02 
1364	 0.055377735098783 
1365	 5.53947257359901E-02 
1366	 0.055407485493637 
1367	 5.54215734446465E-02 
1368	 5.54351795892471E-02 
1369	 5.54444107516488E-02 
1370	 5.54538654231338E-02 
1371	 5.54691492537904E-02 
1372	 0.05547607430451 
1373	 5.54697739360907E-02 
1374	 0.055479390904799 
1375	 5.54966584814292E-02 
1376	 5.55079475483955E-02 
1377	 5.55267129496111E-02 
1378	 5.55380358522739E-02 
1379	 5.55384152739659E-02 
1380	 5.55455275021206E-02 
1381	 5.55558965297478E-02 
1382	 5.55643906284168E-02 
1383	 5.55750095438538E-02 
1384	 5.55824325993211E-02 
1385	 5.55828808811026E-02 
1386	 5.55911675587995E-02 
1387	 5.56025669372284E-02 
1388	 5.56136347961859E-02 
1389	 5.56312776753669E-02 
1390	 5.56458413822021E-02 
1391	 5.56575194578605E-02 
1392	 0.055668192021521 
1393	 0.05568374213374 
1394	 5.56995708718149E-02 
1395	 5.57129569480144E-02 
1396	 5.57306019185749E-02 
1397	 5.57351728108075E-02 
1398	 5.57323158719059E-02 
1399	 5.57302419140206E-02 
1400	 5.57216578542427E-02 
1401	 5.57135747225691E-02 
1402	 5.57079483397463E-02 
1403	 5.56948066361095E-02 
1404	 5.56765924174268E-02 
1405	 0.055656259214 
1406	 5.56355450232566E-02 
1407	 5.56040448363973E-02 
1408	 5.55583442484384E-02 
1409	 5.55251069682221E-02 
1410	 5.54906184921936E-02 
1411	 5.54567036051767E-02 
1412	 5.54380323598746E-02 
1413	 5.54029024477558E-02 
1414	 5.53503580819837E-02 
1415	 5.53085806814241E-02 
1416	 5.52652740395893E-02 
1417	 5.52235402823687E-02 
1418	 5.51869433425724E-02 
1419	 5.51505993905526E-02 
1420	 0.055117752641955 
1421	 5.50784172898751E-02 
1422	 5.50329403636048E-02 
1423	 5.49949136195881E-02 
1424	 5.49594211262036E-02 
1425	 5.49154413497698E-02 
1426	 5.48893417442775E-02 
1427	 5.48635627261324E-02 
1428	 5.48248119213874E-02 
1429	 5.47862959946405E-02 
1430	 5.47286515836243E-02 
1431	 5.46545570223255E-02 
1432	 5.45855081020119E-02 
1433	 5.45060416103437E-02 
1434	 5.44291021433781E-02 
1435	 5.43574346977672E-02 
1436	 5.42727315905693E-02 
1437	 5.41794525260891E-02 
1438	 0.054086179980742 
1439	 5.39783168784904E-02 
1440	 5.38908210104967E-02 
1441	 5.38011540111035E-02 
1442	 5.37340092869758E-02 
1443	 5.36792070462847E-02 
1444	 5.36450855242914E-02 
1445	 5.36192806341389E-02 
1446	 5.36274279888406E-02 
1447	 5.36588830038904E-02 
1448	 5.37154078512301E-02 
1449	 5.38108122629733E-02 
1450	 5.39087874956103E-02 
1451	 5.40341840707535E-02 
1452	 5.41545453833666E-02 
1453	 5.42876290477534E-02 
1454	 0.054410071170956 
1455	 5.45341050033663E-02 
1456	 0.05465032520279 
1457	 5.47587775589724E-02 
1458	 5.48668029119734E-02 
1459	 5.49716811684068E-02 
1460	 5.50721831152749E-02 
1461	 5.51726954842208E-02 
1462	 5.52632181038981E-02 
1463	 5.53417363368933E-02 
1464	 5.54233007398265E-02 
1465	 5.54998473415063E-02 
1466	 5.55777773476108E-02 
1467	 5.56506139219581E-02 
1468	 0.055718603963563 
1469	 5.57776426314625E-02 
1470	 5.58304252423589E-02 
1471	 5.58922501200986E-02 
1472	 0.055958403683133 
1473	 5.60177717521649E-02 
1474	 5.60821253487403E-02 
1475	 5.61318739996892E-02 
1476	 5.61691388186943E-02 
1477	 5.62122899617738E-02 
1478	 5.62546324564903E-02 
1479	 5.62874688796762E-02 
1480	 5.63220925092558E-02 
1481	 5.63413369452219E-02 
1482	 5.63361790782576E-02 
1483	 5.63560392966026E-02 
1484	 5.63812511819085E-02 
1485	 5.64025768191843E-02 
1486	 5.64302842243788E-02 
1487	 5.64625141139653E-02 
1488	 5.64885010781071E-02 
1489	 5.65257368354158E-02 
1490	 5.65769950310276E-02 
1491	 5.66270435771911E-02 
1492	 5.66690283879763E-02 
1493	 5.67338617933049E-02 
1494	 5.68163131971312E-02 
1495	 5.68980501410335E-02 
1496	 5.69951079251321E-02 
1497	 5.70870343574777E-02 
1498	 5.71758484441259E-02 
1499	 0.057270857511663 
1500	 5.73726968261273E-02 
1501	 0.057471481688935 
1502	 5.75771637582806E-02 
1503	 5.76724751986168E-02 
1504	 5.77604227175436E-02 
1505	 5.78484888220332E-02 
1506	 5.79334282727944E-02 
1507	 5.80133285101379E-02 
1508	 5.80951054324662E-02 
1509	 5.81672339825207E-02 
1510	 0.058227028064224 
1511	 5.82876676535642E-02 
1512	 5.83421124391769E-02 
1513	 5.83972032622683E-02 
1514	 5.84503909816795E-02 
1515	 5.85053266718499E-02 
1516	 5.85621159509234E-02 
1517	 5.86158113576405E-02 
1518	 5.86722721196189E-02 
1519	 5.87226620446042E-02 
1520	 5.87672835388637E-02 
1521	 5.88105899446608E-02 
1522	 5.88510411623387E-02 
1523	 5.88827109128893E-02 
1524	 5.89185198586974E-02 
1525	 5.89515203723673E-02 
1526	 0.058988209987738 
1527	 5.90284003331901E-02 
1528	 5.90606931225383E-02 
1529	 5.90914709447083E-02 
1530	 5.91198436879383E-02 
1531	 0.059139136819187 
1532	 5.91727459629753E-02 
1533	 5.92078573781627E-02 
1534	 5.92540826348121E-02 
1535	 5.93154325775052E-02 
1536	 5.93630553007672E-02 
1537	 5.94115624227368E-02 
1538	 0.059459815366048 
1539	 5.94969908608906E-02 
1540	 5.95511156298179E-02 
1541	 5.96141891509759E-02 
1542	 5.96804287569012E-02 
1543	 5.97514723241716E-02 
1544	 5.98307557087055E-02 
1545	 5.99237390020522E-02 
1546	 6.00024024544251E-02 
1547	 6.00765952230904E-02 
1548	 6.01631690947752E-02 
1549	 6.02466506692208E-02 
1550	 6.03358602327574E-02 
1551	 6.04468910052687E-02 
1552	 6.05355656415975E-02 
1553	 6.06082686403723E-02 
1554	 0.060690784747279 
1555	 6.07689220101723E-02 
1556	 0.060853462087309 
1557	 6.09507003808542E-02 
1558	 6.10319298407771E-02 
1559	 0.061102800946255 
1560	 6.11831537557848E-02 
1561	 6.12601570665287E-02 
1562	 6.13387290784972E-02 
1563	 6.14251623195625E-02 
1564	 6.15084694728964E-02 
1565	 6.15882236824602E-02 
1566	 6.16669776049858E-02 
1567	 6.17502188577051E-02 
1568	 6.18268751445199E-02 
1569	 0.061896284510429 
1570	 6.19666555299518E-02 
1571	 6.20322234877759E-02 
1572	 6.21042037214183E-02 
1573	 6.21833176797668E-02 
1574	 0.062251671667561 
1575	 6.23159145593573E-02 
1576	 6.23838763579637E-02 
1577	 6.24465315797992E-02 
1578	 6.25098612882412E-02 
1579	 6.25785362776227E-02 
1580	 6.26449504198474E-02 
1581	 0.062700322262641 
1582	 6.27684592064949E-02 
1583	 6.28507750786053E-02 
1584	 0.062923034998463 
1585	 6.29956490658572E-02 
1586	 6.30676531417779E-02 
1587	 6.31393358812929E-02 
1588	 6.32014925452687E-02 
1589	 6.32565782724768E-02 
1590	 6.33162734945488E-02 
1591	 6.33628029343826E-02 
1592	 6.34232112844392E-02 
1593	 0.063499963810751 
1594	 6.35701848529224E-02 
1595	 6.36438645198102E-02 
1596	 6.37129902147178E-02 
1597	 6.37732471703236E-02 
1598	 6.38426994045725E-02 
1599	 6.39185332436262E-02 
1600	 6.39894650080246E-02 
1601	 6.40675227558407E-02 
1602	 0.064136783420339 
1603	 6.41906044235986E-02 
1604	 6.42552421889412E-02 
1605	 6.43252802724888E-02 
1606	 6.43905889027375E-02 
1607	 6.44643545091661E-02 
1608	 6.45270967893678E-02 
1609	 6.45744081698644E-02 
1610	 6.46317776074303E-02 
1611	 0.064687499227144 
1612	 6.47459230043074E-02 
1613	 6.48091435521795E-02 
1614	 6.48750493192641E-02 
1615	 6.49445015625226E-02 
1616	 6.50128300892962E-02 
1617	 6.50918726836832E-02 
1618	 6.51572498936551E-02 
1619	 6.52135939545778E-02 
1620	 6.52676603191159E-02 
1621	 6.53079104014175E-02 
1622	 6.53563451885656E-02 
1623	 6.54026953639613E-02 
1624	 0.065458702635319 
1625	 6.55241429073435E-02 
1626	 0.065588991934322 
1627	 6.56680562456763E-02 
1628	 6.57308750900373E-02 
1629	 6.57846359498897E-02 
1630	 6.58395253300119E-02 
1631	 6.58777569996002E-02 
1632	 6.59303046539916E-02 
1633	 6.59933365413723E-02 
1634	 6.60542280094314E-02 
1635	 6.61268824603703E-02 
1636	 6.61871893092758E-02 
1637	 6.62335690493723E-02 
1638	 6.62922100148313E-02 
1639	 6.63525117740948E-02 
1640	 6.64105096364458E-02 
1641	 6.64800929654087E-02 
1642	 6.65385535148509E-02 
1643	 6.65896062642162E-02 
1644	 6.66381975045157E-02 
1645	 6.66751682428949E-02 
1646	 6.67229881041819E-02 
1647	 0.066772567017399 
1648	 0.066818998070589 
1649	 6.68731193612059E-02 
1650	 6.69248988504015E-02 
1651	 6.69668341757648E-02 
1652	 6.70200548462034E-02 
1653	 6.70811493397449E-02 
1654	 6.71393760008716E-02 
1655	 6.72102868928832E-02 
1656	 0.06726469292223 
1657	 6.73100176956954E-02 
1658	 6.73547355967366E-02 
1659	 6.73893191052075E-02 
1660	 0.067421599389914 
1661	 6.74508240506303E-02 
1662	 6.74822875869617E-02 
1663	 6.75096298586707E-02 
1664	 6.75366087804612E-02 
1665	 6.75708049721969E-02 
1666	 0.067595169331601 
1667	 6.76121806677271E-02 
1668	 6.76294603627036E-02 
1669	 6.76332297502797E-02 
1670	 6.76523974653026E-02 
1671	 6.76851945093066E-02 
1672	 6.77061752270051E-02 
1673	 6.77342539201597E-02 
1674	 6.77503770971233E-02 
1675	 6.77483770304496E-02 
1676	 6.77531909083589E-02 
1677	 6.77634381748232E-02 
1678	 6.77600007919395E-02 
1679	 6.77466073500523E-02 
1680	 6.77411768611188E-02 
1681	 6.77301633399613E-02 
1682	 6.77233696891525E-02 
1683	 6.77262360326639E-02 
1684	 0.067723077079016 
1685	 6.77182884481184E-02 
1686	 6.77037901682953E-02 
1687	 0.067683924862489 
1688	 0.067665988440686 
1689	 6.76316873766977E-02 
1690	 6.76147929549164E-02 
1691	 6.76165592354703E-02 
1692	 6.76063439229758E-02 
1693	 0.06759816475674 
1694	 6.75855932049635E-02 
1695	 6.75700928245731E-02 
1696	 6.75399682030351E-02 
1697	 0.06750404855994 
1698	 6.74607611650491E-02 
1699	 6.74018165475988E-02 
1700	 6.73518955837713E-02 
1701	 0.067297890147366 
1702	 6.72533227355627E-02 
1703	 0.0672146368488 
1704	 6.71724264182373E-02 
1705	 6.71346703021686E-02 
1706	 6.70882354431678E-02 
1707	 0.067041238928812 
1708	 6.69871367105545E-02 
1709	 6.69504357079938E-02 
1710	 6.69154677335222E-02 
1711	 6.68629752697551E-02 
1712	 0.066823219745675 
1713	 6.67728179267748E-02 
1714	 6.67108465927069E-02 
1715	 6.66676643134014E-02 
1716	 0.066622941205204 
1717	 6.65718789082797E-02 
1718	 6.65275169529179E-02 
1719	 6.64906308747423E-02 
1720	 6.64548800518257E-02 
1721	 6.64069559503289E-02 
1722	 6.63505618453223E-02 
1723	 6.62802380314823E-02 
1724	 6.62088869874324E-02 
1725	 6.61792550415642E-02 
1726	 0.06617474070104 
1727	 6.61589933101428E-02 
1728	 6.61386209250464E-02 
1729	 6.61166082004884E-02 
1730	 6.60930874947181E-02 
1731	 6.60953005779041E-02 
1732	 6.61191975813195E-02 
1733	 6.61269723857648E-02 
1734	 0.066110825064296 
1735	 6.61005431751639E-02 
1736	 0.06609833167809 
1737	 6.60874442894819E-02 
1738	 6.61020722755909E-02 
1739	 6.61101518405582E-02 
1740	 6.61163561914619E-02 
1741	 6.61109732376741E-02 
1742	 0.066101399124186 
1743	 6.60893858461617E-02 
1744	 6.60532572233851E-02 
1745	 6.60440488955853E-02 
1746	 0.066050452524356 
1747	 6.60572997545333E-02 
1748	 0.066074620106163 
1749	 6.60994474237161E-02 
1750	 6.61185873186815E-02 
1751	 6.61643948074973E-02 
1752	 0.066235243083251 
1753	 6.63034743188254E-02 
1754	 6.63912156344616E-02 
1755	 6.64554870111096E-02 
1756	 0.066504550628485 
1757	 6.65656976589282E-02 
1758	 6.66508772034207E-02 
1759	 6.67609637024739E-02 
1760	 0.066850528240872 
1761	 0.066938349337554 
1762	 6.70477682698604E-02 
1763	 6.71525504191326E-02 
1764	 6.72575600730032E-02 
1765	 6.73606429807993E-02 
1766	 6.74405597850459E-02 
1767	 6.75109310270886E-02 
1768	 6.75937639669328E-02 
1769	 6.76912342664096E-02 
1770	 6.77883611525843E-02 
1771	 6.78884849770019E-02 
1772	 6.79899274092011E-02 
1773	 6.80712867405289E-02 
1774	 6.81426535847659E-02 
1775	 6.82101389682537E-02 
1776	 6.82773862678413E-02 
1777	 0.068371472798993 
1778	 6.84749676439405E-02 
1779	 6.85811682492757E-02 
1780	 0.068687545082052 
1781	 6.87518043412062E-02 
1782	 6.88224301064502E-02 
1783	 6.89067944794747E-02 
1784	 6.89859045683621E-02 
1785	 6.91060774735436E-02 
1786	 6.91979045137604E-02 
1787	 6.92818518096306E-02 
1788	 6.93633450096748E-02 
1789	 6.94232944707883E-02 
1790	 6.95113720315403E-02 
1791	 6.96214282793179E-02 
1792	 6.97139255637264E-02 
1793	 6.98059600688874E-02 
1794	 6.98954861806368E-02 
1795	 6.99632907905307E-02 
1796	 7.00397728114171E-02 
1797	 7.01470814552554E-02 
1798	 0.070232565463978 
1799	 7.03154436067636E-02 
1800	 7.04144187580755E-02 
1801	 7.21154026476616E-02 
1802	 7.21949401076629E-02 
1803	 7.22791846567561E-02 
1804	 7.23489784855639E-02 
1805	 7.24154863427181E-02 
1806	 0.072495470251849 
1807	 7.25903318613778E-02 
1808	 7.26780557199458E-02 
1809	 7.27715614569542E-02 
1810	 7.28550728580046E-02 
1811	 7.29345901464927E-02 
1812	 7.30123158507898E-02 
1813	 7.30860229064105E-02 
1814	 7.31575533633777E-02 
1815	 7.32137984311812E-02 
1816	 7.32925866425985E-02 
1817	 7.33651528684253E-02 
1818	 7.34378676928907E-02 
1819	 7.35033285997111E-02 
1820	 7.35636712301061E-02 
1821	 7.36304470837814E-02 
1822	 7.36927231541627E-02 
1823	 7.37600951921646E-02 
1824	 7.38276835846327E-02 
1825	 7.39124071778953E-02 
1826	 7.39846143062967E-02 
1827	 7.40487425886079E-02 
1828	 7.41144400577086E-02 
1829	 7.41808320357438E-02 
1830	 7.42461754545911E-02 
1831	 7.43109206107788E-02 
1832	 7.43739006951515E-02 
1833	 7.44296361482325E-02 
1834	 0.074477974056413 
1835	 7.45235868357217E-02 
1836	 7.45761586981481E-02 
1837	 7.46298275876685E-02 
1838	 7.46987024135731E-02 
1839	 7.47483214090236E-02 
1840	 7.47817863958088E-02 
1841	 7.48250013199087E-02 
1842	 7.48672455797175E-02 
1843	 0.074906580608283 
1844	 7.49553785096948E-02 
1845	 7.49977998438438E-02 
1846	 7.50213220348158E-02 
1847	 7.50441357265854E-02 
1848	 7.50720632812484E-02 
1849	 7.51039943934853E-02 
1850	 7.51280988022972E-02 
1851	 7.51527444094491E-02 
1852	 7.51760862210802E-02 
1853	 0.075190116314082 
1854	 0.075187729796525 
1855	 7.51946731184523E-02 
1856	 7.51817124106905E-02 
1857	 0.075155055212838 
1858	 7.51298649042225E-02 
1859	 7.50991228757216E-02 
1860	 7.50632696656211E-02 
1861	 7.50219416168976E-02 
1862	 7.49755610600003E-02 
1863	 7.49278339734727E-02 
1864	 7.48726659564164E-02 
1865	 7.48076461736107E-02 
1866	 7.47389207350738E-02 
1867	 7.46510775476786E-02 
1868	 7.45536623904691E-02 
1869	 7.44495047329215E-02 
1870	 0.074330885445275 
1871	 7.41972210556751E-02 
1872	 7.40633052560906E-02 
1873	 0.073918471185912 
1874	 7.37755718570864E-02 
1875	 7.36260497335132E-02 
1876	 7.34564238557453E-02 
1877	 7.32807650458547E-02 
1878	 7.30928942759984E-02 
1879	 7.29042825809946E-02 
1880	 7.27277851007292E-02 
1881	 7.25319174914076E-02 
1882	 7.23303161846124E-02 
1883	 0.072110611860269 
1884	 7.18805925399412E-02 
1885	 7.16337513892256E-02 
1886	 7.13937478487552E-02 
1887	 7.11381425160867E-02 
1888	 7.08487863245193E-02 
1889	 0.070567480307134 
1890	 7.02753047739203E-02 
1891	 6.99876878188434E-02 
1892	 6.97218637396386E-02 
1893	 6.94314872702305E-02 
1894	 6.91312743025879E-02 
1895	 6.88200672394853E-02 
1896	 6.84954370430683E-02 
1897	 6.81534646427646E-02 
1898	 6.78309198053482E-02 
1899	 0.067504131321258 
1900	 6.71769180843778E-02 
1901	 6.68475187140544E-02 
1902	 6.64896475674695E-02 
1903	 6.61467958339377E-02 
1904	 6.57980061202762E-02 
1905	 6.54386567731018E-02 
1906	 6.50797466538153E-02 
1907	 6.47511619068563E-02 
1908	 6.44005469676155E-02 
1909	 6.40655874912581E-02 
1910	 0.063740686237383 
1911	 6.33775340729238E-02 
1912	 6.30282807886064E-02 
1913	 6.26600259971783E-02 
1914	 6.22590826178095E-02 
1915	 6.18778490342954E-02 
1916	 0.061513587692175 
1917	 6.11194772812054E-02 
1918	 6.07049749759772E-02 
1919	 0.060310097413674 
1920	 5.98769082182969E-02 
1921	 5.94463781340905E-02 
1922	 5.90205807821386E-02 
1923	 0.058560852838659 
1924	 5.81079394126239E-02 
1925	 5.76260211014888E-02 
1926	 5.71528870852055E-02 
1927	 5.66786915200444E-02 
1928	 5.62045830039587E-02 
1929	 5.57171920945508E-02 
1930	 5.52598055361207E-02 
1931	 5.47989738774506E-02 
1932	 5.43472412753492E-02 
1933	 5.39522213008179E-02 
1934	 5.35708958243443E-02 
1935	 5.32245545568069E-02 
1936	 5.29401352255066E-02 
1937	 0.052688236290671 
1938	 5.24734263420875E-02 
1939	 5.23041646587578E-02 
1940	 5.21787057943735E-02 
1941	 5.20835038813058E-02 
1942	 5.20523526859706E-02 
1943	 5.20515517201489E-02 
1944	 5.20771510454647E-02 
1945	 5.21643427352326E-02 
1946	 5.22959064444554E-02 
1947	 5.24538447332806E-02 
1948	 5.26807269890754E-02 
1949	 5.29729702085336E-02 
1950	 5.32862141861922E-02 
1951	 5.36338649163898E-02 
1952	 5.40276764591488E-02 
1953	 5.44638518758682E-02 
1954	 5.49326699240844E-02 
1955	 5.54503204853825E-02 
1956	 5.59734555888519E-02 
1957	 0.05649754459023 
1958	 5.70105034882038E-02 
1959	 5.74616628318798E-02 
1960	 5.78908022345223E-02 
1961	 5.82792729133942E-02 
1962	 5.86208951781527E-02 
1963	 5.89307141085702E-02 
1964	 5.92128287434841E-02 
1965	 5.94470014419097E-02 
1966	 5.96394378558536E-02 
1967	 0.059796380031917 
1968	 5.99062035924401E-02 
1969	 6.00213263200672E-02 
1970	 6.01337483538434E-02 
1971	 0.060249463570447 
1972	 6.03852510555142E-02 
1973	 6.05330776095572E-02 
1974	 6.06858969269249E-02 
1975	 6.08458362340702E-02 
1976	 6.10146286918067E-02 
1977	 6.11878569538122E-02 
1978	 6.13799448163807E-02 
1979	 6.15802082280926E-02 
1980	 6.17961601468434E-02 
1981	 6.20490440326443E-02 
1982	 6.22868519342214E-02 
1983	 6.25486319596813E-02 
1984	 0.062836337775413 
1985	 6.31056572465804E-02 
1986	 0.063402518097753 
1987	 6.37155219013696E-02 
1988	 6.40225479723259E-02 
1989	 0.064381769385853 
1990	 6.47690984860011E-02 
1991	 6.51892083534856E-02 
1992	 6.56518212339216E-02 
1993	 6.61466380820496E-02 
1994	 6.66284345400953E-02 
1995	 6.71496947844441E-02 
1996	 6.76550121425297E-02 
1997	 6.81625735467317E-02 
1998	 6.86859162061595E-02 
1999	 6.92335336769235E-02 
2000	 6.97448977688736E-02 
2001	 7.02734399914264E-02 
2002	 7.07533364682459E-02 
2003	 0.071198612703231 
2004	 7.16365656102627E-02 
2005	 0.072051521864405 
2006	 7.24477455441131E-02 
2007	 7.28291745202461E-02 
2008	 7.31815936479151E-02 
2009	 7.35366415014186E-02 
2010	 7.38633390550315E-02 
2011	 7.41553037568216E-02 
2012	 7.44528775952737E-02 
2013	 7.47317750813059E-02 
2014	 7.49825041383011E-02 
2015	 0.075232551784874 
2016	 7.54824965448605E-02 
2017	 7.57112645702064E-02 
2018	 7.59258264579683E-02 
2019	 0.076124414492779 
2020	 7.63072254611916E-02 
2021	 7.64760933227089E-02 
2022	 7.66337519381166E-02 
2023	 7.67801249368876E-02 
2024	 7.69228149771783E-02 
2025	 7.70681216866195E-02 
2026	 7.71998790505901E-02 
2027	 7.73263812272095E-02 
2028	 7.74364804159776E-02 
2029	 7.75203049642695E-02 
2030	 7.76237146271115E-02 
2031	 7.77257466209463E-02 
2032	 7.78269512255677E-02 
2033	 7.79491257394661E-02 
2034	 7.80502033084416E-02 
2035	 7.81382070995274E-02 
2036	 7.82106938566794E-02 
2037	 7.82967148556868E-02 
2038	 7.83711870929365E-02 
2039	 7.84583174799869E-02 
2040	 7.85626505371627E-02 
2041	 7.86471157701876E-02 
2042	 7.87204334455219E-02 
2043	 7.88044188472706E-02 
2044	 7.88792987742349E-02 
2045	 0.078964985462302 
2046	 7.90670800062216E-02 
2047	 7.91622175342249E-02 
2048	 7.92590111963569E-02 
2049	 7.93516131835109E-02 
2050	 7.94390828757729E-02 
2051	 7.95272776000993E-02 
2052	 7.96317441261396E-02 
2053	 7.97261995164851E-02 
2054	 7.98165345571418E-02 
2055	 7.99152841879551E-02 
2056	 7.99998341832954E-02 
2057	 8.00724354761294E-02 
2058	 8.01372251411201E-02 
2059	 8.01851755642723E-02 
2060	 0.080247938067517 
2061	 0.080302984959131 
2062	 8.03705723953331E-02 
2063	 8.04570872717851E-02 
2064	 8.05376681001399E-02 
2065	 8.06164097430607E-02 
2066	 8.06933395777631E-02 
2067	 8.07853031844089E-02 
2068	 8.08870808040195E-02 
2069	 8.09826912021126E-02 
2070	 0.08109252761841 
2071	 8.11780794358052E-02 
2072	 8.12448392882368E-02 
2073	 8.13244241613116E-02 
2074	 8.13904695187747E-02 
2075	 8.14795646324833E-02 
2076	 8.15997430292878E-02 
2077	 8.16888852320331E-02 
2078	 8.17807800255713E-02 
2079	 8.18554370670665E-02 
2080	 8.18984300458221E-02 
2081	 8.19511380256405E-02 
2082	 8.19998967565706E-02 
2083	 8.20498087770299E-02 
2084	 8.21095583306891E-02 
2085	 8.21619993750446E-02 
2086	 8.22137305852802E-02 
2087	 8.22692707541927E-02 
2088	 8.23174741607466E-02 
2089	 8.23655607286702E-02 
2090	 8.23989270488271E-02 
2091	 8.24174180628162E-02 
2092	 8.24460415252174E-02 
2093	 8.24653657109513E-02 
2094	 8.24896161115879E-02 
2095	 8.25306619099496E-02 
2096	 8.25553135822463E-02 
2097	 8.25623320321074E-02 
2098	 0.082577194276541 
2099	 8.26049623256932E-02 
2100	 8.26445426128147E-02 
2101	 8.26674274803275E-02 
2102	 8.27002386466665E-02 
2103	 8.27179563891031E-02 
2104	 8.27142151096151E-02 
2105	 8.27184649023241E-02 
2106	 8.27312147427834E-02 
2107	 8.27311379547275E-02 
2108	 8.27136713044097E-02 
2109	 8.27082705166786E-02 
2110	 0.082703210285956 
2111	 0.082699944602834 
2112	 8.27051875752601E-02 
2113	 8.27061252513857E-02 
2114	 8.27089787294414E-02 
2115	 8.27042403617559E-02 
2116	 0.082699941746868 
2117	 8.26788805996979E-02 
2118	 8.26668178106798E-02 
2119	 8.26466972803102E-02 
2120	 8.26422328717063E-02 
2121	 8.26474170706872E-02 
2122	 0.082650752949561 
2123	 8.26657907593611E-02 
2124	 8.26670493369835E-02 
2125	 8.26592874276628E-02 
2126	 0.082656394796226 
2127	 8.26508216920223E-02 
2128	 8.26467603113646E-02 
2129	 8.26381341750434E-02 
2130	 8.26434383495485E-02 
2131	 8.26685464253182E-02 
2132	 8.26686249538059E-02 
2133	 0.082664169215753 
2134	 8.26680097850511E-02 
2135	 8.26235823372692E-02 
2136	 8.25750323350373E-02 
2137	 8.25362985011101E-02 
2138	 0.082493304409558 
2139	 8.24498468615576E-02 
2140	 8.24204111863312E-02 
2141	 8.23658824615662E-02 
2142	 0.082287591671412 
2143	 8.22309080968525E-02 
2144	 8.21753212555737E-02 
2145	 0.082113537453972 
2146	 8.20579565659012E-02 
2147	 8.20014278864196E-02 
2148	 8.19385493959664E-02 
2149	 8.18731714489634E-02 
2150	 8.18189627290233E-02 
2151	 8.17531718020994E-02 
2152	 8.16759668244739E-02 
2153	 8.15878553434343E-02 
2154	 8.15229635759863E-02 
2155	 8.14387801818938E-02 
2156	 8.13671298410407E-02 
2157	 8.13065698493449E-02 
2158	 8.12325116964664E-02 
2159	 8.11522847893474E-02 
2160	 8.10775876301702E-02 
2161	 8.09967348053906E-02 
2162	 8.09232395793154E-02 
2163	 8.08634788631702E-02 
2164	 8.07849958850303E-02 
2165	 8.06953548328016E-02 
2166	 8.06137036162752E-02 
2167	 8.05274212016811E-02 
2168	 8.04419257543934E-02 
2169	 8.03493147437518E-02 
2170	 8.02797448451347E-02 
2171	 8.02151457830484E-02 
2172	 8.01577842487076E-02 
2173	 8.01248864481476E-02 
2174	 8.00924125490495E-02 
2175	 8.00342977676303E-02 
2176	 8.00099622302722E-02 
2177	 7.99897818757956E-02 
2178	 7.99792735904789E-02 
2179	 7.99691821021785E-02 
2180	 7.99808853256686E-02 
2181	 7.99636354005475E-02 
2182	 7.99305057909825E-02 
2183	 7.99128351607232E-02 
2184	 7.98900109549409E-02 
2185	 7.98719604961623E-02 
2186	 7.98648326657415E-02 
2187	 7.98522231118526E-02 
2188	 7.98326960625452E-02 
2189	 7.98175760857798E-02 
2190	 7.98034615346561E-02 
2191	 7.97973964943418E-02 
2192	 7.98038536563186E-02 
2193	 7.97974367960813E-02 
2194	 7.97960044938496E-02 
2195	 7.97831333972164E-02 
2196	 7.97539058252735E-02 
2197	 7.97260021733701E-02 
2198	 7.96863590678542E-02 
2199	 7.96443719260361E-02 
2200	 0.079613946897532 
2201	 7.95867666451968E-02 
2202	 7.95479518207588E-02 
2203	 7.95181639202335E-02 
2204	 7.94748913273077E-02 
2205	 7.94075411042993E-02 
2206	 7.93565457328975E-02 
2207	 7.93112606184737E-02 
2208	 0.079265476007184 
2209	 7.92149419566429E-02 
2210	 0.079180447362768 
2211	 7.91512091105968E-02 
2212	 0.079131630711525 
2213	 7.91226308505146E-02 
2214	 7.91241596787011E-02 
2215	 7.91250168312213E-02 
2216	 7.91529794207805E-02 
2217	 7.91996355691716E-02 
2218	 7.92608168685146E-02 
2219	 0.079360285021921 
2220	 7.94446606241602E-02 
2221	 7.95127893865809E-02 
2222	 7.96184907843667E-02 
2223	 7.97460372921047E-02 
2224	 7.98648545861559E-02 
2225	 7.99945656847537E-02 
2226	 8.01295039273924E-02 
2227	 8.02569082375123E-02 
2228	 8.03651407120512E-02 
2229	 8.04815139765372E-02 
2230	 8.06195573893648E-02 
2231	 8.07231724074305E-02 
2232	 8.08090479036142E-02 
2233	 0.080880732250685 
2234	 0.080933973510839 
2235	 8.09786326221755E-02 
2236	 8.10136475989426E-02 
2237	 8.10338974572039E-02 
2238	 8.10408677344031E-02 
2239	 8.10366872440882E-02 
2240	 8.10058986050108E-02 
2241	 8.09796819547729E-02 
2242	 8.09635495975109E-02 
2243	 8.09167378810652E-02 
2244	 8.08546780043475E-02 
2245	 0.080780631191793 
2246	 8.06767319112952E-02 
2247	 8.05721552948864E-02 
2248	 8.04544624262456E-02 
2249	 8.03410509321097E-02 
2250	 0.080222103913831 
2251	 8.01035079763243E-02 
2252	 7.99800714165248E-02 
2253	 7.98657930084235E-02 
2254	 7.97268282280822E-02 
2255	 7.95695933771548E-02 
2256	 7.94242860375615E-02 
2257	 7.92700640098429E-02 
2258	 7.91060391670155E-02 
2259	 7.89280889189522E-02 
2260	 7.87750325412321E-02 
2261	 7.86252831587658E-02 
2262	 7.84684375914175E-02 
2263	 7.83256547777028E-02 
2264	 7.81812545184367E-02 
2265	 7.80023902004529E-02 
2266	 0.07787784594678 
2267	 7.77848637417047E-02 
2268	 7.77077029013816E-02 
2269	 7.76756866614169E-02 
2270	 7.76149517806393E-02 
2271	 7.75541544791677E-02 
2272	 0.077500882185858 
2273	 7.74215406408387E-02 
2274	 7.73836421756789E-02 
2275	 7.73979140118209E-02 
2276	 7.73779659781272E-02 
2277	 7.73579540237596E-02 
2278	 7.73424813324394E-02 
2279	 7.73272219094158E-02 
2280	 7.72875299651165E-02 
2281	 7.72357674382974E-02 
2282	 7.71909878717924E-02 
2283	 7.71367102203121E-02 
2284	 7.70625052240501E-02 
2285	 7.70017066177319E-02 
2286	 0.076944979875764 
2287	 7.68372321449205E-02 
2288	 7.67239189451111E-02 
2289	 7.66248992607841E-02 
2290	 7.65189006520779E-02 
2291	 7.64232087381405E-02 
2292	 7.63033092588078E-02 
2293	 7.61542424134931E-02 
2294	 7.60094892006363E-02 
2295	 7.58712318029158E-02 
2296	 7.57507036223715E-02 
2297	 7.56549687813882E-02 
2298	 7.55852126667377E-02 
2299	 7.55280743075638E-02 
2300	 7.54866298286246E-02 
2301	 7.54791075774376E-02 
2302	 7.55019551671698E-02 
2303	 7.55334428120116E-02 
2304	 7.55776565043774E-02 
2305	 7.56658107270958E-02 
2306	 7.57669033555845E-02 
2307	 7.59326148176801E-02 
2308	 7.61588970875644E-02 
2309	 7.64008014462561E-02 
2310	 7.67086474565692E-02 
2311	 7.69829228102401E-02 
2312	 0.077287746596814 
2313	 7.75643770009807E-02 
2314	 7.78185432010236E-02 
2315	 7.80756951313004E-02 
2316	 7.83274860308653E-02 
2317	 0.078562876165971 
2318	 7.87939096804563E-02 
2319	 7.89980086370656E-02 
2320	 7.91776703238972E-02 
2321	 7.93538811767382E-02 
2322	 7.95541232578396E-02 
2323	 7.96705817107619E-02 
2324	 7.97107569240869E-02 
2325	 7.97802095617851E-02 
2326	 0.079804695607999 
2327	 7.98278154992263E-02 
2328	 7.99030230511816E-02 
2329	 7.99149181859729E-02 
2330	 7.98894364145258E-02 
2331	 7.97964447553927E-02 
2332	 7.96937474977037E-02 
2333	 7.95624550190323E-02 
2334	 7.94219588207278E-02 
2335	 7.93107868645543E-02 
2336	 7.91697001361903E-02 
2337	 7.90256170872835E-02 
2338	 7.89102943898897E-02 
2339	 0.078753086083723 
2340	 7.85741663849137E-02 
2341	 7.83924735644663E-02 
2342	 7.81736842995937E-02 
2343	 7.80068122406957E-02 
2344	 7.78768335282664E-02 
2345	 7.77878419121045E-02 
2346	 7.78124281724637E-02 
2347	 7.78200439970337E-02 
2348	 7.78445540287815E-02 
2349	 7.79684756702105E-02 
2350	 7.80490216715623E-02 
2351	 7.80979883390676E-02 
2352	 7.82153483344523E-02 
2353	 7.83602408554424E-02 
2354	 0.078471965968301 
2355	 7.86058167743756E-02 
2356	 7.87127719312121E-02 
2357	 0.078739354526317 
2358	 0.078778058605283 
2359	 7.87819651755141E-02 
2360	 7.87150145443426E-02 
2361	 7.86989743199219E-02 
2362	 7.86998601519249E-02 
2363	 7.86458280739739E-02 
2364	 0.078602480227669 
2365	 7.85035783331504E-02 
2366	 7.83921890746853E-02 
2367	 7.82977203835202E-02 
2368	 0.07817305493269 
2369	 7.80959203120362E-02 
2370	 7.79903569640399E-02 
2371	 7.78187126866307E-02 
2372	 0.077689725371553 
2373	 7.75989862386947E-02 
2374	 0.077436771758654 
2375	 7.72660988406194E-02 
2376	 7.70924495587201E-02 
2377	 7.68870405411208E-02 
2378	 7.67657105794191E-02 
2379	 7.66521271960516E-02 
2380	 0.076545036903813 
2381	 7.64112817392106E-02 
2382	 0.076228943571922 
2383	 7.59597453498182E-02 
2384	 7.57923942371076E-02 
2385	 7.56705793952603E-02 
2386	 7.54454867713426E-02 
2387	 7.52221789242782E-02 
2388	 7.49759989234101E-02 
2389	 7.46011780059303E-02 
2390	 7.43467571964295E-02 
2391	 7.41976484263379E-02 
2392	 7.39611661095598E-02 
2393	 7.36995506904345E-02 
2394	 7.34542492573182E-02 
2395	 7.31779599853029E-02 
2396	 7.29276457032873E-02 
2397	 7.27239901096249E-02 
2398	 7.24470191838369E-02 
2399	 7.21032173711763E-02 
2400	 7.18744471798028E-02 
2401	 7.16823293004258E-02 
2402	 7.14845443177082E-02 
2403	 7.13223409118033E-02 
2404	 7.11131590076924E-02 
2405	 7.08091217754517E-02 
2406	 7.05802252052854E-02 
2407	 7.03607919779105E-02 
2408	 6.99832602629376E-02 
2409	 0.069646007026799 
2410	 6.94637428078747E-02 
2411	 6.92747802024859E-02 
2412	 6.90816345543928E-02 
2413	 6.88734674111655E-02 
2414	 6.86314829016879E-02 
2415	 6.84318906313274E-02 
2416	 6.82810263308814E-02 
2417	 6.81704612803205E-02 
2418	 0.067972466995872 
2419	 6.77477053870918E-02 
2420	 6.76122791611601E-02 
2421	 6.74728720393519E-02 
2422	 6.74103418719322E-02 
2423	 6.73438825516344E-02 
2424	 6.72363686514643E-02 
2425	 6.71751869180799E-02 
2426	 6.70164299163223E-02 
2427	 6.68352516050043E-02 
2428	 6.67061888877279E-02 
2429	 6.65666512423833E-02 
2430	 6.65919892663114E-02 
2431	 6.66060857601134E-02 
2432	 6.64155875883039E-02 
2433	 6.63308116903308E-02 
2434	 6.61925704014665E-02 
2435	 6.60060358546048E-02 
2436	 6.59632780289253E-02 
2437	 6.58718313902958E-02 
2438	 6.58324728453528E-02 
2439	 6.58568922674125E-02 
2440	 6.58579091378354E-02 
2441	 6.57812547672926E-02 
2442	 6.56695470184376E-02 
2443	 6.56394337650793E-02 
2444	 6.56323643991406E-02 
2445	 6.56984497878074E-02 
2446	 6.57814804086841E-02 
2447	 6.57494453266897E-02 
2448	 6.56894505900177E-02 
2449	 6.56563260906321E-02 
2450	 6.55579924964116E-02 
2451	 6.54292207961344E-02 
2452	 6.52903996340286E-02 
2453	 6.51298906956012E-02 
2454	 6.50917767202353E-02 
2455	 6.50995093805868E-02 
2456	 6.50753337678029E-02 
2457	 6.50553381883277E-02 
2458	 6.49534975728031E-02 
2459	 6.47794180093478E-02 
2460	 6.45986524021632E-02 
2461	 6.43827745890077E-02 
2462	 6.41776211026275E-02 
2463	 6.40361368814712E-02 
2464	 6.39057918429895E-02 
2465	 6.38512588857784E-02 
2466	 0.063762372603504 
2467	 6.35443530138929E-02 
2468	 6.33675647284005E-02 
2469	 6.32273312983623E-02 
2470	 6.31617453249239E-02 
2471	 6.31852465319162E-02 
2472	 6.32125637333289E-02 
2473	 6.32406978449628E-02 
2474	 6.32201307594442E-02 
2475	 6.31613017638771E-02 
2476	 6.30268268421785E-02 
2477	 6.29596660491212E-02 
2478	 6.29997746168824E-02 
2479	 6.28638319728612E-02 
2480	 6.27693830228776E-02 
2481	 6.27507003800037E-02 
2482	 6.27553136071895E-02 
2483	 6.29375279642711E-02 
2484	 0.062850810915853 
2485	 6.27684424191078E-02 
2486	 6.26136765412832E-02 
2487	 6.25680968524963E-02 
2488	 6.28118914498695E-02 
2489	 6.29900860431031E-02 
2490	 6.30971840811499E-02 
2491	 6.32532151701072E-02 
2492	 6.32933551993849E-02 
2493	 6.32349859349431E-02 
2494	 6.31999518872558E-02 
2495	 0.063262180053408 
2496	 0.063418651577598 
2497	 6.35303959388288E-02 
2498	 6.37740332948964E-02 
2499	 6.38925210132283E-02 
2500	 6.39420039678627E-02 
