Wavelength	spectrum00010.asd
350	 2.38901580130487E-02 
351	 2.33211085013504E-02 
352	 2.23897507518119E-02 
353	 2.15017350387931E-02 
354	 2.32297704011046E-02 
355	 2.38769618109586E-02 
356	 0.023298717683034 
357	 2.20217926850786E-02 
358	 0.019469070117149 
359	 1.90782387585644E-02 
360	 2.05005312406538E-02 
361	 2.14130888589621E-02 
362	 2.16357460184289E-02 
363	 2.06215576965779E-02 
364	 1.90736285053093E-02 
365	 1.92371544803776E-02 
366	 1.99331878390409E-02 
367	 2.01646096341981E-02 
368	 1.96027203653456E-02 
369	 1.98473322715833E-02 
370	 2.01639087118648E-02 
371	 2.03371038043751E-02 
372	 2.04935717955911E-02 
373	 2.09344408705733E-02 
374	 2.12585790554294E-02 
375	 2.12786734253749E-02 
376	 2.11909005338977E-02 
377	 2.19238873252515E-02 
378	 2.26713893196493E-02 
379	 2.25117712744728E-02 
380	 2.16625582153248E-02 
381	 2.17947026891414E-02 
382	 2.21724251717631E-02 
383	 2.10784769475306E-02 
384	 2.26524499887956E-02 
385	 2.38143160882686E-02 
386	 2.31760083601364E-02 
387	 2.30777598159918E-02 
388	 2.36434831721331E-02 
389	 2.43356098397381E-02 
390	 2.45855548992686E-02 
391	 2.45405510791129E-02 
392	 2.52888846168122E-02 
393	 2.63001022041276E-02 
394	 2.61917447826829E-02 
395	 2.66755903578391E-02 
396	 2.75517222912447E-02 
397	 2.82468108895619E-02 
398	 2.79430101782984E-02 
399	 2.82218364542334E-02 
400	 2.90729470564615E-02 
401	 2.99599248478075E-02 
402	 3.03545011233938E-02 
403	 3.10747235619153E-02 
404	 3.19420227021333E-02 
405	 3.21380792408858E-02 
406	 0.033211512538243 
407	 0.034086525880066 
408	 3.44029397708731E-02 
409	 3.60386618256313E-02 
410	 0.036709883288174 
411	 3.69978383260036E-02 
412	 3.81106430349265E-02 
413	 3.94004668190098E-02 
414	 4.02601171523555E-02 
415	 4.08821895557422E-02 
416	 4.21090339253601E-02 
417	 4.32189853933797E-02 
418	 4.42915305825619E-02 
419	 4.54520095649239E-02 
420	 0.046584779713805 
421	 4.78974472486792E-02 
422	 4.92199404742156E-02 
423	 5.03069924958311E-02 
424	 5.14738776642994E-02 
425	 5.27552985813079E-02 
426	 5.41281475157071E-02 
427	 5.55328775583188E-02 
428	 5.69887819156618E-02 
429	 5.84633059348266E-02 
430	 0.05990036507118 
431	 0.061165754713933 
432	 6.27366544227562E-02 
433	 6.44573120641584E-02 
434	 6.58886227839123E-02 
435	 6.75616336526126E-02 
436	 6.92408453026996E-02 
437	 7.08069658976919E-02 
438	 7.24448478873022E-02 
439	 7.41287267989088E-02 
440	 7.58179346283094E-02 
441	 7.74912768194676E-02 
442	 7.92420581403521E-02 
443	 8.10506259134279E-02 
444	 8.29226787022073E-02 
445	 8.48848577443735E-02 
446	 8.68698301046583E-02 
447	 8.87765007165092E-02 
448	 9.06294015306272E-02 
449	 9.27468034779344E-02 
450	 9.47740994948448E-02 
451	 9.67404749659212E-02 
452	 9.88040040660058E-02 
453	 0.100910814709067 
454	 0.103094344800149 
455	 0.105298785880106 
456	 0.107384127309827 
457	 0.109581285188867 
458	 0.111833565521754 
459	 0.114089093247928 
460	 0.116522809538931 
461	 0.118838472176105 
462	 0.121034388673092 
463	 0.123290722448426 
464	 0.125729409259925 
465	 0.128188714773569 
466	 0.130547830153919 
467	 0.132798836543945 
468	 0.135156437920647 
469	 0.137641110207818 
470	 0.140188014827522 
471	 0.142656914018479 
472	 0.145088295029031 
473	 0.147561257846084 
474	 0.150152881203315 
475	 0.152503664212818 
476	 0.154922406217875 
477	 0.157556040896743 
478	 0.159955135205662 
479	 0.162307916938226 
480	 0.164725141742681 
481	 0.167254266768267 
482	 0.169692345297715 
483	 0.172129503237178 
484	 0.174593078927293 
485	 0.177008823411077 
486	 0.179442459869331 
487	 0.181851857219168 
488	 0.18419853113662 
489	 0.186521965308471 
490	 0.18889303761368 
491	 0.191308607714835 
492	 0.193713605921547 
493	 0.196034026684431 
494	 0.198312905895002 
495	 0.200580040773125 
496	 0.202809219813245 
497	 0.205052225571853 
498	 0.207261982802072 
499	 0.209395475932076 
500	 0.211589397381774 
501	 0.213781719296367 
502	 0.215947543109155 
503	 0.218101739050508 
504	 0.220161022800299 
505	 0.222198125600164 
506	 0.224258490207823 
507	 0.226245440660781 
508	 0.228230968879279 
509	 0.230210580999418 
510	 0.23214502573433 
511	 0.234023754997897 
512	 0.235899051253999 
513	 0.237774776907191 
514	 0.239593371039322 
515	 0.241318519958331 
516	 0.243038024969483 
517	 0.24479855298875 
518	 0.246366794081017 
519	 0.247977277213101 
520	 0.249620162441246 
521	 0.251123393892502 
522	 0.2526322045221 
523	 0.25411591705048 
524	 0.255543399801103 
525	 0.256939183224699 
526	 0.258273642043926 
527	 0.259571017784298 
528	 0.260855713955639 
529	 0.262040950044974 
530	 0.26317193810836 
531	 0.264266828093514 
532	 0.265305035520032 
533	 0.266251920741162 
534	 0.267154014422289 
535	 0.268041723534019 
536	 0.268856759272766 
537	 0.269559336565899 
538	 0.270183558470805 
539	 0.270793087404321 
540	 0.271295956378761 
541	 0.271706663374491 
542	 0.272051844526491 
543	 0.272354129605641 
544	 0.272638943886708 
545	 0.272825991889596 
546	 0.272848012473319 
547	 0.272842986738941 
548	 0.272806480917844 
549	 0.272715786769128 
550	 0.272541780796531 
551	 0.272385647669225 
552	 0.272147156953123 
553	 0.271765880294392 
554	 0.27138593245533 
555	 0.270887043280934 
556	 0.270304192043726 
557	 0.269720512344803 
558	 0.268981969238745 
559	 0.268169824546886 
560	 0.267313289042376 
561	 0.266336145591578 
562	 0.265302680547432 
563	 0.26424428983615 
564	 0.263145953370715 
565	 0.261858530498403 
566	 0.260501370220207 
567	 0.259097656870149 
568	 0.257603054599353 
569	 0.256094268635998 
570	 0.25456872503571 
571	 0.25304688261468 
572	 0.251626995316968 
573	 0.250250110085349 
574	 0.248834301500016 
575	 0.247314556742449 
576	 0.245822363973679 
577	 0.24422408925971 
578	 0.242516877333643 
579	 0.240860805209594 
580	 0.239066639545226 
581	 0.23715333021685 
582	 0.235170793435893 
583	 0.23310941617813 
584	 0.230989820504474 
585	 0.228861594636322 
586	 0.226777985416898 
587	 0.22466629235227 
588	 0.222551076451533 
589	 0.220432186660528 
590	 0.21825393001585 
591	 0.216088588979341 
592	 0.213948151143607 
593	 0.211821537521057 
594	 0.209692896657315 
595	 0.207573466384899 
596	 0.20544254566341 
597	 0.203257103160352 
598	 0.201112473405716 
599	 0.198920662187085 
600	 0.196635447935537 
601	 0.194395212515022 
602	 0.192145049721642 
603	 0.189870930034138 
604	 0.18758358117042 
605	 0.185326623797635 
606	 0.183088122477298 
607	 0.180870283243912 
608	 0.178699617967962 
609	 0.17652510461646 
610	 0.174401758316766 
611	 0.172360480047468 
612	 0.170288814031919 
613	 0.168230098113442 
614	 0.166196138780255 
615	 0.164176764068951 
616	 0.162208040237289 
617	 0.160271697414467 
618	 0.158352272688924 
619	 0.156442006921262 
620	 0.15460052143412 
621	 0.152788705416395 
622	 0.150955724433446 
623	 0.14917347072409 
624	 0.147421344182226 
625	 0.145692001557903 
626	 0.143993516033121 
627	 0.142341630277482 
628	 0.140741944117362 
629	 0.139178308550691 
630	 0.137585150464188 
631	 0.136025129850265 
632	 0.134522885460891 
633	 0.133077388722028 
634	 0.131620855940644 
635	 0.130195295010838 
636	 0.128810568830653 
637	 0.127431700628823 
638	 0.126103179270896 
639	 0.124800840974143 
640	 0.12349846878533 
641	 0.122210045600782 
642	 0.120981793917016 
643	 0.119811645240327 
644	 0.118664797215938 
645	 0.117532379035099 
646	 0.116398312482002 
647	 0.11527552701676 
648	 0.114224133119305 
649	 0.113191872266543 
650	 0.112158845632934 
651	 0.111125073081979 
652	 0.110125761126808 
653	 0.109163584085814 
654	 0.108236213122672 
655	 0.107334655717999 
656	 0.106418433514928 
657	 0.105535101897292 
658	 0.104706605091996 
659	 0.103871819705099 
660	 0.103038811880968 
661	 0.10222367012192 
662	 0.1014463518423 
663	 0.100719052380251 
664	 9.99582583147429E-02 
665	 9.91704467476124E-02 
666	 9.84527774660995E-02 
667	 9.77552850989726E-02 
668	 9.70700617982059E-02 
669	 9.64003489695974E-02 
670	 9.57583948847969E-02 
671	 9.51136268779257E-02 
672	 9.44594651969001E-02 
673	 9.38106278605452E-02 
674	 9.32416986121918E-02 
675	 9.26727575056494E-02 
676	 9.20673366766102E-02 
677	 9.14576609601532E-02 
678	 9.08901855189247E-02 
679	 9.03526422372873E-02 
680	 0.089824341880625 
681	 8.93140706352417E-02 
682	 0.088783729594625 
683	 8.82497958125009E-02 
684	 8.77511107627551E-02 
685	 8.72443492188718E-02 
686	 8.67593098937833E-02 
687	 8.62996623117826E-02 
688	 0.085822064896266 
689	 8.53570956696839E-02 
690	 8.49028815235006E-02 
691	 8.44535124630188E-02 
692	 8.40219599627738E-02 
693	 8.36015863541982E-02 
694	 8.31921929334557E-02 
695	 8.27933637511661E-02 
696	 8.23623600753315E-02 
697	 0.081940079736232 
698	 8.15451024166964E-02 
699	 8.11445295719356E-02 
700	 8.07790247571023E-02 
701	 8.04132473162613E-02 
702	 8.00142785484782E-02 
703	 7.96400098522436E-02 
704	 7.93082594976928E-02 
705	 0.078976535728384 
706	 7.85762173531059E-02 
707	 7.82219061558725E-02 
708	 7.78985184181039E-02 
709	 7.75751249619807E-02 
710	 7.72244356843453E-02 
711	 0.076890476705829 
712	 7.65728319569563E-02 
713	 7.62599640397092E-02 
714	 7.59563218483113E-02 
715	 0.075644945783568 
716	 7.53283058356619E-02 
717	 7.50245741267962E-02 
718	 7.47475628878199E-02 
719	 7.44804034350319E-02 
720	 7.42085995541805E-02 
721	 7.39297079628819E-02 
722	 7.36660435579444E-02 
723	 7.34068938820609E-02 
724	 7.31374739440087E-02 
725	 7.28696267314047E-02 
726	 7.26020970890631E-02 
727	 7.23499102731714E-02 
728	 7.21329060703647E-02 
729	 7.18989342090866E-02 
730	 7.16460313771126E-02 
731	 7.13966644856482E-02 
732	 7.12007397616568E-02 
733	 7.09894779581604E-02 
734	 7.07600247943435E-02 
735	 7.05319375805709E-02 
736	 7.03312473759902E-02 
737	 7.01258540084757E-02 
738	 6.99202544317507E-02 
739	 6.97393337524961E-02 
740	 6.95465959860307E-02 
741	 6.93571245332646E-02 
742	 6.91815351908797E-02 
743	 6.90144449182995E-02 
744	 6.88338625221377E-02 
745	 6.86552934547081E-02 
746	 0.068496503904157 
747	 6.83479171971316E-02 
748	 6.81923875917598E-02 
749	 6.80323132063351E-02 
750	 0.067881050181585 
751	 6.77362803348087E-02 
752	 6.75987608362526E-02 
753	 6.74633651605339E-02 
754	 6.73180591677751E-02 
755	 6.72102462818273E-02 
756	 6.71073639710774E-02 
757	 6.69762169655663E-02 
758	 6.68353084121202E-02 
759	 6.67214503817535E-02 
760	 6.66177254091198E-02 
761	 6.64925490267387E-02 
762	 6.64060714275585E-02 
763	 6.63192716003561E-02 
764	 0.066217418668095 
765	 6.61194549914492E-02 
766	 6.60292457787629E-02 
767	 6.59342788992725E-02 
768	 6.58373595017043E-02 
769	 6.57882488534757E-02 
770	 6.57204476953655E-02 
771	 6.56371966169065E-02 
772	 6.55635412158589E-02 
773	 6.54917823208628E-02 
774	 6.54233834041519E-02 
775	 6.53607710726269E-02 
776	 6.53060061572774E-02 
777	 6.52505607681788E-02 
778	 6.52025726009168E-02 
779	 6.51638574040376E-02 
780	 6.51223409318459E-02 
781	 6.50677114689705E-02 
782	 6.50162701339161E-02 
783	 6.49814156220107E-02 
784	 6.49359026299254E-02 
785	 6.49021144418921E-02 
786	 6.48796358963165E-02 
787	 6.48537058742305E-02 
788	 6.48115068939607E-02 
789	 6.47764569227343E-02 
790	 0.064752787427643 
791	 6.47187778532482E-02 
792	 6.46893179865263E-02 
793	 6.46709196059034E-02 
794	 6.46626783713298E-02 
795	 6.46516717256283E-02 
796	 6.46317131149243E-02 
797	 6.46139248181876E-02 
798	 6.46126533399475E-02 
799	 6.46231020202594E-02 
800	 6.46187023911468E-02 
801	 6.46016836466436E-02 
802	 6.45962036209952E-02 
803	 0.064596309198919 
804	 6.46010094033866E-02 
805	 6.46090631030977E-02 
806	 6.46185353146118E-02 
807	 6.46335101955564E-02 
808	 6.46382124408872E-02 
809	 6.46308294873946E-02 
810	 0.064666132911965 
811	 6.46875526369828E-02 
812	 6.46996311388231E-02 
813	 6.47285258203618E-02 
814	 6.47492264953311E-02 
815	 6.47898055731945E-02 
816	 6.48379540524884E-02 
817	 6.48497757818827E-02 
818	 6.48790139336364E-02 
819	 6.49187407318462E-02 
820	 6.49595943704309E-02 
821	 6.50039265853161E-02 
822	 6.50463018306631E-02 
823	 6.51062562900125E-02 
824	 6.51881748025882E-02 
825	 6.52289874274215E-02 
826	 6.52863331789699E-02 
827	 6.53448741068434E-02 
828	 6.53742898920087E-02 
829	 6.54654087948755E-02 
830	 6.55481398451986E-02 
831	 6.56078457199792E-02 
832	 6.56845802786137E-02 
833	 6.57564528743106E-02 
834	 6.58447140578921E-02 
835	 6.59484477204794E-02 
836	 6.60254582736307E-02 
837	 6.61230164977731E-02 
838	 6.62264746970533E-02 
839	 0.06632184920738 
840	 6.64437986404458E-02 
841	 6.65550068363638E-02 
842	 6.66537914470299E-02 
843	 6.67585321514074E-02 
844	 6.69036314539158E-02 
845	 6.70503464696146E-02 
846	 6.71855599415277E-02 
847	 6.73185272699513E-02 
848	 6.74510661122859E-02 
849	 6.75813764088181E-02 
850	 6.77226335305039E-02 
851	 6.79032665066219E-02 
852	 6.80687098002049E-02 
853	 6.82371107831644E-02 
854	 6.84312300519344E-02 
855	 6.86545780123683E-02 
856	 0.06882315962128 
857	 6.89706414422251E-02 
858	 6.91596291691552E-02 
859	 6.94093428226593E-02 
860	 6.96163486105961E-02 
861	 6.97970902906309E-02 
862	 7.00232397671025E-02 
863	 7.02786693318257E-02 
864	 7.05063319440677E-02 
865	 7.07129097577643E-02 
866	 7.09574289417654E-02 
867	 7.12049834251731E-02 
868	 7.14617102336246E-02 
869	 7.17259392486485E-02 
870	 0.071980130793053 
871	 7.22573541880255E-02 
872	 7.25530544919906E-02 
873	 7.28527389144954E-02 
874	 7.31409296351072E-02 
875	 7.34309946972822E-02 
876	 7.37519279565189E-02 
877	 7.41126229132741E-02 
878	 7.44396820035968E-02 
879	 0.074743871269251 
880	 7.50552973861102E-02 
881	 0.075400917378229 
882	 7.57329655224794E-02 
883	 0.076096423024952 
884	 7.64785317166938E-02 
885	 7.68303003006382E-02 
886	 7.72165209566317E-02 
887	 7.76084471305946E-02 
888	 7.79996265253696E-02 
889	 7.84166549066107E-02 
890	 7.87981220828157E-02 
891	 7.91777771273526E-02 
892	 7.95903559115356E-02 
893	 8.00397805262642E-02 
894	 8.04995385978349E-02 
895	 8.09301229852096E-02 
896	 8.13282677325212E-02 
897	 8.17817149374179E-02 
898	 8.22789325889251E-02 
899	 8.27623766786586E-02 
900	 8.31940391418386E-02 
901	 8.36724952157878E-02 
902	 8.41599379501493E-02 
903	 8.46618123342149E-02 
904	 8.51906566426066E-02 
905	 8.56719331132625E-02 
906	 8.62127490492451E-02 
907	 8.67969460671213E-02 
908	 8.73245093611985E-02 
909	 8.78290439567808E-02 
910	 8.83625124629069E-02 
911	 0.088930273521209 
912	 8.94903999078947E-02 
913	 9.00525526833151E-02 
914	 9.06142599765215E-02 
915	 9.11870264329138E-02 
916	 0.091800227282769 
917	 9.24120026296111E-02 
918	 9.30198504107742E-02 
919	 9.36346987462602E-02 
920	 9.42754838144253E-02 
921	 9.48766811910757E-02 
922	 9.54802690011774E-02 
923	 9.61197909262686E-02 
924	 9.67285970761162E-02 
925	 0.097414676298629 
926	 9.80891946689493E-02 
927	 9.86783621269067E-02 
928	 9.93824619381829E-02 
929	 0.100067302563689 
930	 0.100719929162461 
931	 0.101374991159682 
932	 0.102023736359538 
933	 0.102745816580691 
934	 0.103485228733794 
935	 0.104143208719071 
936	 0.10482458360374 
937	 0.105520708256878 
938	 0.106229272669722 
939	 0.106954744436111 
940	 0.107696627363507 
941	 0.108435049496016 
942	 0.109154335022292 
943	 0.109852813780564 
944	 0.110583465530583 
945	 0.111311557594008 
946	 0.112039416457656 
947	 0.112807162292835 
948	 0.113517797491375 
949	 0.114231415272233 
950	 0.114987553981951 
951	 0.115763265372987 
952	 0.116447596539692 
953	 0.117201669533449 
954	 0.118037076859079 
955	 0.118693414440197 
956	 0.119408920093633 
957	 0.120202983694575 
958	 0.121017013320701 
959	 0.12174761802225 
960	 0.122446495350349 
961	 0.12319796054015 
962	 0.124012538157337 
963	 0.124745747081301 
964	 0.125478150577973 
965	 0.126220596604852 
966	 0.126963652909651 
967	 0.127690258913967 
968	 0.128497862718291 
969	 0.129307163360502 
970	 0.130052349535169 
971	 0.130837920652812 
972	 0.13161016091785 
973	 0.132327099516676 
974	 0.133008439828776 
975	 0.133823941775757 
976	 0.134658080466319 
977	 0.135461015259043 
978	 0.136217601171274 
979	 0.136946127344305 
980	 0.137679840200714 
981	 0.138406514186172 
982	 0.13913190205169 
983	 0.139982273324024 
984	 0.140769562009863 
985	 0.141522722039305 
986	 0.142305179879106 
987	 0.143012206693466 
988	 0.143779191720135 
989	 0.144518162650146 
990	 0.145141896748631 
991	 0.145831911795487 
992	 0.146698005148355 
993	 0.147517218649492 
994	 0.148113007507802 
995	 0.148887641729769 
996	 0.149762971088181 
997	 0.15052096236709 
998	 0.151077100103862 
999	 0.151955811241758 
1000	 0.152766887706847 
1001	 0.15796091117352 
1002	 0.158755653192631 
1003	 0.159527639013198 
1004	 0.160257596245461 
1005	 0.160958519450432 
1006	 0.161666086757793 
1007	 0.16234387633718 
1008	 0.163044616643456 
1009	 0.163732327072189 
1010	 0.164446949586348 
1011	 0.165200810912368 
1012	 0.165908995612886 
1013	 0.166609116589072 
1014	 0.167322163898087 
1015	 0.168027402104438 
1016	 0.168694170017998 
1017	 0.169409530563912 
1018	 0.170112284889188 
1019	 0.170797787038508 
1020	 0.171456271372071 
1021	 0.172101797275631 
1022	 0.172722971845995 
1023	 0.173359884724712 
1024	 0.17398172429173 
1025	 0.174617829724303 
1026	 0.175256412868445 
1027	 0.175906085922562 
1028	 0.176580323222178 
1029	 0.177249507815826 
1030	 0.177844571511571 
1031	 0.178428162450075 
1032	 0.178990368367686 
1033	 0.179528892066014 
1034	 0.180139886888842 
1035	 0.180740347776866 
1036	 0.181315548596831 
1037	 0.18189987449994 
1038	 0.18244225286332 
1039	 0.182939471826081 
1040	 0.183461144002674 
1041	 0.183964266552526 
1042	 0.184463974547944 
1043	 0.184966762177173 
1044	 0.185479015330322 
1045	 0.185967094923859 
1046	 0.186463210850388 
1047	 0.186960366865284 
1048	 0.187424560382786 
1049	 0.187864156199581 
1050	 0.188286647784886 
1051	 0.188681555140698 
1052	 0.189065396355504 
1053	 0.189477445442804 
1054	 0.189925664033672 
1055	 0.19032955905383 
1056	 0.190727047726923 
1057	 0.191127467699467 
1058	 0.19151545508033 
1059	 0.191853812551973 
1060	 0.192254292552344 
1061	 0.192632484506423 
1062	 0.192952019326352 
1063	 0.193303704522664 
1064	 0.19361195414853 
1065	 0.193906008792554 
1066	 0.194236811382705 
1067	 0.194542736401515 
1068	 0.194876607884011 
1069	 0.195184108704019 
1070	 0.195475111555595 
1071	 0.19574689931774 
1072	 0.196043084144118 
1073	 0.196269197414927 
1074	 0.196512725810558 
1075	 0.19678156335573 
1076	 0.196991342430896 
1077	 0.197238385846006 
1078	 0.197486310062067 
1079	 0.197708671203651 
1080	 0.197961833546461 
1081	 0.198193445714403 
1082	 0.198415641082175 
1083	 0.198626955055688 
1084	 0.198796343501044 
1085	 0.198998538452565 
1086	 0.199196117935521 
1087	 0.199396071677369 
1088	 0.199574382088062 
1089	 0.199787105266365 
1090	 0.199967317454355 
1091	 0.20010601039853 
1092	 0.20026026574555 
1093	 0.200390429222869 
1094	 0.200523219914502 
1095	 0.200677774955586 
1096	 0.200837925353787 
1097	 0.201002191686101 
1098	 0.201122832997108 
1099	 0.201239297987435 
1100	 0.201371624708318 
1101	 0.201493447896943 
1102	 0.201632826825564 
1103	 0.201755785570442 
1104	 0.201875181504117 
1105	 0.201973414243325 
1106	 0.202077104280419 
1107	 0.202162473976727 
1108	 0.202248674077819 
1109	 0.202356857416941 
1110	 0.202457461200159 
1111	 0.202564879016859 
1112	 0.202687587622 
1113	 0.202779122298735 
1114	 0.202848671641834 
1115	 0.202928428517807 
1116	 0.202993289028073 
1117	 0.203052054607938 
1118	 0.203127224490991 
1119	 0.203222761921008 
1120	 0.203299746152123 
1121	 0.2033671945596 
1122	 0.203456808529961 
1123	 0.203556825406495 
1124	 0.203619681538644 
1125	 0.203679017598437 
1126	 0.203729305589254 
1127	 0.203739152267683 
1128	 0.203758198428417 
1129	 0.203795708371708 
1130	 0.203835011688785 
1131	 0.203858200785768 
1132	 0.203870357158758 
1133	 0.203906014431564 
1134	 0.203928646935136 
1135	 0.203940443295974 
1136	 0.203955278515651 
1137	 0.203975605564687 
1138	 0.203989196635669 
1139	 0.20398654729376 
1140	 0.203992023589889 
1141	 0.203974065179877 
1142	 0.203936020808197 
1143	 0.203899598430609 
1144	 0.203879273000473 
1145	 0.203867011680681 
1146	 0.203834763519692 
1147	 0.203794651575566 
1148	 0.20376180816242 
1149	 0.203721516157086 
1150	 0.203679604794323 
1151	 0.203648812696201 
1152	 0.203603049483976 
1153	 0.203546160615057 
1154	 0.203483148010884 
1155	 0.203409334133266 
1156	 0.203338480097459 
1157	 0.203268000607645 
1158	 0.20318835275631 
1159	 0.203099350562362 
1160	 0.203022892789097 
1161	 0.20294008226593 
1162	 0.202848941959426 
1163	 0.20278032866885 
1164	 0.202696457303453 
1165	 0.202587297133296 
1166	 0.202481567929569 
1167	 0.202385823804194 
1168	 0.202287775166957 
1169	 0.202197579012557 
1170	 0.2021244828305 
1171	 0.202044326355702 
1172	 0.201953820325489 
1173	 0.201884914948713 
1174	 0.201822940859877 
1175	 0.201767905567815 
1176	 0.201725712684732 
1177	 0.201688182469658 
1178	 0.201650224195232 
1179	 0.201633673264579 
1180	 0.20162382858415 
1181	 0.201614244690387 
1182	 0.201611192416757 
1183	 0.201627116553051 
1184	 0.201673372257694 
1185	 0.201728540832308 
1186	 0.201803071556223 
1187	 0.201911236066831 
1188	 0.202007453985927 
1189	 0.202105035484541 
1190	 0.202217649645371 
1191	 0.202338322319043 
1192	 0.202462876302221 
1193	 0.202597486564774 
1194	 0.202740792787906 
1195	 0.202898467582421 
1196	 0.203045919934464 
1197	 0.203191394600835 
1198	 0.203344358655431 
1199	 0.203506215184833 
1200	 0.203672777434211 
1201	 0.203884244879712 
1202	 0.204096540472847 
1203	 0.204291455302692 
1204	 0.204510769011443 
1205	 0.204739566494394 
1206	 0.204959402484869 
1207	 0.205225794690495 
1208	 0.205527620433966 
1209	 0.205831121903191 
1210	 0.206156752393725 
1211	 0.206492580075033 
1212	 0.206835886236408 
1213	 0.207201717917082 
1214	 0.207589157826556 
1215	 0.20798853621809 
1216	 0.208411981074074 
1217	 0.208830079699394 
1218	 0.209257348808729 
1219	 0.209690710240073 
1220	 0.210116583217974 
1221	 0.210566847268311 
1222	 0.210992313188819 
1223	 0.211419349796393 
1224	 0.211834094295449 
1225	 0.212234684851325 
1226	 0.212624233771785 
1227	 0.2129992474615 
1228	 0.213386592846089 
1229	 0.213773514627234 
1230	 0.21415274530793 
1231	 0.214534459970227 
1232	 0.214914865350804 
1233	 0.215273569489572 
1234	 0.215647958261089 
1235	 0.216047352980864 
1236	 0.216428053248297 
1237	 0.216792574489574 
1238	 0.217171172998154 
1239	 0.217542753392563 
1240	 0.217929536691136 
1241	 0.218329343200529 
1242	 0.218716234256804 
1243	 0.219103904793405 
1244	 0.219491244726113 
1245	 0.219865367314636 
1246	 0.220235353333139 
1247	 0.220603414936872 
1248	 0.220956287439551 
1249	 0.221323325283757 
1250	 0.221700087841648 
1251	 0.222064908246213 
1252	 0.222426093168507 
1253	 0.222791882208244 
1254	 0.223155192067858 
1255	 0.22351947389929 
1256	 0.223892477649129 
1257	 0.224259391527482 
1258	 0.224618754662058 
1259	 0.224980308863602 
1260	 0.225338481275886 
1261	 0.225703483458505 
1262	 0.226069550210888 
1263	 0.226448013735783 
1264	 0.226810314705647 
1265	 0.227167627545486 
1266	 0.227539284751967 
1267	 0.227909054786794 
1268	 0.228275874401305 
1269	 0.22866205511628 
1270	 0.229021622319973 
1271	 0.229350940463703 
1272	 0.229706984116949 
1273	 0.230064406274417 
1274	 0.230427849411415 
1275	 0.230812601544164 
1276	 0.231175628789027 
1277	 0.23151840789854 
1278	 0.231880560133767 
1279	 0.232243906421135 
1280	 0.232608163387204 
1281	 0.232976415270677 
1282	 0.233356205298373 
1283	 0.233740993902784 
1284	 0.234122354269592 
1285	 0.234507375343811 
1286	 0.234910600019685 
1287	 0.235288552119769 
1288	 0.235649365076818 
1289	 0.236020977488877 
1290	 0.236383031436568 
1291	 0.236763791234389 
1292	 0.237153683041478 
1293	 0.237542116405077 
1294	 0.237937215028046 
1295	 0.238334443694262 
1296	 0.238733481562068 
1297	 0.239131582656225 
1298	 0.239534673183826 
1299	 0.239935221584307 
1300	 0.240338895794411 
1301	 0.240730052587624 
1302	 0.241111737183011 
1303	 0.241498718833015 
1304	 0.241876718210559 
1305	 0.242258324985845 
1306	 0.242648674407258 
1307	 0.243034646203364 
1308	 0.243400973670015 
1309	 0.243795157651896 
1310	 0.244181785002306 
1311	 0.24457368769512 
1312	 0.244956888820224 
1313	 0.245338976047111 
1314	 0.245722792404112 
1315	 0.246098966940303 
1316	 0.246484659378477 
1317	 0.246889376716318 
1318	 0.247264368306268 
1319	 0.247623964587302 
1320	 0.247991264094342 
1321	 0.248343080693595 
1322	 0.24870457357476 
1323	 0.249080702721389 
1324	 0.249444781634106 
1325	 0.249811110248374 
1326	 0.250159743989314 
1327	 0.250486247546494 
1328	 0.250828676026305 
1329	 0.251178032598665 
1330	 0.25150846010182 
1331	 0.251837212239873 
1332	 0.252164787305174 
1333	 0.252473621512488 
1334	 0.252782239255011 
1335	 0.253096154960832 
1336	 0.253427925360135 
1337	 0.253725702892891 
1338	 0.254008813387988 
1339	 0.254287867543399 
1340	 0.254556805979122 
1341	 0.254811660133708 
1342	 0.255063164781174 
1343	 0.255295281454871 
1344	 0.255503751914008 
1345	 0.255714223301353 
1346	 0.255919794789156 
1347	 0.256112428715141 
1348	 0.256294869359249 
1349	 0.256473572076604 
1350	 0.256635240247936 
1351	 0.25680695446945 
1352	 0.256979513920586 
1353	 0.25715316638447 
1354	 0.257328482818161 
1355	 0.257506289187976 
1356	 0.257673066138203 
1357	 0.257862147599974 
1358	 0.258066488187692 
1359	 0.258273550806859 
1360	 0.258487070957029 
1361	 0.258724506298273 
1362	 0.258951546728186 
1363	 0.259160785339924 
1364	 0.25937393335602 
1365	 0.25958331711543 
1366	 0.259791463367826 
1367	 0.259999639555718 
1368	 0.260198041492389 
1369	 0.260390008091829 
1370	 0.260585817220639 
1371	 0.260778269446914 
1372	 0.260965648544036 
1373	 0.261154012909858 
1374	 0.261337869328836 
1375	 0.261512809126276 
1376	 0.26169271091426 
1377	 0.261873516828487 
1378	 0.262058025112565 
1379	 0.262246126198748 
1380	 0.262429586102378 
1381	 0.262618552582401 
1382	 0.262799721152871 
1383	 0.262962567113627 
1384	 0.263144678354453 
1385	 0.263327691701602 
1386	 0.263521571479404 
1387	 0.263737655012124 
1388	 0.263943293605549 
1389	 0.2641371249608 
1390	 0.264350531232818 
1391	 0.264573457835606 
1392	 0.264802064162806 
1393	 0.265038631019544 
1394	 0.265271577701382 
1395	 0.265459584860129 
1396	 0.265640970977809 
1397	 0.265741052957282 
1398	 0.265803335249853 
1399	 0.265801137241029 
1400	 0.265737049212798 
1401	 0.265620666398073 
1402	 0.265455512691787 
1403	 0.26523012372297 
1404	 0.264944092248059 
1405	 0.264610284082622 
1406	 0.264223432472953 
1407	 0.263788933237354 
1408	 0.263280299896387 
1409	 0.262767946452681 
1410	 0.262220997042116 
1411	 0.261645568507357 
1412	 0.26104184548345 
1413	 0.26042800654539 
1414	 0.259773925448809 
1415	 0.259122831488853 
1416	 0.258446627440067 
1417	 0.257794061028447 
1418	 0.257140871124855 
1419	 0.256495122866484 
1420	 0.255859366097361 
1421	 0.255243818218158 
1422	 0.254621517972515 
1423	 0.25403158462226 
1424	 0.253486594079663 
1425	 0.252929659004853 
1426	 0.252421290011028 
1427	 0.251906645817243 
1428	 0.251364615516211 
1429	 0.250824122707466 
1430	 0.250206110450414 
1431	 0.249562080774718 
1432	 0.248807169621898 
1433	 0.247991912143638 
1434	 0.247079799051571 
1435	 0.246064112483534 
1436	 0.244993093385898 
1437	 0.243819018858944 
1438	 0.242667580747629 
1439	 0.241389620664269 
1440	 0.240285959606515 
1441	 0.239124005461675 
1442	 0.238265134617767 
1443	 0.23747187235189 
1444	 0.237053224628869 
1445	 0.236863564062367 
1446	 0.237005686987769 
1447	 0.237462351038893 
1448	 0.238185553324089 
1449	 0.239305610861756 
1450	 0.240501045738007 
1451	 0.242018701576586 
1452	 0.2435185145291 
1453	 0.245202963244948 
1454	 0.246787080015334 
1455	 0.248439341749742 
1456	 0.249993490276513 
1457	 0.251512813693519 
1458	 0.252940125822652 
1459	 0.25429460506841 
1460	 0.255589477591144 
1461	 0.256787261605336 
1462	 0.257936286355797 
1463	 0.259017111428577 
1464	 0.260072511365899 
1465	 0.261050565737293 
1466	 0.262043460691324 
1467	 0.262976338442913 
1468	 0.263893795901317 
1469	 0.264821019352081 
1470	 0.265674046425748 
1471	 0.266540951243856 
1472	 0.267410793182114 
1473	 0.268242641039114 
1474	 0.269054787297163 
1475	 0.269823717535243 
1476	 0.270581352848874 
1477	 0.271261388062373 
1478	 0.271897254309181 
1479	 0.272450039682942 
1480	 0.272937206593491 
1481	 0.273363241267868 
1482	 0.273698252958743 
1483	 0.274027663448024 
1484	 0.274275758197216 
1485	 0.274579740854457 
1486	 0.27483373351532 
1487	 0.275198612349766 
1488	 0.275571282306909 
1489	 0.276089873847108 
1490	 0.276697429481217 
1491	 0.277409840655425 
1492	 0.278229036672672 
1493	 0.279156688607217 
1494	 0.280202556203182 
1495	 0.281310633848975 
1496	 0.282549106682372 
1497	 0.283809007376399 
1498	 0.2851634423572 
1499	 0.286498533586425 
1500	 0.287892041084596 
1501	 0.289250362942274 
1502	 0.290622399464889 
1503	 0.291931762137732 
1504	 0.29323103847491 
1505	 0.294469176655486 
1506	 0.295674056272292 
1507	 0.296793202395351 
1508	 0.297836465588889 
1509	 0.298840464410055 
1510	 0.299774742274204 
1511	 0.300650935316133 
1512	 0.301472113415979 
1513	 0.302258628424599 
1514	 0.302967729846679 
1515	 0.303662177041886 
1516	 0.304336172925205 
1517	 0.304977337120873 
1518	 0.305584978838266 
1519	 0.30615808677876 
1520	 0.306690535557484 
1521	 0.307206452481155 
1522	 0.307691842578731 
1523	 0.30816683877095 
1524	 0.308603635809291 
1525	 0.309014711310322 
1526	 0.309421013170531 
1527	 0.309789238112443 
1528	 0.310178749242919 
1529	 0.310571290169423 
1530	 0.310966074757086 
1531	 0.311349475106325 
1532	 0.311765267322732 
1533	 0.312182573897344 
1534	 0.312654893654362 
1535	 0.313151595205621 
1536	 0.31369268567494 
1537	 0.314262998495473 
1538	 0.314910549643682 
1539	 0.315604779378092 
1540	 0.316359894965937 
1541	 0.31718135467617 
1542	 0.318065690815769 
1543	 0.319003693354661 
1544	 0.319999448439772 
1545	 0.321075696422299 
1546	 0.322181356559622 
1547	 0.323347318801962 
1548	 0.324519055478606 
1549	 0.325745519739825 
1550	 0.326956255385405 
1551	 0.328175523039734 
1552	 0.329395431757006 
1553	 0.33062477924732 
1554	 0.3318527062607 
1555	 0.333096596606924 
1556	 0.334306569880039 
1557	 0.335507469491897 
1558	 0.336695686822868 
1559	 0.337860017932368 
1560	 0.339016375682311 
1561	 0.340170282975853 
1562	 0.341305792314738 
1563	 0.342432735943932 
1564	 0.34352340874974 
1565	 0.344585362730971 
1566	 0.345644512618388 
1567	 0.346677330077538 
1568	 0.347699988012866 
1569	 0.348725080744305 
1570	 0.349723853361135 
1571	 0.350687074168425 
1572	 0.351653601968347 
1573	 0.352610673769376 
1574	 0.353561557261727 
1575	 0.354509165659117 
1576	 0.355441455511022 
1577	 0.356361369579727 
1578	 0.35727620122337 
1579	 0.358167072008617 
1580	 0.359073975860783 
1581	 0.359986684840343 
1582	 0.360895297601986 
1583	 0.361813849608447 
1584	 0.362721282543375 
1585	 0.363614256138619 
1586	 0.364517082529071 
1587	 0.365416177888467 
1588	 0.36632174630783 
1589	 0.36723268220204 
1590	 0.368148970934297 
1591	 0.369073974951352 
1592	 0.369997460640637 
1593	 0.370918071458847 
1594	 0.371853675830732 
1595	 0.372806778364023 
1596	 0.373738796683494 
1597	 0.374670232591652 
1598	 0.375601817516401 
1599	 0.376513453751199 
1600	 0.377439096127227 
1601	 0.378380409780408 
1602	 0.379316357202194 
1603	 0.380257367966353 
1604	 0.381182348256804 
1605	 0.382109994442636 
1606	 0.383017329486071 
1607	 0.383909416728262 
1608	 0.384788922287796 
1609	 0.385646542991312 
1610	 0.386504968533474 
1611	 0.387359546683176 
1612	 0.388191383503382 
1613	 0.389008652077842 
1614	 0.389822389626429 
1615	 0.390626088570658 
1616	 0.391413232425792 
1617	 0.392201611666614 
1618	 0.392963610954266 
1619	 0.393696855357024 
1620	 0.394413757621516 
1621	 0.395101295480331 
1622	 0.395792607956282 
1623	 0.396472244168023 
1624	 0.397148199927106 
1625	 0.397821717749389 
1626	 0.398492573715802 
1627	 0.399149096838587 
1628	 0.399808105737933 
1629	 0.400472689124191 
1630	 0.401130416684407 
1631	 0.401783056681155 
1632	 0.402438295720432 
1633	 0.403075849121975 
1634	 0.403744700431681 
1635	 0.404439605883775 
1636	 0.405115818500785 
1637	 0.405806122403435 
1638	 0.406485941263669 
1639	 0.407155436482729 
1640	 0.407816499851792 
1641	 0.408490812963888 
1642	 0.409130901414436 
1643	 0.409757331451997 
1644	 0.410339996597689 
1645	 0.410882836723937 
1646	 0.411407399167883 
1647	 0.411912404597661 
1648	 0.412371494472013 
1649	 0.412805655610839 
1650	 0.413201443651212 
1651	 0.413536518362052 
1652	 0.413853731792086 
1653	 0.414167132020234 
1654	 0.414410567848058 
1655	 0.414620679176307 
1656	 0.414761106400279 
1657	 0.414844381910946 
1658	 0.414854067306427 
1659	 0.414813920875153 
1660	 0.414671794185464 
1661	 0.41445537388363 
1662	 0.414133811373785 
1663	 0.413713799373983 
1664	 0.413193905587675 
1665	 0.412585992081084 
1666	 0.411843352107384 
1667	 0.411002991376571 
1668	 0.410021396091315 
1669	 0.408901070912906 
1670	 0.407664864641295 
1671	 0.406265247930855 
1672	 0.404793277243825 
1673	 0.40321169548869 
1674	 0.401533607215559 
1675	 0.399748089674535 
1676	 0.397928648829925 
1677	 0.395994969732051 
1678	 0.394063065656394 
1679	 0.39206915655292 
1680	 0.390074037636608 
1681	 0.388050232177093 
1682	 0.38601424492659 
1683	 0.383963748391562 
1684	 0.381954930331668 
1685	 0.379942432763194 
1686	 0.377938549419772 
1687	 0.375919357898252 
1688	 0.373960476751953 
1689	 0.372002680612748 
1690	 0.370117157374759 
1691	 0.368322853706782 
1692	 0.366573217576711 
1693	 0.364877374917064 
1694	 0.363196270997096 
1695	 0.361553427741921 
1696	 0.359928108687673 
1697	 0.358326560608434 
1698	 0.356726058599375 
1699	 0.355171532820641 
1700	 0.353625240022952 
1701	 0.352065373596931 
1702	 0.350556305636337 
1703	 0.349055430337528 
1704	 0.347629551149912 
1705	 0.346242177128717 
1706	 0.344865876928536 
1707	 0.343646066798555 
1708	 0.342452526348428 
1709	 0.341318136862687 
1710	 0.340266452878121 
1711	 0.339185910467138 
1712	 0.338140010021207 
1713	 0.337084699250424 
1714	 0.336037209701374 
1715	 0.33506265004581 
1716	 0.334042466541114 
1717	 0.33306357135926 
1718	 0.332115918881235 
1719	 0.331132441213787 
1720	 0.330227366713768 
1721	 0.329366976449275 
1722	 0.328562480922125 
1723	 0.327900137741174 
1724	 0.327330832553437 
1725	 0.326857640454609 
1726	 0.326526888265432 
1727	 0.326312727041084 
1728	 0.326235604505033 
1729	 0.32631926454212 
1730	 0.326534830758887 
1731	 0.326823613270517 
1732	 0.327192590790507 
1733	 0.327588526706432 
1734	 0.328001260356289 
1735	 0.328432552158719 
1736	 0.328824223168503 
1737	 0.329178730374746 
1738	 0.329440926483945 
1739	 0.329632772814898 
1740	 0.329723430717722 
1741	 0.329814288774416 
1742	 0.329836870588589 
1743	 0.329894524107576 
1744	 0.329912794964697 
1745	 0.330014192621745 
1746	 0.330116282316385 
1747	 0.330339319877112 
1748	 0.330623994250757 
1749	 0.331042370718399 
1750	 0.331571361625597 
1751	 0.332214692288726 
1752	 0.332988071879834 
1753	 0.333857267617423 
1754	 0.334818193374561 
1755	 0.335896370406418 
1756	 0.337076768850726 
1757	 0.338412657740481 
1758	 0.339917487134859 
1759	 0.341445150271276 
1760	 0.343111801357973 
1761	 0.34488855350658 
1762	 0.346614138081913 
1763	 0.348480890489238 
1764	 0.350365275357988 
1765	 0.35221933063088 
1766	 0.354202110567043 
1767	 0.35609632299432 
1768	 0.35801029963873 
1769	 0.359941763505088 
1770	 0.361690501881201 
1771	 0.363442254452053 
1772	 0.365111592138692 
1773	 0.366669565762078 
1774	 0.368279964472954 
1775	 0.36982769080765 
1776	 0.371367476415351 
1777	 0.372848051893237 
1778	 0.374169623858799 
1779	 0.375503860102708 
1780	 0.376764793387573 
1781	 0.377992554592934 
1782	 0.379307826050909 
1783	 0.380505671614276 
1784	 0.381695112404508 
1785	 0.382844402199902 
1786	 0.383954155829372 
1787	 0.385057610308095 
1788	 0.386144139398612 
1789	 0.387204273531538 
1790	 0.388264301848285 
1791	 0.389328349959329 
1792	 0.390372096128148 
1793	 0.391376436032663 
1794	 0.392372016505265 
1795	 0.393314528275646 
1796	 0.394200006062553 
1797	 0.395141319744756 
1798	 0.396054907296738 
1799	 0.396970732629739 
1800	 0.397883738795429 
1801	 0.391476400295843 
1802	 0.392287056119858 
1803	 0.393064706891412 
1804	 0.393779964217143 
1805	 0.394511603395419 
1806	 0.395193100479156 
1807	 0.395861436153338 
1808	 0.396487754197777 
1809	 0.397059595572893 
1810	 0.397642353912762 
1811	 0.398196708462861 
1812	 0.398765105977033 
1813	 0.399332619544916 
1814	 0.399917792916155 
1815	 0.400458438792739 
1816	 0.40102297757467 
1817	 0.401595974744725 
1818	 0.40216559447579 
1819	 0.402727704140419 
1820	 0.403325420947262 
1821	 0.40388474042685 
1822	 0.404405034823619 
1823	 0.404961396195663 
1824	 0.405486729271581 
1825	 0.405980402540672 
1826	 0.406448877098176 
1827	 0.406882419570905 
1828	 0.407311522168789 
1829	 0.407713866432977 
1830	 0.408118486716354 
1831	 0.408520367648568 
1832	 0.408916604233176 
1833	 0.409281226870655 
1834	 0.409633042910484 
1835	 0.409959911869289 
1836	 0.410252799272206 
1837	 0.410540380871338 
1838	 0.410803158607336 
1839	 0.411073156936934 
1840	 0.411348850395241 
1841	 0.411592585711003 
1842	 0.411833850779522 
1843	 0.412045181672502 
1844	 0.412215212026331 
1845	 0.412353368363673 
1846	 0.412470975050579 
1847	 0.412571560473966 
1848	 0.412630890798068 
1849	 0.412691289530925 
1850	 0.412655895820784 
1851	 0.412574020016538 
1852	 0.412421130665809 
1853	 0.412198792274312 
1854	 0.411919433191575 
1855	 0.411572549579907 
1856	 0.411171638657956 
1857	 0.410692378049392 
1858	 0.410094384705109 
1859	 0.409412825101704 
1860	 0.408664524579923 
1861	 0.407775312262663 
1862	 0.406757159756403 
1863	 0.405702694449193 
1864	 0.404486941040961 
1865	 0.403191892594429 
1866	 0.401801276892162 
1867	 0.400182414472869 
1868	 0.398514427593532 
1869	 0.396685873561737 
1870	 0.394728450162611 
1871	 0.392662167321719 
1872	 0.390513015653718 
1873	 0.388230425009819 
1874	 0.385894119172285 
1875	 0.383482759828783 
1876	 0.380762808065228 
1877	 0.378037454152806 
1878	 0.375094427345608 
1879	 0.371904676943362 
1880	 0.368822476694176 
1881	 0.365544077717458 
1882	 0.362081852277686 
1883	 0.358551105679531 
1884	 0.354901124016297 
1885	 0.350844177720926 
1886	 0.34676663302163 
1887	 0.342448567287755 
1888	 0.337916648497158 
1889	 0.333632763455351 
1890	 0.329121427840348 
1891	 0.324599477779402 
1892	 0.320148101387805 
1893	 0.315531169751671 
1894	 0.310705390786563 
1895	 0.306073881189186 
1896	 0.301351440698299 
1897	 0.296577759397047 
1898	 0.292208444860239 
1899	 0.2877384866816 
1900	 0.283376888348644 
1901	 0.279219733606499 
1902	 0.274822391577198 
1903	 0.270642504422124 
1904	 0.266507990857987 
1905	 0.262395152016718 
1906	 0.258302660302914 
1907	 0.254596573600662 
1908	 0.250807226802659 
1909	 0.24712489326731 
1910	 0.243608846274383 
1911	 0.239881443420139 
1912	 0.236312499374225 
1913	 0.232711083804994 
1914	 0.229011161351814 
1915	 0.225458144785165 
1916	 0.222065467665671 
1917	 0.218498742342996 
1918	 0.214962552669878 
1919	 0.211455927585839 
1920	 0.207640836993504 
1921	 0.203918908458062 
1922	 0.200099664108387 
1923	 0.196125582565493 
1924	 0.192427282104618 
1925	 0.188598920035122 
1926	 0.184822046002116 
1927	 0.181139556507067 
1928	 0.177419832998925 
1929	 0.173577851781062 
1930	 0.169951742807614 
1931	 0.166420984178752 
1932	 0.163014637121422 
1933	 0.160083317010264 
1934	 0.157319640078124 
1935	 0.154805631784363 
1936	 0.152709766363112 
1937	 0.150830096249882 
1938	 0.149159372447666 
1939	 0.147883801788368 
1940	 0.146928711426856 
1941	 0.146264425336518 
1942	 0.145957222307563 
1943	 0.145910475331455 
1944	 0.146095288864869 
1945	 0.146564103629969 
1946	 0.147383621830579 
1947	 0.148427325257982 
1948	 0.149865764910204 
1949	 0.151710750688993 
1950	 0.153788113195627 
1951	 0.156207145431895 
1952	 0.158900352551918 
1953	 0.161863776634368 
1954	 0.165111937520385 
1955	 0.168763185195197 
1956	 0.172413223151876 
1957	 0.176168461500709 
1958	 0.179911635738345 
1959	 0.183230142019287 
1960	 0.186378165742522 
1961	 0.189203330527305 
1962	 0.191704522575407 
1963	 0.193936954475137 
1964	 0.195889060695149 
1965	 0.197569906909112 
1966	 0.198944252812518 
1967	 0.200119158411282 
1968	 0.201037271911759 
1969	 0.201933415759053 
1970	 0.202760837314931 
1971	 0.203599982163097 
1972	 0.20456076550219 
1973	 0.205571523367309 
1974	 0.206686912588247 
1975	 0.207933126178129 
1976	 0.209209563436748 
1977	 0.210542133565973 
1978	 0.211966671556173 
1979	 0.213453125175823 
1980	 0.214996963129525 
1981	 0.216724120489718 
1982	 0.21844420547781 
1983	 0.220325584478643 
1984	 0.222312680444644 
1985	 0.224271975928068 
1986	 0.226451667552727 
1987	 0.228813343497095 
1988	 0.231183885292864 
1989	 0.233998656266591 
1990	 0.237124605002125 
1991	 0.240454394183098 
1992	 0.244095131330363 
1993	 0.248047892747503 
1994	 0.251905282267459 
1995	 0.256070739635422 
1996	 0.260263584010134 
1997	 0.26443536491112 
1998	 0.268745586699247 
1999	 0.273297738704643 
2000	 0.277532157306326 
2001	 0.281930620524201 
2002	 0.285865164819119 
2003	 0.289492499177773 
2004	 0.293007566446022 
2005	 0.296238340303457 
2006	 0.299349456211584 
2007	 0.302397696337468 
2008	 0.305131310260587 
2009	 0.307655896378975 
2010	 0.310039123432635 
2011	 0.312069973815077 
2012	 0.313991025130343 
2013	 0.315753187330185 
2014	 0.317293577414361 
2015	 0.318752680027406 
2016	 0.32009059569444 
2017	 0.321280123402538 
2018	 0.322349564230752 
2019	 0.323265937060627 
2020	 0.323995434431529 
2021	 0.324646888927769 
2022	 0.325175451081116 
2023	 0.325568258524111 
2024	 0.325918600482311 
2025	 0.32616986815189 
2026	 0.326330673505948 
2027	 0.326379121722053 
2028	 0.326396739147272 
2029	 0.3263057099338 
2030	 0.326207985822773 
2031	 0.32604952786473 
2032	 0.325898038040355 
2033	 0.325696971699549 
2034	 0.325518581531121 
2035	 0.325339981332426 
2036	 0.32516062099881 
2037	 0.324994597754094 
2038	 0.32483415942845 
2039	 0.324707136701818 
2040	 0.324605013432997 
2041	 0.324514402342823 
2042	 0.324450631261656 
2043	 0.324394077923672 
2044	 0.324345921195313 
2045	 0.324316527095537 
2046	 0.324317237645548 
2047	 0.324305791733125 
2048	 0.324319984881908 
2049	 0.32430701123945 
2050	 0.324280122239084 
2051	 0.324244991621426 
2052	 0.324202618736482 
2053	 0.324144366966998 
2054	 0.324087404894877 
2055	 0.32403218470717 
2056	 0.323956379902058 
2057	 0.323870016590865 
2058	 0.323775599952789 
2059	 0.323645782595225 
2060	 0.323552784055733 
2061	 0.323470751239569 
2062	 0.323388495836947 
2063	 0.323314951379103 
2064	 0.323257639047735 
2065	 0.323197750434087 
2066	 0.323152301584544 
2067	 0.323139424446801 
2068	 0.323164885021885 
2069	 0.323188621187574 
2070	 0.323232912318226 
2071	 0.323273517120171 
2072	 0.323337794673993 
2073	 0.323372409156762 
2074	 0.323415396703798 
2075	 0.323424306089977 
2076	 0.323411620234095 
2077	 0.323374631618138 
2078	 0.323310224539428 
2079	 0.32323428073988 
2080	 0.323149469150005 
2081	 0.323024910572301 
2082	 0.322874055248181 
2083	 0.322712817375756 
2084	 0.322475596238036 
2085	 0.322228531459768 
2086	 0.321955556445641 
2087	 0.321642168378754 
2088	 0.321323386578095 
2089	 0.320993747232797 
2090	 0.320638259820339 
2091	 0.320270529466816 
2092	 0.319863592222861 
2093	 0.319436262809343 
2094	 0.318969975181544 
2095	 0.318437502301211 
2096	 0.317920893871821 
2097	 0.317401114023131 
2098	 0.316833954794127 
2099	 0.316297843405458 
2100	 0.315771806742636 
2101	 0.315163171847774 
2102	 0.314518365540266 
2103	 0.313851103887509 
2104	 0.313097282293724 
2105	 0.312404343877669 
2106	 0.31173872254269 
2107	 0.311029195831902 
2108	 0.310335281970465 
2109	 0.309584171224722 
2110	 0.308768643159154 
2111	 0.307971689535753 
2112	 0.307129419475206 
2113	 0.306322140973819 
2114	 0.305537760523937 
2115	 0.304745374762737 
2116	 0.30396802723551 
2117	 0.303196814733755 
2118	 0.302382231628573 
2119	 0.301534270401824 
2120	 0.300723054253009 
2121	 0.299877812607176 
2122	 0.299101104553676 
2123	 0.298371814235016 
2124	 0.297642398689139 
2125	 0.296942901626061 
2126	 0.296243582233959 
2127	 0.295558034198123 
2128	 0.294884166302994 
2129	 0.294202336764224 
2130	 0.293558475916767 
2131	 0.292952629763854 
2132	 0.292341646497947 
2133	 0.29174325502113 
2134	 0.29118286992216 
2135	 0.2905733127188 
2136	 0.289964859582932 
2137	 0.289377979196072 
2138	 0.288784379294613 
2139	 0.288220622825815 
2140	 0.287690358102342 
2141	 0.287147980787236 
2142	 0.286625996297495 
2143	 0.286080790680599 
2144	 0.285516256640142 
2145	 0.284977310134109 
2146	 0.28443096368711 
2147	 0.283901389397907 
2148	 0.283406619742411 
2149	 0.282893691696165 
2150	 0.282385574211864 
2151	 0.281865117638993 
2152	 0.281326311007005 
2153	 0.280804394157254 
2154	 0.28026816464711 
2155	 0.279722462046884 
2156	 0.279194247697844 
2157	 0.278676068451876 
2158	 0.278143837172636 
2159	 0.277626994753757 
2160	 0.27707754315592 
2161	 0.276498426337452 
2162	 0.275940214419442 
2163	 0.275355389979144 
2164	 0.274810263405216 
2165	 0.274282499321509 
2166	 0.273778476577294 
2167	 0.273314624921951 
2168	 0.272833933691453 
2169	 0.272339072251622 
2170	 0.271891315460077 
2171	 0.271418121199567 
2172	 0.271030899876755 
2173	 0.270728622655481 
2174	 0.270444836405255 
2175	 0.270170541671598 
2176	 0.26994526993183 
2177	 0.269722784890931 
2178	 0.269494007451093 
2179	 0.269329781459059 
2180	 0.269222784481954 
2181	 0.269098670914956 
2182	 0.269019249995606 
2183	 0.268898695935726 
2184	 0.268783221901836 
2185	 0.268621348272354 
2186	 0.268449006338498 
2187	 0.268222762028405 
2188	 0.267943388084334 
2189	 0.267649770837845 
2190	 0.267332932415581 
2191	 0.266968351778533 
2192	 0.266606652427067 
2193	 0.266145334545204 
2194	 0.265591820300071 
2195	 0.26501354542627 
2196	 0.264377305680652 
2197	 0.26368018926668 
2198	 0.262967136384586 
2199	 0.262189537413481 
2200	 0.26134903592288 
2201	 0.260451672964854 
2202	 0.259466811445932 
2203	 0.258407389742838 
2204	 0.257303900829567 
2205	 0.25607386377683 
2206	 0.254908609666788 
2207	 0.253715346904435 
2208	 0.25253784427961 
2209	 0.251381722612549 
2210	 0.250216273623843 
2211	 0.248985333576129 
2212	 0.247888382114874 
2213	 0.246763404547464 
2214	 0.245832728200453 
2215	 0.245042765832059 
2216	 0.244350271527359 
2217	 0.243795077482587 
2218	 0.243344901090693 
2219	 0.243022679000278 
2220	 0.242777264460004 
2221	 0.2426687342956 
2222	 0.242617932355931 
2223	 0.24260609299255 
2224	 0.242604851352688 
2225	 0.242598178752996 
2226	 0.242495402420739 
2227	 0.242240911327052 
2228	 0.24191310347364 
2229	 0.241412762324344 
2230	 0.24075330557736 
2231	 0.239960992714892 
2232	 0.239051708749085 
2233	 0.237946490659773 
2234	 0.236693713368653 
2235	 0.235236300035717 
2236	 0.233579828765946 
2237	 0.231779610203764 
2238	 0.229715005834007 
2239	 0.227627640288257 
2240	 0.225439920210605 
2241	 0.223106459998981 
2242	 0.220727027667217 
2243	 0.218125738219762 
2244	 0.215285841867264 
2245	 0.212391219215594 
2246	 0.209234588033859 
2247	 0.20614711703187 
2248	 0.203043596518375 
2249	 0.199873815677237 
2250	 0.196678931403446 
2251	 0.193496558702679 
2252	 0.190041944453548 
2253	 0.186678644105636 
2254	 0.183290924026618 
2255	 0.179873806096578 
2256	 0.176783802613207 
2257	 0.173703160261706 
2258	 0.170750908463141 
2259	 0.16795159780477 
2260	 0.165201289217006 
2261	 0.162476646823391 
2262	 0.15999078081951 
2263	 0.157566059381431 
2264	 0.155472351069033 
2265	 0.153648191188656 
2266	 0.151960136018242 
2267	 0.150580759826427 
2268	 0.149223051717514 
2269	 0.147980913692978 
2270	 0.14687715219925 
2271	 0.145928074693971 
2272	 0.145025396126771 
2273	 0.144308569337419 
2274	 0.14354259771577 
2275	 0.142848112450752 
2276	 0.14210437852105 
2277	 0.141365845257 
2278	 0.140598502207775 
2279	 0.139819093621399 
2280	 0.138975606727595 
2281	 0.138112159089394 
2282	 0.137185787879569 
2283	 0.136193797765326 
2284	 0.135155575082444 
2285	 0.134047663988314 
2286	 0.132944092864748 
2287	 0.131779404303869 
2288	 0.130583686927517 
2289	 0.129443292431449 
2290	 0.128241736077619 
2291	 0.12706010848205 
2292	 0.125922645319876 
2293	 0.124739125939555 
2294	 0.123625157495182 
2295	 0.122621262573434 
2296	 0.121735385090958 
2297	 0.12107722589784 
2298	 0.120618536759444 
2299	 0.120314393933073 
2300	 0.120198021123465 
2301	 0.120274696361759 
2302	 0.120506068034395 
2303	 0.120992265430782 
2304	 0.121738653987614 
2305	 0.122623083572718 
2306	 0.123751675349033 
2307	 0.125017228811399 
2308	 0.126429730317747 
2309	 0.128048370383535 
2310	 0.129956237698281 
2311	 0.131821324535544 
2312	 0.133930845264232 
2313	 0.135896112648286 
2314	 0.137879000157648 
2315	 0.139750536651031 
2316	 0.141590057600145 
2317	 0.143276374305122 
2318	 0.144893990246491 
2319	 0.146292076835693 
2320	 0.147588459711939 
2321	 0.14862420435314 
2322	 0.149376065834069 
2323	 0.150023774840708 
2324	 0.150449031633557 
2325	 0.15073816000835 
2326	 0.150909461189028 
2327	 0.150885564983176 
2328	 0.15062294085014 
2329	 0.150268787543173 
2330	 0.149778367543879 
2331	 0.149079619967163 
2332	 0.148281862874205 
2333	 0.147392001816864 
2334	 0.146307129594461 
2335	 0.145159161402597 
2336	 0.143967880372357 
2337	 0.142678526449925 
2338	 0.141427540063381 
2339	 0.140147478173991 
2340	 0.138847690678806 
2341	 0.137621286952421 
2342	 0.136411066836177 
2343	 0.135343455717838 
2344	 0.134471689715321 
2345	 0.133766410193711 
2346	 0.13328351117703 
2347	 0.133057014588144 
2348	 0.133021180959564 
2349	 0.133249767683061 
2350	 0.133710868739888 
2351	 0.134317877901447 
2352	 0.135052031877766 
2353	 0.135819950637394 
2354	 0.136520475237395 
2355	 0.1371976747928 
2356	 0.137816091269804 
2357	 0.138362466535564 
2358	 0.138876219445496 
2359	 0.139258461860637 
2360	 0.139493262917184 
2361	 0.139621104125992 
2362	 0.139740073559979 
2363	 0.139800593145659 
2364	 0.139798476402947 
2365	 0.139767498248708 
2366	 0.139574497933411 
2367	 0.139307079461468 
2368	 0.139113754959943 
2369	 0.13887165768121 
2370	 0.138639721713718 
2371	 0.138435833363152 
2372	 0.138113023769838 
2373	 0.137756985624541 
2374	 0.137303948216814 
2375	 0.136786991429728 
2376	 0.136289871484121 
2377	 0.135729464550388 
2378	 0.135251092832204 
2379	 0.134751624015254 
2380	 0.13413628241272 
2381	 0.133556503397855 
2382	 0.132972073950765 
2383	 0.132358659704068 
2384	 0.131739502159866 
2385	 0.131153811727193 
2386	 0.130495606634655 
2387	 0.129756077503015 
2388	 0.129016472494091 
2389	 0.128275030284623 
2390	 0.127471749145501 
2391	 0.126617779123437 
2392	 0.125817159177697 
2393	 0.124983071573932 
2394	 0.124196640959908 
2395	 0.123446270732149 
2396	 0.122647531544555 
2397	 0.121838906380638 
2398	 0.121057323947539 
2399	 0.120284112709354 
2400	 0.119548022543632 
2401	 0.118830574745117 
2402	 0.118135334783188 
2403	 0.117437177481769 
2404	 0.116780462885666 
2405	 0.116134541006773 
2406	 0.115455638100123 
2407	 0.114861868366314 
2408	 0.114244955068728 
2409	 0.113616093734511 
2410	 0.113144693602227 
2411	 0.112675590035885 
2412	 0.112252732780599 
2413	 0.111853629727657 
2414	 0.11135456114491 
2415	 0.110864325569569 
2416	 0.11041916720303 
2417	 0.110098859721461 
2418	 0.109796977568614 
2419	 0.109437177316925 
2420	 0.109109290241566 
2421	 0.108821838153076 
2422	 0.108577425693959 
2423	 0.108338101398457 
2424	 0.108088359105405 
2425	 0.107811287629901 
2426	 0.107560950435674 
2427	 0.107399979823596 
2428	 0.107320251499305 
2429	 0.107205880763316 
2430	 0.107007440440513 
2431	 0.106876907748946 
2432	 0.106756332054338 
2433	 0.106635279698655 
2434	 0.106527393354037 
2435	 0.106314313749832 
2436	 0.10606360324365 
2437	 0.105848761407868 
2438	 0.105705625890636 
2439	 0.105664211728698 
2440	 0.105692235109052 
2441	 0.105636562468912 
2442	 0.105465644345239 
2443	 0.105366486918475 
2444	 0.105298939370568 
2445	 0.105242904411903 
2446	 0.105250824243954 
2447	 0.105195324921652 
2448	 0.10497928236909 
2449	 0.104660427361721 
2450	 0.104496670000162 
2451	 0.104311683639645 
2452	 0.104133873762075 
2453	 0.104182258407632 
2454	 0.104009203109461 
2455	 0.103769912697996 
2456	 0.103616009583018 
2457	 0.103277120058289 
2458	 0.102892018411517 
2459	 0.102578506315747 
2460	 0.10226369615493 
2461	 0.101938104510748 
2462	 0.101657493857417 
2463	 0.101340846675054 
2464	 0.101103862595741 
2465	 0.100872503822487 
2466	 0.100556916536726 
2467	 0.100434680339044 
2468	 0.1003041652772 
2469	 0.100066050112745 
2470	 9.99953714292859E-02 
2471	 9.97939314623058E-02 
2472	 9.94395329188184E-02 
2473	 9.92133394935403E-02 
2474	 9.89861441378201E-02 
2475	 9.89547548552459E-02 
2476	 9.90809737032424E-02 
2477	 9.92157462677646E-02 
2478	 9.94190539983535E-02 
2479	 9.94651916636117E-02 
2480	 9.93730212617359E-02 
2481	 9.93488660436796E-02 
2482	 9.93703810867381E-02 
2483	 9.92861144349331E-02 
2484	 9.92558251940616E-02 
2485	 9.93473790917923E-02 
2486	 9.95261260134203E-02 
2487	 9.99385739561423E-02 
2488	 0.100324612788451 
2489	 0.100672420566208 
2490	 0.100850173039929 
2491	 0.100864238175525 
2492	 0.100981573467094 
2493	 0.101159952013005 
2494	 0.101382707587715 
2495	 0.101737961962049 
2496	 0.102177700673307 
2497	 0.1025641022757 
2498	 0.102866860943028 
2499	 0.103033799195954 
2500	 0.103204719492315 
