Wavelength	spectrum00001.asd
350	 0.036225814185539 
351	 3.54067063989115E-02 
352	 3.49545792840978E-02 
353	 3.54012235572279E-02 
354	 3.49710736907454E-02 
355	 3.53164816075105E-02 
356	 3.53970853032389E-02 
357	 3.41365314550539E-02 
358	 3.17834190251945E-02 
359	 3.07877687991282E-02 
360	 0.031359684034856 
361	 3.23061486952476E-02 
362	 3.20581872043118E-02 
363	 0.032185877867359 
364	 0.032269377820857 
365	 2.88505107225546E-02 
366	 2.94615563805397E-02 
367	 3.15693288695456E-02 
368	 3.16390655388861E-02 
369	 3.12902530431217E-02 
370	 3.12233127287692E-02 
371	 3.13623800310523E-02 
372	 3.12150923594735E-02 
373	 3.11551387766409E-02 
374	 3.08488900514354E-02 
375	 3.04710428543082E-02 
376	 3.10018818414346E-02 
377	 3.17090678617784E-02 
378	 3.17061705098082E-02 
379	 3.06567450521142E-02 
380	 2.99258177260248E-02 
381	 3.05657015277641E-02 
382	 3.14799152072643E-02 
383	 3.06953706334517E-02 
384	 3.12638776006205E-02 
385	 3.18268413574537E-02 
386	 3.14095826246052E-02 
387	 3.03449556348339E-02 
388	 2.98199178939282E-02 
389	 0.03016440247258 
390	 3.08934829812833E-02 
391	 2.96471856176953E-02 
392	 2.91993254932786E-02 
393	 3.00482117710569E-02 
394	 3.09535781403994E-02 
395	 0.030220789102363 
396	 3.00124157656921E-02 
397	 3.09767098503853E-02 
398	 3.04213729165872E-02 
399	 0.030356625980582 
400	 3.03784328854668E-02 
401	 2.97814870170177E-02 
402	 2.94856171239141E-02 
403	 2.98197243295184E-02 
404	 3.03862889007124E-02 
405	 3.03410410796254E-02 
406	 0.03009705711564 
407	 2.98262495758761E-02 
408	 2.97052286564072E-02 
409	 3.00674608961362E-02 
410	 2.99949038379767E-02 
411	 2.96940586677833E-02 
412	 2.96684377866466E-02 
413	 2.98743555973116E-02 
414	 2.97338989944588E-02 
415	 2.94304643495644E-02 
416	 0.029782034236113 
417	 2.98156186576471E-02 
418	 2.97219916006114E-02 
419	 0.029734554701978 
420	 2.96706531089347E-02 
421	 2.97104374439065E-02 
422	 2.97623542998061E-02 
423	 0.029675362868764 
424	 0.029649125403461 
425	 2.99130907943507E-02 
426	 3.02763977980433E-02 
427	 3.00931551505365E-02 
428	 3.00162547893077E-02 
429	 3.01800822461633E-02 
430	 3.04946050554945E-02 
431	 3.05784351164089E-02 
432	 3.08065714445129E-02 
433	 3.10958813250756E-02 
434	 3.11540363047035E-02 
435	 3.13117061551474E-02 
436	 0.031642746881023 
437	 0.03203053780605 
438	 3.20955311785667E-02 
439	 3.24952747137067E-02 
440	 3.29856102122698E-02 
441	 3.32241385604443E-02 
442	 0.033625557269702 
443	 3.41900879583922E-02 
444	 3.47916095979814E-02 
445	 3.52327105755351E-02 
446	 3.56666254742409E-02 
447	 3.60931913975729E-02 
448	 3.65870591999486E-02 
449	 3.74843249298014E-02 
450	 3.82136799053407E-02 
451	 3.88692621298883E-02 
452	 3.97390986864897E-02 
453	 4.05512196002399E-02 
454	 4.13931743664584E-02 
455	 4.22797186699434E-02 
456	 4.31273708337951E-02 
457	 4.41164354603957E-02 
458	 4.51773775338333E-02 
459	 4.62411036493614E-02 
460	 4.74139857471392E-02 
461	 4.86375912446791E-02 
462	 4.98402179806271E-02 
463	 5.09778906264834E-02 
464	 5.22835738614921E-02 
465	 5.36695515977723E-02 
466	 5.50330093548637E-02 
467	 5.63031613661375E-02 
468	 5.77136616265349E-02 
469	 0.059235118962189 
470	 6.07953297533859E-02 
471	 6.25174409189063E-02 
472	 6.41389151734506E-02 
473	 6.57037165941323E-02 
474	 6.74798355219663E-02 
475	 6.90965588246128E-02 
476	 7.07869388923373E-02 
477	 7.26904343605817E-02 
478	 7.45474649359501E-02 
479	 7.62686772911319E-02 
480	 7.80363679704104E-02 
481	 8.00630882273861E-02 
482	 8.19664932881211E-02 
483	 8.38187963257663E-02 
484	 8.57233470128334E-02 
485	 8.77700510327409E-02 
486	 8.98441702901254E-02 
487	 0.091861785926834 
488	 9.38199016747437E-02 
489	 9.59360150108347E-02 
490	 9.80404410123036E-02 
491	 0.100074973810002 
492	 0.102059321692755 
493	 0.104036160016109 
494	 0.106065852345045 
495	 0.108151816328666 
496	 0.110205218936126 
497	 0.112189871631672 
498	 0.114154976585324 
499	 0.116172160837715 
500	 0.118293848862413 
501	 0.120334125119976 
502	 0.122256967838828 
503	 0.124171501203724 
504	 0.126130676920588 
505	 0.128032286151447 
506	 0.129845370344206 
507	 0.13179849768683 
508	 0.133599911713159 
509	 0.135321880882351 
510	 0.137165671829424 
511	 0.139017946518784 
512	 0.140772179817246 
513	 0.142410394475756 
514	 0.144030291243193 
515	 0.145624083883972 
516	 0.147174794931001 
517	 0.148656329564265 
518	 0.15000782549882 
519	 0.151417679279117 
520	 0.152846622501077 
521	 0.154103987746527 
522	 0.155270452217762 
523	 0.156378605709858 
524	 0.157449657811599 
525	 0.158505843011272 
526	 0.159467064746239 
527	 0.160346369465367 
528	 0.16117929494728 
529	 0.161917547399664 
530	 0.162567250261609 
531	 0.163159146957501 
532	 0.163742492129883 
533	 0.164219163604713 
534	 0.164584630487559 
535	 0.164862014262437 
536	 0.165084638488113 
537	 0.165260096562497 
538	 0.165354782777836 
539	 0.165320578367737 
540	 0.165194324000201 
541	 0.165054799331903 
542	 0.164899250565582 
543	 0.1645907734775 
544	 0.164191382191841 
545	 0.163708695765277 
546	 0.163151593940661 
547	 0.162599715264776 
548	 0.161961762221936 
549	 0.161226775150927 
550	 0.16046065947681 
551	 0.159651677005408 
552	 0.158796165520682 
553	 0.157885082715095 
554	 0.156901183190853 
555	 0.15581319406458 
556	 0.154679072402077 
557	 0.153579860552793 
558	 0.15239885797888 
559	 0.15120389655201 
560	 0.150008217995629 
561	 0.148722557381663 
562	 0.147445265870117 
563	 0.146221813883638 
564	 0.145039894773529 
565	 0.14374292844928 
566	 0.142414845543666 
567	 0.141046931503084 
568	 0.13957013199142 
569	 0.13807243522442 
570	 0.136581710034507 
571	 0.135126568577561 
572	 0.133759251333077 
573	 0.132445288119072 
574	 0.131140668354403 
575	 0.129807244209807 
576	 0.128495394668926 
577	 0.127141560138002 
578	 0.125749581803076 
579	 0.124405610344281 
580	 0.123001226356192 
581	 0.121568562142188 
582	 0.120145726578755 
583	 0.118688049761314 
584	 0.117224771421206 
585	 0.115771547612013 
586	 0.114333351941141 
587	 0.112894205675199 
588	 0.111493745771828 
589	 0.110118995232753 
590	 0.108662258465122 
591	 0.107261113788933 
592	 0.10590045922761 
593	 0.104531169204937 
594	 0.103180803311511 
595	 0.101851999622877 
596	 0.100541576387081 
597	 9.92429685862676E-02 
598	 9.79802387007398E-02 
599	 9.67099979967315E-02 
600	 9.54145532124942E-02 
601	 9.41695800045649E-02 
602	 9.29406322861548E-02 
603	 9.17117237201094E-02 
604	 9.04810745221393E-02 
605	 0.089280240715306 
606	 8.81042537507635E-02 
607	 8.69594454260341E-02 
608	 8.58703477373443E-02 
609	 8.47673191657718E-02 
610	 8.36867496858244E-02 
611	 8.26656116998462E-02 
612	 8.16670384503641E-02 
613	 0.080645778606673 
614	 7.96237944362127E-02 
615	 7.86572860268123E-02 
616	 7.76806581244959E-02 
617	 7.67386975746446E-02 
618	 7.58512263017521E-02 
619	 7.49671117625137E-02 
620	 7.40834209483966E-02 
621	 7.32136820303882E-02 
622	 7.23728354449867E-02 
623	 7.15426504519495E-02 
624	 7.07586532844429E-02 
625	 7.00004312439503E-02 
626	 0.069199704035566 
627	 6.84481218379805E-02 
628	 6.77283931322008E-02 
629	 6.70129748847881E-02 
630	 6.63000810092291E-02 
631	 6.56168761587393E-02 
632	 6.49631064460401E-02 
633	 6.43239244502729E-02 
634	 6.36749307126114E-02 
635	 6.30438681461595E-02 
636	 6.24444128420197E-02 
637	 6.18696452717197E-02 
638	 6.13075009790475E-02 
639	 6.07509100212193E-02 
640	 6.01939171844798E-02 
641	 5.96190672745933E-02 
642	 5.90948681657176E-02 
643	 5.86087109796834E-02 
644	 5.81031651558488E-02 
645	 5.76276261658935E-02 
646	 0.057160466852813 
647	 5.66900726890547E-02 
648	 5.62335909563495E-02 
649	 5.58069933446329E-02 
650	 5.53949479954159E-02 
651	 5.49792480980596E-02 
652	 5.45787010302998E-02 
653	 5.41789739081972E-02 
654	 5.37797495193464E-02 
655	 5.33933557242825E-02 
656	 5.30377971723208E-02 
657	 5.26956604741848E-02 
658	 5.23515688515897E-02 
659	 5.20043879250312E-02 
660	 5.16887224748582E-02 
661	 5.13829348715722E-02 
662	 5.10565350010183E-02 
663	 5.07573338863212E-02 
664	 5.04601190102233E-02 
665	 0.050165667300845 
666	 4.99024958504441E-02 
667	 4.96354082452634E-02 
668	 4.93670136086245E-02 
669	 4.91097850944322E-02 
670	 4.88818751256679E-02 
671	 4.86554141689904E-02 
672	 4.84062797069797E-02 
673	 4.81313480939691E-02 
674	 0.04795031771754 
675	 4.77551181773826E-02 
676	 4.75187990579367E-02 
677	 4.73336196769691E-02 
678	 0.047117444201765 
679	 4.69091538296864E-02 
680	 4.67470609298905E-02 
681	 4.65852175499912E-02 
682	 4.64093003707485E-02 
683	 4.62283290946201E-02 
684	 4.60621337806462E-02 
685	 0.045894615939674 
686	 0.045744879028962 
687	 4.56170467198145E-02 
688	 4.54906351360365E-02 
689	 4.53210723533868E-02 
690	 4.51576207180173E-02 
691	 4.50465668112153E-02 
692	 4.49349077914311E-02 
693	 4.48068984450214E-02 
694	 4.46803070159802E-02 
695	 4.45869058705873E-02 
696	 0.044470823695385 
697	 4.43608999054786E-02 
698	 4.42687871840088E-02 
699	 4.41635182206735E-02 
700	 4.40540938054945E-02 
701	 4.39568711375102E-02 
702	 4.38797166019384E-02 
703	 4.37878371612662E-02 
704	 4.37186883686123E-02 
705	 4.36589242413155E-02 
706	 4.35671088482074E-02 
707	 4.35082166169811E-02 
708	 4.34479509264722E-02 
709	 4.33694771518197E-02 
710	 4.33054522448128E-02 
711	 4.32720250067698E-02 
712	 4.32446164408974E-02 
713	 4.31951137105939E-02 
714	 4.31363857152709E-02 
715	 4.30911358319869E-02 
716	 0.04305423129474 
717	 4.30037043598624E-02 
718	 4.29672709978617E-02 
719	 4.29508806756296E-02 
720	 0.042944754627817 
721	 4.29187335513618E-02 
722	 0.042888367548091 
723	 0.042864210530428 
724	 4.28499085378932E-02 
725	 4.28255873108475E-02 
726	 4.28104938064067E-02 
727	 4.28137919742109E-02 
728	 4.28315682563109E-02 
729	 4.28153330943436E-02 
730	 4.27912726201653E-02 
731	 4.27857853440857E-02 
732	 4.28083458817745E-02 
733	 0.042832467453384 
734	 4.28372282851113E-02 
735	 4.28229495919177E-02 
736	 4.28587748167274E-02 
737	 4.28839223295827E-02 
738	 4.28917373395598E-02 
739	 4.29131223808819E-02 
740	 4.29540025784486E-02 
741	 4.29988281512688E-02 
742	 4.30362546395238E-02 
743	 4.30655451197682E-02 
744	 4.31152595809585E-02 
745	 0.043172397968011 
746	 4.32188196622248E-02 
747	 4.32584461365855E-02 
748	 4.33171033209461E-02 
749	 4.33846948471223E-02 
750	 4.34342844482466E-02 
751	 4.34877455994624E-02 
752	 4.35450753385452E-02 
753	 0.043605915232461 
754	 4.36721108424624E-02 
755	 4.37409446783417E-02 
756	 4.38137784630509E-02 
757	 4.38879043018859E-02 
758	 4.39432500912483E-02 
759	 4.40186671398084E-02 
760	 0.044106452807615 
761	 4.41813099399058E-02 
762	 4.42622713480189E-02 
763	 4.43506577865636E-02 
764	 4.44464886074784E-02 
765	 4.45489712258659E-02 
766	 4.46334233356513E-02 
767	 4.47254398044132E-02 
768	 4.48428629132488E-02 
769	 4.49641323766925E-02 
770	 4.50818339708519E-02 
771	 4.51955063515767E-02 
772	 4.53097401507994E-02 
773	 4.54340625072277E-02 
774	 4.55548583798777E-02 
775	 4.56758628975289E-02 
776	 4.58126703786632E-02 
777	 4.59344821315702E-02 
778	 4.60597568917735E-02 
779	 4.62006335895009E-02 
780	 4.63460090675728E-02 
781	 4.64974853204613E-02 
782	 0.046639843128763 
783	 4.67672720217311E-02 
784	 4.69165388528479E-02 
785	 4.71056166006602E-02 
786	 4.72997710963992E-02 
787	 4.74468530085935E-02 
788	 4.76090814198917E-02 
789	 4.77763514688291E-02 
790	 4.79444736196872E-02 
791	 4.81239926997342E-02 
792	 4.83131609776384E-02 
793	 4.84956220477788E-02 
794	 4.86687944504027E-02 
795	 0.048871168302054 
796	 4.90674427675983E-02 
797	 0.049260851923747 
798	 4.94658108522052E-02 
799	 4.96787985194157E-02 
800	 4.98814903669696E-02 
801	 5.00778234879276E-02 
802	 5.02873466105325E-02 
803	 5.04934547430691E-02 
804	 5.07064657083522E-02 
805	 5.09335875984859E-02 
806	 5.11723274413699E-02 
807	 5.14011731744145E-02 
808	 5.16264276006847E-02 
809	 5.18588571925295E-02 
810	 5.20981127153001E-02 
811	 5.23412751814784E-02 
812	 5.25911551876893E-02 
813	 5.28509737568764E-02 
814	 5.31090417655675E-02 
815	 5.33751265085562E-02 
816	 5.36461656423811E-02 
817	 5.39094372031843E-02 
818	 5.41984254555244E-02 
819	 5.44736993737922E-02 
820	 5.47293936782781E-02 
821	 5.50308768808073E-02 
822	 0.055322817331366 
823	 5.56175170475713E-02 
824	 5.59282463708366E-02 
825	 5.62123425122213E-02 
826	 5.65176933837586E-02 
827	 5.68351101625604E-02 
828	 5.71394655720271E-02 
829	 5.74829922472231E-02 
830	 5.78170521386422E-02 
831	 5.81364815377362E-02 
832	 5.84759451947537E-02 
833	 5.88051376952811E-02 
834	 5.91348111210444E-02 
835	 0.059477993310417 
836	 5.98418332861972E-02 
837	 6.02209939905026E-02 
838	 0.060596387689213 
839	 6.09529445420979E-02 
840	 6.12934089328431E-02 
841	 6.16474894695474E-02 
842	 6.20185750890307E-02 
843	 6.23992121793825E-02 
844	 6.27920418389357E-02 
845	 6.31904247746048E-02 
846	 6.35880891631345E-02 
847	 0.06397851834983 
848	 6.43447747974459E-02 
849	 6.47239379458522E-02 
850	 6.51351048306731E-02 
851	 0.065564429602858 
852	 6.59923287828116E-02 
853	 6.64227715069873E-02 
854	 6.68578763993785E-02 
855	 6.72847984533722E-02 
856	 6.77084008665893E-02 
857	 0.068134516254928 
858	 6.85708112236082E-02 
859	 6.90334366221098E-02 
860	 6.94753418793699E-02 
861	 0.069922896839236 
862	 7.04227815716417E-02 
863	 7.09023775481796E-02 
864	 0.071373630275278 
865	 7.18499541018023E-02 
866	 7.23394094311148E-02 
867	 7.28209349505805E-02 
868	 7.33219482810458E-02 
869	 7.38383381781587E-02 
870	 7.43178758525366E-02 
871	 0.074825280380196 
872	 7.53454926880615E-02 
873	 7.58581788904338E-02 
874	 7.63709791743028E-02 
875	 7.69165982177977E-02 
876	 7.74731355951835E-02 
877	 7.80137346586983E-02 
878	 7.85551517908297E-02 
879	 7.91314994501831E-02 
880	 7.97040858901774E-02 
881	 8.02251102451852E-02 
882	 8.08018938508196E-02 
883	 8.13976350063388E-02 
884	 8.19856385947227E-02 
885	 8.25581631075144E-02 
886	 8.31310034325459E-02 
887	 8.37090721211501E-02 
888	 8.43141208222532E-02 
889	 8.49773182972603E-02 
890	 8.55529251512663E-02 
891	 8.61319360426576E-02 
892	 8.67664666644765E-02 
893	 8.73668852600721E-02 
894	 8.79971916514954E-02 
895	 8.86302425017176E-02 
896	 8.92416386469267E-02 
897	 8.98665923797467E-02 
898	 9.05439929043203E-02 
899	 9.12184263682403E-02 
900	 9.18355066747429E-02 
901	 9.24751757968191E-02 
902	 9.31196430050735E-02 
903	 9.37872636321593E-02 
904	 9.44932874021869E-02 
905	 9.51455669383403E-02 
906	 9.58013915578377E-02 
907	 9.65014907057701E-02 
908	 9.72479959193645E-02 
909	 9.79055670330615E-02 
910	 9.85817587878065E-02 
911	 9.93080838186065E-02 
912	 0.100018161461098 
913	 0.100742651092262 
914	 0.10144005997944 
915	 0.102128404609228 
916	 0.10290993740606 
917	 0.103625806240282 
918	 0.104365189979992 
919	 0.105175089126007 
920	 0.105932932094378 
921	 0.106668299781273 
922	 0.107399597734608 
923	 0.108146510042419 
924	 0.108935554077481 
925	 0.109701698435406 
926	 0.110486890704949 
927	 0.111325597758122 
928	 0.112105431483072 
929	 0.112871555893511 
930	 0.113687211612072 
931	 0.114573468556503 
932	 0.115351055829037 
933	 0.116159901028337 
934	 0.117006265321059 
935	 0.117823582796718 
936	 0.11860196977511 
937	 0.119470630896607 
938	 0.120389884814309 
939	 0.121224119398186 
940	 0.122074750650183 
941	 0.122946963537244 
942	 0.123826443135536 
943	 0.124691815247575 
944	 0.125545404157303 
945	 0.126412172971574 
946	 0.127298488879465 
947	 0.128185741999834 
948	 0.129062955326135 
949	 0.129905393205027 
950	 0.130738740872265 
951	 0.1316434701559 
952	 0.132564486129996 
953	 0.133486378558149 
954	 0.134393716363915 
955	 0.135264508580812 
956	 0.136120359079754 
957	 0.137020167601992 
958	 0.13796777347088 
959	 0.138865580456987 
960	 0.139759021170907 
961	 0.140639019679366 
962	 0.141525541322665 
963	 0.142512511901274 
964	 0.143414838450305 
965	 0.144281182169725 
966	 0.145175735336752 
967	 0.146047426174951 
968	 0.14698313891221 
969	 0.147915736186101 
970	 0.148805607748648 
971	 0.149797846434831 
972	 0.150774552107666 
973	 0.151689333055206 
974	 0.152568588075525 
975	 0.153567320144123 
976	 0.154517966817146 
977	 0.155444565457566 
978	 0.1564005807551 
979	 0.157324138859623 
980	 0.15828551008991 
981	 0.159270829365236 
982	 0.160238769132543 
983	 0.161162295291864 
984	 0.162107528770403 
985	 0.163146098188935 
986	 0.164273279084758 
987	 0.165265246914068 
988	 0.166175106163075 
989	 0.167136892706703 
990	 0.16821769982527 
991	 0.169163838292557 
992	 0.170123434659621 
993	 0.171125045361582 
994	 0.172154600386833 
995	 0.173217601372828 
996	 0.174258117867505 
997	 0.175246669187833 
998	 0.176212575936913 
999	 0.177332486560489 
1000	 0.17839709679751 
1001	 0.184442116373296 
1002	 0.18550523949709 
1003	 0.186618759537456 
1004	 0.187698454873552 
1005	 0.188776213397568 
1006	 0.189864591334837 
1007	 0.190960516066774 
1008	 0.19203037046711 
1009	 0.193056577548904 
1010	 0.194135279062578 
1011	 0.195239401976146 
1012	 0.19632482553508 
1013	 0.197450307023026 
1014	 0.198553070270572 
1015	 0.199628927095361 
1016	 0.200670499791953 
1017	 0.201792272988904 
1018	 0.202865219649577 
1019	 0.203985911432039 
1020	 0.205140312526024 
1021	 0.20624583954918 
1022	 0.207348840890731 
1023	 0.208438711011371 
1024	 0.209483886794132 
1025	 0.210566574691893 
1026	 0.211629319879634 
1027	 0.2127329203247 
1028	 0.213873095263262 
1029	 0.21505356899388 
1030	 0.216127452869054 
1031	 0.217244348523753 
1032	 0.218306698781688 
1033	 0.219279424817877 
1034	 0.220386205139977 
1035	 0.221521455669737 
1036	 0.222639128985772 
1037	 0.223820840437316 
1038	 0.224919719737116 
1039	 0.225967128155887 
1040	 0.227037887524063 
1041	 0.228036185335762 
1042	 0.229134496813999 
1043	 0.230307420694841 
1044	 0.231436566368068 
1045	 0.232593702507936 
1046	 0.233763676835931 
1047	 0.23481997243551 
1048	 0.235904824021925 
1049	 0.237004688418535 
1050	 0.238104655576827 
1051	 0.239272041046227 
1052	 0.240392509959155 
1053	 0.241536034689013 
1054	 0.242728215794696 
1055	 0.243852518114332 
1056	 0.244933241123127 
1057	 0.246059471597727 
1058	 0.247173842305699 
1059	 0.248247369604165 
1060	 0.249431760169542 
1061	 0.250590438480167 
1062	 0.251711355967488 
1063	 0.252866458108871 
1064	 0.253970665257882 
1065	 0.255094038162685 
1066	 0.256234309978591 
1067	 0.257366580731752 
1068	 0.258546141883927 
1069	 0.259687729131956 
1070	 0.260847038506606 
1071	 0.262023813804395 
1072	 0.26319291703837 
1073	 0.26429303460523 
1074	 0.265432690291232 
1075	 0.266497954262859 
1076	 0.267547311273255 
1077	 0.268700694770489 
1078	 0.269807406958811 
1079	 0.270963339131612 
1080	 0.272162126141022 
1081	 0.273242921456518 
1082	 0.274345590959698 
1083	 0.275451545243658 
1084	 0.276519067934668 
1085	 0.277655288022975 
1086	 0.27877071909278 
1087	 0.279880458327841 
1088	 0.280986858221573 
1089	 0.282128727589004 
1090	 0.283223492773429 
1091	 0.284303156225508 
1092	 0.285341493301062 
1093	 0.286364040737558 
1094	 0.287437341766884 
1095	 0.288483638748543 
1096	 0.289575480345556 
1097	 0.290683840968989 
1098	 0.291703982749653 
1099	 0.292788317127217 
1100	 0.293867837971058 
1101	 0.294888283106096 
1102	 0.295971318111074 
1103	 0.297029749270945 
1104	 0.29806006597199 
1105	 0.299115330257285 
1106	 0.300212102924933 
1107	 0.301225553718591 
1108	 0.30225248781595 
1109	 0.303262298411163 
1110	 0.304273902283273 
1111	 0.305351234353473 
1112	 0.306379667587833 
1113	 0.307435552500238 
1114	 0.308487292480815 
1115	 0.30944290528206 
1116	 0.310450362966591 
1117	 0.311449253653 
1118	 0.312449636809402 
1119	 0.313463186089913 
1120	 0.314479902076321 
1121	 0.315500441017159 
1122	 0.316507155483839 
1123	 0.317516472902069 
1124	 0.318458441929826 
1125	 0.31941037644274 
1126	 0.3203375966746 
1127	 0.321240612613701 
1128	 0.322197544660816 
1129	 0.32310524951888 
1130	 0.324015136144584 
1131	 0.32494828449418 
1132	 0.325794874977869 
1133	 0.326658152859905 
1134	 0.327534011078124 
1135	 0.328400892152056 
1136	 0.329279068185555 
1137	 0.330135713237623 
1138	 0.330987949125726 
1139	 0.331816508689342 
1140	 0.332640247185591 
1141	 0.333398522405198 
1142	 0.334155943600828 
1143	 0.334892270667298 
1144	 0.335602940785637 
1145	 0.336334377401916 
1146	 0.337033964126826 
1147	 0.337741305199923 
1148	 0.338437350983463 
1149	 0.33907389173873 
1150	 0.339716801232411 
1151	 0.340332386134145 
1152	 0.340928780733367 
1153	 0.341516694773505 
1154	 0.342070547526773 
1155	 0.342592589387069 
1156	 0.3430989801657 
1157	 0.343573181730142 
1158	 0.344032493172099 
1159	 0.344471086647162 
1160	 0.344905479153281 
1161	 0.345321335198365 
1162	 0.34575578271664 
1163	 0.346210050252574 
1164	 0.346692719828013 
1165	 0.347184643307792 
1166	 0.347672737382389 
1167	 0.348203551770568 
1168	 0.348747284123093 
1169	 0.349322019759853 
1170	 0.349941635470725 
1171	 0.350571283410045 
1172	 0.351227521146111 
1173	 0.351883416687944 
1174	 0.352572716494376 
1175	 0.353222544329834 
1176	 0.353846101140655 
1177	 0.354488335453182 
1178	 0.355117872862602 
1179	 0.355776467362444 
1180	 0.356418998297927 
1181	 0.357062549456414 
1182	 0.357695257437889 
1183	 0.358309523999476 
1184	 0.358955035394569 
1185	 0.359592388781946 
1186	 0.360238325000913 
1187	 0.360894379053669 
1188	 0.361545701356467 
1189	 0.362191901792508 
1190	 0.362857490017373 
1191	 0.363537131160689 
1192	 0.364195251591118 
1193	 0.364847160028379 
1194	 0.365514935158778 
1195	 0.366182932208074 
1196	 0.366852706819285 
1197	 0.367523850528044 
1198	 0.368226929633092 
1199	 0.368932916481351 
1200	 0.36959094812186 
1201	 0.370285914702082 
1202	 0.370997588947382 
1203	 0.371708168780546 
1204	 0.372479556189045 
1205	 0.373290972564348 
1206	 0.374142262694312 
1207	 0.375044473167471 
1208	 0.375981950578154 
1209	 0.376977433727248 
1210	 0.378008641627195 
1211	 0.379125596092415 
1212	 0.380334470588283 
1213	 0.381569534355968 
1214	 0.382879780655638 
1215	 0.384208928788298 
1216	 0.385574982238229 
1217	 0.386946950337716 
1218	 0.388360980683007 
1219	 0.389782014469531 
1220	 0.391183106264317 
1221	 0.392657379180563 
1222	 0.394070509958872 
1223	 0.395488471825173 
1224	 0.396896666454134 
1225	 0.398295970927699 
1226	 0.399647425198157 
1227	 0.400995943246838 
1228	 0.402299811063302 
1229	 0.403547924591848 
1230	 0.404798994091707 
1231	 0.406035181093542 
1232	 0.407257142883123 
1233	 0.408444522468979 
1234	 0.409631708274075 
1235	 0.41081656546049 
1236	 0.411983475279101 
1237	 0.413152798388105 
1238	 0.414294280546446 
1239	 0.415406865869524 
1240	 0.416507731483006 
1241	 0.417620676385468 
1242	 0.418661520345921 
1243	 0.419724657709309 
1244	 0.420783220282323 
1245	 0.421831691041518 
1246	 0.422881681938109 
1247	 0.423899388534663 
1248	 0.424907576348139 
1249	 0.425890192843409 
1250	 0.42683743232788 
1251	 0.427776679671114 
1252	 0.428707319069127 
1253	 0.429615986708325 
1254	 0.43050139778777 
1255	 0.431385434177264 
1256	 0.432251760164187 
1257	 0.43311866192687 
1258	 0.433988146688292 
1259	 0.434837604923528 
1260	 0.435664624626459 
1261	 0.436503176618305 
1262	 0.437321315030742 
1263	 0.438174332182826 
1264	 0.4390016153528 
1265	 0.439833365511311 
1266	 0.440660601084994 
1267	 0.441474135095033 
1268	 0.442287208694171 
1269	 0.44310230496303 
1270	 0.443914934567583 
1271	 0.444726287242857 
1272	 0.445521515424456 
1273	 0.446313251984089 
1274	 0.447098267554645 
1275	 0.447855875425256 
1276	 0.448621882461854 
1277	 0.449377764455617 
1278	 0.45015542222606 
1279	 0.450942521367851 
1280	 0.451727633047493 
1281	 0.452536914702408 
1282	 0.453326269979366 
1283	 0.454095365251903 
1284	 0.454865030824078 
1285	 0.455629793800704 
1286	 0.456386060229836 
1287	 0.457145094277816 
1288	 0.457908607293447 
1289	 0.458647744215862 
1290	 0.459375366120945 
1291	 0.460099415835867 
1292	 0.460803115705869 
1293	 0.461511913903749 
1294	 0.462219486480358 
1295	 0.462926088888813 
1296	 0.463644740908257 
1297	 0.464324457983591 
1298	 0.464985537699157 
1299	 0.465643052112447 
1300	 0.46627601485329 
1301	 0.466900591651491 
1302	 0.46751919171673 
1303	 0.468135400943789 
1304	 0.468748116275811 
1305	 0.469334220520326 
1306	 0.469913569980628 
1307	 0.470478648974016 
1308	 0.471000880489167 
1309	 0.47154019381786 
1310	 0.472056656579399 
1311	 0.472571377986138 
1312	 0.473064274974432 
1313	 0.473541327316518 
1314	 0.473999363083084 
1315	 0.474447770699795 
1316	 0.474868519471869 
1317	 0.475267862454761 
1318	 0.475645843871214 
1319	 0.476000890920232 
1320	 0.476341075715953 
1321	 0.476665366230125 
1322	 0.47696359005233 
1323	 0.477248536311744 
1324	 0.477502003967723 
1325	 0.477732989454668 
1326	 0.477930861100956 
1327	 0.478092414816104 
1328	 0.4782418804114 
1329	 0.478369527339478 
1330	 0.478472116413446 
1331	 0.478553563439379 
1332	 0.478620139679758 
1333	 0.478658519539065 
1334	 0.478684188597258 
1335	 0.478703637159324 
1336	 0.478712849752475 
1337	 0.478716575593395 
1338	 0.478712188278908 
1339	 0.478695086661798 
1340	 0.478677034156034 
1341	 0.47863153284432 
1342	 0.478565580244334 
1343	 0.478492697883292 
1344	 0.478401040074883 
1345	 0.478306906241411 
1346	 0.478211218693812 
1347	 0.478094395559667 
1348	 0.477958012877674 
1349	 0.47782458042011 
1350	 0.477676942416907 
1351	 0.477530507397702 
1352	 0.477384510603437 
1353	 0.477235559325936 
1354	 0.477088320094944 
1355	 0.4769272202894 
1356	 0.476758989476331 
1357	 0.476587398848535 
1358	 0.476400356980929 
1359	 0.476214606369197 
1360	 0.476038340779271 
1361	 0.475850518516265 
1362	 0.475632771864792 
1363	 0.475418297201763 
1364	 0.475165258705148 
1365	 0.474891302208024 
1366	 0.47458151676256 
1367	 0.474251985362454 
1368	 0.47387675005916 
1369	 0.473462494011889 
1370	 0.473021670965133 
1371	 0.472543656633803 
1372	 0.472049909017135 
1373	 0.471539383101245 
1374	 0.470984900007739 
1375	 0.470392686336209 
1376	 0.469781174076858 
1377	 0.469133243631621 
1378	 0.468460606091081 
1379	 0.467771899606871 
1380	 0.467049130074613 
1381	 0.466301443388081 
1382	 0.465508292944325 
1383	 0.464670408304986 
1384	 0.463818754832755 
1385	 0.462916981401846 
1386	 0.462023657177973 
1387	 0.461100187616585 
1388	 0.460218413153916 
1389	 0.459331409176803 
1390	 0.458482446818704 
1391	 0.457694415218486 
1392	 0.456877091350268 
1393	 0.456123146224387 
1394	 0.455361709240798 
1395	 0.454566725955664 
1396	 0.453806068726821 
1397	 0.452917575605245 
1398	 0.452018481733357 
1399	 0.450918885883549 
1400	 0.449720336840534 
1401	 0.448364117846961 
1402	 0.446865375245983 
1403	 0.445210291201793 
1404	 0.443408360221119 
1405	 0.441504709717498 
1406	 0.4394333707883 
1407	 0.437298263230715 
1408	 0.435031872740663 
1409	 0.432742648160688 
1410	 0.430343584319854 
1411	 0.427947569934274 
1412	 0.425497468722105 
1413	 0.423088980285815 
1414	 0.420654143079678 
1415	 0.418245589190383 
1416	 0.415819159658521 
1417	 0.413469463807656 
1418	 0.411135202681368 
1419	 0.408864237383105 
1420	 0.406635796445101 
1421	 0.40451875623627 
1422	 0.402456898524813 
1423	 0.400484393048444 
1424	 0.398666034116497 
1425	 0.396825363811082 
1426	 0.395134475520374 
1427	 0.39346204751351 
1428	 0.391792962808839 
1429	 0.390229805213531 
1430	 0.388540375395629 
1431	 0.386861272962793 
1432	 0.384990862058161 
1433	 0.383045001492922 
1434	 0.380943373890832 
1435	 0.37868466445345 
1436	 0.376328361182411 
1437	 0.373790456468458 
1438	 0.371353898946515 
1439	 0.368724739734747 
1440	 0.366410274829838 
1441	 0.364036730275957 
1442	 0.362204068326488 
1443	 0.360477434597819 
1444	 0.359451081011437 
1445	 0.358858762778516 
1446	 0.358888128644578 
1447	 0.359506959131081 
1448	 0.360601764552035 
1449	 0.362431310854593 
1450	 0.364404864043289 
1451	 0.366955681209296 
1452	 0.369482622041376 
1453	 0.37238765986816 
1454	 0.375069560283156 
1455	 0.377871027382356 
1456	 0.380456572149945 
1457	 0.382950163696887 
1458	 0.385250409280854 
1459	 0.387400533219041 
1460	 0.389395445380175 
1461	 0.391184558198767 
1462	 0.392845198712371 
1463	 0.394335729031827 
1464	 0.395742455274446 
1465	 0.396975713656695 
1466	 0.398187046127133 
1467	 0.399271749556192 
1468	 0.400283716792212 
1469	 0.40125751309039 
1470	 0.402123614598989 
1471	 0.402997654025117 
1472	 0.40383379371488 
1473	 0.404662713541459 
1474	 0.405467261989382 
1475	 0.406240538802238 
1476	 0.407008655698578 
1477	 0.407714551942691 
1478	 0.408389847849587 
1479	 0.408972749403264 
1480	 0.409526746763828 
1481	 0.409945577470732 
1482	 0.410246258125135 
1483	 0.41050779373999 
1484	 0.410628545006697 
1485	 0.410822509754005 
1486	 0.410922518679592 
1487	 0.411196320685188 
1488	 0.411459869577575 
1489	 0.411969029975773 
1490	 0.412608535683062 
1491	 0.413447511090529 
1492	 0.414468318616215 
1493	 0.415674665822508 
1494	 0.417101713112197 
1495	 0.418619153100142 
1496	 0.420351719151593 
1497	 0.422112887668455 
1498	 0.424032838757806 
1499	 0.425904109384188 
1500	 0.427865882004122 
1501	 0.429752457381889 
1502	 0.431641867665292 
1503	 0.433429050696355 
1504	 0.435196241654763 
1505	 0.436841374510448 
1506	 0.438413650992561 
1507	 0.43984934033773 
1508	 0.441148556619474 
1509	 0.442375447468115 
1510	 0.443476193912416 
1511	 0.444498657004341 
1512	 0.445440964409649 
1513	 0.446307230192166 
1514	 0.447075343653073 
1515	 0.447774413812528 
1516	 0.448379577990098 
1517	 0.448948795921747 
1518	 0.449445117149604 
1519	 0.449894865816106 
1520	 0.450298471915227 
1521	 0.450662520612991 
1522	 0.450967215095796 
1523	 0.451233326289264 
1524	 0.451457331876901 
1525	 0.451633599058789 
1526	 0.45180529872903 
1527	 0.451932190498888 
1528	 0.45206966657047 
1529	 0.452195681484585 
1530	 0.45233120021909 
1531	 0.452444859168622 
1532	 0.452608202756589 
1533	 0.452785035643684 
1534	 0.453004973824049 
1535	 0.453233892980474 
1536	 0.453560543333927 
1537	 0.453922923660549 
1538	 0.454396752180615 
1539	 0.454953482327548 
1540	 0.455608554990456 
1541	 0.456350706985084 
1542	 0.457190233434764 
1543	 0.458152188527244 
1544	 0.459140339845519 
1545	 0.460202769160233 
1546	 0.461327823843223 
1547	 0.462526183197922 
1548	 0.463743988688095 
1549	 0.465043571654534 
1550	 0.466330497133437 
1551	 0.467652172689915 
1552	 0.468935748451228 
1553	 0.470241634104514 
1554	 0.471498179155292 
1555	 0.472723424988232 
1556	 0.473916225698985 
1557	 0.475073219127499 
1558	 0.476226734266354 
1559	 0.477353645228243 
1560	 0.478460024456123 
1561	 0.479562453083742 
1562	 0.480633623382239 
1563	 0.481669686784562 
1564	 0.482688315049046 
1565	 0.483685603965015 
1566	 0.484670613233943 
1567	 0.485634729911636 
1568	 0.486578134725853 
1569	 0.487513798548686 
1570	 0.488418185274623 
1571	 0.489293365797272 
1572	 0.490144849431732 
1573	 0.490966881664054 
1574	 0.491778007768651 
1575	 0.492556877195901 
1576	 0.493339022368831 
1577	 0.494104770855474 
1578	 0.494881108865639 
1579	 0.495679756920479 
1580	 0.496430263706645 
1581	 0.497168253163654 
1582	 0.497885068885489 
1583	 0.498550810200824 
1584	 0.499229552129727 
1585	 0.499893174903652 
1586	 0.500577524099372 
1587	 0.501273189568844 
1588	 0.501956917787422 
1589	 0.50264698745817 
1590	 0.5033376531257 
1591	 0.504016526175663 
1592	 0.504701601650578 
1593	 0.505396261373015 
1594	 0.506092258855485 
1595	 0.50679406935312 
1596	 0.507479307092643 
1597	 0.508168397087104 
1598	 0.508842087467163 
1599	 0.509495410696066 
1600	 0.510147580333259 
1601	 0.510801569278404 
1602	 0.511436607954584 
1603	 0.51204918108681 
1604	 0.512664133309988 
1605	 0.513265441741482 
1606	 0.51387177555139 
1607	 0.514506656856711 
1608	 0.515095140943319 
1609	 0.515672403436677 
1610	 0.516213914712786 
1611	 0.516707848060257 
1612	 0.51718859605731 
1613	 0.517650334987134 
1614	 0.518086201938464 
1615	 0.51848274807456 
1616	 0.51888856842984 
1617	 0.519294268994022 
1618	 0.519666383941515 
1619	 0.520044008233932 
1620	 0.520369802738405 
1621	 0.52062508803905 
1622	 0.520896720676435 
1623	 0.521146536211373 
1624	 0.52139627145553 
1625	 0.521649200596311 
1626	 0.521892349954233 
1627	 0.5221242663495 
1628	 0.522350912626754 
1629	 0.522574552104666 
1630	 0.522790155481139 
1631	 0.522984188160626 
1632	 0.523193808546601 
1633	 0.523406120775825 
1634	 0.523622449958479 
1635	 0.523849974601236 
1636	 0.524075305922198 
1637	 0.524308494909448 
1638	 0.524525288879993 
1639	 0.52474848478551 
1640	 0.5249470698508 
1641	 0.525144837846022 
1642	 0.525293374030513 
1643	 0.525403188982516 
1644	 0.525493828483403 
1645	 0.525551259989919 
1646	 0.525579725401753 
1647	 0.525606095787441 
1648	 0.525572848979957 
1649	 0.525487651132411 
1650	 0.525362704308169 
1651	 0.525184926687587 
1652	 0.52498063171991 
1653	 0.524758351916282 
1654	 0.524468894083041 
1655	 0.524144902005007 
1656	 0.523744552388548 
1657	 0.523275829215214 
1658	 0.522736315437116 
1659	 0.522133438464038 
1660	 0.521461079135956 
1661	 0.52072236781892 
1662	 0.519901710006888 
1663	 0.518977018383077 
1664	 0.518023931746007 
1665	 0.517006833457692 
1666	 0.51592657373477 
1667	 0.514829195394732 
1668	 0.513630880401651 
1669	 0.51236815141234 
1670	 0.510987638871121 
1671	 0.509498607685254 
1672	 0.50791755315803 
1673	 0.506231987775375 
1674	 0.504442277621389 
1675	 0.502571787457912 
1676	 0.500620477926397 
1677	 0.498555136441076 
1678	 0.496415104215385 
1679	 0.494159148605866 
1680	 0.491854674742327 
1681	 0.489473530348222 
1682	 0.487015835838893 
1683	 0.484501455514375 
1684	 0.481956786321804 
1685	 0.479328022246467 
1686	 0.476669376737955 
1687	 0.473941858023125 
1688	 0.471211859939838 
1689	 0.468447793033376 
1690	 0.465641183752346 
1691	 0.462848166405514 
1692	 0.460018897794555 
1693	 0.457168496675758 
1694	 0.454206374400739 
1695	 0.451189612472859 
1696	 0.448053741202737 
1697	 0.44477833073506 
1698	 0.441455333641456 
1699	 0.438052805280537 
1700	 0.434709098247676 
1701	 0.431281839777834 
1702	 0.427971447380846 
1703	 0.42465484738897 
1704	 0.421494884523006 
1705	 0.418401074067436 
1706	 0.415388933971894 
1707	 0.412665430166485 
1708	 0.409962923915705 
1709	 0.407383874244054 
1710	 0.404973967797721 
1711	 0.402499166029843 
1712	 0.40017099012922 
1713	 0.397869617060273 
1714	 0.395539206176195 
1715	 0.393426653570475 
1716	 0.391292199432713 
1717	 0.389209590554106 
1718	 0.387251849992642 
1719	 0.385259143309704 
1720	 0.383415037453155 
1721	 0.381704207849024 
1722	 0.380114568773487 
1723	 0.378803010486757 
1724	 0.377679950342662 
1725	 0.37676936393591 
1726	 0.376161235223855 
1727	 0.375811967396539 
1728	 0.375751536340101 
1729	 0.375971996199242 
1730	 0.376433541394654 
1731	 0.377024751842405 
1732	 0.377757465734225 
1733	 0.378554530548476 
1734	 0.379378606370536 
1735	 0.380212773671055 
1736	 0.380942817642085 
1737	 0.381511637522885 
1738	 0.381879082551709 
1739	 0.382061269629139 
1740	 0.382016261952598 
1741	 0.381867305931914 
1742	 0.381525383087131 
1743	 0.381132455366225 
1744	 0.380573908836684 
1745	 0.380045365096659 
1746	 0.379413232524403 
1747	 0.378894519733305 
1748	 0.378361462467993 
1749	 0.377979144355452 
1750	 0.377661182869597 
1751	 0.377503088675479 
1752	 0.37747752959715 
1753	 0.377592732652914 
1754	 0.377849388362112 
1755	 0.378240842146302 
1756	 0.378736909826128 
1757	 0.379432472347166 
1758	 0.38033136748165 
1759	 0.381341690473206 
1760	 0.382563348510716 
1761	 0.383955304688965 
1762	 0.385390009593459 
1763	 0.387004371995227 
1764	 0.388723010731509 
1765	 0.390489777442248 
1766	 0.392429246103088 
1767	 0.394356890439179 
1768	 0.396290665522592 
1769	 0.398241607206657 
1770	 0.400020100344714 
1771	 0.401760206814606 
1772	 0.403416481838089 
1773	 0.404949924541166 
1774	 0.406514559014684 
1775	 0.407990882691116 
1776	 0.409467905891161 
1777	 0.41093064259803 
1778	 0.412264157138714 
1779	 0.413608130352356 
1780	 0.414871083678927 
1781	 0.416061905760168 
1782	 0.417270406277544 
1783	 0.418386301399484 
1784	 0.419519454876189 
1785	 0.420602753114863 
1786	 0.421675791970065 
1787	 0.422761062953583 
1788	 0.423810974931991 
1789	 0.424856792711485 
1790	 0.425880975392248 
1791	 0.426883103498695 
1792	 0.427868394105931 
1793	 0.428801923276537 
1794	 0.42971834598235 
1795	 0.430619610484796 
1796	 0.431455209202336 
1797	 0.432326288876447 
1798	 0.433166146184125 
1799	 0.433986107926924 
1800	 0.434821664274859 
1801	 0.427147743893553 
1802	 0.427919209176507 
1803	 0.428662023505078 
1804	 0.429365549269506 
1805	 0.430063007088945 
1806	 0.430714296738522 
1807	 0.431340951160253 
1808	 0.431947718148578 
1809	 0.432509774443033 
1810	 0.433074294790123 
1811	 0.433630058924029 
1812	 0.434177185213293 
1813	 0.4346970091969 
1814	 0.435248953636124 
1815	 0.435780664139673 
1816	 0.436309449689969 
1817	 0.436853196695452 
1818	 0.43740182581999 
1819	 0.437946934602639 
1820	 0.438533049720201 
1821	 0.439062001907367 
1822	 0.439559857619294 
1823	 0.440072242384245 
1824	 0.440527426829923 
1825	 0.440954859588021 
1826	 0.44139170951752 
1827	 0.441830666257038 
1828	 0.442226996680391 
1829	 0.442621187025774 
1830	 0.442973252833914 
1831	 0.443289283319574 
1832	 0.443578686056413 
1833	 0.443844098374668 
1834	 0.44411453228067 
1835	 0.444355319842138 
1836	 0.444566885041626 
1837	 0.44477271038505 
1838	 0.444963122169543 
1839	 0.445132796359897 
1840	 0.445294097085148 
1841	 0.445430514097449 
1842	 0.445560451914644 
1843	 0.44564622240105 
1844	 0.445696010395937 
1845	 0.445719081500748 
1846	 0.445661304832419 
1847	 0.445557630113061 
1848	 0.445399973434412 
1849	 0.445198466391942 
1850	 0.444909452711991 
1851	 0.444576567569516 
1852	 0.444149580344252 
1853	 0.443607326658797 
1854	 0.443031547467683 
1855	 0.442353903023499 
1856	 0.441609194917673 
1857	 0.44076451605899 
1858	 0.439749052455918 
1859	 0.438669878759004 
1860	 0.437491080595599 
1861	 0.436188585079698 
1862	 0.434761347384697 
1863	 0.433334258007018 
1864	 0.431716123888326 
1865	 0.430013357926284 
1866	 0.428229386351196 
1867	 0.426176550505399 
1868	 0.424069478985814 
1869	 0.421781017981527 
1870	 0.419328491071832 
1871	 0.416739045201972 
1872	 0.414062850830224 
1873	 0.411227828732685 
1874	 0.408323762652124 
1875	 0.405351240467493 
1876	 0.402032074070897 
1877	 0.398707944602966 
1878	 0.395163109856949 
1879	 0.391357389102287 
1880	 0.387698935082773 
1881	 0.383816797984088 
1882	 0.379732563493819 
1883	 0.375576890976299 
1884	 0.371328798696805 
1885	 0.366647635763465 
1886	 0.362004962852454 
1887	 0.357125913419803 
1888	 0.352021669222452 
1889	 0.347219350832151 
1890	 0.342176114943891 
1891	 0.337141238014203 
1892	 0.332209193667914 
1893	 0.327071108191585 
1894	 0.321693449963237 
1895	 0.316519916909854 
1896	 0.311246602949794 
1897	 0.305882228984509 
1898	 0.300941370283412 
1899	 0.295847666600092 
1900	 0.290835211467205 
1901	 0.286007311512998 
1902	 0.280873058554206 
1903	 0.275954530084089 
1904	 0.271078269883739 
1905	 0.266193891784955 
1906	 0.26133865944626 
1907	 0.256928118076286 
1908	 0.252404738872568 
1909	 0.24800213785006 
1910	 0.243760171490698 
1911	 0.239271603093481 
1912	 0.234998442569809 
1913	 0.230730973275115 
1914	 0.226404488529133 
1915	 0.222308590695486 
1916	 0.218445207126369 
1917	 0.214466443866036 
1918	 0.21059367309566 
1919	 0.206827922245294 
1920	 0.202784707260883 
1921	 0.198902652359454 
1922	 0.194977855380403 
1923	 0.190958937970497 
1924	 0.187285610294223 
1925	 0.183520320810595 
1926	 0.179808987917139 
1927	 0.176222301771682 
1928	 0.172595543830957 
1929	 0.16886170920132 
1930	 0.165336277602002 
1931	 0.161925769978914 
1932	 0.158627911287369 
1933	 0.15577131697368 
1934	 0.15309706442677 
1935	 0.150655956332924 
1936	 0.148584549650462 
1937	 0.146725400920809 
1938	 0.145064438213085 
1939	 0.143787382914423 
1940	 0.142805222054477 
1941	 0.142119102024658 
1942	 0.141796013612141 
1943	 0.141705770498438 
1944	 0.141838487430082 
1945	 0.14226334127721 
1946	 0.143046798422801 
1947	 0.144079659405416 
1948	 0.145531923790616 
1949	 0.14740946185531 
1950	 0.149508590458905 
1951	 0.151939774473035 
1952	 0.154674076712778 
1953	 0.157682171712998 
1954	 0.160992511410304 
1955	 0.164742546938163 
1956	 0.168502219666334 
1957	 0.172357466854566 
1958	 0.176219668497511 
1959	 0.179643537834176 
1960	 0.18287460160189 
1961	 0.185781466593024 
1962	 0.188348052361946 
1963	 0.190650028748353 
1964	 0.192676781165581 
1965	 0.194418455269729 
1966	 0.195847473801406 
1967	 0.197074819863063 
1968	 0.198037422680494 
1969	 0.198966939465251 
1970	 0.199819876546649 
1971	 0.200670916101792 
1972	 0.201629598585185 
1973	 0.202648459486631 
1974	 0.203789631131311 
1975	 0.205081537153874 
1976	 0.206400217061397 
1977	 0.207784167483676 
1978	 0.209264762059417 
1979	 0.210804270439547 
1980	 0.212415054528123 
1981	 0.2142466721013 
1982	 0.21606029660568 
1983	 0.218043615377478 
1984	 0.22018263020785 
1985	 0.222298915264608 
1986	 0.224648405133076 
1987	 0.227202644633617 
1988	 0.229782486073712 
1989	 0.232841645246918 
1990	 0.23623746602016 
1991	 0.239856938525885 
1992	 0.243820203292275 
1993	 0.248125442990105 
1994	 0.252322969748573 
1995	 0.256865029759465 
1996	 0.261478645487263 
1997	 0.266093287862476 
1998	 0.270872323039896 
1999	 0.275934624662423 
2000	 0.280678043923873 
2001	 0.285619606161645 
2002	 0.290075967709673 
2003	 0.294248735094466 
2004	 0.298278835559489 
2005	 0.301966434645744 
2006	 0.305590095603298 
2007	 0.309184378482886 
2008	 0.312427359277208 
2009	 0.315499540118274 
2010	 0.318443427433228 
2011	 0.320948796678382 
2012	 0.3233334746977 
2013	 0.32557001177617 
2014	 0.327547406652914 
2015	 0.329494830058734 
2016	 0.331370863837571 
2017	 0.333060074758597 
2018	 0.334657238895848 
2019	 0.33605607291459 
2020	 0.337234899328749 
2021	 0.338311974556319 
2022	 0.33925264206512 
2023	 0.340050025521066 
2024	 0.340833713431054 
2025	 0.341492983831452 
2026	 0.342058375085514 
2027	 0.342529251019799 
2028	 0.342930017946849 
2029	 0.343192444871251 
2030	 0.343448705465308 
2031	 0.343626152184891 
2032	 0.343799460116164 
2033	 0.343907626033251 
2034	 0.344033470558451 
2035	 0.344136201068674 
2036	 0.344267767507778 
2037	 0.344381488694051 
2038	 0.34450999178017 
2039	 0.344657053235188 
2040	 0.344807041637971 
2041	 0.344989910247476 
2042	 0.345202795971638 
2043	 0.345419356333019 
2044	 0.345663503293909 
2045	 0.345905786197543 
2046	 0.346161105523084 
2047	 0.346410623425355 
2048	 0.346667624476322 
2049	 0.346917817506217 
2050	 0.347177797472133 
2051	 0.347412354042651 
2052	 0.347627370318036 
2053	 0.347831775827608 
2054	 0.348018070326109 
2055	 0.348179501542015 
2056	 0.348328057168751 
2057	 0.34845609806597 
2058	 0.348588251394832 
2059	 0.348696116829172 
2060	 0.34881422716006 
2061	 0.348940693423541 
2062	 0.349065150048155 
2063	 0.349179162324152 
2064	 0.349304975885098 
2065	 0.349438841338055 
2066	 0.349574403724787 
2067	 0.349712586526643 
2068	 0.349846449290262 
2069	 0.349989998242782 
2070	 0.350144526419196 
2071	 0.350280730417107 
2072	 0.350425708355441 
2073	 0.350547162691506 
2074	 0.350653198211717 
2075	 0.350741986600017 
2076	 0.35083237829718 
2077	 0.35087926100424 
2078	 0.350900928464675 
2079	 0.350894742513418 
2080	 0.350860706168923 
2081	 0.350788445764838 
2082	 0.35069680407078 
2083	 0.350559336602433 
2084	 0.350350146995698 
2085	 0.350113814236653 
2086	 0.34984634794368 
2087	 0.349521036713299 
2088	 0.349192938400605 
2089	 0.348847456652817 
2090	 0.348474976888858 
2091	 0.348085556149779 
2092	 0.347657646132187 
2093	 0.34720098826029 
2094	 0.346717173213191 
2095	 0.346181640231733 
2096	 0.345641688822107 
2097	 0.345093120517669 
2098	 0.344508663156614 
2099	 0.343914220518531 
2100	 0.343305833096257 
2101	 0.342647529996319 
2102	 0.341944933591985 
2103	 0.341250171446332 
2104	 0.340514287139984 
2105	 0.339795251263332 
2106	 0.339099856127728 
2107	 0.338349998382397 
2108	 0.337583761110564 
2109	 0.336783386533695 
2110	 0.335923904187144 
2111	 0.335087828057338 
2112	 0.334229547164717 
2113	 0.333378698215014 
2114	 0.33253573202096 
2115	 0.33168795429017 
2116	 0.330821377610424 
2117	 0.329993528127309 
2118	 0.329140215423008 
2119	 0.328276312157616 
2120	 0.327443774930902 
2121	 0.326589731175174 
2122	 0.325807984173226 
2123	 0.325071112858095 
2124	 0.324352154887971 
2125	 0.323691241959709 
2126	 0.32301319807122 
2127	 0.322331043822754 
2128	 0.321691255269671 
2129	 0.321062356086581 
2130	 0.320463749203186 
2131	 0.319920965848348 
2132	 0.319372610651056 
2133	 0.31884741573792 
2134	 0.318319600730437 
2135	 0.31777231563935 
2136	 0.317237524545072 
2137	 0.316691078651946 
2138	 0.31612403062214 
2139	 0.31557920100602 
2140	 0.31504827675911 
2141	 0.314502396551215 
2142	 0.313966555145083 
2143	 0.313406445155984 
2144	 0.312816225860193 
2145	 0.31225638346058 
2146	 0.311673379623083 
2147	 0.311139457261061 
2148	 0.310661134085986 
2149	 0.3101550547165 
2150	 0.309673828112671 
2151	 0.309173921705178 
2152	 0.308642203924639 
2153	 0.30813491593011 
2154	 0.307635630653476 
2155	 0.30708835944987 
2156	 0.306552532809929 
2157	 0.306024870042605 
2158	 0.305444417482529 
2159	 0.304842942357487 
2160	 0.304221543189979 
2161	 0.303546331176811 
2162	 0.302901084668821 
2163	 0.302237114576456 
2164	 0.301609883702934 
2165	 0.30100152489902 
2166	 0.300394327184813 
2167	 0.299806209804332 
2168	 0.299223176867151 
2169	 0.298615406410404 
2170	 0.298067061433157 
2171	 0.297526512726428 
2172	 0.297052446694373 
2173	 0.296642462653885 
2174	 0.296252178716928 
2175	 0.295934607625743 
2176	 0.295672797889285 
2177	 0.295416923283276 
2178	 0.29519753852597 
2179	 0.295014264238454 
2180	 0.294863239289694 
2181	 0.294723814597254 
2182	 0.294646052956297 
2183	 0.294521927084838 
2184	 0.294403401680641 
2185	 0.294248906602182 
2186	 0.294079763482711 
2187	 0.293884325955281 
2188	 0.293653832044084 
2189	 0.293414647372133 
2190	 0.293168632484581 
2191	 0.292886174796965 
2192	 0.292601106795978 
2193	 0.292256082174053 
2194	 0.291849812478799 
2195	 0.29143222752093 
2196	 0.290982805153864 
2197	 0.290481848511086 
2198	 0.290004331686097 
2199	 0.289501370968093 
2200	 0.288956410649994 
2201	 0.288402955112905 
2202	 0.287759766149086 
2203	 0.287039535881174 
2204	 0.286330404748108 
2205	 0.285546892249388 
2206	 0.284813943997563 
2207	 0.284095547941579 
2208	 0.283366387490554 
2209	 0.28264055695222 
2210	 0.281911201773561 
2211	 0.281130077038135 
2212	 0.280455168573698 
2213	 0.279758650505957 
2214	 0.279212867892704 
2215	 0.278773451076162 
2216	 0.278419555359012 
2217	 0.278168832044154 
2218	 0.278012890919094 
2219	 0.277968296460763 
2220	 0.277989005059731 
2221	 0.278111309099171 
2222	 0.278309805542731 
2223	 0.278538218992069 
2224	 0.278816974045394 
2225	 0.279104970179736 
2226	 0.279332946681525 
2227	 0.279491319590115 
2228	 0.27964096976598 
2229	 0.279628777889844 
2230	 0.279536579428828 
2231	 0.279294435027073 
2232	 0.278926942548701 
2233	 0.278419573947138 
2234	 0.27779500786497 
2235	 0.276999677002089 
2236	 0.276061760126257 
2237	 0.274965489457865 
2238	 0.273669085925593 
2239	 0.272280978456402 
2240	 0.270758964924291 
2241	 0.269081843134228 
2242	 0.267331936077425 
2243	 0.265334764519256 
2244	 0.263101321816005 
2245	 0.260765312179826 
2246	 0.258104056366897 
2247	 0.255520758236436 
2248	 0.25289852297898 
2249	 0.25020171628957 
2250	 0.24746499347884 
2251	 0.244740929839961 
2252	 0.241752951308147 
2253	 0.238864538741986 
2254	 0.235980718755213 
2255	 0.233059754605397 
2256	 0.230414723579687 
2257	 0.227765086775299 
2258	 0.225209703468053 
2259	 0.222789045475437 
2260	 0.220351898897103 
2261	 0.217926907539664 
2262	 0.215620741418201 
2263	 0.213314578628293 
2264	 0.211204570614379 
2265	 0.20926306911994 
2266	 0.207342201999073 
2267	 0.205584064379727 
2268	 0.203803955586036 
2269	 0.202012145609874 
2270	 0.2003576935221 
2271	 0.198755395403386 
2272	 0.197256169924429 
2273	 0.195940105594215 
2274	 0.194563264061924 
2275	 0.193279671164777 
2276	 0.191922476281155 
2277	 0.190554744388418 
2278	 0.189135840435861 
2279	 0.187660531670148 
2280	 0.186162964767612 
2281	 0.184643204672888 
2282	 0.183050597075879 
2283	 0.181436381700761 
2284	 0.17975785442117 
2285	 0.177885195906881 
2286	 0.176047652354737 
2287	 0.174078828649647 
2288	 0.172035263255309 
2289	 0.170108512791497 
2290	 0.168038467047162 
2291	 0.165959199389884 
2292	 0.163854326814659 
2293	 0.161557815855287 
2294	 0.15933184805301 
2295	 0.157137847056539 
2296	 0.155013093918797 
2297	 0.153187416209922 
2298	 0.151560915029995 
2299	 0.15011620244266 
2300	 0.148883049530222 
2301	 0.1478966956839 
2302	 0.147048548587855 
2303	 0.146623071085313 
2304	 0.146524550698878 
2305	 0.14675060857169 
2306	 0.147359622815531 
2307	 0.148227029347106 
2308	 0.149400528750295 
2309	 0.150913039001104 
2310	 0.152873700824159 
2311	 0.154881994125789 
2312	 0.157334878349088 
2313	 0.159612310403391 
2314	 0.16200548176675 
2315	 0.164261415370722 
2316	 0.166529119713042 
2317	 0.168598836584568 
2318	 0.170637406617568 
2319	 0.172342836251748 
2320	 0.173852883107635 
2321	 0.175101077396057 
2322	 0.176031541412771 
2323	 0.176782087822774 
2324	 0.177263424073271 
2325	 0.177594860377696 
2326	 0.177717646362303 
2327	 0.177642929615404 
2328	 0.177352693476501 
2329	 0.176911629252355 
2330	 0.176273979588772 
2331	 0.175407001888384 
2332	 0.174439485555583 
2333	 0.173281882447825 
2334	 0.17188161203655 
2335	 0.170381132636161 
2336	 0.168694585096854 
2337	 0.166870687588129 
2338	 0.165092929392631 
2339	 0.163251896581367 
2340	 0.16152040048367 
2341	 0.159870172676638 
2342	 0.158173961545128 
2343	 0.156701923572317 
2344	 0.15544639200005 
2345	 0.154515936542808 
2346	 0.154055968208867 
2347	 0.153950017581496 
2348	 0.154124464346821 
2349	 0.154680513556536 
2350	 0.15552394310554 
2351	 0.156629252660432 
2352	 0.157917104824152 
2353	 0.15925767105021 
2354	 0.160526557078333 
2355	 0.161742073955199 
2356	 0.162828881201291 
2357	 0.16369701203928 
2358	 0.164439772732466 
2359	 0.164892786023428 
2360	 0.165140442762181 
2361	 0.165218614857407 
2362	 0.165115400081284 
2363	 0.16489822249999 
2364	 0.164602288908919 
2365	 0.164211068102781 
2366	 0.163737128414996 
2367	 0.163268061685942 
2368	 0.1627740902505 
2369	 0.162332442585875 
2370	 0.161956208869686 
2371	 0.161546888678704 
2372	 0.161126983501311 
2373	 0.160639311797083 
2374	 0.160113666325563 
2375	 0.159628290538751 
2376	 0.159069795835877 
2377	 0.158519372868628 
2378	 0.158014203548916 
2379	 0.157403341341139 
2380	 0.156868308857577 
2381	 0.156422782411564 
2382	 0.155877461650248 
2383	 0.15530953451587 
2384	 0.154724347851564 
2385	 0.154047198744348 
2386	 0.153396574689145 
2387	 0.152783038099699 
2388	 0.152101141019757 
2389	 0.15136921660206 
2390	 0.15067512284022 
2391	 0.149981962387931 
2392	 0.149206709880628 
2393	 0.148406664731274 
2394	 0.147632258329158 
2395	 0.146780676734416 
2396	 0.145956566095529 
2397	 0.14521100252638 
2398	 0.144365138731336 
2399	 0.143442375074117 
2400	 0.142632909735796 
2401	 0.141841584093431 
2402	 0.141050994290813 
2403	 0.140167906286683 
2404	 0.139206320549728 
2405	 0.138316012649806 
2406	 0.137458945606399 
2407	 0.13669333397108 
2408	 0.135975283107462 
2409	 0.135211043422077 
2410	 0.134464536875079 
2411	 0.133767186579056 
2412	 0.133118497849474 
2413	 0.132570251231371 
2414	 0.132097500065311 
2415	 0.131595904263667 
2416	 0.131106733524107 
2417	 0.130710753547162 
2418	 0.130247782330612 
2419	 0.129824127296291 
2420	 0.129494873473628 
2421	 0.129113123414444 
2422	 0.128883119524557 
2423	 0.128682020405164 
2424	 0.12833073846949 
2425	 0.128029698576751 
2426	 0.127773094156329 
2427	 0.12754433922723 
2428	 0.127339741480853 
2429	 0.127130639716483 
2430	 0.126897973783574 
2431	 0.126560264462653 
2432	 0.126338203015473 
2433	 0.126174691751526 
2434	 0.125917401426209 
2435	 0.125802090530546 
2436	 0.125612206739023 
2437	 0.125285342833248 
2438	 0.125109338227268 
2439	 0.124875676218192 
2440	 0.124632851421037 
2441	 0.124512530321141 
2442	 0.124334964474653 
2443	 0.124194304864046 
2444	 0.124094882358525 
2445	 0.123990790787797 
2446	 0.123789256126863 
2447	 0.123475239281887 
2448	 0.123137576895789 
2449	 0.122753003056918 
2450	 0.122519545792976 
2451	 0.122289812874799 
2452	 0.121996937800608 
2453	 0.121804592533276 
2454	 0.121418382405669 
2455	 0.121061080541123 
2456	 0.120851781548064 
2457	 0.12041846066342 
2458	 0.120010867179252 
2459	 0.119665825460078 
2460	 0.119186780651563 
2461	 0.118692267237117 
2462	 0.118241309922556 
2463	 0.11780066221934 
2464	 0.117299912388976 
2465	 0.116869247505544 
2466	 0.116536067533923 
2467	 0.116040813292301 
2468	 0.115581408306357 
2469	 0.115339251248961 
2470	 0.114935078462992 
2471	 0.114575917448482 
2472	 0.114449057171968 
2473	 0.114177067949461 
2474	 0.114018122135454 
2475	 0.113883155600889 
2476	 0.113519476630812 
2477	 0.113328556544443 
2478	 0.1131756767353 
2479	 0.113013194513138 
2480	 0.113035245779164 
2481	 0.112886568436485 
2482	 0.112618720714242 
2483	 0.112852934050506 
2484	 0.112869574136482 
2485	 0.113197359788939 
2486	 0.11358417769618 
2487	 0.11349826998535 
2488	 0.113424919561037 
2489	 0.113357903351167 
2490	 0.113092499207314 
2491	 0.113278613668014 
2492	 0.11379412765812 
2493	 0.114157861404842 
2494	 0.114518952632894 
2495	 0.114785855877109 
2496	 0.114971597515706 
2497	 0.115063133913422 
2498	 0.115447543160256 
2499	 0.115867601059167 
2500	 0.11598099946389 
