Wavelength	spectrum00004.asd
350	 0.100876660688617 
351	 0.101389531605103 
352	 0.101481090527228 
353	 0.101348292223671 
354	 0.10450162367728 
355	 0.104662031097549 
356	 0.104424240351866 
357	 0.106080175538485 
358	 0.104594322644467 
359	 0.105011732604226 
360	 0.107400741890171 
361	 0.109224665617589 
362	 0.11017719478895 
363	 0.110771667036684 
364	 0.111624048195358 
365	 0.113328798645448 
366	 0.11500199450515 
367	 0.116674202516867 
368	 0.118421754389556 
369	 0.119537602880844 
370	 0.121254459633078 
371	 0.123267323317162 
372	 0.124579092125688 
373	 0.126645830638202 
374	 0.128847454990098 
375	 0.130962072556447 
376	 0.133660229772379 
377	 0.135638032319815 
378	 0.137652005440043 
379	 0.140322606921339 
380	 0.141717792252414 
381	 0.143882035362302 
382	 0.146470019943876 
383	 0.147982095017454 
384	 0.151078130278487 
385	 0.154226401994407 
386	 0.156417395585822 
387	 0.15810823146603 
388	 0.160046402470189 
389	 0.162420300948474 
390	 0.165120667331927 
391	 0.16782499437776 
392	 0.170150975516709 
393	 0.172420304597157 
394	 0.175278026313182 
395	 0.177541757197977 
396	 0.179837405246526 
397	 0.18264189058635 
398	 0.185926290660412 
399	 0.187987670382575 
400	 0.189827497798337 
401	 0.192739236808799 
402	 0.1956541494181 
403	 0.19841786515013 
404	 0.200819704721102 
405	 0.202708250724536 
406	 0.205324642026185 
407	 0.20805666822294 
408	 0.2104422835315 
409	 0.212826000586867 
410	 0.215341240616561 
411	 0.218024954280699 
412	 0.220791455876791 
413	 0.223290455581415 
414	 0.225554071185296 
415	 0.227928411403849 
416	 0.230939523800536 
417	 0.233420637435745 
418	 0.235747944693624 
419	 0.238286333209104 
420	 0.24069409215878 
421	 0.243263282616097 
422	 0.245979964846166 
423	 0.24867050081898 
424	 0.251038703023111 
425	 0.253168834330468 
426	 0.255324559216612 
427	 0.257916287823057 
428	 0.260257261342978 
429	 0.262642547680658 
430	 0.265291690891237 
431	 0.26749401622104 
432	 0.269871286041846 
433	 0.272387184899376 
434	 0.274677892122271 
435	 0.277047066560335 
436	 0.279432049733577 
437	 0.281794903117226 
438	 0.284198011708751 
439	 0.28646548789076 
440	 0.288703915831218 
441	 0.291022112378709 
442	 0.293160129173449 
443	 0.295340879006617 
444	 0.297627594190659 
445	 0.299944460738826 
446	 0.302265756946017 
447	 0.304442648209596 
448	 0.306479663074546 
449	 0.308751412721761 
450	 0.310970395332776 
451	 0.313158033935879 
452	 0.315401689675253 
453	 0.317445293948023 
454	 0.319458899788747 
455	 0.321525365712927 
456	 0.323604188660299 
457	 0.325501582899758 
458	 0.32735221121162 
459	 0.329300945657444 
460	 0.331269622303799 
461	 0.333280687064601 
462	 0.335235269339003 
463	 0.337015063075979 
464	 0.338926110565775 
465	 0.340787540420804 
466	 0.342521064399896 
467	 0.344296398108706 
468	 0.345988684787802 
469	 0.347614763286297 
470	 0.349247788574729 
471	 0.351006122699241 
472	 0.352656562022969 
473	 0.354233503881908 
474	 0.355957712879422 
475	 0.357340145324362 
476	 0.358705060284064 
477	 0.360299243611409 
478	 0.361932243750421 
479	 0.363412328632617 
480	 0.364861522258734 
481	 0.366461666799782 
482	 0.367843638864993 
483	 0.369285077887585 
484	 0.370856759009992 
485	 0.372339836443754 
486	 0.373761033339036 
487	 0.37514205125209 
488	 0.376498982251188 
489	 0.377814905904723 
490	 0.379121626126979 
491	 0.380435871168926 
492	 0.381741112303524 
493	 0.382798403622032 
494	 0.3838514562899 
495	 0.385019989698766 
496	 0.386132059700919 
497	 0.387049736844101 
498	 0.387892768202 
499	 0.38881063118944 
500	 0.389666400130262 
501	 0.390443382667479 
502	 0.391193473671718 
503	 0.392010968120735 
504	 0.39266511763372 
505	 0.39318361103167 
506	 0.393661375420485 
507	 0.394235723193758 
508	 0.394763850405182 
509	 0.395180945415771 
510	 0.395476680687645 
511	 0.395744528966534 
512	 0.396008891822765 
513	 0.396259476522783 
514	 0.396454963922015 
515	 0.396529694200853 
516	 0.396511089023168 
517	 0.396458881646788 
518	 0.396441994066701 
519	 0.396412322100297 
520	 0.396294387491638 
521	 0.396012239006752 
522	 0.395687144101011 
523	 0.395328719525459 
524	 0.394935784733204 
525	 0.394524551883095 
526	 0.394055285151665 
527	 0.393511773874991 
528	 0.392890965876764 
529	 0.39220159696521 
530	 0.391477144990582 
531	 0.390705006796857 
532	 0.389825764962187 
533	 0.388897521298405 
534	 0.387924434687106 
535	 0.386898167397403 
536	 0.385818828284926 
537	 0.384588139702857 
538	 0.383247127362621 
539	 0.381905597087854 
540	 0.380519478359677 
541	 0.37909985095827 
542	 0.377633804960564 
543	 0.376064015719486 
544	 0.374432939519423 
545	 0.372743822127153 
546	 0.370990715234505 
547	 0.369167940959221 
548	 0.367332810894356 
549	 0.365506171793719 
550	 0.363675075445093 
551	 0.361861036437764 
552	 0.360011206187773 
553	 0.358087764398887 
554	 0.356129525877011 
555	 0.354114306242316 
556	 0.352080419121353 
557	 0.350082761438455 
558	 0.348060983923581 
559	 0.346017203533843 
560	 0.34396332714982 
561	 0.341910459538869 
562	 0.339931232885195 
563	 0.337993964846466 
564	 0.336019826208857 
565	 0.333887757019417 
566	 0.331692945669598 
567	 0.329424957893807 
568	 0.327010024999341 
569	 0.324598203269027 
570	 0.322215470102548 
571	 0.319902192010541 
572	 0.317767904350113 
573	 0.315818364278333 
574	 0.313977579374942 
575	 0.312124460584192 
576	 0.310167723247121 
577	 0.308140526801666 
578	 0.306087690967816 
579	 0.304053368680601 
580	 0.301929120608203 
581	 0.299738414735779 
582	 0.29752253386984 
583	 0.295277988580783 
584	 0.293028699404439 
585	 0.290793920133148 
586	 0.288585494755601 
587	 0.286382966465332 
588	 0.284207688345542 
589	 0.28205749688923 
590	 0.279888384472061 
591	 0.277760500184059 
592	 0.275686074202063 
593	 0.273656230060842 
594	 0.271646240337991 
595	 0.269682443183736 
596	 0.267752695639204 
597	 0.265810440232206 
598	 0.263850398261437 
599	 0.261869701705925 
600	 0.259870156350812 
601	 0.25786203342334 
602	 0.255867065434922 
603	 0.253877691818179 
604	 0.251879962634173 
605	 0.24989381673508 
606	 0.247962864598345 
607	 0.246082723403113 
608	 0.244189934250644 
609	 0.242310205816693 
610	 0.240488311408322 
611	 0.238734898365012 
612	 0.236952145047019 
613	 0.235196325259549 
614	 0.233475282726071 
615	 0.231761324271515 
616	 0.230051548903089 
617	 0.228375983128139 
618	 0.226749099727581 
619	 0.225143993979231 
620	 0.223566501392881 
621	 0.222034686543817 
622	 0.22055095416549 
623	 0.219031608294041 
624	 0.217497415568138 
625	 0.21600306717974 
626	 0.214618607462852 
627	 0.213196847743823 
628	 0.211783906306582 
629	 0.210425949509299 
630	 0.209072395457008 
631	 0.207754024534786 
632	 0.206487724438494 
633	 0.205269430209046 
634	 0.203984379840165 
635	 0.202726726052332 
636	 0.201533927417145 
637	 0.200356119800306 
638	 0.199214539307595 
639	 0.198091524040627 
640	 0.196974347472909 
641	 0.195891678109639 
642	 0.194821469225977 
643	 0.193775245407939 
644	 0.192775051894489 
645	 0.191739916785304 
646	 0.190731428658058 
647	 0.189782544500298 
648	 0.188852899036157 
649	 0.187903169613421 
650	 0.186960339953899 
651	 0.186063006046281 
652	 0.185196932724686 
653	 0.184340725344154 
654	 0.183502771268283 
655	 0.182709975595072 
656	 0.181899461159738 
657	 0.181103268838291 
658	 0.18034771095615 
659	 0.179612636093832 
660	 0.178917268978185 
661	 0.178235273719927 
662	 0.177534022517801 
663	 0.176841815337411 
664	 0.176150240244265 
665	 0.175473812705035 
666	 0.174848627231416 
667	 0.174260027241395 
668	 0.173678819750167 
669	 0.173090993050524 
670	 0.172529061080993 
671	 0.171950550670752 
672	 0.171368965409196 
673	 0.170825359960035 
674	 0.170357879804814 
675	 0.169898420975063 
676	 0.169421709678537 
677	 0.168964653600474 
678	 0.168468222059181 
679	 0.168000046461591 
680	 0.167608838484912 
681	 0.167197933598024 
682	 0.166794197977588 
683	 0.166395982814529 
684	 0.165989830723662 
685	 0.165592557169989 
686	 0.165242005766836 
687	 0.164936772929203 
688	 0.164619738394632 
689	 0.164278981210303 
690	 0.163952694517377 
691	 0.163672310995853 
692	 0.163398584827254 
693	 0.163113115462653 
694	 0.162836398553304 
695	 0.162601656384786 
696	 0.162305848171247 
697	 0.16204482708204 
698	 0.161853869402202 
699	 0.161637189748129 
700	 0.161438855859809 
701	 0.161240125353707 
702	 0.161027351907578 
703	 0.160867115087576 
704	 0.160737596494177 
705	 0.160601980817318 
706	 0.16042418052783 
707	 0.160273456140595 
708	 0.16013354155258 
709	 0.159997919033792 
710	 0.159897113524536 
711	 0.159789153322091 
712	 0.159682089258247 
713	 0.159594768198462 
714	 0.159525266441204 
715	 0.159455829726547 
716	 0.15937957707563 
717	 0.15930055338336 
718	 0.159239271343159 
719	 0.159188415045323 
720	 0.159148826705034 
721	 0.159144372103108 
722	 0.159119159923693 
723	 0.159085218854077 
724	 0.159066350311684 
725	 0.159035183596068 
726	 0.159060128394699 
727	 0.159113465649541 
728	 0.159109677461244 
729	 0.159133903828491 
730	 0.159160522074235 
731	 0.159182259794824 
732	 0.159246936096935 
733	 0.159280462862857 
734	 0.159311245029206 
735	 0.159378412760144 
736	 0.15943975035568 
737	 0.159512813524205 
738	 0.159600620754676 
739	 0.159693389632012 
740	 0.159761096779784 
741	 0.159853549027249 
742	 0.159992933477568 
743	 0.160147521052334 
744	 0.160261054675153 
745	 0.160355360503684 
746	 0.160463962271171 
747	 0.160573877574805 
748	 0.160691589046159 
749	 0.160827826266065 
750	 0.160988447191244 
751	 0.161123937523275 
752	 0.161273195348467 
753	 0.161443570913846 
754	 0.161591033340248 
755	 0.161774740723365 
756	 0.161960356871429 
757	 0.162115973434787 
758	 0.162278113605671 
759	 0.162450914580894 
760	 0.162637482816306 
761	 0.162837965950525 
762	 0.163047214937472 
763	 0.163260843664245 
764	 0.163468100855024 
765	 0.16365483826234 
766	 0.163862740734136 
767	 0.164093878168556 
768	 0.164339971046576 
769	 0.16459291132894 
770	 0.164818704861676 
771	 0.16503944573112 
772	 0.165285348679306 
773	 0.165510400628971 
774	 0.165734555757609 
775	 0.165973758118812 
776	 0.166234361825482 
777	 0.166478233419231 
778	 0.166726828101915 
779	 0.167000961095939 
780	 0.167305560414257 
781	 0.167581666994418 
782	 0.16783620885267 
783	 0.168096684734983 
784	 0.168380541621961 
785	 0.168697179235914 
786	 0.169020053408423 
787	 0.169309709753352 
788	 0.169597777808632 
789	 0.169878678876183 
790	 0.170156845433223 
791	 0.170452580258937 
792	 0.170798342098798 
793	 0.171137105693105 
794	 0.171437498678177 
795	 0.171775163425549 
796	 0.172122523494768 
797	 0.172459197304856 
798	 0.172778929805033 
799	 0.173136257246302 
800	 0.173486622888043 
801	 0.173825779371793 
802	 0.174180618348787 
803	 0.174521557607832 
804	 0.174870421798174 
805	 0.175241547765973 
806	 0.175628186708426 
807	 0.17598486205857 
808	 0.176327108354531 
809	 0.176687117560949 
810	 0.177094901328975 
811	 0.177504336140176 
812	 0.177887294887695 
813	 0.17824347527293 
814	 0.178664267528881 
815	 0.179078132128819 
816	 0.179463766208545 
817	 0.179853821225118 
818	 0.180254579184378 
819	 0.180677891890593 
820	 0.181112998546888 
821	 0.181513341554345 
822	 0.181935264252869 
823	 0.182374276093876 
824	 0.182813270873824 
825	 0.183251535227032 
826	 0.183682567232872 
827	 0.184114406676214 
828	 0.184565216223361 
829	 0.185072610048917 
830	 0.185550070395894 
831	 0.185973683830131 
832	 0.186386570899761 
833	 0.186842424196066 
834	 0.187311841330632 
835	 0.187775659921034 
836	 0.188252354390845 
837	 0.188765041014014 
838	 0.18927383170625 
839	 0.189746194493376 
840	 0.190214312209442 
841	 0.190692833642488 
842	 0.191208684913098 
843	 0.1917658186233 
844	 0.192240946748325 
845	 0.192770239277428 
846	 0.193341027286361 
847	 0.193840913004204 
848	 0.194382855945582 
849	 0.194920153130461 
850	 0.195438835199105 
851	 0.195985764427173 
852	 0.196579151911359 
853	 0.197165962016051 
854	 0.197716530672408 
855	 0.198284968325616 
856	 0.198846760523216 
857	 0.199403155715544 
858	 0.199962340231363 
859	 0.200529210308674 
860	 0.20111277626466 
861	 0.201711665255416 
862	 0.202317924112189 
863	 0.202925345506598 
864	 0.203573694255151 
865	 0.204207807963587 
866	 0.204717295302167 
867	 0.205289629129341 
868	 0.205924891027555 
869	 0.206585014371835 
870	 0.207221222681066 
871	 0.207860980787134 
872	 0.208474209158464 
873	 0.209067158937922 
874	 0.209750962327494 
875	 0.210443887817594 
876	 0.211106343193393 
877	 0.211739396251645 
878	 0.212430208652766 
879	 0.213103131679072 
880	 0.213742754723353 
881	 0.214378453969423 
882	 0.215089376009033 
883	 0.2158384375171 
884	 0.216581295475824 
885	 0.217282271687211 
886	 0.217963028962867 
887	 0.218601162345564 
888	 0.219252590667268 
889	 0.220047103377696 
890	 0.220802064503504 
891	 0.221521070266277 
892	 0.222232898596805 
893	 0.222946131267888 
894	 0.223682465038347 
895	 0.224446824280919 
896	 0.225223829049063 
897	 0.22595353974164 
898	 0.226759746872932 
899	 0.227575025608665 
900	 0.22831560630816 
901	 0.229096001853678 
902	 0.229906881324625 
903	 0.230727782008756 
904	 0.231536054440321 
905	 0.232335267732493 
906	 0.233146208632086 
907	 0.233964630433282 
908	 0.234770856236522 
909	 0.235570365775656 
910	 0.236395119448954 
911	 0.237251644093251 
912	 0.238116050641687 
913	 0.238952736808157 
914	 0.239769653954258 
915	 0.240595912434096 
916	 0.241474425294996 
917	 0.24234707226917 
918	 0.243237405256324 
919	 0.244159438127301 
920	 0.245080837362524 
921	 0.245910546142825 
922	 0.246712687824754 
923	 0.247567834693668 
924	 0.248487148699101 
925	 0.249372454640023 
926	 0.250218445842013 
927	 0.251071183907203 
928	 0.252025237263005 
929	 0.252959500307537 
930	 0.253871353357814 
931	 0.254795277508169 
932	 0.255680571950384 
933	 0.256622071457314 
934	 0.257597246132514 
935	 0.258536475270687 
936	 0.25950474067373 
937	 0.260503715484788 
938	 0.261492417443482 
939	 0.262420302424887 
940	 0.263361091213077 
941	 0.264260723862632 
942	 0.265160503564021 
943	 0.266167307810464 
944	 0.267142174665528 
945	 0.268132741041747 
946	 0.269135552883453 
947	 0.270079334483742 
948	 0.271011189873494 
949	 0.2719867681292 
950	 0.272993039797302 
951	 0.273943665245878 
952	 0.274995831863917 
953	 0.276022473223568 
954	 0.276963474203199 
955	 0.27792904455646 
956	 0.278888068798486 
957	 0.279881339777227 
958	 0.28091491916866 
959	 0.281916952356204 
960	 0.282937328081713 
961	 0.283948085981029 
962	 0.284937504704026 
963	 0.285957728378148 
964	 0.28693398328267 
965	 0.287963769188324 
966	 0.28906975770993 
967	 0.290011751355464 
968	 0.291087115764597 
969	 0.292161165821204 
970	 0.293114312605879 
971	 0.294187018794458 
972	 0.295221789037237 
973	 0.296264380272692 
974	 0.297352197221583 
975	 0.298328203472069 
976	 0.299277850008748 
977	 0.300339214340586 
978	 0.301527065441047 
979	 0.302442420430821 
980	 0.303460306038969 
981	 0.304550283001472 
982	 0.305592667281006 
983	 0.306657632653823 
984	 0.307730266961494 
985	 0.308793822708763 
986	 0.309833499465922 
987	 0.310840544974464 
988	 0.311927401127596 
989	 0.313051568095138 
990	 0.314118577624628 
991	 0.315075674658521 
992	 0.316061225762567 
993	 0.317136281469763 
994	 0.318292914944736 
995	 0.319437070799843 
996	 0.320492490254291 
997	 0.321457663620563 
998	 0.322418104473131 
999	 0.323625413729917 
1000	 0.324734519349801 
1001	 0.330937532414345 
1002	 0.332033203652538 
1003	 0.333237025158412 
1004	 0.334363068668669 
1005	 0.335476932652184 
1006	 0.336581826202641 
1007	 0.337654168632431 
1008	 0.338748749944531 
1009	 0.339829594900599 
1010	 0.340934632775516 
1011	 0.342086456953624 
1012	 0.343193238372481 
1013	 0.344275694675859 
1014	 0.345371947017454 
1015	 0.346429074110281 
1016	 0.347527119302782 
1017	 0.348700635038567 
1018	 0.349821447677698 
1019	 0.350999001758553 
1020	 0.352181616998759 
1021	 0.353313281764255 
1022	 0.354415272214229 
1023	 0.355549404507765 
1024	 0.356655128048688 
1025	 0.357785561950159 
1026	 0.35894149677095 
1027	 0.36007872974382 
1028	 0.361202846192474 
1029	 0.362383408190841 
1030	 0.363479905580396 
1031	 0.364600577221512 
1032	 0.365711453866076 
1033	 0.366783314362308 
1034	 0.367916538288327 
1035	 0.369060125114426 
1036	 0.370213044752455 
1037	 0.371416873799031 
1038	 0.372547566938519 
1039	 0.373655222167306 
1040	 0.374768885469839 
1041	 0.375841127579988 
1042	 0.376935205148486 
1043	 0.378044408141586 
1044	 0.379136160187346 
1045	 0.38028805860782 
1046	 0.381407142089038 
1047	 0.382465004344457 
1048	 0.383590896729736 
1049	 0.384642628982622 
1050	 0.385682570676745 
1051	 0.386835228360347 
1052	 0.387945812677813 
1053	 0.389048712433422 
1054	 0.390175851063101 
1055	 0.391265361525812 
1056	 0.392310510960097 
1057	 0.393379989308234 
1058	 0.39443777926256 
1059	 0.395508338617408 
1060	 0.396615803145514 
1061	 0.39767556949304 
1062	 0.398756490809614 
1063	 0.399829813202388 
1064	 0.400866776630728 
1065	 0.401956564210518 
1066	 0.403032549071778 
1067	 0.404106228549091 
1068	 0.40521804823815 
1069	 0.406280956486028 
1070	 0.407380705897168 
1071	 0.40850847436277 
1072	 0.409641208279782 
1073	 0.410688342188317 
1074	 0.411754142186257 
1075	 0.412786911689484 
1076	 0.413833295002877 
1077	 0.414961929537414 
1078	 0.416050502156611 
1079	 0.417143534290795 
1080	 0.41822271116883 
1081	 0.419225324853641 
1082	 0.420257488578421 
1083	 0.421281395593776 
1084	 0.422310757381387 
1085	 0.423401629506626 
1086	 0.424470023798699 
1087	 0.425543468297859 
1088	 0.426646042639989 
1089	 0.42771396536278 
1090	 0.428705805176564 
1091	 0.429733114649257 
1092	 0.430716598107989 
1093	 0.431670737611244 
1094	 0.432719085829593 
1095	 0.433751365953674 
1096	 0.434797315674549 
1097	 0.435883086592825 
1098	 0.436882692751087 
1099	 0.437879407491613 
1100	 0.438869067941664 
1101	 0.439849704785163 
1102	 0.440880153251115 
1103	 0.44188398393861 
1104	 0.442877795590631 
1105	 0.443891663078333 
1106	 0.4449074040412 
1107	 0.445878990159436 
1108	 0.446872517279532 
1109	 0.447832454219412 
1110	 0.448806390551223 
1111	 0.449824979761437 
1112	 0.450805764608469 
1113	 0.451820134732452 
1114	 0.452812398588392 
1115	 0.453723447821647 
1116	 0.454669276297517 
1117	 0.45559609475768 
1118	 0.456522000746095 
1119	 0.457453772664653 
1120	 0.458385300477334 
1121	 0.459301210258129 
1122	 0.460240303020094 
1123	 0.461199616001734 
1124	 0.462092420414951 
1125	 0.463025707610629 
1126	 0.463927689139335 
1127	 0.464788559523828 
1128	 0.465716978190808 
1129	 0.466587565993284 
1130	 0.46746719942337 
1131	 0.468379054895098 
1132	 0.469205242189359 
1133	 0.470055401544394 
1134	 0.470890434881967 
1135	 0.47172478613412 
1136	 0.472560547065675 
1137	 0.473397242582094 
1138	 0.474234734927364 
1139	 0.475065258329232 
1140	 0.475914315776333 
1141	 0.476676951200744 
1142	 0.477463657642803 
1143	 0.478229314699219 
1144	 0.478945303632205 
1145	 0.479698428715443 
1146	 0.480415823301633 
1147	 0.481135438563049 
1148	 0.481867846764526 
1149	 0.482540314045677 
1150	 0.483207009902323 
1151	 0.483853044312247 
1152	 0.484504716391728 
1153	 0.485163428446101 
1154	 0.485798594308418 
1155	 0.486426523922601 
1156	 0.487037366469401 
1157	 0.487618334937687 
1158	 0.488186775203101 
1159	 0.488748974565645 
1160	 0.489304878889941 
1161	 0.489825426664577 
1162	 0.490345008260464 
1163	 0.490849634789394 
1164	 0.491386341625534 
1165	 0.491924806297937 
1166	 0.492426482219771 
1167	 0.492953995526414 
1168	 0.49348615137229 
1169	 0.494044334505807 
1170	 0.494624771894563 
1171	 0.495226621626403 
1172	 0.495849940241959 
1173	 0.496485681219384 
1174	 0.497153456845927 
1175	 0.497798215520073 
1176	 0.498447557198147 
1177	 0.499092283121408 
1178	 0.499712570597679 
1179	 0.500370330379229 
1180	 0.501013579116757 
1181	 0.501670081781101 
1182	 0.502357418113822 
1183	 0.503016006001015 
1184	 0.50370577068087 
1185	 0.504409670337837 
1186	 0.505122696267678 
1187	 0.505859291005655 
1188	 0.506576895027343 
1189	 0.507304069890401 
1190	 0.508019518788469 
1191	 0.508709785990301 
1192	 0.509404294144575 
1193	 0.510099355614953 
1194	 0.510796572661061 
1195	 0.511506969746199 
1196	 0.512205081011638 
1197	 0.512887488081895 
1198	 0.513591826667526 
1199	 0.514308104972288 
1200	 0.514961495148854 
1201	 0.515658757832293 
1202	 0.516356270670528 
1203	 0.517044653980752 
1204	 0.517813385209644 
1205	 0.518573465560834 
1206	 0.519353206093312 
1207	 0.520160873521415 
1208	 0.5209787714045 
1209	 0.52182059603632 
1210	 0.522688102505227 
1211	 0.523588853904678 
1212	 0.52453170334679 
1213	 0.525480738217768 
1214	 0.526458592092811 
1215	 0.527448007676251 
1216	 0.528463755413804 
1217	 0.52945179917971 
1218	 0.530450955268568 
1219	 0.531444749375297 
1220	 0.53239421096399 
1221	 0.533366860373212 
1222	 0.534317224890515 
1223	 0.535285442479281 
1224	 0.536244593477708 
1225	 0.537212545926849 
1226	 0.53813241025648 
1227	 0.539031221147418 
1228	 0.539927202237652 
1229	 0.540794946950768 
1230	 0.541663013848099 
1231	 0.542531757068551 
1232	 0.543396966265271 
1233	 0.544238197209787 
1234	 0.545082797832779 
1235	 0.545936143112458 
1236	 0.546782609500335 
1237	 0.547614090599753 
1238	 0.548457893763142 
1239	 0.549296521994809 
1240	 0.550157987560648 
1241	 0.551047893924394 
1242	 0.551871939483532 
1243	 0.552694037858568 
1244	 0.55349996479676 
1245	 0.554307106938071 
1246	 0.555100688051491 
1247	 0.555886191691817 
1248	 0.556680820717613 
1249	 0.557446156911574 
1250	 0.558181956469942 
1251	 0.558911989054266 
1252	 0.559637458006146 
1253	 0.56034331134848 
1254	 0.561015135362389 
1255	 0.561710986601924 
1256	 0.562418261651735 
1257	 0.5631046456165 
1258	 0.563797718496392 
1259	 0.564473329485476 
1260	 0.565108743442084 
1261	 0.565763981650522 
1262	 0.566409738497156 
1263	 0.567097335623137 
1264	 0.567750908929651 
1265	 0.568410166531886 
1266	 0.569045970282255 
1267	 0.569655420955608 
1268	 0.570275300797348 
1269	 0.570883148477573 
1270	 0.571507088621935 
1271	 0.572142738114765 
1272	 0.572766750546356 
1273	 0.573383766363534 
1274	 0.574014043227072 
1275	 0.574639694174129 
1276	 0.575271117491564 
1277	 0.575932934306114 
1278	 0.576561253337691 
1279	 0.577163394128808 
1280	 0.577775340702177 
1281	 0.578366060035774 
1282	 0.578972473453965 
1283	 0.579599894972078 
1284	 0.580211241613514 
1285	 0.580817320737181 
1286	 0.581427222634558 
1287	 0.582009012930266 
1288	 0.582574221910425 
1289	 0.583129856025062 
1290	 0.583660468244197 
1291	 0.584205804275442 
1292	 0.584753745574005 
1293	 0.585281758291868 
1294	 0.585788685600689 
1295	 0.586325473976908 
1296	 0.586871128663052 
1297	 0.587397231579156 
1298	 0.587946740761785 
1299	 0.588464912599518 
1300	 0.588943098798544 
1301	 0.589429056433363 
1302	 0.589906645363674 
1303	 0.590390435630788 
1304	 0.590879063525343 
1305	 0.591352018669042 
1306	 0.59182689296474 
1307	 0.592289790939311 
1308	 0.59271675759604 
1309	 0.593174424481056 
1310	 0.593602975332339 
1311	 0.5940256640707 
1312	 0.594439265892783 
1313	 0.594848018547152 
1314	 0.595227401557888 
1315	 0.595596128422609 
1316	 0.595944348573381 
1317	 0.596265402499799 
1318	 0.596577298721152 
1319	 0.596884202428837 
1320	 0.597162643229108 
1321	 0.597415339507866 
1322	 0.597658276068473 
1323	 0.597882679295955 
1324	 0.598095621524496 
1325	 0.5983063938242 
1326	 0.598484431669795 
1327	 0.598642600695341 
1328	 0.598779716928192 
1329	 0.598873942624604 
1330	 0.59897885284508 
1331	 0.599070239217723 
1332	 0.599164532109782 
1333	 0.599272166165338 
1334	 0.599368539306511 
1335	 0.599426899868021 
1336	 0.599474086651149 
1337	 0.599488213808274 
1338	 0.59945275166756 
1339	 0.599449953952722 
1340	 0.599457621368753 
1341	 0.599421614895747 
1342	 0.599381708428335 
1343	 0.599312774864207 
1344	 0.599199207555708 
1345	 0.599091717662943 
1346	 0.5989797888021 
1347	 0.598855145037187 
1348	 0.598709393471567 
1349	 0.59856895725674 
1350	 0.598416686743461 
1351	 0.598276095290615 
1352	 0.598140583870588 
1353	 0.598002501919348 
1354	 0.597869896569291 
1355	 0.597735455871 
1356	 0.597589453986838 
1357	 0.597456706446791 
1358	 0.597338085965284 
1359	 0.597212363715049 
1360	 0.597095480319429 
1361	 0.596967810605204 
1362	 0.596828180935426 
1363	 0.596696362455237 
1364	 0.596570970103604 
1365	 0.596454983107075 
1366	 0.596320407409405 
1367	 0.596191544021767 
1368	 0.596039918607697 
1369	 0.59587143089836 
1370	 0.595694049378286 
1371	 0.595508199994461 
1372	 0.59530949755369 
1373	 0.595099123373132 
1374	 0.594874255983106 
1375	 0.594646181587083 
1376	 0.594385532386892 
1377	 0.594105621407252 
1378	 0.593798353330566 
1379	 0.593461795019955 
1380	 0.593109021888265 
1381	 0.592736780464481 
1382	 0.59234018064205 
1383	 0.591924628321799 
1384	 0.59148341280693 
1385	 0.591015403818366 
1386	 0.590532630149109 
1387	 0.59002029738245 
1388	 0.589509630471393 
1389	 0.588986199880652 
1390	 0.588455496733397 
1391	 0.587925424877683 
1392	 0.587369684419223 
1393	 0.586847325192583 
1394	 0.586294159446553 
1395	 0.585691895252964 
1396	 0.585093688305062 
1397	 0.584396901927416 
1398	 0.583657200161158 
1399	 0.582794509678252 
1400	 0.581857844098408 
1401	 0.580825493157546 
1402	 0.57970263942228 
1403	 0.578455187717105 
1404	 0.577114617760073 
1405	 0.575687661392024 
1406	 0.574134096705537 
1407	 0.572514728485744 
1408	 0.570790740864006 
1409	 0.569046381097618 
1410	 0.567208246303608 
1411	 0.565359995013754 
1412	 0.563471865556842 
1413	 0.56160233239865 
1414	 0.559679791767807 
1415	 0.557797145007881 
1416	 0.555911260904856 
1417	 0.55407439597904 
1418	 0.552265055854065 
1419	 0.550475187413459 
1420	 0.548737669194555 
1421	 0.547011667786008 
1422	 0.545313643847918 
1423	 0.543600890227797 
1424	 0.541957233728696 
1425	 0.540189884969265 
1426	 0.538502591057417 
1427	 0.536731545557181 
1428	 0.534821309551441 
1429	 0.532982560891824 
1430	 0.530975815475009 
1431	 0.528847386689034 
1432	 0.526669524045064 
1433	 0.524379023032388 
1434	 0.522133040978779 
1435	 0.519804236367332 
1436	 0.517547140589538 
1437	 0.515287390497078 
1438	 0.513154023131183 
1439	 0.51099362846253 
1440	 0.509069110615667 
1441	 0.507186742458763 
1442	 0.505675031135838 
1443	 0.504267087353599 
1444	 0.50336325794441 
1445	 0.502772651951443 
1446	 0.50265625679841 
1447	 0.50296889699683 
1448	 0.503664336557955 
1449	 0.504917772198203 
1450	 0.506297713276252 
1451	 0.508145153888453 
1452	 0.509954416617088 
1453	 0.512042203528645 
1454	 0.513978592856058 
1455	 0.515992146967876 
1456	 0.517868953552363 
1457	 0.519711964950128 
1458	 0.521400610861436 
1459	 0.522979055390598 
1460	 0.524449907766877 
1461	 0.525765052531067 
1462	 0.526996148642022 
1463	 0.528121222077641 
1464	 0.529174854027868 
1465	 0.530099426227697 
1466	 0.531006217386414 
1467	 0.531829501799271 
1468	 0.53260447887099 
1469	 0.533369253485039 
1470	 0.534056195193293 
1471	 0.534717084023293 
1472	 0.535346348860486 
1473	 0.535928029655122 
1474	 0.536471772290737 
1475	 0.536938932458173 
1476	 0.537377146487356 
1477	 0.537697215021903 
1478	 0.537922092420364 
1479	 0.538081379121172 
1480	 0.538172222363562 
1481	 0.538154926329952 
1482	 0.538030187219489 
1483	 0.537874532985003 
1484	 0.537565804063935 
1485	 0.537367077770471 
1486	 0.537109762020574 
1487	 0.537017925017842 
1488	 0.536944662991636 
1489	 0.537085459006311 
1490	 0.537350691119501 
1491	 0.537795378864135 
1492	 0.53840704032642 
1493	 0.539186113539592 
1494	 0.540164289603721 
1495	 0.54123109284442 
1496	 0.542486107741878 
1497	 0.543785117021413 
1498	 0.545239992321274 
1499	 0.54665875767361 
1500	 0.548166923056319 
1501	 0.54962343984731 
1502	 0.551089234724803 
1503	 0.55248237710532 
1504	 0.553872026939916 
1505	 0.555173112440982 
1506	 0.556433775106981 
1507	 0.557576516662578 
1508	 0.558629160100777 
1509	 0.559599598321783 
1510	 0.560438190667029 
1511	 0.561233185168451 
1512	 0.561962193339001 
1513	 0.562631041315802 
1514	 0.563227480757036 
1515	 0.563776690771477 
1516	 0.564253687978687 
1517	 0.564701287564703 
1518	 0.565103867863106 
1519	 0.565464244016158 
1520	 0.565785945318319 
1521	 0.56606599474507 
1522	 0.566290480687184 
1523	 0.566502844097685 
1524	 0.566680349318743 
1525	 0.566818053247394 
1526	 0.566957280808336 
1527	 0.567072849121073 
1528	 0.567185423044023 
1529	 0.567281846079448 
1530	 0.567395465163859 
1531	 0.567495821038766 
1532	 0.567627469265898 
1533	 0.567761866705083 
1534	 0.567957951704026 
1535	 0.568172195697623 
1536	 0.568451017630522 
1537	 0.568778833228488 
1538	 0.569170677612828 
1539	 0.569597661654994 
1540	 0.570127358558289 
1541	 0.570733975369746 
1542	 0.571418226398364 
1543	 0.572190319299668 
1544	 0.573020092962543 
1545	 0.573931563855387 
1546	 0.574886130675825 
1547	 0.575929502012875 
1548	 0.576959476967038 
1549	 0.57804051392662 
1550	 0.579104973356913 
1551	 0.580181431646116 
1552	 0.581243005485937 
1553	 0.582317202408369 
1554	 0.583359824891319 
1555	 0.58439451545281 
1556	 0.585391312233794 
1557	 0.586353417950672 
1558	 0.587314339750619 
1559	 0.588264207586215 
1560	 0.589172504362795 
1561	 0.590055754720012 
1562	 0.590931391030997 
1563	 0.591766490807838 
1564	 0.592601954943591 
1565	 0.593438591195267 
1566	 0.594263050769844 
1567	 0.595074960604616 
1568	 0.595864100567644 
1569	 0.596644284666775 
1570	 0.597410034435236 
1571	 0.598159562786267 
1572	 0.598876223427153 
1573	 0.599570645655526 
1574	 0.60025690263484 
1575	 0.600905953017563 
1576	 0.601557322854128 
1577	 0.602208693671459 
1578	 0.602852745255475 
1579	 0.603489033849079 
1580	 0.60410617019606 
1581	 0.604717682342781 
1582	 0.605314206840867 
1583	 0.605887397480119 
1584	 0.606453406234491 
1585	 0.606993041093727 
1586	 0.60755964007461 
1587	 0.608129350472099 
1588	 0.608696974181257 
1589	 0.609283704440384 
1590	 0.609863333313869 
1591	 0.610426748598026 
1592	 0.611003733530284 
1593	 0.611587997715357 
1594	 0.612180787082644 
1595	 0.612791998871817 
1596	 0.613382172113215 
1597	 0.613969536208916 
1598	 0.614555405649891 
1599	 0.615134254878752 
1600	 0.615701690951883 
1601	 0.616257424506619 
1602	 0.616826683658202 
1603	 0.6173859365474 
1604	 0.617950042532897 
1605	 0.618550870494107 
1606	 0.619110344906053 
1607	 0.619657254725511 
1608	 0.620177502260224 
1609	 0.620662084061668 
1610	 0.621141777568862 
1611	 0.621599094976623 
1612	 0.622050419498397 
1613	 0.622495606297603 
1614	 0.622926611771437 
1615	 0.623346948228488 
1616	 0.623753760856032 
1617	 0.624152865524933 
1618	 0.624527771467774 
1619	 0.624893747843756 
1620	 0.625222788401789 
1621	 0.625502718502759 
1622	 0.625794508508473 
1623	 0.626050981575937 
1624	 0.626336606749723 
1625	 0.626646647295403 
1626	 0.626947282013895 
1627	 0.627250692227589 
1628	 0.627556232228658 
1629	 0.627862711893272 
1630	 0.628166055113609 
1631	 0.628474992073662 
1632	 0.628779298236359 
1633	 0.629081494461416 
1634	 0.629373900642882 
1635	 0.629659743354181 
1636	 0.629943932644398 
1637	 0.630218164245062 
1638	 0.630491147458013 
1639	 0.630772737787438 
1640	 0.631036429775864 
1641	 0.631304262133844 
1642	 0.631539235032635 
1643	 0.631753747207642 
1644	 0.631941227911416 
1645	 0.632096731468907 
1646	 0.632236208293316 
1647	 0.632349207096072 
1648	 0.632455383223843 
1649	 0.632561366821368 
1650	 0.632620038591808 
1651	 0.632646882430128 
1652	 0.632657364179347 
1653	 0.632641442444963 
1654	 0.632590501862767 
1655	 0.632523120493505 
1656	 0.632414457854427 
1657	 0.632268463725324 
1658	 0.632073390373483 
1659	 0.631855344562436 
1660	 0.631573634342534 
1661	 0.631208369851385 
1662	 0.630839036229681 
1663	 0.630427507897901 
1664	 0.629989324601798 
1665	 0.629531355253963 
1666	 0.62904125466812 
1667	 0.628517954940558 
1668	 0.627968765791955 
1669	 0.627432723760439 
1670	 0.626787347738129 
1671	 0.626070619377611 
1672	 0.625297973951205 
1673	 0.624441384093313 
1674	 0.623538220606982 
1675	 0.62257962648621 
1676	 0.621604455524299 
1677	 0.620579143693936 
1678	 0.619513023338097 
1679	 0.618403232811939 
1680	 0.617267333954472 
1681	 0.616062333445656 
1682	 0.614874868568043 
1683	 0.613688905581327 
1684	 0.612513489746157 
1685	 0.611327327780304 
1686	 0.610145937650001 
1687	 0.608955623886214 
1688	 0.607779210994602 
1689	 0.606604261627868 
1690	 0.605446412542055 
1691	 0.604334451762189 
1692	 0.603189566429355 
1693	 0.602064619778907 
1694	 0.600863779452481 
1695	 0.599627355010823 
1696	 0.598323192211564 
1697	 0.596961713369007 
1698	 0.595527515835091 
1699	 0.594024596067359 
1700	 0.592531796044686 
1701	 0.590974999897968 
1702	 0.589444054334989 
1703	 0.587899669884363 
1704	 0.586361713165997 
1705	 0.584809269659642 
1706	 0.583244561106742 
1707	 0.581774359687408 
1708	 0.580277425165964 
1709	 0.578793536971729 
1710	 0.577328752355638 
1711	 0.575766768540315 
1712	 0.574233187626239 
1713	 0.572650828165013 
1714	 0.570998391948464 
1715	 0.569417974659415 
1716	 0.567766102793948 
1717	 0.56611598567389 
1718	 0.564491139505105 
1719	 0.562817280051829 
1720	 0.561216153594625 
1721	 0.55961081167689 
1722	 0.558049676894485 
1723	 0.556675779258181 
1724	 0.555360563026911 
1725	 0.554146593663805 
1726	 0.553079720459362 
1727	 0.55206939539168 
1728	 0.551204323911345 
1729	 0.550459754657255 
1730	 0.549827747154233 
1731	 0.549322615587281 
1732	 0.548863834159821 
1733	 0.54844804150973 
1734	 0.548074670256005 
1735	 0.547689291341667 
1736	 0.547313967804413 
1737	 0.546919030677463 
1738	 0.546453041708326 
1739	 0.545965356214622 
1740	 0.545385659907883 
1741	 0.544848763884203 
1742	 0.544302461117894 
1743	 0.54380397619212 
1744	 0.543307827194721 
1745	 0.54288056763414 
1746	 0.542476101521244 
1747	 0.542199214882688 
1748	 0.541983073405265 
1749	 0.541892723901745 
1750	 0.541930065257094 
1751	 0.542049168032308 
1752	 0.542274196810718 
1753	 0.542595332996578 
1754	 0.543017458214605 
1755	 0.54351032787446 
1756	 0.544097768739898 
1757	 0.544735040443236 
1758	 0.545504180290366 
1759	 0.546262975211631 
1760	 0.547098748431279 
1761	 0.548027334537461 
1762	 0.548908674986114 
1763	 0.549843596660949 
1764	 0.550825507733798 
1765	 0.551769022054883 
1766	 0.552744010496979 
1767	 0.553723432171798 
1768	 0.554696612556134 
1769	 0.555634988395861 
1770	 0.556474548711344 
1771	 0.557284469494087 
1772	 0.558030050170385 
1773	 0.55875155716378 
1774	 0.559544324447151 
1775	 0.560297426430034 
1776	 0.561073425754018 
1777	 0.5618514258035 
1778	 0.562558478588297 
1779	 0.563312662721101 
1780	 0.564055015936945 
1781	 0.564774506794148 
1782	 0.565539610042506 
1783	 0.566297757437064 
1784	 0.567075844401961 
1785	 0.567856629051616 
1786	 0.56863605486897 
1787	 0.569428554183852 
1788	 0.570216591819522 
1789	 0.571026118363642 
1790	 0.571817100641851 
1791	 0.572606171153985 
1792	 0.573384948188915 
1793	 0.574123521668756 
1794	 0.574872795773908 
1795	 0.575619088557769 
1796	 0.576322167776803 
1797	 0.577046561700082 
1798	 0.577710832040336 
1799	 0.578342602088815 
1800	 0.578975604317123 
1801	 0.570470799560401 
1802	 0.571066650718953 
1803	 0.571643374891697 
1804	 0.572183458713931 
1805	 0.572735780646297 
1806	 0.573232721759349 
1807	 0.573708858426451 
1808	 0.574144723249109 
1809	 0.574538202932629 
1810	 0.574918940556719 
1811	 0.575253107506192 
1812	 0.575602639332453 
1813	 0.575937819923791 
1814	 0.576286236381811 
1815	 0.576611786528428 
1816	 0.576964430144608 
1817	 0.577318162972695 
1818	 0.577669791729806 
1819	 0.578022592247816 
1820	 0.578420560911144 
1821	 0.578761031785705 
1822	 0.579086736059774 
1823	 0.579386416309706 
1824	 0.579635990894106 
1825	 0.579875092427821 
1826	 0.580104864784378 
1827	 0.580321951244987 
1828	 0.580513032326073 
1829	 0.5806956299852 
1830	 0.580843912664663 
1831	 0.580960165471485 
1832	 0.581059597355832 
1833	 0.581143274705993 
1834	 0.581218836866405 
1835	 0.581264768398773 
1836	 0.581325777702393 
1837	 0.581379405081714 
1838	 0.581421173362535 
1839	 0.581466028258539 
1840	 0.58152860301112 
1841	 0.581550611099819 
1842	 0.581576330111441 
1843	 0.581560029541092 
1844	 0.581486572291949 
1845	 0.581394219170833 
1846	 0.581242683676251 
1847	 0.581062051943629 
1848	 0.580802592903718 
1849	 0.580510832617802 
1850	 0.580103436110426 
1851	 0.579612090962698 
1852	 0.579048054690023 
1853	 0.578403018046044 
1854	 0.577725647013455 
1855	 0.576971453366076 
1856	 0.576144700290694 
1857	 0.575215412794043 
1858	 0.574150846399612 
1859	 0.573031297630051 
1860	 0.571844509093614 
1861	 0.57052216221248 
1862	 0.569089780230244 
1863	 0.567626591267275 
1864	 0.565980793400672 
1865	 0.564266114630004 
1866	 0.562448272247937 
1867	 0.56039755768019 
1868	 0.558296919774634 
1869	 0.556012978053621 
1870	 0.553627983388121 
1871	 0.551135680058655 
1872	 0.548600983837293 
1873	 0.545945891458964 
1874	 0.543291808899757 
1875	 0.540594254306667 
1876	 0.537584244687072 
1877	 0.53462152484011 
1878	 0.531438216730511 
1879	 0.528023029162727 
1880	 0.524778722889379 
1881	 0.521336271380165 
1882	 0.517715743831481 
1883	 0.514055127858964 
1884	 0.510323141398175 
1885	 0.506208926985749 
1886	 0.502148715246686 
1887	 0.497905578342652 
1888	 0.493470883300708 
1889	 0.489294094938889 
1890	 0.48492649604867 
1891	 0.480541083920718 
1892	 0.476224280314498 
1893	 0.471724524932905 
1894	 0.467026675122374 
1895	 0.462452496678729 
1896	 0.457749569487031 
1897	 0.452946964928958 
1898	 0.448494668100843 
1899	 0.443885525273365 
1900	 0.439345845503087 
1901	 0.434978415803035 
1902	 0.430319496723665 
1903	 0.425833323141242 
1904	 0.421385402916904 
1905	 0.416929047276264 
1906	 0.412495097008896 
1907	 0.408431000140294 
1908	 0.404273458296356 
1909	 0.400238113886227 
1910	 0.396330742947998 
1911	 0.392188000205429 
1912	 0.388239700656895 
1913	 0.3842433388711 
1914	 0.38014445934934 
1915	 0.376241750837407 
1916	 0.372536113135422 
1917	 0.368665838852791 
1918	 0.364864586974247 
1919	 0.36112744061423 
1920	 0.35706706585436 
1921	 0.353129392504004 
1922	 0.349135887416212 
1923	 0.345035530058361 
1924	 0.341266649914628 
1925	 0.337416738994793 
1926	 0.333647704748169 
1927	 0.330013995020866 
1928	 0.326354906895029 
1929	 0.322605418032541 
1930	 0.319107408878681 
1931	 0.31569220525576 
1932	 0.312416733358631 
1933	 0.309618521526977 
1934	 0.306966102733083 
1935	 0.304557352976973 
1936	 0.302526131366304 
1937	 0.30067847703894 
1938	 0.299023531132397 
1939	 0.2977069618274 
1940	 0.296659730407731 
1941	 0.295876881382568 
1942	 0.295451025520037 
1943	 0.295235716550115 
1944	 0.295233088003679 
1945	 0.295525284413713 
1946	 0.296124553650466 
1947	 0.296939069739821 
1948	 0.298144545993377 
1949	 0.299739519414714 
1950	 0.301533582777409 
1951	 0.303630600836476 
1952	 0.305988739579889 
1953	 0.308600213231163 
1954	 0.31146321654823 
1955	 0.314710129010783 
1956	 0.317965282284299 
1957	 0.321296696242516 
1958	 0.324614943449468 
1959	 0.327546250598259 
1960	 0.330321134402675 
1961	 0.332823919894737 
1962	 0.335059840252872 
1963	 0.337036629801099 
1964	 0.338754621757193 
1965	 0.340243032525896 
1966	 0.341454015119926 
1967	 0.342494686348138 
1968	 0.343327183153979 
1969	 0.344135321466822 
1970	 0.344869188520184 
1971	 0.34559795295321 
1972	 0.346429162990116 
1973	 0.347324867974669 
1974	 0.348307369167381 
1975	 0.349405607205254 
1976	 0.35054239969106 
1977	 0.351728121332815 
1978	 0.35299646488384 
1979	 0.35431837006638 
1980	 0.355723901044494 
1981	 0.3572846829112 
1982	 0.358855654078212 
1983	 0.360598131282253 
1984	 0.362467187018507 
1985	 0.364317548628844 
1986	 0.366381611323799 
1987	 0.368625623183172 
1988	 0.370881629341657 
1989	 0.373570305185767 
1990	 0.376566436409674 
1991	 0.379756609927374 
1992	 0.383251253051971 
1993	 0.387049861764163 
1994	 0.390741690410572 
1995	 0.394753398968926 
1996	 0.398822863241089 
1997	 0.402904284912103 
1998	 0.407156042015851 
1999	 0.411666377520696 
2000	 0.415934319871885 
2001	 0.420415306701496 
2002	 0.42446554382557 
2003	 0.428285807099043 
2004	 0.431998201265824 
2005	 0.435417696035127 
2006	 0.438793079152137 
2007	 0.442170819983464 
2008	 0.445246525900039 
2009	 0.44815568531241 
2010	 0.450972180780768 
2011	 0.453398330462069 
2012	 0.455720090904195 
2013	 0.457906252321748 
2014	 0.459870364776957 
2015	 0.461787657438261 
2016	 0.463628604854077 
2017	 0.465299881443415 
2018	 0.466870634048027 
2019	 0.468281278923064 
2020	 0.46949038869877 
2021	 0.470636158147749 
2022	 0.471668491902207 
2023	 0.472546503365646 
2024	 0.47339110395012 
2025	 0.474115850721335 
2026	 0.474755777641432 
2027	 0.475293819849336 
2028	 0.475770773120626 
2029	 0.476126989192466 
2030	 0.476470954890442 
2031	 0.476716794601937 
2032	 0.476992427468716 
2033	 0.477223903874295 
2034	 0.477476753988493 
2035	 0.477728163840901 
2036	 0.478008764359742 
2037	 0.478257319537819 
2038	 0.478529496553353 
2039	 0.478828547032929 
2040	 0.479134811901878 
2041	 0.479472334335197 
2042	 0.479831494018274 
2043	 0.480232113397219 
2044	 0.480675157387655 
2045	 0.481120724403129 
2046	 0.481617895967941 
2047	 0.482097893761536 
2048	 0.482564496847009 
2049	 0.48305010988163 
2050	 0.483574496111376 
2051	 0.484052520171378 
2052	 0.484542475946775 
2053	 0.485034124361806 
2054	 0.48548328108639 
2055	 0.485895296627746 
2056	 0.486321206216939 
2057	 0.48671566072358 
2058	 0.487139017697311 
2059	 0.48757834350869 
2060	 0.48800535172634 
2061	 0.488434490822586 
2062	 0.48886667213017 
2063	 0.489292151579928 
2064	 0.489726357740267 
2065	 0.490163068971842 
2066	 0.490605779971939 
2067	 0.491083925210372 
2068	 0.491551823578991 
2069	 0.492022332056354 
2070	 0.492527530443173 
2071	 0.492982327824604 
2072	 0.493417443426571 
2073	 0.493835609409058 
2074	 0.494224668316769 
2075	 0.494616451652404 
2076	 0.495025368324814 
2077	 0.495363976136901 
2078	 0.49569465147107 
2079	 0.495960116134097 
2080	 0.496150827200975 
2081	 0.496314094181608 
2082	 0.496435977287116 
2083	 0.496528565197168 
2084	 0.496571391397694 
2085	 0.496549627503381 
2086	 0.496512169063791 
2087	 0.496431646475489 
2088	 0.496324263256804 
2089	 0.496182864660147 
2090	 0.496027980294432 
2091	 0.4958547022691 
2092	 0.495627572971588 
2093	 0.495370982091607 
2094	 0.49508226921705 
2095	 0.494720659675786 
2096	 0.494369884090967 
2097	 0.494022291793162 
2098	 0.493626479521699 
2099	 0.493229200460795 
2100	 0.492841321938799 
2101	 0.49239762740876 
2102	 0.491915535796161 
2103	 0.491447153200727 
2104	 0.490938409561785 
2105	 0.490457117203403 
2106	 0.490014293254796 
2107	 0.489514852832465 
2108	 0.489004517228882 
2109	 0.488455173624653 
2110	 0.487852225922184 
2111	 0.48726469945735 
2112	 0.48663743926352 
2113	 0.486041680420719 
2114	 0.485471177456418 
2115	 0.484884435215315 
2116	 0.484303987702468 
2117	 0.483728152133151 
2118	 0.483120187350864 
2119	 0.482497365180088 
2120	 0.481853702077105 
2121	 0.481176491254109 
2122	 0.480518083570688 
2123	 0.479840266433703 
2124	 0.479180959952961 
2125	 0.478551062329756 
2126	 0.477889752640291 
2127	 0.47723175856727 
2128	 0.476546839556286 
2129	 0.475828706910034 
2130	 0.475111527885484 
2131	 0.474377090220066 
2132	 0.473643822873884 
2133	 0.47291236956549 
2134	 0.472180561236891 
2135	 0.471410331504004 
2136	 0.47062291557925 
2137	 0.469782075723938 
2138	 0.46887694860764 
2139	 0.467992129098529 
2140	 0.467078597203042 
2141	 0.466171172319517 
2142	 0.465290155383529 
2143	 0.464342717540038 
2144	 0.463353723220139 
2145	 0.462367480030602 
2146	 0.461312954033296 
2147	 0.460317980800678 
2148	 0.459390368143934 
2149	 0.458384989291204 
2150	 0.457386756740947 
2151	 0.456339488222587 
2152	 0.455205568760367 
2153	 0.454090893245293 
2154	 0.452965629494591 
2155	 0.451817844736522 
2156	 0.450700892204493 
2157	 0.449589702028741 
2158	 0.448473202831268 
2159	 0.447385558617331 
2160	 0.446253912905404 
2161	 0.445084293593776 
2162	 0.443957307586278 
2163	 0.442774654816596 
2164	 0.441709805014156 
2165	 0.44072719795838 
2166	 0.439741166874515 
2167	 0.438819873457679 
2168	 0.437900490964946 
2169	 0.436940189356957 
2170	 0.43608186750319 
2171	 0.43525548280948 
2172	 0.434521473785696 
2173	 0.433885414982381 
2174	 0.433295905507117 
2175	 0.432765056622473 
2176	 0.432315393915997 
2177	 0.431888601763305 
2178	 0.431517915543312 
2179	 0.431167035823526 
2180	 0.430855134503606 
2181	 0.430571386809737 
2182	 0.430335678757267 
2183	 0.430087346741446 
2184	 0.429878267434336 
2185	 0.429640462260295 
2186	 0.429414333845841 
2187	 0.429141309440085 
2188	 0.428830513826002 
2189	 0.428533127595063 
2190	 0.428196630932897 
2191	 0.42788380671174 
2192	 0.427632864247626 
2193	 0.42731119246209 
2194	 0.426968069719321 
2195	 0.426590444767132 
2196	 0.426178242869767 
2197	 0.425700772253293 
2198	 0.425227972313489 
2199	 0.424744844312268 
2200	 0.42422459621105 
2201	 0.423690095429582 
2202	 0.423090924215982 
2203	 0.422438255124351 
2204	 0.421780169132267 
2205	 0.42103698842235 
2206	 0.420383560576529 
2207	 0.419745215827354 
2208	 0.419133950457975 
2209	 0.418551604903112 
2210	 0.418011986837277 
2211	 0.417456493411941 
2212	 0.41702621229048 
2213	 0.416648982246671 
2214	 0.416386928973525 
2215	 0.41623782218727 
2216	 0.416156056642208 
2217	 0.416145964379563 
2218	 0.416259254381876 
2219	 0.416500140870803 
2220	 0.416787436369482 
2221	 0.417191139825941 
2222	 0.417653845258443 
2223	 0.418108318621114 
2224	 0.418642351333038 
2225	 0.419219966734377 
2226	 0.41975791913954 
2227	 0.420226852373703 
2228	 0.420701791799269 
2229	 0.421036117094651 
2230	 0.421291940584737 
2231	 0.421434831424153 
2232	 0.421500557727643 
2233	 0.42141677090337 
2234	 0.421218861188095 
2235	 0.420868349696291 
2236	 0.420372667905204 
2237	 0.419762069081552 
2238	 0.41898854007818 
2239	 0.418136349832583 
2240	 0.417194201726179 
2241	 0.416085483641363 
2242	 0.414871123612992 
2243	 0.413488472505203 
2244	 0.411891494537277 
2245	 0.410241911408631 
2246	 0.408380662233657 
2247	 0.406552570354344 
2248	 0.404696147456774 
2249	 0.40276425100273 
2250	 0.40078267582713 
2251	 0.398806143779516 
2252	 0.396601188046045 
2253	 0.394456490041095 
2254	 0.39233830591063 
2255	 0.390232643013466 
2256	 0.388391761829036 
2257	 0.386595101051387 
2258	 0.384839063718278 
2259	 0.383197208490468 
2260	 0.381542363100291 
2261	 0.379876041266224 
2262	 0.378339587085394 
2263	 0.376840408082581 
2264	 0.375481437287181 
2265	 0.374241554130171 
2266	 0.373064246262223 
2267	 0.372036821171574 
2268	 0.370992664342712 
2269	 0.369999215592295 
2270	 0.369048727814094 
2271	 0.368121698194178 
2272	 0.367252847238939 
2273	 0.366469483956716 
2274	 0.365676323487667 
2275	 0.364944548207483 
2276	 0.36416774612575 
2277	 0.363401873626498 
2278	 0.362606630477159 
2279	 0.36180267378509 
2280	 0.360942450547806 
2281	 0.360050667621862 
2282	 0.35910608989939 
2283	 0.35810116087929 
2284	 0.35707921008652 
2285	 0.355940203365669 
2286	 0.354827893415574 
2287	 0.353654047589361 
2288	 0.352396400087837 
2289	 0.351204262941379 
2290	 0.34991684907382 
2291	 0.348598017151599 
2292	 0.347264137319334 
2293	 0.345832447669332 
2294	 0.344437197080017 
2295	 0.34301804582177 
2296	 0.34161962204232 
2297	 0.340424917618591 
2298	 0.33930501157909 
2299	 0.338386120038811 
2300	 0.337654772788933 
2301	 0.337093992021842 
2302	 0.336635836358897 
2303	 0.336515392359796 
2304	 0.336648533138577 
2305	 0.336992064368651 
2306	 0.337641945785319 
2307	 0.338465380170781 
2308	 0.339441133910843 
2309	 0.340766584426063 
2310	 0.342470987900117 
2311	 0.344214186882114 
2312	 0.346361013215514 
2313	 0.348333263391876 
2314	 0.350372592928603 
2315	 0.352319882513788 
2316	 0.354266894487936 
2317	 0.356075914837053 
2318	 0.357892886139 
2319	 0.359415094755641 
2320	 0.360831452296689 
2321	 0.361925042750233 
2322	 0.36268148353971 
2323	 0.363291198256701 
2324	 0.363627202748436 
2325	 0.363812384066769 
2326	 0.363812870685631 
2327	 0.363629538539935 
2328	 0.363219192904514 
2329	 0.362665004687042 
2330	 0.361923866600871 
2331	 0.361002050518408 
2332	 0.35998271720193 
2333	 0.358781529872341 
2334	 0.357392956209805 
2335	 0.35595729451018 
2336	 0.354377710259571 
2337	 0.352768618149816 
2338	 0.35129588798417 
2339	 0.349843413796697 
2340	 0.348496002716887 
2341	 0.347269021497749 
2342	 0.34607727435476 
2343	 0.345088632134587 
2344	 0.344308269799661 
2345	 0.343722529418002 
2346	 0.343366290548375 
2347	 0.343275954424601 
2348	 0.343334593031902 
2349	 0.343600473462665 
2350	 0.344162651956783 
2351	 0.344770784250711 
2352	 0.345376612314565 
2353	 0.346067175489219 
2354	 0.346608715846427 
2355	 0.347010404853497 
2356	 0.347380103566582 
2357	 0.347585531502434 
2358	 0.347706501164553 
2359	 0.347701332735246 
2360	 0.347530219456827 
2361	 0.347288030218145 
2362	 0.346947970889022 
2363	 0.346499216395104 
2364	 0.346026975321031 
2365	 0.34550017651115 
2366	 0.344874548758023 
2367	 0.344252492778537 
2368	 0.343676299611923 
2369	 0.343068547334385 
2370	 0.342439158606563 
2371	 0.34181328692908 
2372	 0.341144303704727 
2373	 0.340465445657112 
2374	 0.339760115700327 
2375	 0.339055003792916 
2376	 0.338280631399849 
2377	 0.337362316961674 
2378	 0.336459942013467 
2379	 0.33551925306378 
2380	 0.334553588703784 
2381	 0.333629864286298 
2382	 0.332670361795099 
2383	 0.331703919961583 
2384	 0.330716376111954 
2385	 0.329725727424967 
2386	 0.328651322331338 
2387	 0.327511106103556 
2388	 0.326375259317375 
2389	 0.325194782447185 
2390	 0.32398727569543 
2391	 0.322820662205101 
2392	 0.321539875231062 
2393	 0.320119190087402 
2394	 0.318735374380245 
2395	 0.317320224907892 
2396	 0.315868927834313 
2397	 0.314461364629671 
2398	 0.312919716492614 
2399	 0.311278599028201 
2400	 0.309631205723534 
2401	 0.307845451119564 
2402	 0.306139666710257 
2403	 0.30444150858688 
2404	 0.302671909802843 
2405	 0.30088283311714 
2406	 0.299044499570752 
2407	 0.297245722886368 
2408	 0.295495633351246 
2409	 0.293744222072345 
2410	 0.292172074067148 
2411	 0.290771523335266 
2412	 0.289637015232187 
2413	 0.288845952333335 
2414	 0.288221726413128 
2415	 0.287837137383184 
2416	 0.287551307664795 
2417	 0.287537178472726 
2418	 0.287752942162224 
2419	 0.287931205700419 
2420	 0.288147854786796 
2421	 0.288368903677733 
2422	 0.288549024705795 
2423	 0.288734783331066 
2424	 0.289012831370446 
2425	 0.289121779998625 
2426	 0.289032880238546 
2427	 0.289001389395403 
2428	 0.288901017073054 
2429	 0.288687759472548 
2430	 0.288484114699723 
2431	 0.288193584630943 
2432	 0.287871407345843 
2433	 0.287515248232143 
2434	 0.287104129993233 
2435	 0.286768448698672 
2436	 0.286409928545244 
2437	 0.286093180789385 
2438	 0.285814641770692 
2439	 0.285431509587045 
2440	 0.284991561955477 
2441	 0.284547647238728 
2442	 0.284137390491514 
2443	 0.283786995593232 
2444	 0.283446827927064 
2445	 0.282966315070892 
2446	 0.282477766698189 
2447	 0.282100819861473 
2448	 0.28167325662126 
2449	 0.28121484700895 
2450	 0.280688536589083 
2451	 0.280044410471157 
2452	 0.279406207494023 
2453	 0.278769451440267 
2454	 0.278070780021192 
2455	 0.277306223707673 
2456	 0.276398921948326 
2457	 0.275427754361985 
2458	 0.274695782756868 
2459	 0.274012482866758 
2460	 0.273271796490589 
2461	 0.27261485624929 
2462	 0.271902873434746 
2463	 0.271206262962156 
2464	 0.270701477771544 
2465	 0.270400308571743 
2466	 0.269935936225252 
2467	 0.269337073434328 
2468	 0.268785506925592 
2469	 0.268124768302055 
2470	 0.267530783258886 
2471	 0.267078010978019 
2472	 0.266698553473154 
2473	 0.266267049011046 
2474	 0.265973139849491 
2475	 0.265918435154178 
2476	 0.265704474215988 
2477	 0.265482692939339 
2478	 0.265381782181299 
2479	 0.265210915305238 
2480	 0.265269680934855 
2481	 0.265263360055382 
2482	 0.265186765623392 
2483	 0.265244047888751 
2484	 0.265240550478979 
2485	 0.265326706601446 
2486	 0.265643768985959 
2487	 0.265631160401847 
2488	 0.265575232698289 
2489	 0.265662938029816 
2490	 0.265439572371138 
2491	 0.265387172436584 
2492	 0.265444148796495 
2493	 0.265480371561422 
2494	 0.265689187520557 
2495	 0.265967990100934 
2496	 0.266409264729433 
2497	 0.26669518410472 
2498	 0.26681210923747 
2499	 0.267159465764573 
2500	 0.267321656786635 
