Wavelength	spectrum00000.asd
350	 0.154104518276689 
351	 0.151399613550441 
352	 0.14777481640334 
353	 0.145992176297177 
354	 0.148110118101404 
355	 0.148209008362614 
356	 0.147129014421645 
357	 0.14660366116815 
358	 0.145960948412092 
359	 0.145297153329578 
360	 0.145488150236913 
361	 0.14725891093637 
362	 0.147028363757914 
363	 0.147169265509872 
364	 0.148495073284036 
365	 0.149031773178687 
366	 0.150787852156446 
367	 0.152913735903721 
368	 0.154500364977753 
369	 0.156654883373117 
370	 0.158944022563281 
371	 0.160884911153137 
372	 0.16216240482154 
373	 0.164149999705075 
374	 0.166111395581869 
375	 0.167802358457598 
376	 0.16999176691147 
377	 0.172509103700711 
378	 0.174346773978734 
379	 0.175115179920099 
380	 0.176993731542733 
381	 0.180516148611426 
382	 0.183813195404455 
383	 0.184289940142259 
384	 0.186826719542997 
385	 0.190260532034249 
386	 0.193140681898916 
387	 0.19469210443019 
388	 0.196073955854622 
389	 0.198391209534494 
390	 0.201883534637213 
391	 0.203908583333774 
392	 0.206597580984442 
393	 0.209704531652594 
394	 0.211609198444286 
395	 0.21448341873177 
396	 0.217160614301397 
397	 0.219255657938295 
398	 0.222437753127961 
399	 0.224996570819931 
400	 0.227099878363363 
401	 0.229399030985243 
402	 0.232017055016783 
403	 0.235123032864995 
404	 0.238072708514097 
405	 0.239867210796974 
406	 0.242950339645328 
407	 0.24589794463577 
408	 0.248021328968267 
409	 0.251167764949401 
410	 0.254225248534289 
411	 0.256974153884189 
412	 0.25955522425245 
413	 0.262489091765422 
414	 0.26504727350838 
415	 0.267359214939619 
416	 0.27031822079577 
417	 0.273388682712292 
418	 0.276431217801523 
419	 0.27933643420061 
420	 0.281860751304954 
421	 0.28457166880013 
422	 0.287428754753821 
423	 0.290198430122301 
424	 0.293212168403646 
425	 0.296111588815419 
426	 0.298833469060733 
427	 0.301699915533547 
428	 0.304444642559513 
429	 0.307275150823801 
430	 0.310325862628304 
431	 0.313226767657295 
432	 0.316114633897634 
433	 0.318995083993507 
434	 0.321817718177316 
435	 0.324670838812393 
436	 0.327537191994647 
437	 0.330393106620206 
438	 0.33320448972181 
439	 0.336206916253239 
440	 0.339176234169894 
441	 0.341898711776244 
442	 0.344784494509756 
443	 0.347847967459694 
444	 0.350890149699476 
445	 0.353606729066384 
446	 0.356523306902914 
447	 0.35943299272759 
448	 0.362200729232216 
449	 0.365121055695511 
450	 0.367938046183901 
451	 0.370766169134888 
452	 0.373808861053909 
453	 0.376921011081581 
454	 0.379791979718134 
455	 0.382462931887616 
456	 0.385376980578657 
457	 0.388149164749926 
458	 0.390958822815394 
459	 0.393930766531249 
460	 0.39662970087087 
461	 0.399380133550539 
462	 0.402167901110665 
463	 0.404827317221601 
464	 0.4076199741683 
465	 0.41037014017798 
466	 0.413019549183312 
467	 0.4157743458837 
468	 0.418427956107156 
469	 0.420933354651346 
470	 0.423373860255801 
471	 0.426122378104343 
472	 0.428816501955826 
473	 0.431344819673511 
474	 0.433817461151549 
475	 0.436201112246593 
476	 0.438678620161794 
477	 0.44126931532863 
478	 0.443537986713817 
479	 0.446012337637088 
480	 0.448556257001261 
481	 0.450855117784866 
482	 0.453236405186124 
483	 0.455635059694773 
484	 0.457985764970275 
485	 0.460251891786426 
486	 0.462590054834867 
487	 0.464908582695863 
488	 0.467120835575594 
489	 0.469324738069154 
490	 0.471666163277008 
491	 0.474023325606493 
492	 0.476149484946436 
493	 0.478243102180978 
494	 0.480396638238635 
495	 0.482607930202669 
496	 0.484742580401767 
497	 0.48681315154408 
498	 0.488867816878595 
499	 0.490953489584011 
500	 0.493067009271982 
501	 0.49507033373604 
502	 0.497052535808639 
503	 0.499277927785513 
504	 0.501268390915559 
505	 0.503182060946417 
506	 0.505165353407649 
507	 0.50703118380242 
508	 0.508943479583619 
509	 0.510848851663703 
510	 0.512634633536541 
511	 0.514517165066312 
512	 0.516390125853574 
513	 0.518225788369137 
514	 0.520142607847515 
515	 0.521920050193987 
516	 0.523645624035536 
517	 0.525428058946364 
518	 0.527134778577665 
519	 0.52890609751792 
520	 0.530690177701493 
521	 0.53231947029405 
522	 0.533994497232147 
523	 0.535718995889414 
524	 0.53745592866762 
525	 0.53916468525663 
526	 0.540757070568525 
527	 0.542349450773069 
528	 0.544070453260083 
529	 0.545661124545711 
530	 0.54722423247087 
531	 0.548802840287589 
532	 0.550352013995608 
533	 0.551914479751881 
534	 0.553435088720727 
535	 0.554907759826564 
536	 0.556545184475865 
537	 0.558118994529125 
538	 0.55962027287915 
539	 0.561152329610887 
540	 0.562593295303993 
541	 0.564048322047989 
542	 0.565558624171056 
543	 0.567023704465866 
544	 0.568442037043425 
545	 0.569823833543002 
546	 0.571194160219921 
547	 0.572620395812048 
548	 0.573974199776024 
549	 0.575253410933072 
550	 0.576571663448683 
551	 0.577904548722507 
552	 0.579212569386017 
553	 0.580485231270992 
554	 0.581803305263741 
555	 0.58302550042987 
556	 0.584224552939029 
557	 0.585541616035835 
558	 0.58679329082932 
559	 0.587990388117985 
560	 0.589179253580329 
561	 0.590431774519052 
562	 0.591620146521297 
563	 0.592742686601959 
564	 0.593836380883869 
565	 0.594928694847041 
566	 0.596043846429101 
567	 0.597155759061581 
568	 0.59820410645462 
569	 0.599225459049873 
570	 0.600279425698991 
571	 0.601383058382802 
572	 0.60245519206083 
573	 0.603587528505319 
574	 0.604730794544199 
575	 0.605802777037974 
576	 0.606881114555688 
577	 0.607874357199799 
578	 0.608809301382881 
579	 0.609848597043805 
580	 0.610691871129284 
581	 0.6114733243844 
582	 0.612349461755965 
583	 0.613210563618668 
584	 0.614108003566796 
585	 0.615052198967598 
586	 0.616031604347314 
587	 0.617074543054479 
588	 0.618148620500665 
589	 0.619197783887017 
590	 0.620133084640233 
591	 0.621095107030902 
592	 0.622062325319885 
593	 0.622962144897217 
594	 0.623741874820607 
595	 0.624446154422421 
596	 0.625132525422848 
597	 0.625859607867722 
598	 0.626556199809931 
599	 0.627295976760671 
600	 0.628114702818866 
601	 0.628901710572317 
602	 0.629660900181678 
603	 0.630374894756373 
604	 0.631036041934784 
605	 0.631717903762556 
606	 0.632516765341269 
607	 0.633382915265377 
608	 0.634091373514435 
609	 0.634735184197213 
610	 0.635404946386368 
611	 0.636141119037798 
612	 0.636808407309926 
613	 0.637449512624347 
614	 0.638078518922598 
615	 0.638698900013343 
616	 0.639397813378421 
617	 0.640033178670062 
618	 0.640563700323454 
619	 0.641176530887025 
620	 0.64186507113031 
621	 0.642542519755726 
622	 0.64312099103446 
623	 0.643672414102101 
624	 0.644226791972672 
625	 0.644785056663741 
626	 0.645326285747955 
627	 0.645926532196963 
628	 0.646553098182271 
629	 0.647144536957319 
630	 0.647602698125476 
631	 0.648170933326683 
632	 0.648817367689108 
633	 0.649385455208138 
634	 0.649833099824918 
635	 0.65031555549131 
636	 0.650879279616207 
637	 0.651411765131593 
638	 0.651940791157816 
639	 0.652471642688654 
640	 0.652981247693198 
641	 0.65334290735704 
642	 0.65386854227982 
643	 0.654482120983861 
644	 0.654901400802576 
645	 0.655385736897586 
646	 0.655875275789552 
647	 0.656329053571777 
648	 0.65679936791361 
649	 0.657272465623805 
650	 0.657743531473243 
651	 0.658213767609722 
652	 0.658703372739926 
653	 0.659190940229316 
654	 0.659658319267899 
655	 0.660093332406899 
656	 0.660497660019254 
657	 0.660899382041923 
658	 0.661328928135196 
659	 0.661821688009293 
660	 0.662276142070978 
661	 0.662710472590529 
662	 0.663168179493806 
663	 0.663569518968112 
664	 0.663894465198824 
665	 0.664227687091496 
666	 0.664739032100521 
667	 0.665165524661249 
668	 0.665510235916063 
669	 0.665857365804022 
670	 0.66636788924911 
671	 0.66679377985021 
672	 0.667100190754687 
673	 0.667376392923546 
674	 0.667781529374106 
675	 0.668234414971672 
676	 0.668668382634804 
677	 0.669063718453804 
678	 0.669314068233268 
679	 0.669619030742409 
680	 0.670103941704604 
681	 0.670452518270654 
682	 0.670778295772058 
683	 0.671143029013129 
684	 0.671554351706147 
685	 0.671803395198973 
686	 0.67209129748599 
687	 0.672501845715671 
688	 0.672897037576864 
689	 0.67323076080548 
690	 0.673497620188066 
691	 0.673752926239676 
692	 0.674212833853465 
693	 0.674528615037597 
694	 0.674741139083776 
695	 0.675108677223855 
696	 0.675367947889989 
697	 0.675677362316396 
698	 0.676079432735794 
699	 0.676358285862112 
700	 0.676698954909127 
701	 0.677015463595521 
702	 0.677220665812926 
703	 0.677506229354603 
704	 0.677875483164565 
705	 0.678250297135902 
706	 0.678512855273119 
707	 0.678721577474957 
708	 0.678995479076192 
709	 0.679370493229473 
710	 0.67974111587464 
711	 0.679991496322791 
712	 0.68025611505238 
713	 0.680644312727933 
714	 0.680826061335008 
715	 0.681049648971004 
716	 0.681343734542762 
717	 0.681572781489841 
718	 0.681732880866512 
719	 0.68201128614604 
720	 0.682454330712919 
721	 0.682835586486445 
722	 0.683135092458693 
723	 0.683379788690453 
724	 0.683600509552145 
725	 0.683725401902582 
726	 0.683966214303083 
727	 0.684321320673136 
728	 0.684633617859437 
729	 0.684906949112581 
730	 0.685051947041622 
731	 0.685133580130012 
732	 0.685479725311199 
733	 0.685821350926955 
734	 0.686107188712767 
735	 0.686328777386027 
736	 0.686360437131589 
737	 0.686546083654819 
738	 0.686915000076596 
739	 0.687264277858536 
740	 0.687426399731189 
741	 0.687608186886825 
742	 0.687902370282974 
743	 0.68815949699886 
744	 0.688409816204997 
745	 0.688621099557428 
746	 0.688774768108822 
747	 0.688934363640034 
748	 0.68908981914801 
749	 0.689312413845475 
750	 0.689670261280173 
751	 0.689845242659499 
752	 0.689997414502309 
753	 0.690204159891415 
754	 0.690371041900868 
755	 0.690648649930618 
756	 0.690954128909007 
757	 0.691176737101112 
758	 0.691276636200664 
759	 0.691439382788431 
760	 0.69166225857372 
761	 0.691861024420183 
762	 0.692082185437915 
763	 0.692340845775064 
764	 0.692592557998873 
765	 0.692740700794062 
766	 0.692840037219767 
767	 0.693045345376402 
768	 0.693386485571428 
769	 0.693571843579091 
770	 0.693722954137863 
771	 0.693898187445665 
772	 0.694109850905575 
773	 0.694231999703361 
774	 0.694390917277951 
775	 0.694598154350158 
776	 0.694766361605179 
777	 0.694906323863478 
778	 0.695080467465308 
779	 0.695317624717306 
780	 0.695580658802907 
781	 0.695751747646592 
782	 0.695900777562844 
783	 0.696108899890749 
784	 0.696281518501745 
785	 0.69645877860441 
786	 0.696658160937666 
787	 0.696869602193705 
788	 0.696991939134313 
789	 0.697112648750737 
790	 0.697282028421371 
791	 0.697479574637558 
792	 0.697577487486844 
793	 0.697672018648529 
794	 0.6978542452755 
795	 0.69809179638302 
796	 0.69829053020315 
797	 0.698435163782895 
798	 0.698560558010098 
799	 0.698747167179235 
800	 0.699013687127916 
801	 0.699255178259846 
802	 0.699302009615328 
803	 0.699292634067913 
804	 0.699360967305307 
805	 0.699554904536646 
806	 0.699797891255692 
807	 0.699901402227704 
808	 0.699978698879897 
809	 0.700160993752372 
810	 0.700393407099732 
811	 0.700512796200824 
812	 0.700601456937748 
813	 0.700809352339443 
814	 0.700956106992608 
815	 0.701099624628962 
816	 0.701242605632872 
817	 0.701329099231393 
818	 0.701337808427052 
819	 0.701408788714342 
820	 0.701592599858071 
821	 0.701757570891452 
822	 0.701890021230047 
823	 0.702021253732359 
824	 0.702175338737553 
825	 0.702297000947771 
826	 0.702472526096723 
827	 0.702632455494697 
828	 0.702696161856744 
829	 0.702964893292092 
830	 0.703153142795514 
831	 0.703201076269021 
832	 0.703274074404123 
833	 0.703360613684484 
834	 0.703415227589678 
835	 0.703439791122511 
836	 0.703516773957684 
837	 0.703688762655729 
838	 0.703871548573763 
839	 0.703972005823596 
840	 0.703957915803515 
841	 0.7040100849822 
842	 0.70417980905756 
843	 0.704421425390732 
844	 0.704558745434938 
845	 0.704626920378068 
846	 0.70468556642766 
847	 0.704785591794901 
848	 0.704792631274504 
849	 0.70485637388617 
850	 0.705006147591457 
851	 0.705088278691776 
852	 0.70523392615136 
853	 0.705370196158055 
854	 0.705447905766038 
855	 0.705552485005092 
856	 0.705695549845895 
857	 0.705809328071002 
858	 0.70583622499244 
859	 0.705841272406643 
860	 0.705951449171473 
861	 0.706125573338884 
862	 0.706244562253874 
863	 0.706333410411636 
864	 0.706378235299649 
865	 0.706414280858102 
866	 0.706510692313824 
867	 0.706636633231213 
868	 0.706719638929192 
869	 0.706765814257971 
870	 0.70688921022317 
871	 0.706969058622249 
872	 0.707001260243957 
873	 0.707043553003758 
874	 0.70723298512006 
875	 0.707373462569734 
876	 0.707416130238033 
877	 0.707421761419888 
878	 0.70763577157715 
879	 0.707866985919219 
880	 0.707973665222904 
881	 0.707914685922216 
882	 0.707978815028035 
883	 0.708122003046703 
884	 0.708234801177379 
885	 0.708213248335504 
886	 0.708302420964788 
887	 0.708329643908351 
888	 0.708335225938209 
889	 0.708611139911416 
890	 0.708600555426344 
891	 0.708505187106902 
892	 0.708542953137863 
893	 0.708708413986365 
894	 0.708802439158412 
895	 0.708783950638212 
896	 0.708712519403272 
897	 0.708760463170447 
898	 0.708970371932252 
899	 0.709173146291221 
900	 0.709203104730169 
901	 0.709218090895588 
902	 0.709220376607942 
903	 0.709216990095677 
904	 0.709220849757256 
905	 0.709275892468763 
906	 0.709318842414668 
907	 0.709361423201268 
908	 0.709446899533846 
909	 0.709382931520388 
910	 0.70937709890701 
911	 0.709498693723388 
912	 0.709628750928936 
913	 0.709671419467104 
914	 0.709606408848765 
915	 0.709536420110537 
916	 0.709683998463922 
917	 0.70981634280595 
918	 0.709980437111567 
919	 0.710167933976384 
920	 0.710172348847308 
921	 0.710156740405241 
922	 0.710217920615754 
923	 0.710351716346654 
924	 0.710349740981021 
925	 0.710424153020315 
926	 0.710537839518124 
927	 0.710610669736742 
928	 0.71070600126998 
929	 0.710828410769967 
930	 0.710977589670183 
931	 0.711129930610355 
932	 0.711181434320298 
933	 0.711287430082583 
934	 0.711418313219525 
935	 0.71147390740651 
936	 0.711589418140053 
937	 0.711685002819645 
938	 0.711792632070555 
939	 0.711999138619895 
940	 0.712178538257417 
941	 0.712264904909411 
942	 0.712291960714627 
943	 0.712355951438299 
944	 0.71233874407466 
945	 0.71241547949694 
946	 0.712568958144589 
947	 0.71257095387221 
948	 0.712522973127036 
949	 0.712588734869166 
950	 0.71272051109985 
951	 0.712629536973964 
952	 0.712594914658685 
953	 0.712682817515748 
954	 0.712799735951952 
955	 0.712701048906724 
956	 0.712597659489934 
957	 0.712519525782318 
958	 0.712490232067964 
959	 0.712578752200032 
960	 0.712548843328492 
961	 0.712422523500387 
962	 0.712290954314413 
963	 0.712238408430364 
964	 0.712156750264313 
965	 0.712002716746904 
966	 0.711824199042415 
967	 0.711815121868262 
968	 0.711906464904716 
969	 0.711949746181185 
970	 0.711854447447116 
971	 0.711735362872003 
972	 0.711556697394508 
973	 0.71152464394913 
974	 0.711703487831102 
975	 0.711584400067453 
976	 0.711557984471037 
977	 0.71159106310916 
978	 0.71154593254474 
979	 0.711387462298703 
980	 0.711387354093166 
981	 0.711414636846167 
982	 0.711319413162398 
983	 0.711373176078684 
984	 0.711391238794142 
985	 0.711358907811335 
986	 0.711322138982929 
987	 0.711302197983702 
988	 0.711388257423573 
989	 0.711468173054317 
990	 0.711445059546725 
991	 0.711535941114968 
992	 0.711576113392839 
993	 0.711673453690229 
994	 0.711882309593326 
995	 0.71173284924735 
996	 0.711768818389528 
997	 0.711957888618741 
998	 0.712120040358141 
999	 0.712354065958732 
1000	 0.712687571721792 
1001	 0.715495992038209 
1002	 0.715722973400186 
1003	 0.716008162248223 
1004	 0.716271711771702 
1005	 0.716573794491614 
1006	 0.716801082915672 
1007	 0.716988240818712 
1008	 0.717201616245348 
1009	 0.717387981025099 
1010	 0.717576704296293 
1011	 0.717793132161543 
1012	 0.717988785398061 
1013	 0.718124247015157 
1014	 0.71831740093864 
1015	 0.718532188345804 
1016	 0.718773491470301 
1017	 0.719015156022032 
1018	 0.719261235202063 
1019	 0.719531125620939 
1020	 0.71975807760896 
1021	 0.719965306216814 
1022	 0.72016275504832 
1023	 0.720362910600839 
1024	 0.720502746845219 
1025	 0.720707134815275 
1026	 0.720988517953084 
1027	 0.721199639223983 
1028	 0.7213944919669 
1029	 0.721603778874282 
1030	 0.721743365913877 
1031	 0.721832631365732 
1032	 0.721952924170254 
1033	 0.722095307603415 
1034	 0.722239716513196 
1035	 0.722378751259354 
1036	 0.722534077192544 
1037	 0.72269093583448 
1038	 0.722847144837883 
1039	 0.723036385641294 
1040	 0.723201554188501 
1041	 0.723364989766776 
1042	 0.723491808907729 
1043	 0.723593161899846 
1044	 0.723683383339877 
1045	 0.723773904433062 
1046	 0.723864855130267 
1047	 0.72398203804551 
1048	 0.724165696008676 
1049	 0.724349958034707 
1050	 0.724499974629884 
1051	 0.724664528861297 
1052	 0.724808727756522 
1053	 0.724928967718278 
1054	 0.72500105369773 
1055	 0.725124244993934 
1056	 0.725254272601703 
1057	 0.725368268520607 
1058	 0.725479037636524 
1059	 0.725630509472796 
1060	 0.725758336915129 
1061	 0.725880725441115 
1062	 0.726015183678187 
1063	 0.726139386364774 
1064	 0.726272723976284 
1065	 0.726416271903744 
1066	 0.726534983986736 
1067	 0.726655983785904 
1068	 0.726799375102671 
1069	 0.726932269607901 
1070	 0.727061407290416 
1071	 0.727202116365952 
1072	 0.727347608240532 
1073	 0.727467478695788 
1074	 0.727602884431338 
1075	 0.727776745109095 
1076	 0.727953201693631 
1077	 0.728126617794181 
1078	 0.728281682914528 
1079	 0.728403535642465 
1080	 0.728531249655697 
1081	 0.728683128595862 
1082	 0.728827937697454 
1083	 0.728979976446997 
1084	 0.729127454325871 
1085	 0.72923770565494 
1086	 0.729339632713374 
1087	 0.729425529506831 
1088	 0.729499450467997 
1089	 0.729598064219235 
1090	 0.729716242979602 
1091	 0.729801750695398 
1092	 0.72990555076183 
1093	 0.729991816125842 
1094	 0.730052077109887 
1095	 0.730152598585205 
1096	 0.730225414481333 
1097	 0.730258799783793 
1098	 0.730309914048663 
1099	 0.730370978224208 
1100	 0.730440317141412 
1101	 0.730527927114593 
1102	 0.730592362847779 
1103	 0.730628750938701 
1104	 0.73062524060035 
1105	 0.730627010355857 
1106	 0.730635813810102 
1107	 0.730634056432108 
1108	 0.730628533299795 
1109	 0.730625628274444 
1110	 0.730642888616431 
1111	 0.730667959438899 
1112	 0.730700646657513 
1113	 0.730735578233948 
1114	 0.730736351883064 
1115	 0.730735910072887 
1116	 0.730743535490962 
1117	 0.730741354187157 
1118	 0.730718165827901 
1119	 0.730672725340273 
1120	 0.730633531756402 
1121	 0.730580110490652 
1122	 0.730530243039595 
1123	 0.730494238237223 
1124	 0.730461112240706 
1125	 0.730406780293213 
1126	 0.730333742413183 
1127	 0.730247211250511 
1128	 0.730107521215133 
1129	 0.729953741870241 
1130	 0.729786151845953 
1131	 0.729574097837958 
1132	 0.729386843461209 
1133	 0.729203318785459 
1134	 0.729014784263409 
1135	 0.728803881447089 
1136	 0.728593952223693 
1137	 0.728345612356858 
1138	 0.728079733846388 
1139	 0.727774435666449 
1140	 0.72743127564556 
1141	 0.727089762014849 
1142	 0.726722690212341 
1143	 0.72631826171626 
1144	 0.725905338632617 
1145	 0.7254848846184 
1146	 0.725048324981879 
1147	 0.724563210040302 
1148	 0.724034182084378 
1149	 0.723486020568917 
1150	 0.722877617523735 
1151	 0.722241611287625 
1152	 0.72156517031295 
1153	 0.720850912159785 
1154	 0.720103443028675 
1155	 0.719299601868363 
1156	 0.718488767361372 
1157	 0.717661935732005 
1158	 0.716823191626132 
1159	 0.715946250404649 
1160	 0.715100658753396 
1161	 0.714239257415219 
1162	 0.713309660289879 
1163	 0.712438454236474 
1164	 0.711552397585133 
1165	 0.710649837051547 
1166	 0.709848027984641 
1167	 0.709074415180016 
1168	 0.708356865074211 
1169	 0.707712758765796 
1170	 0.707153395240185 
1171	 0.706627026149346 
1172	 0.706169507803798 
1173	 0.705719497397908 
1174	 0.705319902469482 
1175	 0.704938396012558 
1176	 0.70458497904252 
1177	 0.704238175603345 
1178	 0.703920801249138 
1179	 0.703595910631779 
1180	 0.703294246529094 
1181	 0.703010164541896 
1182	 0.702775293483052 
1183	 0.702607648140241 
1184	 0.702444873124672 
1185	 0.702317985291143 
1186	 0.702191276596608 
1187	 0.702082929808782 
1188	 0.701962645567356 
1189	 0.701845518868666 
1190	 0.701733042846936 
1191	 0.701612144490584 
1192	 0.701518734464881 
1193	 0.701462875323984 
1194	 0.701375865472858 
1195	 0.701287940929072 
1196	 0.701193455125418 
1197	 0.70107949011744 
1198	 0.700957860608135 
1199	 0.700865813492049 
1200	 0.700785448303505 
1201	 0.700723767956045 
1202	 0.700706554323192 
1203	 0.700723772349474 
1204	 0.700785868926673 
1205	 0.700916733122421 
1206	 0.701086348430233 
1207	 0.701355831735147 
1208	 0.70170376060115 
1209	 0.702110884459428 
1210	 0.702602720178049 
1211	 0.703140604859993 
1212	 0.70374753819148 
1213	 0.704395091940714 
1214	 0.705113106256111 
1215	 0.705853208168075 
1216	 0.706666472260401 
1217	 0.70744620043821 
1218	 0.708252034706867 
1219	 0.709044427206016 
1220	 0.709805416884358 
1221	 0.710572750585538 
1222	 0.71126867470924 
1223	 0.711961153340252 
1224	 0.712618673427973 
1225	 0.713225007201174 
1226	 0.713825242273256 
1227	 0.714415623708303 
1228	 0.714974505129562 
1229	 0.715497379463456 
1230	 0.716022891469792 
1231	 0.716515752394304 
1232	 0.717037420514611 
1233	 0.717571457029 
1234	 0.718083582105903 
1235	 0.718611636353238 
1236	 0.719109111507429 
1237	 0.719563758972908 
1238	 0.720037847334559 
1239	 0.720497357935465 
1240	 0.720977359800777 
1241	 0.72148542104239 
1242	 0.721949930963073 
1243	 0.722413815577555 
1244	 0.722877786142665 
1245	 0.723314575066509 
1246	 0.723746494037722 
1247	 0.724130730240922 
1248	 0.724484709903403 
1249	 0.724821466002198 
1250	 0.72511909579537 
1251	 0.725404798987367 
1252	 0.725682948802234 
1253	 0.72593080265651 
1254	 0.726145315922314 
1255	 0.726349280441032 
1256	 0.726535378904119 
1257	 0.726704274703661 
1258	 0.726852958420515 
1259	 0.726988744851867 
1260	 0.727080357379116 
1261	 0.727201940811909 
1262	 0.727337045713345 
1263	 0.727460534494964 
1264	 0.727583854418527 
1265	 0.727722217370674 
1266	 0.727847148477153 
1267	 0.727948430311678 
1268	 0.728075081294339 
1269	 0.72822805177861 
1270	 0.728349022927659 
1271	 0.728465349216124 
1272	 0.728569170427374 
1273	 0.728637538390392 
1274	 0.728737762498369 
1275	 0.72884313230466 
1276	 0.728957312244898 
1277	 0.72908300008338 
1278	 0.729217842464311 
1279	 0.729379311346123 
1280	 0.729512680695704 
1281	 0.729639932683774 
1282	 0.729768296304917 
1283	 0.729883894155441 
1284	 0.729989497799591 
1285	 0.730090811131856 
1286	 0.730198693217289 
1287	 0.730291457849938 
1288	 0.730364402296698 
1289	 0.730445145297996 
1290	 0.730532036475239 
1291	 0.730603030712021 
1292	 0.730663451724616 
1293	 0.730721593600284 
1294	 0.730764512443859 
1295	 0.730823735462968 
1296	 0.730894276908073 
1297	 0.730947590250524 
1298	 0.731016349884558 
1299	 0.731050089572771 
1300	 0.731066620643566 
1301	 0.731058929360064 
1302	 0.731020341102059 
1303	 0.730979863569952 
1304	 0.730924140823157 
1305	 0.730855196024944 
1306	 0.730792038157428 
1307	 0.730695376286112 
1308	 0.730563741081006 
1309	 0.730425218019058 
1310	 0.730286394729324 
1311	 0.730138809765649 
1312	 0.72996358795238 
1313	 0.729795111099685 
1314	 0.729572325077697 
1315	 0.729306960911566 
1316	 0.729028333373776 
1317	 0.728719675066393 
1318	 0.728404019712965 
1319	 0.72807237635157 
1320	 0.727719951694343 
1321	 0.727358245626877 
1322	 0.726968870059275 
1323	 0.726562191830266 
1324	 0.726123062970687 
1325	 0.725672677022321 
1326	 0.725171433255204 
1327	 0.724620395731347 
1328	 0.724058295533081 
1329	 0.72346139244836 
1330	 0.722849894401493 
1331	 0.722233086253086 
1332	 0.721582603626576 
1333	 0.720909300139263 
1334	 0.720194265311499 
1335	 0.719490564010341 
1336	 0.718773336712911 
1337	 0.71803159061897 
1338	 0.717285888262041 
1339	 0.71651299466971 
1340	 0.715709665361972 
1341	 0.714896701397153 
1342	 0.714050543950392 
1343	 0.713240093413315 
1344	 0.712439893882781 
1345	 0.711610847058194 
1346	 0.710796049126858 
1347	 0.709958777975479 
1348	 0.709086651009292 
1349	 0.70821403839814 
1350	 0.707334813749717 
1351	 0.706456273013868 
1352	 0.70555120124531 
1353	 0.704664451509087 
1354	 0.7037932175998 
1355	 0.7029217842692 
1356	 0.702046285143103 
1357	 0.701182429928733 
1358	 0.700317282408644 
1359	 0.699468990206541 
1360	 0.698648990901712 
1361	 0.697811527914421 
1362	 0.696958656677015 
1363	 0.696174581851624 
1364	 0.695357912128233 
1365	 0.69455231661188 
1366	 0.693704139892071 
1367	 0.692847783228678 
1368	 0.691968962083393 
1369	 0.69106038089262 
1370	 0.690139633948173 
1371	 0.689201475324703 
1372	 0.688271689575127 
1373	 0.687332073162658 
1374	 0.686371168241143 
1375	 0.685411352167348 
1376	 0.684422830660838 
1377	 0.683402483815332 
1378	 0.682360846653126 
1379	 0.681307641008778 
1380	 0.680228969436821 
1381	 0.679128972793376 
1382	 0.677989218327133 
1383	 0.676812421353635 
1384	 0.675629381530374 
1385	 0.674414181343404 
1386	 0.673193447790912 
1387	 0.67196407033007 
1388	 0.670742001819908 
1389	 0.669505674962901 
1390	 0.668272327819638 
1391	 0.667088191634212 
1392	 0.665813195205767 
1393	 0.664606739051471 
1394	 0.663328583260609 
1395	 0.661976089266274 
1396	 0.660610524004379 
1397	 0.659119281323213 
1398	 0.65756145833981 
1399	 0.65583729051909 
1400	 0.654024586853909 
1401	 0.652036936587734 
1402	 0.6499065209727 
1403	 0.647599845064602 
1404	 0.645138090936605 
1405	 0.642561614838786 
1406	 0.639808101869425 
1407	 0.636963032603257 
1408	 0.633969833321981 
1409	 0.630935543756133 
1410	 0.627778633307839 
1411	 0.624583339163659 
1412	 0.621320005406664 
1413	 0.618057289328922 
1414	 0.614730234400857 
1415	 0.611390716119925 
1416	 0.607986061282399 
1417	 0.604640646201084 
1418	 0.601255006303475 
1419	 0.597942071956552 
1420	 0.594650490196836 
1421	 0.591490817980027 
1422	 0.588395248630664 
1423	 0.585382313329223 
1424	 0.582570473421918 
1425	 0.579656390234737 
1426	 0.576925515639994 
1427	 0.574135247724809 
1428	 0.571244356583506 
1429	 0.56847091200381 
1430	 0.565423277119067 
1431	 0.562301697765556 
1432	 0.558856840578324 
1433	 0.5552155988963 
1434	 0.551350428052739 
1435	 0.54719605992944 
1436	 0.542916640663237 
1437	 0.538354745455211 
1438	 0.533956320575497 
1439	 0.529253383833076 
1440	 0.525059118985928 
1441	 0.52080305093141 
1442	 0.517343883741359 
1443	 0.514068922609127 
1444	 0.511811169589025 
1445	 0.510196634197408 
1446	 0.509488810113775 
1447	 0.509660158793989 
1448	 0.510499831317155 
1449	 0.512398692947801 
1450	 0.51450143511224 
1451	 0.517429022359129 
1452	 0.520321401426384 
1453	 0.523730881391674 
1454	 0.526873989217957 
1455	 0.530194401298453 
1456	 0.533245746214316 
1457	 0.536218398781476 
1458	 0.53892463058739 
1459	 0.541429405605222 
1460	 0.543746051904886 
1461	 0.545792071112206 
1462	 0.547689994413184 
1463	 0.54939158522154 
1464	 0.550980761226261 
1465	 0.552358766199245 
1466	 0.553690864682756 
1467	 0.554897183884548 
1468	 0.556022345661372 
1469	 0.557091621654821 
1470	 0.558032548752012 
1471	 0.55893679097844 
1472	 0.559767290296926 
1473	 0.56055160631702 
1474	 0.561289028021422 
1475	 0.561918984544481 
1476	 0.562509322317365 
1477	 0.562933635337294 
1478	 0.563254587221491 
1479	 0.563404375154589 
1480	 0.563419510308757 
1481	 0.563286140728792 
1482	 0.562939932852949 
1483	 0.56260108623305 
1484	 0.56207052683763 
1485	 0.561696338626981 
1486	 0.561239376036515 
1487	 0.561039495430224 
1488	 0.560863969813942 
1489	 0.561043697292448 
1490	 0.561423652868568 
1491	 0.562097977433119 
1492	 0.56306375059491 
1493	 0.564271310290552 
1494	 0.565796544571307 
1495	 0.567443058561122 
1496	 0.56938821438303 
1497	 0.571365138965856 
1498	 0.573555552903395 
1499	 0.575685559250946 
1500	 0.577931180019546 
1501	 0.580086414561367 
1502	 0.58225613235499 
1503	 0.584291782103709 
1504	 0.586303249864943 
1505	 0.588157452129032 
1506	 0.589900348089617 
1507	 0.591500509202518 
1508	 0.592966715932029 
1509	 0.594303668860095 
1510	 0.595472508107084 
1511	 0.596551224177611 
1512	 0.597487119567354 
1513	 0.598361389114062 
1514	 0.599156706510494 
1515	 0.599850027411322 
1516	 0.600451078522411 
1517	 0.600967857942472 
1518	 0.601349513911621 
1519	 0.601695378882625 
1520	 0.601967732097601 
1521	 0.602192887676486 
1522	 0.602379914043813 
1523	 0.602532788198732 
1524	 0.602630214936507 
1525	 0.602674736964247 
1526	 0.602709170604626 
1527	 0.602686875027967 
1528	 0.602692179470277 
1529	 0.602689289892605 
1530	 0.602693282022721 
1531	 0.60268359455124 
1532	 0.602716976838259 
1533	 0.602739093899923 
1534	 0.602864533547538 
1535	 0.603020458447584 
1536	 0.603291337991869 
1537	 0.603631147934089 
1538	 0.604099312042432 
1539	 0.604657958832772 
1540	 0.605349011928575 
1541	 0.606165122012894 
1542	 0.607086449014082 
1543	 0.608137248935348 
1544	 0.60925929381547 
1545	 0.610489415915099 
1546	 0.611796560061052 
1547	 0.613222756223141 
1548	 0.614649330830739 
1549	 0.61616062128957 
1550	 0.617669602639759 
1551	 0.619213095831587 
1552	 0.620735790014751 
1553	 0.622295389660142 
1554	 0.623813121664362 
1555	 0.625320125951556 
1556	 0.626779448120409 
1557	 0.628212705864666 
1558	 0.629622995695949 
1559	 0.631005005970986 
1560	 0.632333935640306 
1561	 0.633631671497922 
1562	 0.63490125083255 
1563	 0.636115305434922 
1564	 0.637307638383514 
1565	 0.638479986563227 
1566	 0.639628913326654 
1567	 0.640732384184508 
1568	 0.641828614489729 
1569	 0.642929753345629 
1570	 0.643979458056266 
1571	 0.644995110898635 
1572	 0.645976380922306 
1573	 0.646900950281024 
1574	 0.647835242552683 
1575	 0.648753242719749 
1576	 0.64965145205256 
1577	 0.65053741987507 
1578	 0.651414626176381 
1579	 0.652270940990847 
1580	 0.653113063473689 
1581	 0.653960645200211 
1582	 0.654771195421926 
1583	 0.655536234603774 
1584	 0.656312445456998 
1585	 0.657063058207124 
1586	 0.65783245493814 
1587	 0.658605911978367 
1588	 0.659387558312607 
1589	 0.66017834096471 
1590	 0.660972572987057 
1591	 0.661775451442339 
1592	 0.662581239929319 
1593	 0.663390383199196 
1594	 0.664205510015121 
1595	 0.665051946404834 
1596	 0.665849657590657 
1597	 0.666621636224194 
1598	 0.667396201682157 
1599	 0.668140186604511 
1600	 0.668889918686039 
1601	 0.669644069415806 
1602	 0.670400381537802 
1603	 0.671154859115731 
1604	 0.671895700929017 
1605	 0.672640125638022 
1606	 0.673376536937585 
1607	 0.674115519694602 
1608	 0.674817040720841 
1609	 0.675511458558493 
1610	 0.676171401229261 
1611	 0.67677688276835 
1612	 0.677379773837952 
1613	 0.677964130541246 
1614	 0.678541324668782 
1615	 0.679118724456462 
1616	 0.679663419438929 
1617	 0.680181218927617 
1618	 0.680693573098034 
1619	 0.681188455368419 
1620	 0.681656129127802 
1621	 0.682112792346638 
1622	 0.682547187932909 
1623	 0.68293399772456 
1624	 0.683336495147409 
1625	 0.683720103789558 
1626	 0.684129237096157 
1627	 0.684559370993649 
1628	 0.684977821302233 
1629	 0.685426128672843 
1630	 0.6858345334569 
1631	 0.686214030049504 
1632	 0.686587582348722 
1633	 0.686933097268933 
1634	 0.687284639485129 
1635	 0.687634725555661 
1636	 0.68797700242162 
1637	 0.688314433481601 
1638	 0.688646754092331 
1639	 0.688970095141836 
1640	 0.68929280085857 
1641	 0.689620569259289 
1642	 0.68993190146926 
1643	 0.690252190734008 
1644	 0.690528526111341 
1645	 0.69078413096004 
1646	 0.691004703907927 
1647	 0.691184737169241 
1648	 0.691347166989367 
1649	 0.691488963970752 
1650	 0.691592891100284 
1651	 0.691674904440199 
1652	 0.691706534343857 
1653	 0.691683461396295 
1654	 0.691646747101268 
1655	 0.6915737761102 
1656	 0.691480015007456 
1657	 0.691394386080991 
1658	 0.691225967963784 
1659	 0.69102232738128 
1660	 0.690739415249711 
1661	 0.690370268602335 
1662	 0.689961454087279 
1663	 0.689481285036776 
1664	 0.688960356784438 
1665	 0.688416007455449 
1666	 0.68777816880965 
1667	 0.687077253178805 
1668	 0.686311113719144 
1669	 0.685472313459156 
1670	 0.684554581189446 
1671	 0.683572109780623 
1672	 0.682493977147481 
1673	 0.681316329533409 
1674	 0.680069968719848 
1675	 0.678743196758269 
1676	 0.677373216588009 
1677	 0.67593598716651 
1678	 0.674433249719778 
1679	 0.672840335609992 
1680	 0.671223644641177 
1681	 0.669548219814862 
1682	 0.667828717307742 
1683	 0.666072972245263 
1684	 0.664312891532331 
1685	 0.662507917876886 
1686	 0.660679892221396 
1687	 0.658816242710796 
1688	 0.656948954612298 
1689	 0.655037444737949 
1690	 0.653145532334611 
1691	 0.65130630903088 
1692	 0.649407023286882 
1693	 0.647501684141543 
1694	 0.645519270594004 
1695	 0.64348116879495 
1696	 0.641367920643501 
1697	 0.639194402965228 
1698	 0.636926313328733 
1699	 0.634573603302344 
1700	 0.63223687422257 
1701	 0.629816839427971 
1702	 0.627437638428815 
1703	 0.625032063223597 
1704	 0.622684452831611 
1705	 0.620346915625492 
1706	 0.617959849281097 
1707	 0.615761517716668 
1708	 0.613520358480129 
1709	 0.611318237034414 
1710	 0.609228605322392 
1711	 0.607023560201503 
1712	 0.60485875355479 
1713	 0.602647506447499 
1714	 0.600329454961302 
1715	 0.598135224770464 
1716	 0.595870061628093 
1717	 0.59360939601604 
1718	 0.591408638137501 
1719	 0.589084898120784 
1720	 0.586825722573944 
1721	 0.584621879145088 
1722	 0.582496998964204 
1723	 0.580604441261902 
1724	 0.578785823628917 
1725	 0.577098622811649 
1726	 0.575590591078332 
1727	 0.574168154148308 
1728	 0.572940437914435 
1729	 0.57185448325921 
1730	 0.570916609992602 
1731	 0.570117462611597 
1732	 0.569358912768648 
1733	 0.568672815313792 
1734	 0.568010657323672 
1735	 0.567298607946647 
1736	 0.566630156009167 
1737	 0.565912980578116 
1738	 0.565097612219019 
1739	 0.564263217931132 
1740	 0.56332298632343 
1741	 0.562427245940702 
1742	 0.561499286618806 
1743	 0.560638950530643 
1744	 0.559767260640418 
1745	 0.559031169152044 
1746	 0.558339125614291 
1747	 0.557832551620829 
1748	 0.557438593972205 
1749	 0.557230504751904 
1750	 0.557194495981474 
1751	 0.55731379239822 
1752	 0.557620756038854 
1753	 0.558050112850373 
1754	 0.558631822919233 
1755	 0.559341791497934 
1756	 0.560193449326565 
1757	 0.56115612576849 
1758	 0.562292375826517 
1759	 0.563435700830978 
1760	 0.564710649714962 
1761	 0.56608055420551 
1762	 0.567383788720622 
1763	 0.568786706192404 
1764	 0.570214620633755 
1765	 0.571606569482438 
1766	 0.573068600079256 
1767	 0.574430973438501 
1768	 0.575781654808063 
1769	 0.577156264232468 
1770	 0.578375159913382 
1771	 0.579571319527102 
1772	 0.58071083139517 
1773	 0.581719459851424 
1774	 0.582793916873273 
1775	 0.583886262683242 
1776	 0.584963096871625 
1777	 0.586049334712621 
1778	 0.587085168421318 
1779	 0.588136510263448 
1780	 0.589158770730947 
1781	 0.590176956199231 
1782	 0.591243506489182 
1783	 0.592259599306552 
1784	 0.593366988533195 
1785	 0.594521445914303 
1786	 0.595626798985016 
1787	 0.596763939612197 
1788	 0.597877895035041 
1789	 0.59895936306929 
1790	 0.600082805012931 
1791	 0.601250778685343 
1792	 0.602389066021793 
1793	 0.603513015511813 
1794	 0.604595590453151 
1795	 0.60562180962445 
1796	 0.606613217453848 
1797	 0.607640039854985 
1798	 0.608572414072627 
1799	 0.60950423527505 
1800	 0.610417819411272 
1801	 0.609130801632243 
1802	 0.609964519401186 
1803	 0.610786440539866 
1804	 0.611571834177228 
1805	 0.612358619195733 
1806	 0.613073627409497 
1807	 0.613747527462905 
1808	 0.614409685822576 
1809	 0.615032270715178 
1810	 0.615631176222399 
1811	 0.616209391821204 
1812	 0.616783719347092 
1813	 0.617326588865203 
1814	 0.617879104370368 
1815	 0.618393727257778 
1816	 0.618921816081444 
1817	 0.619410039741441 
1818	 0.619846130427378 
1819	 0.620284046854161 
1820	 0.620723410915089 
1821	 0.621136686886583 
1822	 0.621520079475148 
1823	 0.621918837259341 
1824	 0.622280124857964 
1825	 0.622617350872569 
1826	 0.622936922134107 
1827	 0.623240001497911 
1828	 0.623507443123727 
1829	 0.623770232588591 
1830	 0.6239734766488 
1831	 0.62413023088514 
1832	 0.624261551207993 
1833	 0.624369847011091 
1834	 0.624446898364084 
1835	 0.624512526903337 
1836	 0.624569745246061 
1837	 0.624576402901493 
1838	 0.624543034160943 
1839	 0.624491414909925 
1840	 0.624421237227238 
1841	 0.624293665185837 
1842	 0.624144126958579 
1843	 0.623947288521483 
1844	 0.62366665103511 
1845	 0.623361511828896 
1846	 0.622987035648251 
1847	 0.622553746239112 
1848	 0.622039135295406 
1849	 0.621469716798135 
1850	 0.620783648626112 
1851	 0.620028170501373 
1852	 0.619153588075175 
1853	 0.618145852554133 
1854	 0.617124715011525 
1855	 0.615952362411172 
1856	 0.61467050177866 
1857	 0.613267827112997 
1858	 0.611638384340386 
1859	 0.609928344320827 
1860	 0.608094471959871 
1861	 0.606098595344186 
1862	 0.603939476553761 
1863	 0.601777141105998 
1864	 0.599355074352989 
1865	 0.59685412691859 
1866	 0.594256845254653 
1867	 0.591296703470323 
1868	 0.588303217628649 
1869	 0.585067453171297 
1870	 0.581660216681901 
1871	 0.578105020704139 
1872	 0.574468222869226 
1873	 0.570651074211827 
1874	 0.566793413311829 
1875	 0.562845276150611 
1876	 0.558441216164569 
1877	 0.554069503350048 
1878	 0.549436430856841 
1879	 0.544520678031729 
1880	 0.539849722432574 
1881	 0.534959003236332 
1882	 0.529870290946878 
1883	 0.524737934350921 
1884	 0.519532146123604 
1885	 0.51382848105447 
1886	 0.508193590122169 
1887	 0.502322542137125 
1888	 0.496223674453682 
1889	 0.49052204570234 
1890	 0.484589927834833 
1891	 0.478651096507849 
1892	 0.472843380872272 
1893	 0.466794773326415 
1894	 0.460483362093262 
1895	 0.454366527985436 
1896	 0.448129103366942 
1897	 0.441775946686484 
1898	 0.435892970980165 
1899	 0.429804093589278 
1900	 0.423794414027466 
1901	 0.41796698233737 
1902	 0.411746607410732 
1903	 0.405776907713791 
1904	 0.399809588622745 
1905	 0.393799745832604 
1906	 0.387783961406085 
1907	 0.382266424379657 
1908	 0.376564313176959 
1909	 0.37101553512808 
1910	 0.365641713582527 
1911	 0.359888410023159 
1912	 0.354374071012765 
1913	 0.348765726051613 
1914	 0.342992345683941 
1915	 0.337443127874459 
1916	 0.332134733473043 
1917	 0.326553601763854 
1918	 0.321040496378007 
1919	 0.315562427002973 
1920	 0.309627260264473 
1921	 0.303865107518773 
1922	 0.297957654578576 
1923	 0.291844440893107 
1924	 0.286173678323317 
1925	 0.28033415817712 
1926	 0.274576314243359 
1927	 0.268964745507071 
1928	 0.263316923741672 
1929	 0.2574991079511 
1930	 0.252028600145885 
1931	 0.246722444620971 
1932	 0.241593817942432 
1933	 0.237184759252166 
1934	 0.233024070291988 
1935	 0.229211873273014 
1936	 0.226007455786164 
1937	 0.223113357551898 
1938	 0.220509239871485 
1939	 0.218496417306571 
1940	 0.21694344195669 
1941	 0.215837439124214 
1942	 0.215278226052584 
1943	 0.215110031270689 
1944	 0.215297758005227 
1945	 0.215934781041936 
1946	 0.217090003119094 
1947	 0.218575118577229 
1948	 0.220667783819892 
1949	 0.223370670494148 
1950	 0.22638889671436 
1951	 0.2299142691001 
1952	 0.233823946366491 
1953	 0.238122823612795 
1954	 0.242795033137121 
1955	 0.248055437646156 
1956	 0.25329475702273 
1957	 0.258635831761421 
1958	 0.263937710075066 
1959	 0.268610903850327 
1960	 0.273017626721646 
1961	 0.276967101790296 
1962	 0.280452311692776 
1963	 0.28353178223164 
1964	 0.286210346883919 
1965	 0.288470726885554 
1966	 0.290253933561363 
1967	 0.291765003948118 
1968	 0.29291383886553 
1969	 0.294022041819887 
1970	 0.295048263377677 
1971	 0.296067697841039 
1972	 0.297229624772076 
1973	 0.298445198118473 
1974	 0.299820645788566 
1975	 0.301349222184926 
1976	 0.302983388525193 
1977	 0.304718834004801 
1978	 0.306612000905832 
1979	 0.308627120340904 
1980	 0.31075677336917 
1981	 0.313161623321321 
1982	 0.315559726660536 
1983	 0.318200240567515 
1984	 0.32103412164831 
1985	 0.323861573492948 
1986	 0.327031504532175 
1987	 0.330462330628552 
1988	 0.333938789857234 
1989	 0.338045334453522 
1990	 0.342577570311921 
1991	 0.347437901438645 
1992	 0.352771871461546 
1993	 0.358568459551977 
1994	 0.36421821586319 
1995	 0.370333832380664 
1996	 0.376513383228468 
1997	 0.38272960101231 
1998	 0.389194157186988 
1999	 0.396069015767903 
2000	 0.402502760897386 
2001	 0.409217480044242 
2002	 0.41529594875463 
2003	 0.420979621772212 
2004	 0.426517858930998 
2005	 0.431643595851171 
2006	 0.43667546923444 
2007	 0.441676403143729 
2008	 0.446235218875402 
2009	 0.450545896327612 
2010	 0.454705232375821 
2011	 0.458295150088467 
2012	 0.461734011778329 
2013	 0.464964285286668 
2014	 0.467856783487923 
2015	 0.470702837974155 
2016	 0.473432484058024 
2017	 0.475928640597603 
2018	 0.478308815860713 
2019	 0.480442870127127 
2020	 0.482283758730505 
2021	 0.484018524785575 
2022	 0.485589705314358 
2023	 0.486954973258976 
2024	 0.488286699054744 
2025	 0.489445810885993 
2026	 0.49048521055391 
2027	 0.491394656104917 
2028	 0.492202845339267 
2029	 0.492828911922168 
2030	 0.493442805078522 
2031	 0.493935217060428 
2032	 0.494432934463537 
2033	 0.494856356498187 
2034	 0.49529156538002 
2035	 0.495703030702161 
2036	 0.496125840131451 
2037	 0.496514254367436 
2038	 0.49692968289871 
2039	 0.497366588157497 
2040	 0.497799969921397 
2041	 0.498283951232832 
2042	 0.498793483547075 
2043	 0.499346288784678 
2044	 0.499978945283826 
2045	 0.500560481986929 
2046	 0.501177156914702 
2047	 0.501751962417626 
2048	 0.502285341849871 
2049	 0.502809744705168 
2050	 0.503326999375423 
2051	 0.503821954255782 
2052	 0.50430280153146 
2053	 0.504773636364699 
2054	 0.5052065815384 
2055	 0.505627347876768 
2056	 0.506001411080318 
2057	 0.506311486744614 
2058	 0.506644463214422 
2059	 0.506955709474533 
2060	 0.507265063373656 
2061	 0.507571679459736 
2062	 0.507878766419721 
2063	 0.508156179170113 
2064	 0.50846454481932 
2065	 0.508766914184693 
2066	 0.509124408426882 
2067	 0.50950610303496 
2068	 0.509877431770468 
2069	 0.51024447361309 
2070	 0.510630039829207 
2071	 0.510985677414334 
2072	 0.511335345789952 
2073	 0.511657213766682 
2074	 0.511976246359611 
2075	 0.512249438623976 
2076	 0.512505523687354 
2077	 0.512696926392877 
2078	 0.512839710634849 
2079	 0.512950435635728 
2080	 0.513021238243657 
2081	 0.513033503020299 
2082	 0.513008255095928 
2083	 0.512938903643098 
2084	 0.512782338600287 
2085	 0.512571474102691 
2086	 0.512310354225363 
2087	 0.51197022029316 
2088	 0.511633127869679 
2089	 0.511258223940297 
2090	 0.510852824694843 
2091	 0.510445650067554 
2092	 0.509963688248926 
2093	 0.509415104026857 
2094	 0.508852035167431 
2095	 0.50820566578636 
2096	 0.507591126491299 
2097	 0.50699686594489 
2098	 0.506348043035723 
2099	 0.505704383366604 
2100	 0.505064185164677 
2101	 0.504349869689862 
2102	 0.503583322113364 
2103	 0.502810894455481 
2104	 0.501973651553171 
2105	 0.501181282468001 
2106	 0.500403103352894 
2107	 0.499591088813496 
2108	 0.498807608578081 
2109	 0.497949856776522 
2110	 0.497017804550271 
2111	 0.496113913198234 
2112	 0.495157299452196 
2113	 0.494236306634629 
2114	 0.49335669259839 
2115	 0.492450071724984 
2116	 0.491535461314291 
2117	 0.490641027163235 
2118	 0.489701305321989 
2119	 0.488733573694058 
2120	 0.487781226756316 
2121	 0.48678853509449 
2122	 0.485857532834776 
2123	 0.484956643465735 
2124	 0.484052198892098 
2125	 0.483204083926984 
2126	 0.482295599954257 
2127	 0.481347028861143 
2128	 0.480427649647622 
2129	 0.479471701120991 
2130	 0.478558411941266 
2131	 0.477684505563204 
2132	 0.476812649785087 
2133	 0.475949157388683 
2134	 0.47513029045146 
2135	 0.474251408893135 
2136	 0.473382579386025 
2137	 0.472471022640693 
2138	 0.471503692614023 
2139	 0.470572150341601 
2140	 0.46964398429702 
2141	 0.468695216771931 
2142	 0.46777782724422 
2143	 0.466779570116895 
2144	 0.465723793791237 
2145	 0.464679149129538 
2146	 0.463566585174217 
2147	 0.462502864161294 
2148	 0.46150099162903 
2149	 0.46042240702748 
2150	 0.459333790458615 
2151	 0.4582166554389 
2152	 0.457036654987067 
2153	 0.455853546896912 
2154	 0.454667732059037 
2155	 0.45345280478063 
2156	 0.452288520678674 
2157	 0.451122073007198 
2158	 0.449987353576842 
2159	 0.448927473481909 
2160	 0.447779087749962 
2161	 0.446594229443357 
2162	 0.445439325655538 
2163	 0.444203205912583 
2164	 0.443095199018917 
2165	 0.442058605802732 
2166	 0.441038875961247 
2167	 0.440111879247392 
2168	 0.439151542918763 
2169	 0.438135634315835 
2170	 0.437241403765517 
2171	 0.436339218056308 
2172	 0.435570026514676 
2173	 0.434948172653955 
2174	 0.434372117594354 
2175	 0.433836757895335 
2176	 0.433386327559179 
2177	 0.432946015926369 
2178	 0.432529384600772 
2179	 0.432188551388277 
2180	 0.431921780324071 
2181	 0.431647103202896 
2182	 0.431428981456531 
2183	 0.431191904915465 
2184	 0.430959218981483 
2185	 0.430728883365045 
2186	 0.430537704407495 
2187	 0.430293500747994 
2188	 0.430041019891976 
2189	 0.42974908204884 
2190	 0.429405821057038 
2191	 0.42905854725766 
2192	 0.428721995446773 
2193	 0.428313013254844 
2194	 0.427877615312147 
2195	 0.427388120251834 
2196	 0.426844477669362 
2197	 0.426222465627583 
2198	 0.425557947958622 
2199	 0.424891119937309 
2200	 0.424223880043525 
2201	 0.423552364098163 
2202	 0.422797740802824 
2203	 0.422034183664551 
2204	 0.421201513307835 
2205	 0.420224548441546 
2206	 0.41936900341676 
2207	 0.418519385880408 
2208	 0.417708835257708 
2209	 0.416935862417601 
2210	 0.416201804992285 
2211	 0.415440029796106 
2212	 0.414829233510876 
2213	 0.414245595182855 
2214	 0.413854973324866 
2215	 0.413604442415427 
2216	 0.413493344948429 
2217	 0.413506207615826 
2218	 0.413716867888618 
2219	 0.414084607473181 
2220	 0.414623969873197 
2221	 0.415390748726725 
2222	 0.416299499366662 
2223	 0.417249651021314 
2224	 0.418365004556701 
2225	 0.419482168719382 
2226	 0.420530670575967 
2227	 0.421553374248551 
2228	 0.422608094248904 
2229	 0.423491211243928 
2230	 0.424343303540011 
2231	 0.424971474839212 
2232	 0.425446107268331 
2233	 0.42578597399074 
2234	 0.42596215505247 
2235	 0.426001270325045 
2236	 0.425915469091765 
2237	 0.425665592295946 
2238	 0.425206345754667 
2239	 0.424674410863867 
2240	 0.424016721573516 
2241	 0.423232905213752 
2242	 0.422370901849959 
2243	 0.421323639537139 
2244	 0.420093161974692 
2245	 0.418754519710715 
2246	 0.417168804878217 
2247	 0.415603772898071 
2248	 0.414003729591429 
2249	 0.412281024884092 
2250	 0.410486777430563 
2251	 0.408655892764917 
2252	 0.406562464449761 
2253	 0.404444567157186 
2254	 0.402273290688522 
2255	 0.39999613865805 
2256	 0.397894365031163 
2257	 0.395759847079862 
2258	 0.393647149241143 
2259	 0.391600682223915 
2260	 0.389516529614383 
2261	 0.387358199642127 
2262	 0.385345981928892 
2263	 0.383303601288474 
2264	 0.381503063531721 
2265	 0.379855525210418 
2266	 0.378301795020876 
2267	 0.376971472908671 
2268	 0.375608669377623 
2269	 0.374244994581345 
2270	 0.373074562859298 
2271	 0.371974670098076 
2272	 0.371029469167076 
2273	 0.370340353164674 
2274	 0.369601458020948 
2275	 0.36898120705635 
2276	 0.368322020055755 
2277	 0.367692341835912 
2278	 0.367015757226951 
2279	 0.366354834209657 
2280	 0.365602232735158 
2281	 0.364791953760225 
2282	 0.363948506225366 
2283	 0.36305613015923 
2284	 0.362114867268816 
2285	 0.361058777902339 
2286	 0.359954209180907 
2287	 0.358759854804257 
2288	 0.357422294056988 
2289	 0.356165089411687 
2290	 0.354826998043401 
2291	 0.353436299288808 
2292	 0.352044662586538 
2293	 0.350495790504823 
2294	 0.34900942219893 
2295	 0.347613537399143 
2296	 0.34627738803892 
2297	 0.345193343554088 
2298	 0.344280960763119 
2299	 0.343599797720394 
2300	 0.343124995922526 
2301	 0.342866084815143 
2302	 0.342822144781306 
2303	 0.343048683079335 
2304	 0.34352262600071 
2305	 0.344221097709423 
2306	 0.345233328521188 
2307	 0.346384111032624 
2308	 0.347737293242505 
2309	 0.349305598644973 
2310	 0.351201434625515 
2311	 0.353032253397288 
2312	 0.355130067940263 
2313	 0.357040052246092 
2314	 0.358934292876048 
2315	 0.36073303778575 
2316	 0.362490769888111 
2317	 0.364078844597903 
2318	 0.365619166800393 
2319	 0.366883276697016 
2320	 0.36801470206054 
2321	 0.368867154156035 
2322	 0.369375985408748 
2323	 0.36979002997427 
2324	 0.369959962218204 
2325	 0.369998569148909 
2326	 0.369902992451847 
2327	 0.3696477537841 
2328	 0.369203380758469 
2329	 0.368615991864265 
2330	 0.367889960446366 
2331	 0.366940464622101 
2332	 0.365827661549152 
2333	 0.364610946270742 
2334	 0.363165001564857 
2335	 0.361626595480872 
2336	 0.360029401784281 
2337	 0.358242581790011 
2338	 0.3564933281534 
2339	 0.354781645958562 
2340	 0.353092376260231 
2341	 0.351509391802052 
2342	 0.349963238346678 
2343	 0.348558520469023 
2344	 0.347292648085606 
2345	 0.346267660186284 
2346	 0.345606284814148 
2347	 0.345213042925741 
2348	 0.345049591569576 
2349	 0.345211307238353 
2350	 0.34555231958106 
2351	 0.346061239844379 
2352	 0.346728679089705 
2353	 0.347376674717595 
2354	 0.347889554207381 
2355	 0.348236546983811 
2356	 0.348458745419547 
2357	 0.34851073442138 
2358	 0.348428844597402 
2359	 0.348215600060871 
2360	 0.34776624044613 
2361	 0.347108092082752 
2362	 0.346402587984199 
2363	 0.345551558663 
2364	 0.34455651262928 
2365	 0.343489667095819 
2366	 0.342278036835407 
2367	 0.341050713392035 
2368	 0.339892290686266 
2369	 0.33873612646786 
2370	 0.337623631521446 
2371	 0.336445251286783 
2372	 0.335115153787948 
2373	 0.333770456841455 
2374	 0.332326577718016 
2375	 0.33089304429506 
2376	 0.329545545718731 
2377	 0.32813336435985 
2378	 0.326722002682893 
2379	 0.325250986530658 
2380	 0.323766616683841 
2381	 0.322257822425184 
2382	 0.320623347931509 
2383	 0.318901486384523 
2384	 0.317178891912575 
2385	 0.31531326553567 
2386	 0.313530493176661 
2387	 0.311815825452544 
2388	 0.30998067730165 
2389	 0.3081224320512 
2390	 0.306165882997643 
2391	 0.304132849704531 
2392	 0.302076719889819 
2393	 0.299904180181755 
2394	 0.297805952240733 
2395	 0.295666557487324 
2396	 0.293574221504905 
2397	 0.291588005294709 
2398	 0.289476946358568 
2399	 0.287319719918589 
2400	 0.285248309595277 
2401	 0.283087689524539 
2402	 0.281099785566503 
2403	 0.279033307397817 
2404	 0.276888633777897 
2405	 0.275002207292433 
2406	 0.273007695605021 
2407	 0.271140252959215 
2408	 0.269336650958985 
2409	 0.267382503167945 
2410	 0.265646290060575 
2411	 0.263964739450225 
2412	 0.262401054391734 
2413	 0.261067942747716 
2414	 0.259674889068949 
2415	 0.258328799921203 
2416	 0.256993134339309 
2417	 0.25557887396971 
2418	 0.25434413065868 
2419	 0.253237883800985 
2420	 0.252177037477468 
2421	 0.251285863081069 
2422	 0.250486808506832 
2423	 0.249632240754125 
2424	 0.248734989766776 
2425	 0.248014769621749 
2426	 0.247301791965529 
2427	 0.24651786887468 
2428	 0.245981511690938 
2429	 0.245302453459543 
2430	 0.244498392351577 
2431	 0.243891434764044 
2432	 0.243187360982726 
2433	 0.242572677849099 
2434	 0.242091657713786 
2435	 0.241557335028482 
2436	 0.241222182674146 
2437	 0.240962546495338 
2438	 0.240641099644716 
2439	 0.240336474160458 
2440	 0.239826831754363 
2441	 0.239255747423898 
2442	 0.238789008321068 
2443	 0.238285426511437 
2444	 0.237813437799835 
2445	 0.237476932389452 
2446	 0.237231730125792 
2447	 0.23693320215901 
2448	 0.236724864048939 
2449	 0.236580066840514 
2450	 0.236155428248116 
2451	 0.235669566819398 
2452	 0.23530703085624 
2453	 0.234804686127889 
2454	 0.234286631653729 
2455	 0.233862399204898 
2456	 0.233378231495908 
2457	 0.232845387043406 
2458	 0.232328121927613 
2459	 0.231817201222399 
2460	 0.23120916607976 
2461	 0.230505166742155 
2462	 0.229757182806288 
2463	 0.228956396985113 
2464	 0.228175309604294 
2465	 0.227355422352768 
2466	 0.226433528948257 
2467	 0.225506152777145 
2468	 0.224676877903186 
2469	 0.223964290824396 
2470	 0.223262863873281 
2471	 0.222639048952562 
2472	 0.221997053081489 
2473	 0.221193038192818 
2474	 0.220448766184365 
2475	 0.219752645819591 
2476	 0.219152103346853 
2477	 0.21863743905091 
2478	 0.218180597560019 
2479	 0.217943539495511 
2480	 0.217584405665371 
2481	 0.217290337053517 
2482	 0.21697998542192 
2483	 0.216897376196439 
2484	 0.21669309295087 
2485	 0.216613865049673 
2486	 0.216848830054026 
2487	 0.216840312672898 
2488	 0.216790976391152 
2489	 0.216773240680614 
2490	 0.216846288461781 
2491	 0.216989045818561 
2492	 0.216958672902023 
2493	 0.216839718921908 
2494	 0.216565071656631 
2495	 0.216624669905291 
2496	 0.217429261860633 
2497	 0.218280738805052 
2498	 0.219144819445702 
2499	 0.219931693349132 
2500	 0.219949617207864 
