Wavelength	spectrum00006.asd
350	 2.63218706096069E-02 
351	 2.52451628632745E-02 
352	 0.025149796252451 
353	 2.59505242164115E-02 
354	 2.46113561817817E-02 
355	 2.48078227897776E-02 
356	 2.56297364369556E-02 
357	 0.025519914406672 
358	 0.023959554584749 
359	 2.36183721384066E-02 
360	 2.44211846459291E-02 
361	 2.48881910801581E-02 
362	 2.53989094774932E-02 
363	 2.44282925221436E-02 
364	 2.24754069185664E-02 
365	 2.27780768895728E-02 
366	 2.31542439554694E-02 
367	 2.35018753838367E-02 
368	 2.39452745733079E-02 
369	 2.36601642625061E-02 
370	 2.36669104264953E-02 
371	 2.37704206907466E-02 
372	 2.32307996183214E-02 
373	 2.31093835144768E-02 
374	 0.023442502783284 
375	 2.40092789830749E-02 
376	 2.44265936340124E-02 
377	 2.44011770701511E-02 
378	 2.42031737189058E-02 
379	 2.41809234155659E-02 
380	 2.43287002256301E-02 
381	 2.47468317082391E-02 
382	 2.46355429397814E-02 
383	 2.31464260884978E-02 
384	 2.42368630989822E-02 
385	 2.51534206176432E-02 
386	 2.45533344152949E-02 
387	 2.43714679687555E-02 
388	 2.43421810847137E-02 
389	 2.46029214130451E-02 
390	 2.50969044461648E-02 
391	 2.48435371773753E-02 
392	 2.47843238674069E-02 
393	 2.50851795088866E-02 
394	 0.025319533744627 
395	 2.48509263785076E-02 
396	 2.47568336319002E-02 
397	 2.54301712268924E-02 
398	 2.58482052541842E-02 
399	 2.56834489089442E-02 
400	 2.53756969746614E-02 
401	 2.54402284577303E-02 
402	 2.55082279782697E-02 
403	 0.026128412173264 
404	 2.67283738515476E-02 
405	 2.60902044540133E-02 
406	 2.61252129449044E-02 
407	 2.63354347140713E-02 
408	 0.026322670022719 
409	 2.66076273208865E-02 
410	 2.68728546990543E-02 
411	 2.69886704473257E-02 
412	 2.70123716284387E-02 
413	 2.76988843596346E-02 
414	 2.76168613078688E-02 
415	 2.70185763800444E-02 
416	 0.027637297576017 
417	 2.80330024743691E-02 
418	 0.028248607044002 
419	 2.84354846113898E-02 
420	 2.83165573557822E-02 
421	 2.83766246450368E-02 
422	 2.87002931811285E-02 
423	 2.91282952548305E-02 
424	 2.92022546365357E-02 
425	 2.91846670544605E-02 
426	 2.92732519280708E-02 
427	 0.029515979029161 
428	 0.029780918645933 
429	 3.00115787058443E-02 
430	 3.01697316859883E-02 
431	 3.01733291276069E-02 
432	 3.03526445181276E-02 
433	 3.06895518494241E-02 
434	 3.09629712735879E-02 
435	 0.031089911095232 
436	 3.13278359299563E-02 
437	 3.16999663690751E-02 
438	 3.18007515118887E-02 
439	 3.19945218135838E-02 
440	 3.22046135525626E-02 
441	 3.23153823318344E-02 
442	 3.25922193104171E-02 
443	 0.032972090315448 
444	 3.33480852339879E-02 
445	 3.36018274472483E-02 
446	 0.033854131243056 
447	 3.40508127026459E-02 
448	 3.42060059438579E-02 
449	 3.45523186678966E-02 
450	 3.49015309775035E-02 
451	 0.035218963857253 
452	 3.55288658176839E-02 
453	 3.58329575045945E-02 
454	 3.61757218621043E-02 
455	 3.65377912929179E-02 
456	 3.68319241676281E-02 
457	 3.71538096195055E-02 
458	 3.75336625551543E-02 
459	 3.79522408382472E-02 
460	 3.82867674290921E-02 
461	 3.86682214323487E-02 
462	 3.90779211811572E-02 
463	 3.94274518678371E-02 
464	 3.98044281862618E-02 
465	 4.02263407781813E-02 
466	 4.06715719211954E-02 
467	 4.10735929962928E-02 
468	 4.14448259794557E-02 
469	 4.18609105260162E-02 
470	 4.23759973785915E-02 
471	 4.28881962706623E-02 
472	 4.32986124732106E-02 
473	 4.36468719585485E-02 
474	 4.40822194888021E-02 
475	 4.46663766213021E-02 
476	 4.52090809283603E-02 
477	 4.56178397401029E-02 
478	 4.61025326402033E-02 
479	 4.66114337846943E-02 
480	 4.71371551130852E-02 
481	 4.76805714293465E-02 
482	 4.82204913737633E-02 
483	 4.87718882986306E-02 
484	 4.93228699795763E-02 
485	 4.98287988212081E-02 
486	 5.04767594276569E-02 
487	 5.11073486765614E-02 
488	 5.15860206097868E-02 
489	 5.20903789196697E-02 
490	 5.27390318285171E-02 
491	 5.34541602938623E-02 
492	 5.40612393950475E-02 
493	 5.47062357617095E-02 
494	 5.53639943606736E-02 
495	 5.60073530693308E-02 
496	 5.66367382276258E-02 
497	 5.72707963598796E-02 
498	 5.79169823852673E-02 
499	 5.85832465914323E-02 
500	 5.93122137980027E-02 
501	 6.00076724548814E-02 
502	 0.060649300194708 
503	 6.12928471954361E-02 
504	 6.20206506133011E-02 
505	 6.27442659378356E-02 
506	 6.34204944435114E-02 
507	 6.41963746481847E-02 
508	 6.49770883234404E-02 
509	 6.57356003662904E-02 
510	 6.64820795589555E-02 
511	 6.72713877403244E-02 
512	 6.80657878466378E-02 
513	 6.88545259208328E-02 
514	 6.96772345245551E-02 
515	 7.03755624647236E-02 
516	 7.11003701275811E-02 
517	 7.19810453845952E-02 
518	 7.27730632411083E-02 
519	 7.36204203070184E-02 
520	 7.44929084296234E-02 
521	 7.52526189452289E-02 
522	 7.60618411089914E-02 
523	 7.69008115102558E-02 
524	 7.77420545430912E-02 
525	 0.078603032847397 
526	 7.94486325578365E-02 
527	 8.02953526276546E-02 
528	 8.11655323087373E-02 
529	 8.20104826749848E-02 
530	 0.082780507220485 
531	 8.35390856335488E-02 
532	 8.44589880668909E-02 
533	 0.085307598085156 
534	 8.61332292851746E-02 
535	 8.69925657087769E-02 
536	 8.77795893747229E-02 
537	 8.85754242189866E-02 
538	 8.93871426669338E-02 
539	 9.01819159189056E-02 
540	 9.09678536611498E-02 
541	 9.17389269957927E-02 
542	 9.24835025651055E-02 
543	 9.31811320839453E-02 
544	 9.38464638165792E-02 
545	 9.44778456055391E-02 
546	 0.095079642406021 
547	 9.57046849842642E-02 
548	 9.63192407983333E-02 
549	 9.68842186964081E-02 
550	 9.73652190739693E-02 
551	 9.78656962696922E-02 
552	 9.83518041745595E-02 
553	 0.098791415970341 
554	 9.92279853006488E-02 
555	 0.099628807640792 
556	 0.099981371493982 
557	 0.100290039359329 
558	 0.100606142580657 
559	 0.100895817685764 
560	 0.101123190743422 
561	 0.101261644440258 
562	 0.10138871381196 
563	 0.101528471381969 
564	 0.101658696608354 
565	 0.101654741960764 
566	 0.101606561920188 
567	 0.101534360645578 
568	 0.101405321243661 
569	 0.101254419841648 
570	 0.101065957846744 
571	 0.100848329988689 
572	 0.100680304110547 
573	 0.100504026630357 
574	 0.100300488879314 
575	 0.100070016320936 
576	 0.099850076824945 
577	 9.95496409395765E-02 
578	 9.91713940351947E-02 
579	 9.88294996584065E-02 
580	 9.84001279828342E-02 
581	 9.79215481646791E-02 
582	 9.74345970381843E-02 
583	 9.68683722493109E-02 
584	 9.62753015811564E-02 
585	 9.56885356851687E-02 
586	 9.51236624348101E-02 
587	 9.45585104975476E-02 
588	 9.39596528700147E-02 
589	 9.33156697508618E-02 
590	 9.26529445546993E-02 
591	 9.19644217354395E-02 
592	 9.12394433721558E-02 
593	 9.04771524757657E-02 
594	 8.97246770966304E-02 
595	 8.89690458827965E-02 
596	 8.81900252658908E-02 
597	 8.73677857367804E-02 
598	 8.65691501594876E-02 
599	 8.57751847313109E-02 
600	 8.49625590647299E-02 
601	 0.084137713168875 
602	 8.33232039701254E-02 
603	 8.25042490444992E-02 
604	 8.16580209734196E-02 
605	 8.08194629209552E-02 
606	 8.00139090329184E-02 
607	 0.079227777835524 
608	 7.84025175429566E-02 
609	 7.75760650910504E-02 
610	 7.67697756094498E-02 
611	 7.59845393364664E-02 
612	 0.075172908178883 
613	 7.43979833313337E-02 
614	 7.36342262732668E-02 
615	 7.28083826400239E-02 
616	 7.20091999739596E-02 
617	 7.12547074383959E-02 
618	 7.05271961548582E-02 
619	 6.97586620052908E-02 
620	 6.90300216395145E-02 
621	 6.83206230820671E-02 
622	 6.75865167732521E-02 
623	 6.68457209098248E-02 
624	 6.61233036762991E-02 
625	 6.54321546513809E-02 
626	 6.47705453298345E-02 
627	 6.41047580149875E-02 
628	 6.34640684241757E-02 
629	 6.28572365855097E-02 
630	 6.22110221744803E-02 
631	 6.15622285299707E-02 
632	 6.09500252788883E-02 
633	 6.03999042456919E-02 
634	 5.98261719140934E-02 
635	 0.059240543573023 
636	 5.86621201647368E-02 
637	 5.81101384822411E-02 
638	 5.75719690716916E-02 
639	 5.70393827126184E-02 
640	 0.056511503287104 
641	 5.60062810271302E-02 
642	 0.055508078405522 
643	 5.50254842943608E-02 
644	 5.45749450907938E-02 
645	 0.054100359734663 
646	 5.36346378027257E-02 
647	 5.32005215187149E-02 
648	 5.27869307283643E-02 
649	 5.23693106833057E-02 
650	 5.19436465675711E-02 
651	 5.15215999716787E-02 
652	 5.11477147866571E-02 
653	 5.07615897015622E-02 
654	 5.03659886846411E-02 
655	 5.00118073539558E-02 
656	 0.049636089988185 
657	 4.92810142134911E-02 
658	 4.89666938025132E-02 
659	 4.86310129601247E-02 
660	 4.83104139867516E-02 
661	 4.79975716720305E-02 
662	 4.76759473523312E-02 
663	 4.73646039250463E-02 
664	 4.70573401321318E-02 
665	 0.046757827947439 
666	 4.64796491563974E-02 
667	 4.62145072249093E-02 
668	 4.59496213312304E-02 
669	 4.56782707769479E-02 
670	 4.54089613908876E-02 
671	 4.51439816366456E-02 
672	 4.48954002733605E-02 
673	 4.46727632077636E-02 
674	 4.44456352574404E-02 
675	 4.42102741923745E-02 
676	 4.39738927542206E-02 
677	 4.37530386149593E-02 
678	 4.35320649880234E-02 
679	 4.33191348956297E-02 
680	 4.31185550700738E-02 
681	 4.29044684688931E-02 
682	 4.27099852488468E-02 
683	 4.25235034357926E-02 
684	 4.23142537143428E-02 
685	 4.21161680641517E-02 
686	 4.19236983202629E-02 
687	 4.17422521966972E-02 
688	 4.15984610808423E-02 
689	 4.14288907450361E-02 
690	 4.12305829431507E-02 
691	 4.10288879039317E-02 
692	 4.08846839705331E-02 
693	 4.07303609466774E-02 
694	 4.05625638860023E-02 
695	 4.04149903771151E-02 
696	 4.02470786657238E-02 
697	 4.00786969470035E-02 
698	 3.99252727075969E-02 
699	 3.97839032461909E-02 
700	 3.96531359927864E-02 
701	 0.039521227098782 
702	 0.039376582449964 
703	 3.92147516617525E-02 
704	 3.90829714485542E-02 
705	 3.89741687352413E-02 
706	 0.038845114096641 
707	 3.87062628498437E-02 
708	 3.85819229120866E-02 
709	 0.038474314183377 
710	 3.83453830123909E-02 
711	 3.82313291072615E-02 
712	 3.81204740199884E-02 
713	 3.79967967828335E-02 
714	 3.78853731166204E-02 
715	 3.77791741861881E-02 
716	 3.76713518087072E-02 
717	 3.75579541386066E-02 
718	 3.74562892377436E-02 
719	 3.73574916789779E-02 
720	 0.037256084429099 
721	 0.037159242470141 
722	 3.70579719988392E-02 
723	 3.69566837993414E-02 
724	 3.68597768172314E-02 
725	 3.67528671995373E-02 
726	 3.66552099078882E-02 
727	 3.65765517477763E-02 
728	 3.65137676436486E-02 
729	 3.64155771816784E-02 
730	 3.63122366094224E-02 
731	 3.62294436464887E-02 
732	 3.61671340727695E-02 
733	 3.60887051527256E-02 
734	 3.60015875686435E-02 
735	 3.59232220846194E-02 
736	 3.58535589000421E-02 
737	 3.57863822798826E-02 
738	 3.57161014124232E-02 
739	 3.56404194331504E-02 
740	 3.55785151808258E-02 
741	 3.55193410612608E-02 
742	 3.54588882683572E-02 
743	 3.54096082769435E-02 
744	 3.53441674566348E-02 
745	 3.52772040450202E-02 
746	 0.035225028459745 
747	 3.51694624713494E-02 
748	 3.51154488129342E-02 
749	 0.035059052570334 
750	 3.49955858998331E-02 
751	 3.49554509753758E-02 
752	 0.034916270912207 
753	 3.48684057432487E-02 
754	 3.48257098938045E-02 
755	 3.47732267514514E-02 
756	 3.47199538203695E-02 
757	 3.46739193233345E-02 
758	 3.46226143183939E-02 
759	 3.45874723426318E-02 
760	 3.45544151029425E-02 
761	 3.45006816634813E-02 
762	 3.44655247328185E-02 
763	 3.44231800388131E-02 
764	 3.43738319714478E-02 
765	 3.43479254058224E-02 
766	 0.034313606728166 
767	 3.42732864612682E-02 
768	 0.03424003150801 
769	 0.034238801368771 
770	 0.034219966210475 
771	 3.41868570523278E-02 
772	 3.41604534825586E-02 
773	 3.41407923324444E-02 
774	 3.41126351740662E-02 
775	 3.40813032654519E-02 
776	 3.40668628500223E-02 
777	 3.40497163052011E-02 
778	 3.40291478033926E-02 
779	 3.40074484460871E-02 
780	 3.39872096025993E-02 
781	 3.39650304266033E-02 
782	 3.39434782794816E-02 
783	 3.39267417549219E-02 
784	 3.39178807622828E-02 
785	 3.39181909740312E-02 
786	 3.39159320569146E-02 
787	 3.38967681046323E-02 
788	 3.38849527914123E-02 
789	 3.38704139485519E-02 
790	 0.033853755592038 
791	 3.38509853364486E-02 
792	 3.38516197800187E-02 
793	 3.38463687812488E-02 
794	 3.38338994742671E-02 
795	 0.033831428863071 
796	 3.38254471385669E-02 
797	 3.38199139682473E-02 
798	 3.38202436312956E-02 
799	 3.38075854800001E-02 
800	 3.37911517316063E-02 
801	 0.033776960161117 
802	 3.37676789461578E-02 
803	 3.37698052563976E-02 
804	 3.37660073353139E-02 
805	 3.37570716390177E-02 
806	 3.37746146585815E-02 
807	 3.37908331328198E-02 
808	 3.37852401093635E-02 
809	 3.37613284066563E-02 
810	 3.37860165252969E-02 
811	 3.38015806163809E-02 
812	 3.37988415355803E-02 
813	 3.37935146840222E-02 
814	 0.033804910406349 
815	 3.38075545131233E-02 
816	 3.38031981320839E-02 
817	 3.38180069947523E-02 
818	 3.38386899539715E-02 
819	 3.38544860123982E-02 
820	 3.38641297096425E-02 
821	 0.033881088284459 
822	 3.38960646347088E-02 
823	 3.39125635199995E-02 
824	 3.39348383915215E-02 
825	 3.39588631604485E-02 
826	 3.39901110475271E-02 
827	 3.40083418000261E-02 
828	 3.40004667128067E-02 
829	 3.40609919193506E-02 
830	 3.41157004176001E-02 
831	 3.41343746817752E-02 
832	 3.41389080505413E-02 
833	 3.41650329557787E-02 
834	 0.034204869782586 
835	 3.42461538923777E-02 
836	 3.42821842030384E-02 
837	 3.43184655787364E-02 
838	 3.43494806538538E-02 
839	 3.43762635694634E-02 
840	 3.44268361108858E-02 
841	 3.44647742533495E-02 
842	 3.44964458891032E-02 
843	 3.45400134268583E-02 
844	 3.45771018144024E-02 
845	 3.46144470009291E-02 
846	 3.46581140514533E-02 
847	 3.47103937887325E-02 
848	 3.47544757519707E-02 
849	 3.47943411876208E-02 
850	 3.48377212920195E-02 
851	 3.48925551337523E-02 
852	 3.49477663604261E-02 
853	 3.50074991953679E-02 
854	 3.50706705695366E-02 
855	 3.51178851592175E-02 
856	 3.51785773353247E-02 
857	 3.52450506132298E-02 
858	 3.53060377044659E-02 
859	 0.035385025784193 
860	 3.54494271553208E-02 
861	 3.55187261231464E-02 
862	 3.56238411419927E-02 
863	 3.56935699920498E-02 
864	 3.57569502471446E-02 
865	 3.58411049203986E-02 
866	 3.59567623305381E-02 
867	 3.60314248610275E-02 
868	 3.61197938961627E-02 
869	 3.62302615669602E-02 
870	 0.036287689060229 
871	 3.63653311106507E-02 
872	 3.64657515733764E-02 
873	 3.65791754140208E-02 
874	 3.67074704284979E-02 
875	 3.68068477550783E-02 
876	 3.69032907410226E-02 
877	 3.70296742038745E-02 
878	 3.71557968064277E-02 
879	 3.72897460569912E-02 
880	 3.74097794980438E-02 
881	 3.74981411784938E-02 
882	 3.76323032565793E-02 
883	 3.77772939589274E-02 
884	 3.79140323284361E-02 
885	 3.80454415120446E-02 
886	 3.82052716054881E-02 
887	 0.038348509078562 
888	 3.84751647713339E-02 
889	 3.86416977035032E-02 
890	 3.88008320199194E-02 
891	 3.89220229056827E-02 
892	 3.90275947583728E-02 
893	 3.92186713538323E-02 
894	 3.93801475136629E-02 
895	 3.95466088798535E-02 
896	 3.97455494025997E-02 
897	 0.039882074776901 
898	 4.00541858726878E-02 
899	 4.02373301980764E-02 
900	 4.03934022290778E-02 
901	 0.040604147115738 
902	 4.07825088981845E-02 
903	 4.09481495027571E-02 
904	 4.11558885796233E-02 
905	 4.13302084924717E-02 
906	 4.15157768809797E-02 
907	 4.17278858649542E-02 
908	 4.19504217347479E-02 
909	 0.042144793894692 
910	 4.23171452293708E-02 
911	 4.25000797504024E-02 
912	 4.27396102016028E-02 
913	 4.30045342325051E-02 
914	 4.32242903076916E-02 
915	 4.33938945263934E-02 
916	 4.36020039426405E-02 
917	 4.38521910839341E-02 
918	 0.044112923711371 
919	 4.43624953256095E-02 
920	 4.46159642281665E-02 
921	 4.48178320458338E-02 
922	 4.50218359578173E-02 
923	 4.52804535349544E-02 
924	 4.55707326309651E-02 
925	 4.58350448899654E-02 
926	 4.60817101506014E-02 
927	 4.63395263318128E-02 
928	 4.66184760606571E-02 
929	 4.68906825453783E-02 
930	 4.71513952877626E-02 
931	 4.74093937149313E-02 
932	 4.76785938595057E-02 
933	 0.047972320629832 
934	 4.82801007199065E-02 
935	 4.85720171959192E-02 
936	 4.87828833866227E-02 
937	 4.90936105425081E-02 
938	 4.94626400375544E-02 
939	 4.97194291333784E-02 
940	 5.00037500872294E-02 
941	 0.050322390118523 
942	 5.06327990688037E-02 
943	 5.08826361519206E-02 
944	 5.12262462589858E-02 
945	 5.15464045182328E-02 
946	 5.18290753309016E-02 
947	 0.052183054334747 
948	 5.24538912773733E-02 
949	 0.052750383653264 
950	 5.31122522199777E-02 
951	 5.34478041168771E-02 
952	 5.37738612469282E-02 
953	 5.40978781272515E-02 
954	 5.44013331767984E-02 
955	 5.46366443514274E-02 
956	 5.49708511956039E-02 
957	 5.53337514269146E-02 
958	 5.56611182414395E-02 
959	 5.59905401722184E-02 
960	 5.63241544292248E-02 
961	 5.66452580378809E-02 
962	 5.69469577020382E-02 
963	 0.057250361490362 
964	 0.057557174186259 
965	 5.78608146458335E-02 
966	 5.81659594331128E-02 
967	 5.85072369405139E-02 
968	 5.88669297524901E-02 
969	 0.059196116718054 
970	 5.94844549875319E-02 
971	 5.98382331935434E-02 
972	 6.01541884257009E-02 
973	 6.04875801802589E-02 
974	 6.08745987887157E-02 
975	 6.11613767057772E-02 
976	 6.14709422687751E-02 
977	 6.18367455927053E-02 
978	 6.22312630733925E-02 
979	 6.25447314284826E-02 
980	 6.28487423665176E-02 
981	 6.31677884773692E-02 
982	 6.34884065040595E-02 
983	 6.37184742083404E-02 
984	 0.064093292793793 
985	 6.45450349559048E-02 
986	 6.49253574630531E-02 
987	 0.065218519105543 
988	 6.55615863913103E-02 
989	 6.59238622953554E-02 
990	 6.62377345608174E-02 
991	 6.65438789332188E-02 
992	 6.68498671798615E-02 
993	 6.71546251104996E-02 
994	 6.74729587165124E-02 
995	 6.78903736950116E-02 
996	 6.82777958410822E-02 
997	 6.85835694533357E-02 
998	 0.068841927661212 
999	 6.92447140224168E-02 
1000	 6.96422893631203E-02 
1001	 7.30569898718114E-02 
1002	 7.34371473785694E-02 
1003	 7.38149698108999E-02 
1004	 7.41790644720736E-02 
1005	 7.45486255687147E-02 
1006	 7.48786828741423E-02 
1007	 7.51716026164948E-02 
1008	 7.55026399215239E-02 
1009	 7.58115124280887E-02 
1010	 7.61505313268644E-02 
1011	 7.65543809231482E-02 
1012	 7.68976834918596E-02 
1013	 7.71994237697827E-02 
1014	 7.75215993150962E-02 
1015	 0.077833877813838 
1016	 7.81461640756512E-02 
1017	 0.078457799274806 
1018	 7.88094051944573E-02 
1019	 7.91454745502107E-02 
1020	 7.94378465110054E-02 
1021	 7.97210774867195E-02 
1022	 7.99902674999101E-02 
1023	 8.02632424119507E-02 
1024	 8.05012785881556E-02 
1025	 8.07756820893149E-02 
1026	 8.10695897966861E-02 
1027	 8.13484624768038E-02 
1028	 8.16179951693543E-02 
1029	 8.19465522140482E-02 
1030	 8.21968575780195E-02 
1031	 8.24450363398161E-02 
1032	 8.27142436014754E-02 
1033	 8.29335546487823E-02 
1034	 8.31837763778966E-02 
1035	 8.34450409158156E-02 
1036	 8.36761196355764E-02 
1037	 8.38751961011123E-02 
1038	 8.41012428111841E-02 
1039	 8.43423973909607E-02 
1040	 8.45591021203405E-02 
1041	 8.47810001633219E-02 
1042	 8.49867560611256E-02 
1043	 8.51694745505179E-02 
1044	 0.085317137578792 
1045	 8.55323030866457E-02 
1046	 8.57658742670889E-02 
1047	 8.59714630924608E-02 
1048	 8.62253012028581E-02 
1049	 8.64558177007939E-02 
1050	 8.66270853064391E-02 
1051	 8.68324025262305E-02 
1052	 8.70388843906888E-02 
1053	 8.72256232753246E-02 
1054	 8.73968378295133E-02 
1055	 8.75878772788146E-02 
1056	 8.77796370699549E-02 
1057	 0.087956994290959 
1058	 8.81336782434086E-02 
1059	 8.83108715395301E-02 
1060	 0.088486493201295 
1061	 8.86359741151984E-02 
1062	 8.88261383185026E-02 
1063	 8.90255866664846E-02 
1064	 8.91636962593156E-02 
1065	 0.089333934519546 
1066	 0.08948911988849 
1067	 0.089613427340642 
1068	 8.97920014196422E-02 
1069	 8.99510739440398E-02 
1070	 9.01110565279924E-02 
1071	 0.090266114011754 
1072	 9.04502707494111E-02 
1073	 9.05986568611754E-02 
1074	 9.07324807989304E-02 
1075	 9.08761266939663E-02 
1076	 9.10059798736706E-02 
1077	 9.11320751392605E-02 
1078	 9.12661569960343E-02 
1079	 9.13919580239916E-02 
1080	 0.0915049202874 
1081	 0.091618864302675 
1082	 9.17414289695901E-02 
1083	 9.18583374439719E-02 
1084	 9.19528215595084E-02 
1085	 9.20457892920477E-02 
1086	 9.21404187395451E-02 
1087	 9.22321177589029E-02 
1088	 9.23156109136901E-02 
1089	 9.24056803953915E-02 
1090	 9.24937396620545E-02 
1091	 9.25801256469343E-02 
1092	 9.26609833251499E-02 
1093	 9.27347487395969E-02 
1094	 9.28108723949922E-02 
1095	 9.28756467064172E-02 
1096	 9.29316319210881E-02 
1097	 9.29807235105696E-02 
1098	 9.30305781338967E-02 
1099	 9.30898163186832E-02 
1100	 9.31423419641891E-02 
1101	 9.31933375113295E-02 
1102	 9.32454154956461E-02 
1103	 9.32842832710911E-02 
1104	 9.33027793671273E-02 
1105	 9.33228591747426E-02 
1106	 9.33614332503064E-02 
1107	 9.33895754598822E-02 
1108	 9.34131591620711E-02 
1109	 9.34621782851848E-02 
1110	 9.35060965692003E-02 
1111	 9.35240433401935E-02 
1112	 9.35452623433471E-02 
1113	 9.35706254965496E-02 
1114	 9.35730165570855E-02 
1115	 9.35694534751548E-02 
1116	 9.35762969602392E-02 
1117	 9.35693678456544E-02 
1118	 9.35681929791273E-02 
1119	 0.093571361651223 
1120	 9.35804873071913E-02 
1121	 9.35936081273271E-02 
1122	 0.093603434595894 
1123	 9.36189997284676E-02 
1124	 9.36142156756315E-02 
1125	 9.36202850882564E-02 
1126	 9.36388839763494E-02 
1127	 9.36352034600431E-02 
1128	 9.36424112053439E-02 
1129	 9.36426161494087E-02 
1130	 9.36091647834681E-02 
1131	 9.35826015931605E-02 
1132	 9.35698586190659E-02 
1133	 9.35585055221222E-02 
1134	 9.35544016779824E-02 
1135	 9.35487067228783E-02 
1136	 9.35508030114815E-02 
1137	 9.35393274048235E-02 
1138	 9.35184105564656E-02 
1139	 9.35067641421975E-02 
1140	 9.34902015604864E-02 
1141	 9.34848552371602E-02 
1142	 9.34851659693322E-02 
1143	 9.34802119253708E-02 
1144	 9.34743371896703E-02 
1145	 9.34528624197658E-02 
1146	 9.34341851882284E-02 
1147	 9.34229548433535E-02 
1148	 9.34079790025091E-02 
1149	 9.33937992488307E-02 
1150	 9.33684770609378E-02 
1151	 9.33387609517452E-02 
1152	 9.33130600538019E-02 
1153	 9.32786537570161E-02 
1154	 9.32572577665214E-02 
1155	 9.32450521970233E-02 
1156	 9.32308694678748E-02 
1157	 9.32260442947803E-02 
1158	 9.32129272998467E-02 
1159	 9.31987356290014E-02 
1160	 9.31832332151532E-02 
1161	 9.31551730940459E-02 
1162	 0.093118814607275 
1163	 9.30949970545474E-02 
1164	 9.30802558199533E-02 
1165	 9.30753189594545E-02 
1166	 9.30827121359312E-02 
1167	 9.30762919313688E-02 
1168	 9.30673497887223E-02 
1169	 9.30718327796393E-02 
1170	 9.30760233546571E-02 
1171	 9.30880266182538E-02 
1172	 9.31131938234844E-02 
1173	 9.31423165832578E-02 
1174	 9.31836701516029E-02 
1175	 9.32153217549714E-02 
1176	 9.32537179148899E-02 
1177	 9.32791456839977E-02 
1178	 9.32911575248078E-02 
1179	 9.32983146984796E-02 
1180	 9.33135898659798E-02 
1181	 9.33480960825253E-02 
1182	 9.33911489394306E-02 
1183	 0.093432861466837 
1184	 9.34692484226722E-02 
1185	 0.093499536059353 
1186	 9.35411471565445E-02 
1187	 9.35855239699701E-02 
1188	 9.36331586847986E-02 
1189	 9.36917760280957E-02 
1190	 9.37421545221279E-02 
1191	 9.37895798096817E-02 
1192	 0.093833939939628 
1193	 9.38713236447836E-02 
1194	 9.39193137583876E-02 
1195	 9.39700135697575E-02 
1196	 9.40207894152867E-02 
1197	 9.40699251569016E-02 
1198	 9.41354387316787E-02 
1199	 9.42049961734008E-02 
1200	 9.42678508689941E-02 
1201	 9.43420175768507E-02 
1202	 9.44120278086131E-02 
1203	 9.44703490655078E-02 
1204	 0.09453052319316 
1205	 9.46077713941494E-02 
1206	 9.46942202263197E-02 
1207	 0.094786037037521 
1208	 9.48955104971381E-02 
1209	 9.49960923863389E-02 
1210	 9.50922705562147E-02 
1211	 9.51946433507052E-02 
1212	 9.53004709414715E-02 
1213	 9.54083362674639E-02 
1214	 9.55163490946303E-02 
1215	 9.56361634965905E-02 
1216	 0.095764470165813 
1217	 9.58899562660329E-02 
1218	 9.60251804024995E-02 
1219	 9.61547074499155E-02 
1220	 9.62821822645595E-02 
1221	 9.64237144893374E-02 
1222	 9.65638510272441E-02 
1223	 0.096704701159034 
1224	 0.096841004243323 
1225	 9.69710436539937E-02 
1226	 9.71041836254642E-02 
1227	 9.72368569954624E-02 
1228	 9.73707137927184E-02 
1229	 9.75030167177807E-02 
1230	 0.097640716412046 
1231	 0.097784034990611 
1232	 9.79251330256304E-02 
1233	 0.098067754165522 
1234	 9.82099755721581E-02 
1235	 0.098351959483859 
1236	 9.84898076878279E-02 
1237	 9.86320703100547E-02 
1238	 9.87668707648638E-02 
1239	 9.88859447127619E-02 
1240	 9.90165594555159E-02 
1241	 9.91652254012225E-02 
1242	 9.92941161659324E-02 
1243	 9.94309698592566E-02 
1244	 9.95766003854644E-02 
1245	 0.099718621958048 
1246	 9.98560599269989E-02 
1247	 9.99943122716878E-02 
1248	 0.10013644122339 
1249	 0.100277601513778 
1250	 0.100419416513802 
1251	 0.100550238829703 
1252	 0.100680468061402 
1253	 0.100806778902955 
1254	 0.100911450387324 
1255	 0.101036644767152 
1256	 0.101179492973603 
1257	 0.101311153873002 
1258	 0.101452071411159 
1259	 0.101578521774539 
1260	 0.101682469336141 
1261	 0.101799278965256 
1262	 0.101906348188456 
1263	 0.102032817587026 
1264	 0.102165075112221 
1265	 0.102311604017275 
1266	 0.102454682911396 
1267	 0.10260853857982 
1268	 0.102747157830248 
1269	 0.102873442353316 
1270	 0.10301969772354 
1271	 0.10317074023404 
1272	 0.103318223747512 
1273	 0.103473504929766 
1274	 0.10363239985758 
1275	 0.103781464422338 
1276	 0.103943879502217 
1277	 0.10412322004185 
1278	 0.104299720993658 
1279	 0.104472994539897 
1280	 0.104655309306951 
1281	 0.104849402673392 
1282	 0.10503938198787 
1283	 0.105228893473669 
1284	 0.105422025253631 
1285	 0.105616367071429 
1286	 0.105805892911331 
1287	 0.106010407858362 
1288	 0.106225228699717 
1289	 0.106436073213441 
1290	 0.1066529548693 
1291	 0.106866084636025 
1292	 0.10707627111758 
1293	 0.107288321681025 
1294	 0.107499198074388 
1295	 0.107715312478659 
1296	 0.107934945518628 
1297	 0.108151959213431 
1298	 0.108378091738376 
1299	 0.10858977249441 
1300	 0.108782899966819 
1301	 0.108992764975922 
1302	 0.109202135046016 
1303	 0.109415946354291 
1304	 0.109647935256377 
1305	 0.109868255552878 
1306	 0.110087318842184 
1307	 0.110297275590452 
1308	 0.110494039912475 
1309	 0.11069607274842 
1310	 0.110896371499905 
1311	 0.111084888937714 
1312	 0.111296762771378 
1313	 0.11152785357923 
1314	 0.111734460048211 
1315	 0.111944557696934 
1316	 0.112142073542669 
1317	 0.112316316947904 
1318	 0.112506253933289 
1319	 0.112703580259353 
1320	 0.112893310469327 
1321	 0.113084050135212 
1322	 0.113267279300586 
1323	 0.113444929370046 
1324	 0.113619770624055 
1325	 0.113793772308535 
1326	 0.113958435399875 
1327	 0.114109840741174 
1328	 0.11426930393059 
1329	 0.11442263351433 
1330	 0.11458165416512 
1331	 0.1147486672213 
1332	 0.114915333757048 
1333	 0.115079000955171 
1334	 0.115254635443138 
1335	 0.11541493454324 
1336	 0.115573283653895 
1337	 0.115729229934888 
1338	 0.115875727929748 
1339	 0.116027468874455 
1340	 0.116179062307044 
1341	 0.116336791191465 
1342	 0.116496177825672 
1343	 0.116656180685756 
1344	 0.116829483543659 
1345	 0.116983992829704 
1346	 0.117127173567149 
1347	 0.117273788271063 
1348	 0.117410997554621 
1349	 0.117554577462229 
1350	 0.117696623330845 
1351	 0.117850473201274 
1352	 0.11801008322938 
1353	 0.118172373364168 
1354	 0.118351696830709 
1355	 0.118518750958358 
1356	 0.118681626052056 
1357	 0.118843389358551 
1358	 0.11899518042123 
1359	 0.119154674807085 
1360	 0.119319205760451 
1361	 0.119478951973273 
1362	 0.119647340315876 
1363	 0.11982548926626 
1364	 0.119994654521518 
1365	 0.120164083374698 
1366	 0.120330412911868 
1367	 0.120490076359072 
1368	 0.120658517491811 
1369	 0.120832600869702 
1370	 0.121000325105457 
1371	 0.121171095097918 
1372	 0.121332998714919 
1373	 0.121486464928939 
1374	 0.121643846426499 
1375	 0.121801544652689 
1376	 0.121956526347816 
1377	 0.12211374099838 
1378	 0.122264449528549 
1379	 0.122411416028682 
1380	 0.12255490958705 
1381	 0.12269191125936 
1382	 0.122830653751202 
1383	 0.122969998305934 
1384	 0.123104332368743 
1385	 0.123227961723781 
1386	 0.123364003279013 
1387	 0.123498965914112 
1388	 0.123639958298243 
1389	 0.123797011443808 
1390	 0.123948204525363 
1391	 0.12409350822373 
1392	 0.124247844429073 
1393	 0.12440134319027 
1394	 0.124560912775803 
1395	 0.124717933432615 
1396	 0.124883346064503 
1397	 0.125030277949411 
1398	 0.12517244820361 
1399	 0.125303989304781 
1400	 0.125431679833573 
1401	 0.125534202210411 
1402	 0.125624760513784 
1403	 0.125697983940485 
1404	 0.125745453501977 
1405	 0.125791602394669 
1406	 0.125830993658389 
1407	 0.125855288701541 
1408	 0.125863552981955 
1409	 0.125869361016241 
1410	 0.125864945978055 
1411	 0.125855112444622 
1412	 0.12583383997395 
1413	 0.125819190878214 
1414	 0.125800895460764 
1415	 0.12578209382289 
1416	 0.125764205983954 
1417	 0.125749841860299 
1418	 0.125726776865859 
1419	 0.125717933518782 
1420	 0.125718858760865 
1421	 0.125725865806085 
1422	 0.125736694195679 
1423	 0.12575949806332 
1424	 0.125790696377401 
1425	 0.125830730031931 
1426	 0.12588691114045 
1427	 0.125961943131562 
1428	 0.126027595087663 
1429	 0.126079128610143 
1430	 0.126124834553786 
1431	 0.126161427946853 
1432	 0.126183214842704 
1433	 0.126205187151219 
1434	 0.126193670732407 
1435	 0.126155034161041 
1436	 0.126110587861652 
1437	 0.126042694085986 
1438	 0.125979643115791 
1439	 0.125898405687965 
1440	 0.125841811284771 
1441	 0.125761206568144 
1442	 0.125753714138699 
1443	 0.125752574477391 
1444	 0.125849311166804 
1445	 0.126007376235058 
1446	 0.126234033237275 
1447	 0.126535445772124 
1448	 0.126895363081149 
1449	 0.127339929919723 
1450	 0.127806367515154 
1451	 0.128354112285679 
1452	 0.128889105910359 
1453	 0.129461600638894 
1454	 0.130009736990117 
1455	 0.130567158169643 
1456	 0.13110510368245 
1457	 0.131644928115232 
1458	 0.132148574586488 
1459	 0.132628567588233 
1460	 0.133091306014312 
1461	 0.133519348146577 
1462	 0.133934383424714 
1463	 0.13433665629793 
1464	 0.134722864375031 
1465	 0.135079775719353 
1466	 0.135441495024547 
1467	 0.135774028073142 
1468	 0.136110319841581 
1469	 0.136450866558431 
1470	 0.136767669734744 
1471	 0.13708930548921 
1472	 0.137410766223967 
1473	 0.137727942795379 
1474	 0.138038201160825 
1475	 0.138349477587208 
1476	 0.138663391115497 
1477	 0.138970865940369 
1478	 0.139273401479683 
1479	 0.139567027147527 
1480	 0.139859468790855 
1481	 0.140139366055767 
1482	 0.140409788328406 
1483	 0.140671120983526 
1484	 0.140918640619012 
1485	 0.141171267973676 
1486	 0.141406416485639 
1487	 0.141664849194165 
1488	 0.141925220162804 
1489	 0.142210199312008 
1490	 0.142505721253838 
1491	 0.142830389181718 
1492	 0.143173067915617 
1493	 0.143547077252197 
1494	 0.14395821906285 
1495	 0.144372441819972 
1496	 0.144813426314164 
1497	 0.145257568151467 
1498	 0.145712823577955 
1499	 0.14617197607899 
1500	 0.146652750917665 
1501	 0.147117367268594 
1502	 0.14758383343417 
1503	 0.148033980443292 
1504	 0.148472871366027 
1505	 0.148902842570855 
1506	 0.149330141527592 
1507	 0.149734473352282 
1508	 0.150124369857758 
1509	 0.150498848851175 
1510	 0.15084097582238 
1511	 0.151187066883082 
1512	 0.151528912683897 
1513	 0.151860733205033 
1514	 0.15219458597628 
1515	 0.152509566588378 
1516	 0.152802727743794 
1517	 0.153094700388096 
1518	 0.153370843513106 
1519	 0.153646908198469 
1520	 0.153927351215286 
1521	 0.154194371164549 
1522	 0.154446038675448 
1523	 0.154715171219592 
1524	 0.154967012806905 
1525	 0.155206887680944 
1526	 0.155459657446346 
1527	 0.155712872397299 
1528	 0.155963797151681 
1529	 0.156218221369401 
1530	 0.156473963426796 
1531	 0.156725446585442 
1532	 0.156984439422564 
1533	 0.157247491430689 
1534	 0.157520532180955 
1535	 0.157792275409001 
1536	 0.158084852388198 
1537	 0.158393526892168 
1538	 0.158708491325177 
1539	 0.15903104328495 
1540	 0.159374058446539 
1541	 0.159723071669774 
1542	 0.160106441171247 
1543	 0.160528957211832 
1544	 0.16093036913915 
1545	 0.161340366255942 
1546	 0.161763005159838 
1547	 0.162178386248842 
1548	 0.162616108739173 
1549	 0.163085751572485 
1550	 0.163542726137552 
1551	 0.164005199417238 
1552	 0.164457201395423 
1553	 0.164907395142861 
1554	 0.165356955128587 
1555	 0.165799551638481 
1556	 0.166242411395339 
1557	 0.166685705409243 
1558	 0.167130964558388 
1559	 0.167581322832718 
1560	 0.168013976308341 
1561	 0.168433685741737 
1562	 0.168869186343238 
1563	 0.169309551444262 
1564	 0.169728542559501 
1565	 0.170146527019396 
1566	 0.170567312311773 
1567	 0.170971744227805 
1568	 0.171372992906234 
1569	 0.171793371881215 
1570	 0.172188119742025 
1571	 0.172548872371214 
1572	 0.172923019155723 
1573	 0.17329631499303 
1574	 0.173670439797006 
1575	 0.17404741421312 
1576	 0.174417598182649 
1577	 0.174775440842719 
1578	 0.175152406287181 
1579	 0.1755377504131 
1580	 0.175918050995616 
1581	 0.176317826873201 
1582	 0.176697663162803 
1583	 0.177053396175163 
1584	 0.177424868292675 
1585	 0.177797819420237 
1586	 0.178172287165984 
1587	 0.178550930177963 
1588	 0.178933044031293 
1589	 0.179317039120148 
1590	 0.179701436138985 
1591	 0.180084307122545 
1592	 0.180481419615232 
1593	 0.180892481065845 
1594	 0.181292104539486 
1595	 0.181698378162076 
1596	 0.182099650236681 
1597	 0.182480222973947 
1598	 0.182878093940338 
1599	 0.18330219061836 
1600	 0.183700815586937 
1601	 0.184083436105874 
1602	 0.184479418264209 
1603	 0.184859939869428 
1604	 0.185255902327094 
1605	 0.185685431862839 
1606	 0.186089298135949 
1607	 0.186485340949969 
1608	 0.186876467241693 
1609	 0.187257297608563 
1610	 0.18763079428737 
1611	 0.187989259878671 
1612	 0.188357340577709 
1613	 0.188724532463614 
1614	 0.18908779173309 
1615	 0.189453644861934 
1616	 0.189824891030893 
1617	 0.190198636532815 
1618	 0.190562384478764 
1619	 0.190936624410695 
1620	 0.191288809069078 
1621	 0.191614294931561 
1622	 0.191945949771098 
1623	 0.192271201561725 
1624	 0.19259784679031 
1625	 0.192922958540526 
1626	 0.193248803419337 
1627	 0.193566115397981 
1628	 0.193896653469491 
1629	 0.194236937970243 
1630	 0.194576877990037 
1631	 0.194933646489432 
1632	 0.195274241634007 
1633	 0.195603223680595 
1634	 0.195936326495844 
1635	 0.196253983486256 
1636	 0.196587653945074 
1637	 0.196943784254657 
1638	 0.197280650987788 
1639	 0.197616986185138 
1640	 0.197950708717027 
1641	 0.198274439788868 
1642	 0.198590935907419 
1643	 0.198904052233671 
1644	 0.19921357054738 
1645	 0.19950799238574 
1646	 0.199808510147892 
1647	 0.200126656301291 
1648	 0.200418949555271 
1649	 0.200695525708878 
1650	 0.200970896531464 
1651	 0.201226804231275 
1652	 0.201487760745981 
1653	 0.201753820694938 
1654	 0.202010486942024 
1655	 0.20227440857893 
1656	 0.202510385198768 
1657	 0.202726064373602 
1658	 0.202939884869587 
1659	 0.203134604498249 
1660	 0.203322079737395 
1661	 0.203504788723293 
1662	 0.203684244720341 
1663	 0.203859471808593 
1664	 0.204018755250439 
1665	 0.204180385614024 
1666	 0.204312823546293 
1667	 0.204415527333999 
1668	 0.204509638621777 
1669	 0.204598798825874 
1670	 0.204652158194067 
1671	 0.20467868340283 
1672	 0.204690370474804 
1673	 0.204668712396491 
1674	 0.204640219832425 
1675	 0.204606634149097 
1676	 0.204549217906031 
1677	 0.204464356037264 
1678	 0.204376888502546 
1679	 0.204284772549298 
1680	 0.204156673286681 
1681	 0.20400104881073 
1682	 0.203847778611325 
1683	 0.203678732687701 
1684	 0.203488639135232 
1685	 0.203296957394983 
1686	 0.203080495669208 
1687	 0.202819873767433 
1688	 0.202567903183709 
1689	 0.202320114984224 
1690	 0.202046903522305 
1691	 0.201758942955466 
1692	 0.20146435928776 
1693	 0.201162740415291 
1694	 0.200826787119644 
1695	 0.200476391321519 
1696	 0.200091928759678 
1697	 0.199657549701164 
1698	 0.199238083741514 
1699	 0.198802584546033 
1700	 0.198378845955949 
1701	 0.197959522503874 
1702	 0.197537849737458 
1703	 0.197103915163881 
1704	 0.196700638554098 
1705	 0.1963011564616 
1706	 0.19593287278074 
1707	 0.1955917403579 
1708	 0.195268583457291 
1709	 0.194974852382094 
1710	 0.194695867942648 
1711	 0.194414680182229 
1712	 0.19415354287584 
1713	 0.193877397524038 
1714	 0.1936134360778 
1715	 0.193382847051222 
1716	 0.193124664277118 
1717	 0.192881089655228 
1718	 0.19264853501644 
1719	 0.192394585778251 
1720	 0.192165803426043 
1721	 0.191956088251833 
1722	 0.191763604112578 
1723	 0.191634116745004 
1724	 0.191545207781539 
1725	 0.191473730796046 
1726	 0.191456284970374 
1727	 0.191483739927406 
1728	 0.191558851392703 
1729	 0.191719153134882 
1730	 0.191930122939386 
1731	 0.192149678931419 
1732	 0.192416171028582 
1733	 0.192690320816119 
1734	 0.192944685471326 
1735	 0.193213929534755 
1736	 0.193453435061787 
1737	 0.193655172630009 
1738	 0.193852147929481 
1739	 0.194001591931618 
1740	 0.194110328448412 
1741	 0.194201241035006 
1742	 0.194243986477905 
1743	 0.194289313894583 
1744	 0.194301675213365 
1745	 0.194347859549883 
1746	 0.194393120536261 
1747	 0.194468180263851 
1748	 0.194557581269805 
1749	 0.194681545797094 
1750	 0.194825948667072 
1751	 0.195014703723039 
1752	 0.195255234099183 
1753	 0.195513573000102 
1754	 0.195789371823458 
1755	 0.196105792645612 
1756	 0.196448537352093 
1757	 0.196842619808887 
1758	 0.197289384986842 
1759	 0.197743319419782 
1760	 0.198261645057802 
1761	 0.198807585750742 
1762	 0.199329181841693 
1763	 0.199900042375835 
1764	 0.200488301379984 
1765	 0.201082356224077 
1766	 0.201725197567821 
1767	 0.202359475627743 
1768	 0.202976187422088 
1769	 0.203594294038314 
1770	 0.204168271229244 
1771	 0.204708358647355 
1772	 0.205223631469881 
1773	 0.205716207451948 
1774	 0.206231435688957 
1775	 0.206735000027077 
1776	 0.2072205429336 
1777	 0.207697370817291 
1778	 0.208140212946607 
1779	 0.208581614821449 
1780	 0.209013025630274 
1781	 0.209425859362871 
1782	 0.209844768412533 
1783	 0.210255215699755 
1784	 0.210685302955074 
1785	 0.211070679143668 
1786	 0.211462762231176 
1787	 0.211862151297438 
1788	 0.212248292275483 
1789	 0.212640289467303 
1790	 0.213023230031505 
1791	 0.213388409956867 
1792	 0.213761491552061 
1793	 0.214133069287022 
1794	 0.214502684691877 
1795	 0.214853216357991 
1796	 0.215188761816652 
1797	 0.215554559971817 
1798	 0.215906545586359 
1799	 0.216231085146467 
1800	 0.216571140516317 
1801	 0.212648151858686 
1802	 0.213003095358663 
1803	 0.213340563828855 
1804	 0.21367063385604 
1805	 0.213993977630056 
1806	 0.214293236511347 
1807	 0.214573937065514 
1808	 0.214854725616846 
1809	 0.215119952351378 
1810	 0.215383859345844 
1811	 0.215636414686455 
1812	 0.215902636565484 
1813	 0.216171620720073 
1814	 0.216443302298372 
1815	 0.21670268600571 
1816	 0.216970718857019 
1817	 0.217244451870682 
1818	 0.217517242312985 
1819	 0.217781382970449 
1820	 0.218062592642731 
1821	 0.218324810788908 
1822	 0.21857161284104 
1823	 0.218817016798967 
1824	 0.219035501394761 
1825	 0.219255199218611 
1826	 0.219466945973407 
1827	 0.219651317491953 
1828	 0.219847999512883 
1829	 0.220057331803842 
1830	 0.220251543485793 
1831	 0.220439447521134 
1832	 0.220628174374003 
1833	 0.220786569018879 
1834	 0.220938369316024 
1835	 0.221075870635551 
1836	 0.221195214385697 
1837	 0.221320036009162 
1838	 0.221444701793762 
1839	 0.22156312404096 
1840	 0.221673186964668 
1841	 0.221784933339608 
1842	 0.221899889143508 
1843	 0.222009017730011 
1844	 0.222091038578102 
1845	 0.22217436248991 
1846	 0.222267990459219 
1847	 0.222352168565742 
1848	 0.222438685729158 
1849	 0.222549320897572 
1850	 0.222626654467262 
1851	 0.222691438859873 
1852	 0.222739551705511 
1853	 0.222771621818696 
1854	 0.222788565933029 
1855	 0.222791605034623 
1856	 0.222779124941209 
1857	 0.222727954301537 
1858	 0.222659301984791 
1859	 0.222574359241853 
1860	 0.22246965175204 
1861	 0.222326520297558 
1862	 0.222164491463841 
1863	 0.221979852326081 
1864	 0.221749386781022 
1865	 0.221497992990665 
1866	 0.221192736207427 
1867	 0.220828342050079 
1868	 0.220424549954617 
1869	 0.219964586707417 
1870	 0.219474562886934 
1871	 0.218965767760632 
1872	 0.218405888234853 
1873	 0.217797168082075 
1874	 0.217165984761843 
1875	 0.216498617252369 
1876	 0.215749274288411 
1877	 0.21501221387976 
1878	 0.21418935991288 
1879	 0.213274480294498 
1880	 0.212379354224454 
1881	 0.211411839813202 
1882	 0.210368768355569 
1883	 0.209300384381688 
1884	 0.208186795991441 
1885	 0.206944448896183 
1886	 0.205688053568105 
1887	 0.20433653337395 
1888	 0.202904519645903 
1889	 0.201524524646148 
1890	 0.200040830618942 
1891	 0.198540846978625 
1892	 0.19703946235526 
1893	 0.195456626991854 
1894	 0.193780729202954 
1895	 0.192149379442769 
1896	 0.190451876281072 
1897	 0.188706865633076 
1898	 0.187082197061894 
1899	 0.185381327952336 
1900	 0.183699433547329 
1901	 0.182068599905705 
1902	 0.180316092695005 
1903	 0.178631445179019 
1904	 0.176943611204327 
1905	 0.175238925558681 
1906	 0.173525272358739 
1907	 0.17196281424684 
1908	 0.170346472340749 
1909	 0.16876427618809 
1910	 0.167241050339868 
1911	 0.16560303226532 
1912	 0.164026739255567 
1913	 0.162433738209561 
1914	 0.160803393664388 
1915	 0.159253288673264 
1916	 0.157779256308132 
1917	 0.156246088490384 
1918	 0.154757330406439 
1919	 0.153294929586581 
1920	 0.151702143917376 
1921	 0.150167727758319 
1922	 0.148586442490943 
1923	 0.146936490406109 
1924	 0.145413551244615 
1925	 0.143842985158141 
1926	 0.14226898758223 
1927	 0.140728219225093 
1928	 0.139148946070096 
1929	 0.137502675989956 
1930	 0.13591707708018 
1931	 0.134363323228933 
1932	 0.132859982808427 
1933	 0.131546604200251 
1934	 0.130283370190038 
1935	 0.129122546834539 
1936	 0.12814545423075 
1937	 0.1272842027723 
1938	 0.126521513375413 
1939	 0.125947458951342 
1940	 0.125530263649044 
1941	 0.125252022746096 
1942	 0.125134020153916 
1943	 0.125148124995625 
1944	 0.12529245322121 
1945	 0.125590732126695 
1946	 0.126062728531675 
1947	 0.1266460738952 
1948	 0.127426274020212 
1949	 0.128408866244218 
1950	 0.129500667278339 
1951	 0.130765033441216 
1952	 0.132154543544839 
1953	 0.133675208871503 
1954	 0.135323484762435 
1955	 0.137157629308374 
1956	 0.13897229316027 
1957	 0.140824788973616 
1958	 0.142662612491286 
1959	 0.144300407342767 
1960	 0.145855675238606 
1961	 0.147247987249869 
1962	 0.148474998204896 
1963	 0.149586748130312 
1964	 0.150570943331237 
1965	 0.151411189518454 
1966	 0.152106291507364 
1967	 0.152705005032045 
1968	 0.153167923212489 
1969	 0.153622734238044 
1970	 0.1540599889618 
1971	 0.154488287578197 
1972	 0.154966647434391 
1973	 0.155474357509234 
1974	 0.156019926096167 
1975	 0.156619986954929 
1976	 0.157237832708779 
1977	 0.157878563062407 
1978	 0.158554985627917 
1979	 0.159251893271541 
1980	 0.159992292839896 
1981	 0.160819739566674 
1982	 0.1616167992741 
1983	 0.162484737497045 
1984	 0.163410100546593 
1985	 0.164304983907376 
1986	 0.165300270938063 
1987	 0.166366287646966 
1988	 0.167440573352319 
1989	 0.168690540602273 
1990	 0.170064099589122 
1991	 0.171515423492987 
1992	 0.173093577922417 
1993	 0.174804394182141 
1994	 0.176441882122227 
1995	 0.178190268779203 
1996	 0.179952455396163 
1997	 0.18168405526985 
1998	 0.18347473129183 
1999	 0.185369912723593 
2000	 0.187116626654689 
2001	 0.188913692590084 
2002	 0.190519289568716 
2003	 0.191990210836667 
2004	 0.193414569295801 
2005	 0.194707146998828 
2006	 0.19596520067703 
2007	 0.197209117180207 
2008	 0.19830782795132 
2009	 0.19931928395389 
2010	 0.200293256201074 
2011	 0.201120550726314 
2012	 0.201900608355164 
2013	 0.202628507584255 
2014	 0.203277136946977 
2015	 0.203902432837252 
2016	 0.20449025829953 
2017	 0.205016542176448 
2018	 0.205510894351797 
2019	 0.2059329867763 
2020	 0.20627275971458 
2021	 0.206574362252045 
2022	 0.206842549177817 
2023	 0.207066242322578 
2024	 0.207291566196278 
2025	 0.207480208658237 
2026	 0.207632145459393 
2027	 0.207735845735045 
2028	 0.207850544527866 
2029	 0.2079384406669 
2030	 0.20801783603192 
2031	 0.208087006853469 
2032	 0.208154966856549 
2033	 0.20818847406516 
2034	 0.208245725499402 
2035	 0.20831439284116 
2036	 0.208390630077899 
2037	 0.20847337002014 
2038	 0.20856154564484 
2039	 0.208667000478385 
2040	 0.208790213508183 
2041	 0.208917540920857 
2042	 0.209057911838974 
2043	 0.209201192608294 
2044	 0.209357804281796 
2045	 0.209502568087137 
2046	 0.209646530748938 
2047	 0.209794694495306 
2048	 0.209937557716917 
2049	 0.210083803620199 
2050	 0.210240061008139 
2051	 0.21039227857873 
2052	 0.21053791305103 
2053	 0.210689566104909 
2054	 0.210819173072249 
2055	 0.210936077851442 
2056	 0.211052921994215 
2057	 0.2111534559551 
2058	 0.211258731215224 
2059	 0.211366445559184 
2060	 0.211470753786512 
2061	 0.21157453388508 
2062	 0.211669902929778 
2063	 0.211751347071438 
2064	 0.211848144598467 
2065	 0.211948446365968 
2066	 0.212041979012376 
2067	 0.212158515369031 
2068	 0.212264683144415 
2069	 0.21236472536656 
2070	 0.212457990519924 
2071	 0.212551620044557 
2072	 0.212639125271855 
2073	 0.212732056735966 
2074	 0.212827440498842 
2075	 0.212916309144625 
2076	 0.213023971566121 
2077	 0.213093188265871 
2078	 0.213139515666462 
2079	 0.213178310822631 
2080	 0.213196164643753 
2081	 0.213200493908682 
2082	 0.213183894917614 
2083	 0.213181551826571 
2084	 0.213164485003719 
2085	 0.213113013390261 
2086	 0.213054568676666 
2087	 0.212984220183677 
2088	 0.21290358919441 
2089	 0.212802383665674 
2090	 0.21269928448701 
2091	 0.212598522560364 
2092	 0.212473623884453 
2093	 0.2123306366526 
2094	 0.212177921436613 
2095	 0.211993547310023 
2096	 0.211825406430045 
2097	 0.21166110585779 
2098	 0.211485540445574 
2099	 0.211317046455486 
2100	 0.21115525945511 
2101	 0.210969468678693 
2102	 0.210770251559327 
2103	 0.210566082218974 
2104	 0.21033997957924 
2105	 0.210131795235253 
2106	 0.209918597694266 
2107	 0.209721166339317 
2108	 0.209556600807159 
2109	 0.20935124879712 
2110	 0.209124124394025 
2111	 0.208914091384861 
2112	 0.208686892487739 
2113	 0.208468444187937 
2114	 0.208272973999833 
2115	 0.208068372277435 
2116	 0.207864207396184 
2117	 0.207641248655972 
2118	 0.207415752758196 
2119	 0.207193395931569 
2120	 0.206955171602633 
2121	 0.206686277924603 
2122	 0.206451660428634 
2123	 0.206220251728138 
2124	 0.20600195323003 
2125	 0.205823267471632 
2126	 0.205605119416748 
2127	 0.205367408203556 
2128	 0.205142874935061 
2129	 0.204895796347742 
2130	 0.204667892716446 
2131	 0.204462185946994 
2132	 0.204255650298802 
2133	 0.204062556194083 
2134	 0.203860549096551 
2135	 0.203627835614808 
2136	 0.20340318744158 
2137	 0.203175387917459 
2138	 0.202927436107734 
2139	 0.202687548398155 
2140	 0.202463175292937 
2141	 0.202222446669494 
2142	 0.201972120129813 
2143	 0.201711273253833 
2144	 0.201449784174871 
2145	 0.201173689260618 
2146	 0.20086829227074 
2147	 0.200579341546837 
2148	 0.200294085428498 
2149	 0.200004421447635 
2150	 0.199733913469841 
2151	 0.199431132720966 
2152	 0.199109599263789 
2153	 0.198779532186977 
2154	 0.198421275052517 
2155	 0.198068706261655 
2156	 0.197737482168778 
2157	 0.197420289964582 
2158	 0.197088977248515 
2159	 0.196778778569488 
2160	 0.196433076219892 
2161	 0.196057507692905 
2162	 0.195697387736874 
2163	 0.195311740494468 
2164	 0.194965440913269 
2165	 0.194642028113139 
2166	 0.194318752914645 
2167	 0.194016094821175 
2168	 0.193711279340533 
2169	 0.193397474483547 
2170	 0.193105584140991 
2171	 0.192818933710358 
2172	 0.192558463971622 
2173	 0.192337829567023 
2174	 0.192094470982318 
2175	 0.191869489080556 
2176	 0.191660650604583 
2177	 0.191457782839745 
2178	 0.191250477140463 
2179	 0.191080612331024 
2180	 0.190949104374412 
2181	 0.19078772814077 
2182	 0.19064270002951 
2183	 0.190470140851784 
2184	 0.190280596174609 
2185	 0.190078145153538 
2186	 0.189874847507672 
2187	 0.189640056100978 
2188	 0.189377898287586 
2189	 0.189102500372071 
2190	 0.188798621442818 
2191	 0.188489609383938 
2192	 0.188198828126354 
2193	 0.187843558228411 
2194	 0.187466126258436 
2195	 0.187041890508262 
2196	 0.186554712031711 
2197	 0.186026640072062 
2198	 0.185519274027277 
2199	 0.184955660099788 
2200	 0.184369213468004 
2201	 0.183782229276854 
2202	 0.183097028837101 
2203	 0.182340245111146 
2204	 0.181572029281817 
2205	 0.180707329198746 
2206	 0.179913093179699 
2207	 0.179131222676686 
2208	 0.178336378604889 
2209	 0.177529207444662 
2210	 0.176775419934111 
2211	 0.175994867265727 
2212	 0.175312177310487 
2213	 0.174668484635064 
2214	 0.174131476015593 
2215	 0.173649018812018 
2216	 0.17328497206407 
2217	 0.173055730231994 
2218	 0.172886532318021 
2219	 0.172822048743804 
2220	 0.172815122158725 
2221	 0.172895109430389 
2222	 0.173020762316043 
2223	 0.17320040965153 
2224	 0.17340027820429 
2225	 0.173591156743063 
2226	 0.173750896336628 
2227	 0.173850334136551 
2228	 0.173923647769441 
2229	 0.17392287189796 
2230	 0.173865098553123 
2231	 0.173742538426702 
2232	 0.173569778012058 
2233	 0.173309679179251 
2234	 0.17297923543604 
2235	 0.17256825726988 
2236	 0.172065328826527 
2237	 0.171517278024938 
2238	 0.170881997787415 
2239	 0.170210806742806 
2240	 0.169505427814717 
2241	 0.168707977339542 
2242	 0.167875655041212 
2243	 0.166921760644281 
2244	 0.165850195709565 
2245	 0.164720153332414 
2246	 0.163458449796745 
2247	 0.162176494046554 
2248	 0.160859409594854 
2249	 0.159460681189714 
2250	 0.1580105386113 
2251	 0.156500190500404 
2252	 0.154812495587963 
2253	 0.153138753042172 
2254	 0.151411286956609 
2255	 0.149595216597137 
2256	 0.147875790986227 
2257	 0.146138680398623 
2258	 0.14445574061375 
2259	 0.142801332862391 
2260	 0.141183262686527 
2261	 0.139568668554885 
2262	 0.138085597071865 
2263	 0.136611716587392 
2264	 0.135341064204473 
2265	 0.134228819123838 
2266	 0.133195692654613 
2267	 0.132306314433601 
2268	 0.131498876958477 
2269	 0.130799000267767 
2270	 0.130177174347937 
2271	 0.129668113969768 
2272	 0.129223399927965 
2273	 0.128881639155449 
2274	 0.12857126848353 
2275	 0.128381238094518 
2276	 0.128147634211696 
2277	 0.127930365900081 
2278	 0.12772663540961 
2279	 0.127542428453601 
2280	 0.127331459710312 
2281	 0.127163225961259 
2282	 0.126925335076619 
2283	 0.126644593872906 
2284	 0.126317438790623 
2285	 0.125949143144584 
2286	 0.125563077540367 
2287	 0.125160415120815 
2288	 0.124727532544591 
2289	 0.124274896738935 
2290	 0.12376117323423 
2291	 0.123201817118458 
2292	 0.122651998765686 
2293	 0.122111768460999 
2294	 0.121562406154616 
2295	 0.121066244880631 
2296	 0.120644834890505 
2297	 0.120326770475789 
2298	 0.120084705562547 
2299	 0.119968880625217 
2300	 0.119939011348884 
2301	 0.120084405989654 
2302	 0.120363570743289 
2303	 0.120771871263496 
2304	 0.121366416086428 
2305	 0.122035230475889 
2306	 0.122828270317083 
2307	 0.123719937889355 
2308	 0.124714378041583 
2309	 0.125846425342355 
2310	 0.127158929385376 
2311	 0.128444174424375 
2312	 0.12991396312642 
2313	 0.131244988481698 
2314	 0.132556682017171 
2315	 0.133801611466051 
2316	 0.135006338435806 
2317	 0.136114672415201 
2318	 0.137209874330209 
2319	 0.138082985004102 
2320	 0.138829932556977 
2321	 0.139433944867729 
2322	 0.139813182684185 
2323	 0.14012733633672 
2324	 0.140361938436057 
2325	 0.140417248195219 
2326	 0.140313710810143 
2327	 0.140095266778869 
2328	 0.139672754861806 
2329	 0.139193228650489 
2330	 0.138614216612666 
2331	 0.137913202424235 
2332	 0.137164620309536 
2333	 0.136353514646881 
2334	 0.135355198477444 
2335	 0.134310020955303 
2336	 0.133150093250545 
2337	 0.13184750651508 
2338	 0.130616616766156 
2339	 0.129347853126203 
2340	 0.128109637842593 
2341	 0.126905172133235 
2342	 0.12563611362658 
2343	 0.124486260206997 
2344	 0.12341116264009 
2345	 0.1224886806054 
2346	 0.121820398766455 
2347	 0.121308543370015 
2348	 0.120944016318827 
2349	 0.120770821614871 
2350	 0.120732500732581 
2351	 0.120832541140043 
2352	 0.121061512617276 
2353	 0.121374133609926 
2354	 0.121712916070692 
2355	 0.122070171662744 
2356	 0.122429252615612 
2357	 0.122744511944927 
2358	 0.123051834378722 
2359	 0.123295357925531 
2360	 0.123478946484417 
2361	 0.123636262582231 
2362	 0.12375069156218 
2363	 0.123822146044495 
2364	 0.123865638334229 
2365	 0.123909950962458 
2366	 0.123911345168426 
2367	 0.123915954083622 
2368	 0.123945405516509 
2369	 0.123862314130588 
2370	 0.123711396021087 
2371	 0.123581576224135 
2372	 0.123394045070964 
2373	 0.123205145537153 
2374	 0.123078467760465 
2375	 0.122871223403471 
2376	 0.122607324438534 
2377	 0.122347452166816 
2378	 0.122051174725595 
2379	 0.121743444163081 
2380	 0.121431174362524 
2381	 0.121135057503741 
2382	 0.120820580952268 
2383	 0.120502361238357 
2384	 0.120136250687133 
2385	 0.119736838585733 
2386	 0.11931813587759 
2387	 0.118832308256697 
2388	 0.118416699205641 
2389	 0.118061231668378 
2390	 0.117634199999765 
2391	 0.117208769301499 
2392	 0.116732560009074 
2393	 0.116187899695647 
2394	 0.115642216546803 
2395	 0.115028008085547 
2396	 0.114511903305968 
2397	 0.114023182687168 
2398	 0.113529825978036 
2399	 0.113116995288499 
2400	 0.112689926162138 
2401	 0.112205701534574 
2402	 0.111785964274379 
2403	 0.111455337758168 
2404	 0.111057771338373 
2405	 0.110666235660237 
2406	 0.110399008831649 
2407	 0.110041100507282 
2408	 0.109613407979334 
2409	 0.109313218560132 
2410	 0.109048638584836 
2411	 0.108767287487231 
2412	 0.108564279630054 
2413	 0.10832080440748 
2414	 0.108005395477507 
2415	 0.107714453109396 
2416	 0.107487094330417 
2417	 0.107364986463997 
2418	 0.10722890508837 
2419	 0.107043158670213 
2420	 0.106828150472542 
2421	 0.106537460474781 
2422	 0.106255251590818 
2423	 0.106085252271823 
2424	 0.106005170824729 
2425	 0.105987860215001 
2426	 0.105982246909417 
2427	 0.105921243006163 
2428	 0.10593811836812 
2429	 0.105989747336177 
2430	 0.106006980862603 
2431	 0.106095493180342 
2432	 0.10608980404323 
2433	 0.105962496202714 
2434	 0.105909828587806 
2435	 0.105864332498613 
2436	 0.105790459273853 
2437	 0.105758979823296 
2438	 0.105805487579525 
2439	 0.105867620686026 
2440	 0.105864836198567 
2441	 0.105989265910615 
2442	 0.106111079026619 
2443	 0.106154864481099 
2444	 0.106250711193356 
2445	 0.106285680817291 
2446	 0.106299143158195 
2447	 0.106358527573903 
2448	 0.106493302890144 
2449	 0.106627772602401 
2450	 0.106686445119405 
2451	 0.106627927295043 
2452	 0.106512479434883 
2453	 0.106437680592612 
2454	 0.106328475453717 
2455	 0.106290802051033 
2456	 0.106418986494477 
2457	 0.106468355675608 
2458	 0.106342788250332 
2459	 0.106230300336323 
2460	 0.10613864514653 
2461	 0.105967065528489 
2462	 0.105760344192802 
2463	 0.105656279967559 
2464	 0.105544353329748 
2465	 0.105339030013817 
2466	 0.105253671642899 
2467	 0.105124889089881 
2468	 0.104759555310138 
2469	 0.104536397717794 
2470	 0.10454749719422 
2471	 0.104561853581377 
2472	 0.104576535494468 
2473	 0.104375211353541 
2474	 0.10414375155685 
2475	 0.104015489915342 
2476	 0.103790377664627 
2477	 0.103757469599209 
2478	 0.103659063619987 
2479	 0.103560855619054 
2480	 0.103627240875732 
2481	 0.103704533953778 
2482	 0.103949384749794 
2483	 0.10401899453284 
2484	 0.104233544996741 
2485	 0.104374625344344 
2486	 0.104421428121795 
2487	 0.104606040286932 
2488	 0.104571528992551 
2489	 0.104603126901893 
2490	 0.104735254153095 
2491	 0.104646473739108 
2492	 0.104919856477681 
2493	 0.105249383234279 
2494	 0.105308256916514 
2495	 0.105582796456665 
2496	 0.105710946952757 
2497	 0.105772199006044 
2498	 0.106039073492778 
2499	 0.106244352146968 
2500	 0.106559574486977 
