Wavelength	spectrum00025.asd
350	 1.77942950210556E-02 
351	 1.79243994696215E-02 
352	 1.61673083326648E-02 
353	 1.42196942119016E-02 
354	 1.50648113651217E-02 
355	 1.66488624992404E-02 
356	 1.78510432962697E-02 
357	 0.017807184536708 
358	 1.52734271398029E-02 
359	 1.42414981865626E-02 
360	 1.50105317739672E-02 
361	 1.58148652130767E-02 
362	 1.59274113381157E-02 
363	 1.57722169520914E-02 
364	 1.51843863034568E-02 
365	 1.29799608860572E-02 
366	 1.49156262504785E-02 
367	 1.67609216910605E-02 
368	 1.49458893961041E-02 
369	 1.62518747201434E-02 
370	 1.68005372944803E-02 
371	 1.59312093032695E-02 
372	 1.50099496119107E-02 
373	 1.53083993690837E-02 
374	 1.58887152931353E-02 
375	 1.60282043741911E-02 
376	 1.56822934227316E-02 
377	 1.63200949035818E-02 
378	 1.66142919717377E-02 
379	 1.54921480387862E-02 
380	 1.52954467805397E-02 
381	 1.56809829900865E-02 
382	 1.58417627631621E-02 
383	 1.50523630758176E-02 
384	 1.59528937498498E-02 
385	 0.017130201787155 
386	 1.72252807536029E-02 
387	 1.56049803459358E-02 
388	 1.56999748272269E-02 
389	 1.65913757450005E-02 
390	 1.66746713765176E-02 
391	 1.67940084605924E-02 
392	 1.66277602769504E-02 
393	 1.64790658189725E-02 
394	 1.69132503841255E-02 
395	 1.65542068249531E-02 
396	 1.65219695276009E-02 
397	 1.72625027842142E-02 
398	 1.76884095363525E-02 
399	 1.69734895696542E-02 
400	 0.016326447486523 
401	 1.68880319164609E-02 
402	 1.67486502595958E-02 
403	 1.72286604287963E-02 
404	 1.79888893660586E-02 
405	 1.75531781348209E-02 
406	 1.74930745218737E-02 
407	 1.76196549902487E-02 
408	 1.76713114923789E-02 
409	 1.77871460254374E-02 
410	 1.77305014974196E-02 
411	 1.77043514046323E-02 
412	 1.79574317732728E-02 
413	 1.82622075524107E-02 
414	 1.81981371808309E-02 
415	 1.79408257364428E-02 
416	 1.81583880956953E-02 
417	 1.83999752001457E-02 
418	 1.85363219977615E-02 
419	 0.01856823947848 
420	 1.86751901737516E-02 
421	 1.85177761337856E-02 
422	 1.84392841350824E-02 
423	 1.88753562902326E-02 
424	 1.89471076090506E-02 
425	 1.89475270694875E-02 
426	 1.90152154996957E-02 
427	 0.019004687469189 
428	 1.89023946755831E-02 
429	 1.89950771543413E-02 
430	 1.93444083831921E-02 
431	 1.91148830411344E-02 
432	 1.91087952743843E-02 
433	 1.92893998236107E-02 
434	 1.91963279464667E-02 
435	 1.92336712265276E-02 
436	 1.93066000076266E-02 
437	 1.93248024079651E-02 
438	 0.019282020556816 
439	 1.94120646112349E-02 
440	 1.95513735190208E-02 
441	 1.95357947448886E-02 
442	 0.019741769831584 
443	 1.98685653611892E-02 
444	 1.98277069546911E-02 
445	 1.97300861589338E-02 
446	 1.97277402277498E-02 
447	 1.97780182275331E-02 
448	 1.98414426750995E-02 
449	 1.99849345964199E-02 
450	 2.00323922010537E-02 
451	 2.00271297271298E-02 
452	 0.020078499982661 
453	 2.01024314794554E-02 
454	 2.01676039603678E-02 
455	 0.020254106551011 
456	 2.02391605924158E-02 
457	 2.03137357453456E-02 
458	 2.03640727833917E-02 
459	 2.03271680912488E-02 
460	 2.05166481302441E-02 
461	 0.020599687980096 
462	 0.020531269830885 
463	 0.020448249978701 
464	 2.05043105989431E-02 
465	 2.05636991631976E-02 
466	 2.05623458705636E-02 
467	 2.06019936036189E-02 
468	 0.020622031425716 
469	 2.06576952537096E-02 
470	 2.07585200699702E-02 
471	 2.09387775917938E-02 
472	 2.09989140760019E-02 
473	 2.09253070183906E-02 
474	 2.08611726558405E-02 
475	 2.08503900707547E-02 
476	 2.09060267009901E-02 
477	 2.09697152557131E-02 
478	 2.08162023075709E-02 
479	 2.08574621784582E-02 
480	 0.021036044782799 
481	 2.11185561605895E-02 
482	 0.021077072358591 
483	 2.10385466444596E-02 
484	 2.10784695334395E-02 
485	 2.11956636827018E-02 
486	 2.13410961536105E-02 
487	 2.13532935923791E-02 
488	 2.11891841584791E-02 
489	 2.12231525139986E-02 
490	 2.12839976539362E-02 
491	 0.021341477439023 
492	 2.14371418045673E-02 
493	 2.14629842280132E-02 
494	 2.14647849170532E-02 
495	 2.14874356274742E-02 
496	 2.15449774796291E-02 
497	 2.15718989283438E-02 
498	 0.02156986721176 
499	 2.15630937497311E-02 
500	 2.15647803269276E-02 
501	 2.15687743891384E-02 
502	 2.15770496075104E-02 
503	 2.16004860879466E-02 
504	 2.16831795544941E-02 
505	 0.021703572917719 
506	 2.16284204248763E-02 
507	 2.17167182671853E-02 
508	 2.17310523862489E-02 
509	 2.17064471768952E-02 
510	 2.17676231188223E-02 
511	 2.17473193267769E-02 
512	 2.17587150659187E-02 
513	 2.18295909404888E-02 
514	 2.18487045176031E-02 
515	 2.18383667882727E-02 
516	 0.021859642037616 
517	 2.19348246211584E-02 
518	 0.021907799283651 
519	 2.18966635283956E-02 
520	 2.19260410595515E-02 
521	 2.19506099035226E-02 
522	 2.19541820643295E-02 
523	 2.19589816166817E-02 
524	 2.19854717634554E-02 
525	 2.20493668706847E-02 
526	 2.20251532062271E-02 
527	 2.19995203619499E-02 
528	 2.20902555203882E-02 
529	 2.21226850607135E-02 
530	 2.21228470204329E-02 
531	 2.21275143700946E-02 
532	 2.21687416607228E-02 
533	 2.21900533279767E-02 
534	 2.21896788135061E-02 
535	 2.21807625369018E-02 
536	 0.022180883135606 
537	 2.21716923854357E-02 
538	 0.022178496144229 
539	 2.22341712096268E-02 
540	 2.22027926076161E-02 
541	 2.21945539181728E-02 
542	 2.22528480364271E-02 
543	 2.22703139435951E-02 
544	 2.22703903751346E-02 
545	 2.22536913276319E-02 
546	 2.22287242905926E-02 
547	 2.22570492443995E-02 
548	 2.22813444899279E-02 
549	 2.22938577255497E-02 
550	 2.23333727009717E-02 
551	 2.23613459287641E-02 
552	 0.022412925714334 
553	 0.022493462188423 
554	 2.24916568427867E-02 
555	 2.25277652580961E-02 
556	 0.022600828799991 
557	 2.26572709867729E-02 
558	 2.27260024270119E-02 
559	 0.02279017846272 
560	 2.28446614250013E-02 
561	 2.29070303973115E-02 
562	 2.28926846878815E-02 
563	 2.28715195120447E-02 
564	 2.29129978883322E-02 
565	 2.29136848737319E-02 
566	 2.29004040688176E-02 
567	 2.28860419551025E-02 
568	 0.022873793843724 
569	 2.28970630207681E-02 
570	 2.29421131912254E-02 
571	 2.29809939437128E-02 
572	 0.022966763236209 
573	 2.29894402357192E-02 
574	 2.30098417000901E-02 
575	 0.022965877272559 
576	 2.29908491241529E-02 
577	 2.29563764380928E-02 
578	 2.28588088743244E-02 
579	 2.28512782501322E-02 
580	 2.28754876180731E-02 
581	 2.29081406408688E-02 
582	 2.29370722842706E-02 
583	 2.29695708521029E-02 
584	 2.29767780029805E-02 
585	 2.29842221810259E-02 
586	 2.30383776325666E-02 
587	 2.30558811172657E-02 
588	 2.30575955344285E-02 
589	 0.023067771700889 
590	 0.023095946814553 
591	 2.31029416780428E-02 
592	 2.31131588581579E-02 
593	 2.31545019020129E-02 
594	 2.31786281420449E-02 
595	 2.31939995306191E-02 
596	 2.32129170071426E-02 
597	 2.32464813773373E-02 
598	 2.32473921840914E-02 
599	 2.32657205626482E-02 
600	 0.023320275685713 
601	 2.33087288429524E-02 
602	 2.33129687933959E-02 
603	 2.33329603191533E-02 
604	 2.33387335412232E-02 
605	 2.33542639319756E-02 
606	 2.33618846816947E-02 
607	 0.023379628242485 
608	 2.34725164616074E-02 
609	 2.34670490386645E-02 
610	 2.34261041471152E-02 
611	 2.34406575045762E-02 
612	 2.34862923740978E-02 
613	 2.34971209911251E-02 
614	 2.34924493713221E-02 
615	 2.35367026346208E-02 
616	 2.35284197149511E-02 
617	 2.35405706674247E-02 
618	 2.35923537309248E-02 
619	 2.35642750418307E-02 
620	 2.35620600811601E-02 
621	 2.35935613040862E-02 
622	 2.36281825015075E-02 
623	 2.36155266252593E-02 
624	 2.36353029685423E-02 
625	 2.36743866715559E-02 
626	 2.36370930880838E-02 
627	 2.36616114392262E-02 
628	 2.37085919404105E-02 
629	 2.37272648857254E-02 
630	 2.37198319338683E-02 
631	 2.37446443777502E-02 
632	 0.023779439378176 
633	 2.37763969423392E-02 
634	 2.37955158846913E-02 
635	 2.38100510471125E-02 
636	 2.38178906005969E-02 
637	 2.38555745142845E-02 
638	 2.38415164939539E-02 
639	 2.38294227066859E-02 
640	 2.38708979506498E-02 
641	 2.39000830715183E-02 
642	 2.39064678002349E-02 
643	 2.39114728201468E-02 
644	 2.39484620331852E-02 
645	 2.39532444604224E-02 
646	 2.39594856396658E-02 
647	 2.39847819096958E-02 
648	 2.39998527220695E-02 
649	 2.40369845024632E-02 
650	 0.024075842616006 
651	 2.40877493073123E-02 
652	 0.024080265549998 
653	 2.40715500158461E-02 
654	 2.40729949069892E-02 
655	 2.40887321529868E-02 
656	 2.41146686105258E-02 
657	 2.41385643195012E-02 
658	 2.41564490576102E-02 
659	 2.41841051710902E-02 
660	 2.42177925438562E-02 
661	 2.42293305607163E-02 
662	 2.42025093294847E-02 
663	 2.42395295163587E-02 
664	 2.42493414831295E-02 
665	 2.42351564356549E-02 
666	 2.42997303724456E-02 
667	 2.43275691456281E-02 
668	 2.43342745999462E-02 
669	 2.43507763047793E-02 
670	 2.43784803512638E-02 
671	 2.43980544371275E-02 
672	 2.44048869793689E-02 
673	 2.44067656960486E-02 
674	 2.44404779345136E-02 
675	 2.44650194283015E-02 
676	 2.44690310844782E-02 
677	 2.44843216318077E-02 
678	 2.44831527399756E-02 
679	 2.44970558269131E-02 
680	 0.024545683874502 
681	 2.45766148945658E-02 
682	 2.45788146598842E-02 
683	 2.45709668887932E-02 
684	 2.45828768456865E-02 
685	 2.45774155619712E-02 
686	 2.45836748502601E-02 
687	 2.46129452122429E-02 
688	 2.46429560552792E-02 
689	 2.46623345071989E-02 
690	 2.46715113641687E-02 
691	 2.46808732147315E-02 
692	 2.47226226121122E-02 
693	 2.47381300262749E-02 
694	 2.47346440222257E-02 
695	 0.024757107390898 
696	 2.47719519823218E-02 
697	 2.47854071059335E-02 
698	 2.48035220343043E-02 
699	 2.48252822050541E-02 
700	 2.48343408802803E-02 
701	 2.48481595952534E-02 
702	 2.48809103325132E-02 
703	 2.48950960317548E-02 
704	 2.49135753196511E-02 
705	 0.024932312027215 
706	 2.49328920246946E-02 
707	 2.49588605953804E-02 
708	 2.49853135534867E-02 
709	 2.49944869469653E-02 
710	 2.49945805877025E-02 
711	 2.50153062455242E-02 
712	 2.50414789784808E-02 
713	 2.50518064752258E-02 
714	 2.50600590063892E-02 
715	 2.50852661170475E-02 
716	 2.51094053229485E-02 
717	 2.50978950618428E-02 
718	 2.51456879650806E-02 
719	 2.51852102439386E-02 
720	 2.51780825348148E-02 
721	 2.51711165069935E-02 
722	 2.51898039733379E-02 
723	 0.025214039412508 
724	 2.52226175049865E-02 
725	 2.52587017739394E-02 
726	 2.52813809187999E-02 
727	 0.025292034882538 
728	 2.53187688353359E-02 
729	 2.53185400488498E-02 
730	 2.53304481087885E-02 
731	 2.53678224079986E-02 
732	 2.53855799402594E-02 
733	 2.53865632768124E-02 
734	 2.53927577275719E-02 
735	 2.54184677812282E-02 
736	 2.54206225573323E-02 
737	 2.54503891405136E-02 
738	 0.025487052715241 
739	 2.54743473774704E-02 
740	 2.55064921288002E-02 
741	 2.55414294022998E-02 
742	 0.025553487757728 
743	 2.55666498325812E-02 
744	 2.55707528133796E-02 
745	 2.55851306824936E-02 
746	 2.56195744413435E-02 
747	 0.025628774772754 
748	 2.56278289918982E-02 
749	 2.56326518605926E-02 
750	 2.56551700107919E-02 
751	 2.56726315773547E-02 
752	 2.56961385913829E-02 
753	 2.57208430796524E-02 
754	 2.57180728825724E-02 
755	 0.025729719918498 
756	 2.57424252831341E-02 
757	 2.57407352455216E-02 
758	 2.57406855856548E-02 
759	 2.57488398242619E-02 
760	 2.57666452638638E-02 
761	 2.57894777818905E-02 
762	 2.57995247004259E-02 
763	 2.57950818144198E-02 
764	 2.57926673621801E-02 
765	 2.58227650751835E-02 
766	 2.58342105896515E-02 
767	 2.58356170183639E-02 
768	 2.58444517560685E-02 
769	 0.025871722780206 
770	 2.58941046446427E-02 
771	 2.58981858252963E-02 
772	 2.58849299023895E-02 
773	 2.58993363443502E-02 
774	 2.59203306754982E-02 
775	 0.025928514097346 
776	 2.59136953114678E-02 
777	 2.59199129855787E-02 
778	 2.59435191712756E-02 
779	 2.59673353870896E-02 
780	 2.59648163487251E-02 
781	 2.59733450711122E-02 
782	 2.59833013369349E-02 
783	 2.59833169265923E-02 
784	 2.60073395190583E-02 
785	 2.60201670214544E-02 
786	 2.60178351962043E-02 
787	 2.60156988551636E-02 
788	 2.60210602587645E-02 
789	 2.60240014595768E-02 
790	 2.60259010939299E-02 
791	 2.60424616282991E-02 
792	 2.60544983161954E-02 
793	 2.60611998184312E-02 
794	 0.026067065627948 
795	 2.60802410283382E-02 
796	 2.60855355544363E-02 
797	 2.60914659558638E-02 
798	 0.026106669441293 
799	 2.60952981115894E-02 
800	 2.60816555064216E-02 
801	 2.60826949877005E-02 
802	 0.026103695113398 
803	 2.61207004745164E-02 
804	 2.61238745821833E-02 
805	 0.026116918096226 
806	 2.61194664378662E-02 
807	 2.61186735614838E-02 
808	 2.61164109980532E-02 
809	 2.61179464744496E-02 
810	 2.61262846800349E-02 
811	 2.61540858020708E-02 
812	 2.61798175463959E-02 
813	 2.61740074841367E-02 
814	 2.61530220541164E-02 
815	 0.026168489974265 
816	 2.62005653331944E-02 
817	 2.61750858715283E-02 
818	 2.61851269119302E-02 
819	 2.61928116166616E-02 
820	 0.026178471437957 
821	 2.61841673870407E-02 
822	 0.026188994371388 
823	 2.62018325799362E-02 
824	 2.62258103753786E-02 
825	 2.62251986780932E-02 
826	 2.62103922764352E-02 
827	 2.62035225172822E-02 
828	 2.62223280169802E-02 
829	 2.62259789614127E-02 
830	 0.026239578462518 
831	 2.62555297630475E-02 
832	 2.62412613866124E-02 
833	 0.0262561774276 
834	 2.62661308995306E-02 
835	 2.62566034279511E-02 
836	 2.62638545953301E-02 
837	 2.62736168434023E-02 
838	 2.62746987918123E-02 
839	 0.026269360625855 
840	 2.63002562089926E-02 
841	 2.62912429840475E-02 
842	 2.62684242504454E-02 
843	 2.62828557092832E-02 
844	 2.62818058136914E-02 
845	 2.62806163949828E-02 
846	 0.026294081301756 
847	 2.63271191668297E-02 
848	 2.63270650690566E-02 
849	 2.63031380750179E-02 
850	 2.62808965733824E-02 
851	 2.62932813436833E-02 
852	 2.63302217715042E-02 
853	 2.63476689739504E-02 
854	 2.63258870178383E-02 
855	 2.63097413547082E-02 
856	 2.62954555090066E-02 
857	 2.62979379184256E-02 
858	 0.026322013818372 
859	 2.63242242681173E-02 
860	 2.63144559707745E-02 
861	 2.63188341301393E-02 
862	 2.63569561495187E-02 
863	 0.026363250386764 
864	 2.63647018232366E-02 
865	 2.63639985340535E-02 
866	 2.63427296219452E-02 
867	 2.63439845497034E-02 
868	 2.63627810234099E-02 
869	 2.63697772019223E-02 
870	 2.63179497593443E-02 
871	 2.63214051568796E-02 
872	 2.63295380426531E-02 
873	 2.63043229728251E-02 
874	 2.63180927126969E-02 
875	 2.63427005264547E-02 
876	 2.63589671800046E-02 
877	 2.63586000390616E-02 
878	 2.63632926630112E-02 
879	 2.63666243984988E-02 
880	 2.63680723078689E-02 
881	 2.63667194516724E-02 
882	 2.63432975443381E-02 
883	 2.63241204665468E-02 
884	 2.63288672042851E-02 
885	 2.63612913200688E-02 
886	 0.02636686973367 
887	 2.63607338131427E-02 
888	 2.63592768744914E-02 
889	 2.63690946211822E-02 
890	 0.026388055577125 
891	 2.64003824284028E-02 
892	 0.026392794558916 
893	 0.026360766867636 
894	 2.63510194937194E-02 
895	 2.63589993157946E-02 
896	 2.63734278607853E-02 
897	 2.64089446602041E-02 
898	 2.64109744759957E-02 
899	 2.63726998409496E-02 
900	 0.026323484433915 
901	 0.026348227359214 
902	 0.026377745768382 
903	 2.63825636180466E-02 
904	 2.63656803034525E-02 
905	 0.026369724524073 
906	 0.0263809523655 
907	 2.63921757082012E-02 
908	 2.63991588353107E-02 
909	 2.63626837373669E-02 
910	 2.63431494061966E-02 
911	 2.63523969454336E-02 
912	 2.63473109163338E-02 
913	 2.63648881914127E-02 
914	 2.63942481192662E-02 
915	 2.64014366817284E-02 
916	 2.63397364231538E-02 
917	 2.63405051840344E-02 
918	 2.63725932276994E-02 
919	 2.64022243342188E-02 
920	 2.64598185282172E-02 
921	 2.63878048555481E-02 
922	 2.63063851954276E-02 
923	 2.63275399739868E-02 
924	 2.63496535179107E-02 
925	 2.63569612830289E-02 
926	 0.026369419271145 
927	 2.64029435191986E-02 
928	 2.64083561883549E-02 
929	 2.64159891205926E-02 
930	 2.64117288882139E-02 
931	 2.63734770831161E-02 
932	 2.63219037668466E-02 
933	 2.63079645890604E-02 
934	 2.63381264620783E-02 
935	 2.63795692935149E-02 
936	 0.026350246049874 
937	 2.63523001219223E-02 
938	 2.63718344652654E-02 
939	 2.63319942243355E-02 
940	 2.63606509500611E-02 
941	 2.63917186476604E-02 
942	 2.63970043454193E-02 
943	 2.63960992807244E-02 
944	 2.63871085324102E-02 
945	 2.63706279671531E-02 
946	 0.026365300658699 
947	 2.63984227806681E-02 
948	 2.63922295251905E-02 
949	 2.63590386022481E-02 
950	 2.63421978633803E-02 
951	 2.63923007214924E-02 
952	 2.63645951768021E-02 
953	 2.63879084138137E-02 
954	 2.64782456009966E-02 
955	 2.64290198633576E-02 
956	 2.64140873868609E-02 
957	 2.64395003706506E-02 
958	 2.64647991305659E-02 
959	 2.64358355839463E-02 
960	 2.64055990368227E-02 
961	 2.63953572585736E-02 
962	 2.64259834481971E-02 
963	 2.65334341906888E-02 
964	 0.026480046017024 
965	 2.63897025849419E-02 
966	 2.63866963080261E-02 
967	 2.63619706586252E-02 
968	 0.026409300087 
969	 2.64567844831231E-02 
970	 2.64346449217727E-02 
971	 2.63977086087315E-02 
972	 2.63781116774376E-02 
973	 2.63902457451035E-02 
974	 2.64180630145118E-02 
975	 0.026386524367837 
976	 2.64056493657556E-02 
977	 2.64547395462212E-02 
978	 2.64668676361591E-02 
979	 2.63712332142736E-02 
980	 2.63397551927466E-02 
981	 2.63606340594349E-02 
982	 2.63707754645462E-02 
983	 2.63676496735856E-02 
984	 2.64256565283169E-02 
985	 2.64611116097441E-02 
986	 2.64116793308995E-02 
987	 2.64864247648074E-02 
988	 2.64328359584121E-02 
989	 2.63757939188344E-02 
990	 2.64565347836006E-02 
991	 2.63838054434607E-02 
992	 2.63651969246549E-02 
993	 2.63662988679888E-02 
994	 2.63211934465448E-02 
995	 2.63667402559448E-02 
996	 2.64562126692342E-02 
997	 2.64592332244971E-02 
998	 2.63217120990001E-02 
999	 2.63159146898737E-02 
1000	 2.63890453330147E-02 
1001	 2.68704482765556E-02 
1002	 0.026858081895986 
1003	 2.68550105362862E-02 
1004	 2.68488845410315E-02 
1005	 2.68288800327967E-02 
1006	 2.68206550358327E-02 
1007	 2.68180057375966E-02 
1008	 2.68122037435839E-02 
1009	 2.68016203742688E-02 
1010	 2.68143220974781E-02 
1011	 2.68500578551188E-02 
1012	 0.026856323448408 
1013	 2.68548022539209E-02 
1014	 2.68628818967221E-02 
1015	 2.68569634394216E-02 
1016	 2.68670733685034E-02 
1017	 2.68758883224522E-02 
1018	 2.68545287323558E-02 
1019	 2.68327136437204E-02 
1020	 2.68157711874659E-02 
1021	 2.68129438956564E-02 
1022	 2.68379922272872E-02 
1023	 2.68476311248591E-02 
1024	 2.68729967181943E-02 
1025	 2.68572937206582E-02 
1026	 2.68009070261476E-02 
1027	 2.67808368429863E-02 
1028	 2.67598908797414E-02 
1029	 2.67228304841217E-02 
1030	 2.67179801265763E-02 
1031	 2.67681069935138E-02 
1032	 2.67916372141889E-02 
1033	 2.68045625130344E-02 
1034	 0.026835891705991 
1035	 2.68040431641717E-02 
1036	 2.67884786313489E-02 
1037	 2.67531377833394E-02 
1038	 2.67518836729475E-02 
1039	 2.67726364598703E-02 
1040	 2.67782551746679E-02 
1041	 0.026789262155635 
1042	 2.67878718403293E-02 
1043	 2.67687688164808E-02 
1044	 2.67592456259178E-02 
1045	 0.026767060868563 
1046	 2.67544297813376E-02 
1047	 0.026750353692768 
1048	 0.026754702296048 
1049	 2.67279622302515E-02 
1050	 2.67378560524696E-02 
1051	 2.67785265115936E-02 
1052	 2.67804286164081E-02 
1053	 2.67796701559874E-02 
1054	 2.67871796529477E-02 
1055	 2.67816674707828E-02 
1056	 2.67392009336988E-02 
1057	 2.67407211757074E-02 
1058	 2.67739495739395E-02 
1059	 2.67736170928438E-02 
1060	 2.67834924300839E-02 
1061	 2.67856803934499E-02 
1062	 2.67739150754702E-02 
1063	 0.026805003969576 
1064	 2.68361846497962E-02 
1065	 2.68436263499772E-02 
1066	 2.68444726541191E-02 
1067	 2.68396877461785E-02 
1068	 2.68489737422189E-02 
1069	 2.68703946821984E-02 
1070	 2.68782525681464E-02 
1071	 2.68894496160436E-02 
1072	 0.02689257702969 
1073	 2.68811723760583E-02 
1074	 2.68569524094746E-02 
1075	 2.68553566262255E-02 
1076	 2.68507720985888E-02 
1077	 2.68350072661525E-02 
1078	 2.68496157198076E-02 
1079	 2.68609752132347E-02 
1080	 2.68566397601857E-02 
1081	 2.68717245732151E-02 
1082	 2.68627369317041E-02 
1083	 2.68473350263113E-02 
1084	 2.68638255163366E-02 
1085	 2.68527782340426E-02 
1086	 2.68424314478062E-02 
1087	 2.68332647671298E-02 
1088	 2.68355574733928E-02 
1089	 2.68259312168596E-02 
1090	 2.68374353981379E-02 
1091	 2.68536103373041E-02 
1092	 2.68506219957159E-02 
1093	 2.68417725688422E-02 
1094	 2.68480353896924E-02 
1095	 2.68644245189176E-02 
1096	 2.68742066022782E-02 
1097	 2.68844702645645E-02 
1098	 2.68790229925117E-02 
1099	 0.026862746692748 
1100	 2.68504823583839E-02 
1101	 2.68252235220668E-02 
1102	 2.68172295274594E-02 
1103	 2.68228212603292E-02 
1104	 2.68402965860984E-02 
1105	 0.026853157885632 
1106	 2.68680818737179E-02 
1107	 2.68732243117671E-02 
1108	 2.68577277603421E-02 
1109	 2.68426348039531E-02 
1110	 2.68463542665808E-02 
1111	 2.68506917115644E-02 
1112	 2.68403899612118E-02 
1113	 0.026829308151818 
1114	 2.68379598872782E-02 
1115	 2.68492106656531E-02 
1116	 2.68456221541064E-02 
1117	 2.68445149639271E-02 
1118	 2.68412139113186E-02 
1119	 2.68195404064957E-02 
1120	 2.68064073965961E-02 
1121	 2.67966263104302E-02 
1122	 2.68002951023329E-02 
1123	 2.67974022304761E-02 
1124	 2.67895297809799E-02 
1125	 2.67856616666439E-02 
1126	 2.67846019308597E-02 
1127	 2.67725301911493E-02 
1128	 2.67690157599198E-02 
1129	 2.67863485245153E-02 
1130	 2.67890530099896E-02 
1131	 2.67873293185762E-02 
1132	 0.026780768121319 
1133	 2.67554357582468E-02 
1134	 2.67488403167499E-02 
1135	 0.026745628660121 
1136	 2.67591072580119E-02 
1137	 2.67558227671988E-02 
1138	 2.67466314376477E-02 
1139	 2.67321046542071E-02 
1140	 2.67027258238409E-02 
1141	 2.66904848785693E-02 
1142	 2.66795322691738E-02 
1143	 0.026687152908508 
1144	 2.67071073656339E-02 
1145	 2.67051542461061E-02 
1146	 2.66958610683081E-02 
1147	 0.026692907937514 
1148	 2.66777019189889E-02 
1149	 2.66693441131869E-02 
1150	 2.66635627157207E-02 
1151	 2.66429541550197E-02 
1152	 2.66374988809353E-02 
1153	 0.026641110711528 
1154	 2.66347212024408E-02 
1155	 2.66405226580077E-02 
1156	 2.66292852996775E-02 
1157	 2.65910588230801E-02 
1158	 2.65723236541498E-02 
1159	 2.65546803031964E-02 
1160	 2.65444192011328E-02 
1161	 2.65390618952508E-02 
1162	 2.65297141240964E-02 
1163	 2.65265900348621E-02 
1164	 2.65161339932249E-02 
1165	 2.65071887557147E-02 
1166	 2.65066487723568E-02 
1167	 2.64882026225144E-02 
1168	 2.64706707899263E-02 
1169	 0.026458820025881 
1170	 2.64487491173107E-02 
1171	 2.64365719533337E-02 
1172	 2.64244875558164E-02 
1173	 2.64220595620592E-02 
1174	 2.64243874236514E-02 
1175	 2.64222752809471E-02 
1176	 2.64309015925237E-02 
1177	 2.64269453046252E-02 
1178	 2.64057817595957E-02 
1179	 2.64000355636913E-02 
1180	 2.63938590951253E-02 
1181	 2.63886857573738E-02 
1182	 2.63914757895246E-02 
1183	 0.026393192636294 
1184	 0.026383372398091 
1185	 2.63641785875463E-02 
1186	 2.63641658982889E-02 
1187	 2.63720287682507E-02 
1188	 2.63709626728318E-02 
1189	 2.63809686797293E-02 
1190	 2.63856158218782E-02 
1191	 2.63727748365065E-02 
1192	 2.63715859901218E-02 
1193	 2.63883283711821E-02 
1194	 2.63885770273814E-02 
1195	 2.63735406029595E-02 
1196	 2.63745113459691E-02 
1197	 2.63823926443641E-02 
1198	 2.63821852275921E-02 
1199	 2.63816406659091E-02 
1200	 2.63732664080398E-02 
1201	 0.026362315839612 
1202	 2.63614144592607E-02 
1203	 2.63797749503348E-02 
1204	 2.64003123425252E-02 
1205	 2.64063300977205E-02 
1206	 2.64009923931722E-02 
1207	 2.64049049927286E-02 
1208	 2.64052876392383E-02 
1209	 2.64097373434194E-02 
1210	 2.64261933876975E-02 
1211	 2.64265552534631E-02 
1212	 2.64079674420564E-02 
1213	 2.64086014392605E-02 
1214	 2.64119920183424E-02 
1215	 2.64207929340047E-02 
1216	 2.64526406831997E-02 
1217	 2.64669079388007E-02 
1218	 2.64718485971449E-02 
1219	 2.64736672595908E-02 
1220	 2.64819479734776E-02 
1221	 2.64899548270741E-02 
1222	 2.64987724695268E-02 
1223	 2.65056864854354E-02 
1224	 2.65159845331029E-02 
1225	 2.65239575884865E-02 
1226	 2.65288150513243E-02 
1227	 2.65363857826215E-02 
1228	 2.65461258634642E-02 
1229	 2.65535041558129E-02 
1230	 2.65553196830412E-02 
1231	 2.65597690104102E-02 
1232	 0.026561894912168 
1233	 0.026547305942309 
1234	 2.65497468207177E-02 
1235	 2.65597735006626E-02 
1236	 2.65765567132783E-02 
1237	 2.66169738461225E-02 
1238	 2.66357175001632E-02 
1239	 2.66524317078819E-02 
1240	 2.66612773577677E-02 
1241	 2.66508533385537E-02 
1242	 2.66392847753844E-02 
1243	 2.66451571488639E-02 
1244	 0.026665389544781 
1245	 2.66671367520443E-02 
1246	 2.66709541106226E-02 
1247	 0.026669373627181 
1248	 0.026652106423347 
1249	 0.026645814362699 
1250	 2.66438875877197E-02 
1251	 2.66460530636016E-02 
1252	 2.66520080236518E-02 
1253	 2.66543103776635E-02 
1254	 2.66654064243033E-02 
1255	 2.66660327366627E-02 
1256	 2.66526240848101E-02 
1257	 2.66484703569206E-02 
1258	 2.66434668516684E-02 
1259	 2.66418550813317E-02 
1260	 2.66437923677229E-02 
1261	 2.66490764267076E-02 
1262	 2.66574819428109E-02 
1263	 2.66729215339641E-02 
1264	 2.66740661379482E-02 
1265	 0.026674622677143 
1266	 2.66712134755765E-02 
1267	 2.66537606781145E-02 
1268	 2.66484933743355E-02 
1269	 2.66434476774297E-02 
1270	 2.66506338698753E-02 
1271	 2.66670828247661E-02 
1272	 2.66795555304405E-02 
1273	 2.67028632860721E-02 
1274	 2.67192697133744E-02 
1275	 2.67309200023549E-02 
1276	 2.67408556297157E-02 
1277	 2.67523589077724E-02 
1278	 2.67589336072531E-02 
1279	 2.67513425819549E-02 
1280	 2.67577179944237E-02 
1281	 0.026772212835291 
1282	 2.67830976073934E-02 
1283	 2.68058226496754E-02 
1284	 2.68179932964408E-02 
1285	 2.68243234690172E-02 
1286	 2.68198098313449E-02 
1287	 0.026825698880017 
1288	 2.68308929158777E-02 
1289	 2.68366966248686E-02 
1290	 2.68472653276079E-02 
1291	 2.68547193437393E-02 
1292	 2.68576287041333E-02 
1293	 2.68647182635441E-02 
1294	 2.68727463014253E-02 
1295	 2.68848179097301E-02 
1296	 2.69077884619736E-02 
1297	 2.69130923619528E-02 
1298	 2.69115594917255E-02 
1299	 2.69122477327216E-02 
1300	 2.68975617876153E-02 
1301	 2.68946817025632E-02 
1302	 2.69097365365699E-02 
1303	 0.026908847302891 
1304	 2.68878494175596E-02 
1305	 2.68894800966596E-02 
1306	 0.026901853589732 
1307	 2.69071506234923E-02 
1308	 2.69266280877466E-02 
1309	 2.69428289259172E-02 
1310	 2.69471061814564E-02 
1311	 2.69333403850674E-02 
1312	 2.69334242046365E-02 
1313	 2.69355100047364E-02 
1314	 0.026937331804742 
1315	 2.69427166020609E-02 
1316	 2.69425552350738E-02 
1317	 2.69383701426078E-02 
1318	 2.69387768999094E-02 
1319	 2.69418447448138E-02 
1320	 2.69380064644059E-02 
1321	 2.69367876744739E-02 
1322	 0.026928172794334 
1323	 2.69031247424841E-02 
1324	 2.68930374856059E-02 
1325	 0.026888350129492 
1326	 2.68827687065912E-02 
1327	 2.68858453757486E-02 
1328	 2.68840628446378E-02 
1329	 2.68782637580964E-02 
1330	 2.68732793355301E-02 
1331	 2.68683545841528E-02 
1332	 2.68629627151935E-02 
1333	 2.68577874460831E-02 
1334	 2.68526124742072E-02 
1335	 0.026840228189837 
1336	 2.68225692388617E-02 
1337	 2.68127433571607E-02 
1338	 2.67989436403641E-02 
1339	 2.67922771019323E-02 
1340	 2.67951918857743E-02 
1341	 2.67924812390861E-02 
1342	 2.67905769889214E-02 
1343	 2.67838480608483E-02 
1344	 2.67751985292631E-02 
1345	 2.67658963037916E-02 
1346	 2.67485895991598E-02 
1347	 2.67413400806016E-02 
1348	 2.67457343673233E-02 
1349	 2.67357521142809E-02 
1350	 2.67225927788845E-02 
1351	 2.67091530666209E-02 
1352	 2.66831027643895E-02 
1353	 2.66660606123625E-02 
1354	 2.66525265675198E-02 
1355	 2.66432806292475E-02 
1356	 2.66460454770459E-02 
1357	 2.66361606359444E-02 
1358	 0.026624265234237 
1359	 2.66104822004636E-02 
1360	 2.65848452667884E-02 
1361	 2.65583064077055E-02 
1362	 2.65508591671544E-02 
1363	 2.65510400177675E-02 
1364	 2.65470845816714E-02 
1365	 2.65553618122268E-02 
1366	 2.65434053212727E-02 
1367	 2.65174842561262E-02 
1368	 2.65041848673706E-02 
1369	 2.64841844337377E-02 
1370	 2.64781793415926E-02 
1371	 2.64940457271666E-02 
1372	 2.64812958368126E-02 
1373	 2.64577780988002E-02 
1374	 2.64408449580585E-02 
1375	 2.64054235091044E-02 
1376	 2.63893671661284E-02 
1377	 2.63917369274975E-02 
1378	 2.63854569640167E-02 
1379	 2.63795507230068E-02 
1380	 2.63743243281699E-02 
1381	 2.63706879948967E-02 
1382	 2.63638229408397E-02 
1383	 2.63593469482376E-02 
1384	 2.63487266264213E-02 
1385	 2.63280886552918E-02 
1386	 2.63143129889173E-02 
1387	 2.62977935399922E-02 
1388	 2.62872935123492E-02 
1389	 2.62910821726966E-02 
1390	 2.62840455564726E-02 
1391	 2.62767085372324E-02 
1392	 2.62620743241778E-02 
1393	 2.62399289157801E-02 
1394	 2.62132100155042E-02 
1395	 2.62014265617241E-02 
1396	 2.61962714069406E-02 
1397	 2.61877093091331E-02 
1398	 2.61931093446667E-02 
1399	 2.61751900028183E-02 
1400	 2.61432185859697E-02 
1401	 2.61154195091696E-02 
1402	 2.60734892987865E-02 
1403	 2.60498818470077E-02 
1404	 0.026039488055253 
1405	 2.60172164762656E-02 
1406	 2.59953299049501E-02 
1407	 2.59751227782664E-02 
1408	 2.59547932368086E-02 
1409	 2.59244041658847E-02 
1410	 0.025892152027618 
1411	 0.025860118670974 
1412	 2.58127103848627E-02 
1413	 2.57776054637443E-02 
1414	 2.57570897434902E-02 
1415	 2.57270629357572E-02 
1416	 2.56911669360176E-02 
1417	 2.56600425530514E-02 
1418	 0.025629960325618 
1419	 2.55985418824327E-02 
1420	 2.55675482996482E-02 
1421	 2.55389189188751E-02 
1422	 2.55049152295516E-02 
1423	 2.54798705383317E-02 
1424	 2.54641607076136E-02 
1425	 2.54482683396764E-02 
1426	 0.025441252910239 
1427	 2.54211820917305E-02 
1428	 2.53843315587406E-02 
1429	 2.53534531265835E-02 
1430	 2.53197018449969E-02 
1431	 2.52749666081587E-02 
1432	 2.52430512709729E-02 
1433	 2.52207368440287E-02 
1434	 2.51909388764122E-02 
1435	 2.51635682829802E-02 
1436	 2.51295302558597E-02 
1437	 2.50914050896993E-02 
1438	 2.50499792689101E-02 
1439	 2.50016311802822E-02 
1440	 2.49588168087939E-02 
1441	 2.49102473417541E-02 
1442	 2.48747033211765E-02 
1443	 2.48409873245402E-02 
1444	 2.48225134380139E-02 
1445	 2.48152780870149E-02 
1446	 0.024814381463281 
1447	 2.48305947551219E-02 
1448	 2.48410147430733E-02 
1449	 2.48471971408439E-02 
1450	 2.48703293601209E-02 
1451	 2.49063748248258E-02 
1452	 2.49359422905924E-02 
1453	 2.49775020269491E-02 
1454	 0.025012061629986 
1455	 2.50363099010982E-02 
1456	 0.025065482269452 
1457	 0.025103307640086 
1458	 0.025131615757432 
1459	 2.51536953896883E-02 
1460	 2.51754970411153E-02 
1461	 2.51901187132365E-02 
1462	 2.52079017516603E-02 
1463	 2.52280681181853E-02 
1464	 2.52470058343085E-02 
1465	 2.52688301247575E-02 
1466	 2.52838627337133E-02 
1467	 2.53065087041646E-02 
1468	 2.53203325129231E-02 
1469	 2.53199953613691E-02 
1470	 2.53290058536545E-02 
1471	 2.53400998063426E-02 
1472	 2.53474225892995E-02 
1473	 0.02535910602217 
1474	 0.025381060673072 
1475	 2.53945217964828E-02 
1476	 2.54018768856186E-02 
1477	 2.54117648213582E-02 
1478	 2.54242065459082E-02 
1479	 2.54325781768249E-02 
1480	 2.54394911778496E-02 
1481	 2.54428528446486E-02 
1482	 2.54423810107253E-02 
1483	 2.54439757438652E-02 
1484	 2.54420111814851E-02 
1485	 2.54430332145748E-02 
1486	 2.54491652895952E-02 
1487	 2.54484041552156E-02 
1488	 2.54412589750819E-02 
1489	 2.54418140349406E-02 
1490	 2.54354413553657E-02 
1491	 2.54474666972375E-02 
1492	 2.54828049690522E-02 
1493	 2.54973825497931E-02 
1494	 2.55116565705288E-02 
1495	 2.55237319436732E-02 
1496	 2.55096379025176E-02 
1497	 2.55263477152129E-02 
1498	 0.025573505394332 
1499	 2.55986334872814E-02 
1500	 2.56288210165351E-02 
1501	 2.56515780005203E-02 
1502	 0.025652733849153 
1503	 2.56655692853377E-02 
1504	 2.56858808115726E-02 
1505	 2.57040802978331E-02 
1506	 2.57249487370828E-02 
1507	 2.57427364573442E-02 
1508	 2.57602752491112E-02 
1509	 2.57750987910342E-02 
1510	 2.57854681533485E-02 
1511	 2.57973110399563E-02 
1512	 2.58098401457561E-02 
1513	 2.58196571540425E-02 
1514	 2.58310624249998E-02 
1515	 2.58368972089052E-02 
1516	 2.58363896352493E-02 
1517	 2.58366687322535E-02 
1518	 2.58294411074752E-02 
1519	 2.58293320166428E-02 
1520	 0.025836807959825 
1521	 2.58403015769008E-02 
1522	 2.58348154267271E-02 
1523	 2.58397281652866E-02 
1524	 2.58404657619623E-02 
1525	 2.58333249876884E-02 
1526	 2.58365630701201E-02 
1527	 2.58496509475797E-02 
1528	 2.58527273410785E-02 
1529	 0.025852299614343 
1530	 2.58566254459641E-02 
1531	 2.58600718574186E-02 
1532	 0.025864840123583 
1533	 2.58755667190559E-02 
1534	 2.58767985316674E-02 
1535	 2.58697628715418E-02 
1536	 2.58739580226028E-02 
1537	 2.58798610072142E-02 
1538	 2.58844174913881E-02 
1539	 2.58943023834895E-02 
1540	 2.59033161342057E-02 
1541	 2.59073425772809E-02 
1542	 2.59178926455971E-02 
1543	 2.59368714195403E-02 
1544	 2.59487122434317E-02 
1545	 2.59583995831781E-02 
1546	 2.59683930568057E-02 
1547	 2.59733589414593E-02 
1548	 2.59877861086264E-02 
1549	 0.026008092738618 
1550	 2.60242223857047E-02 
1551	 2.60434810981097E-02 
1552	 2.60624020404407E-02 
1553	 2.60811384836028E-02 
1554	 2.60944289255397E-02 
1555	 2.61056284225402E-02 
1556	 2.61201699296692E-02 
1557	 2.61315583889157E-02 
1558	 2.61422045969163E-02 
1559	 2.61598822145652E-02 
1560	 2.61688442289506E-02 
1561	 2.61655888669669E-02 
1562	 2.61718220074788E-02 
1563	 0.026177558146681 
1564	 2.61900230128728E-02 
1565	 2.62120405005486E-02 
1566	 2.62274142846879E-02 
1567	 2.62468047913146E-02 
1568	 2.62591179089877E-02 
1569	 2.62602428735506E-02 
1570	 2.62712816257653E-02 
1571	 2.62862455767289E-02 
1572	 2.62976415247591E-02 
1573	 2.63127289802972E-02 
1574	 2.63252204491516E-02 
1575	 2.63336469629693E-02 
1576	 2.63419013546214E-02 
1577	 2.63499589235628E-02 
1578	 2.63589797827058E-02 
1579	 2.63647457942659E-02 
1580	 2.63740037770202E-02 
1581	 2.63880635815694E-02 
1582	 2.63993689933445E-02 
1583	 2.64170335924383E-02 
1584	 2.64207818624971E-02 
1585	 2.64118534754579E-02 
1586	 2.64109782367379E-02 
1587	 2.63979998009054E-02 
1588	 0.02640064574997 
1589	 2.64254229684746E-02 
1590	 2.64335353720622E-02 
1591	 0.026435552370573 
1592	 2.64435073146573E-02 
1593	 2.64449410170112E-02 
1594	 2.64515729950731E-02 
1595	 2.64693543877979E-02 
1596	 2.64817594750039E-02 
1597	 2.64901869190063E-02 
1598	 0.026499464282406 
1599	 2.65069120358898E-02 
1600	 0.026518800549793 
1601	 2.65379711660017E-02 
1602	 2.65481022044573E-02 
1603	 2.65566012463375E-02 
1604	 2.65628294829546E-02 
1605	 2.65555028250259E-02 
1606	 2.65591027460432E-02 
1607	 2.65697386493834E-02 
1608	 2.65803367986996E-02 
1609	 0.026601562442148 
1610	 2.66098209827266E-02 
1611	 0.026607243784601 
1612	 2.66120921770048E-02 
1613	 2.66129846346389E-02 
1614	 2.66169769211219E-02 
1615	 2.66323630819889E-02 
1616	 0.0266383497312 
1617	 2.66346028725695E-02 
1618	 2.66368587774912E-02 
1619	 2.66361774998594E-02 
1620	 2.66410412385994E-02 
1621	 2.66535085013052E-02 
1622	 2.66645479294005E-02 
1623	 2.66852704486417E-02 
1624	 2.66911401475918E-02 
1625	 0.026679895358196 
1626	 2.66836372808387E-02 
1627	 2.66887338905041E-02 
1628	 2.66918802252972E-02 
1629	 2.67091444208354E-02 
1630	 2.67153635112094E-02 
1631	 2.66980279603392E-02 
1632	 2.67043254373106E-02 
1633	 2.67325857984378E-02 
1634	 2.67431377531228E-02 
1635	 2.67603918876216E-02 
1636	 2.67643897057019E-02 
1637	 2.67374254076415E-02 
1638	 0.026732938403379 
1639	 0.026747002043831 
1640	 2.67459075282964E-02 
1641	 0.026734807189267 
1642	 2.67409850463708E-02 
1643	 2.67486312857889E-02 
1644	 2.67537345753259E-02 
1645	 2.67815853655526E-02 
1646	 2.67926620085137E-02 
1647	 2.67879630043412E-02 
1648	 2.67837646905286E-02 
1649	 0.026769016931789 
1650	 2.67633415310234E-02 
1651	 2.67540884392201E-02 
1652	 2.67540223804888E-02 
1653	 2.67730476517002E-02 
1654	 2.67815832092141E-02 
1655	 2.67933285240493E-02 
1656	 2.67920703614631E-02 
1657	 2.67682139647789E-02 
1658	 2.67646638147383E-02 
1659	 2.67646517470231E-02 
1660	 2.67682057561036E-02 
1661	 2.67949111950455E-02 
1662	 2.68027753520496E-02 
1663	 2.68075868473046E-02 
1664	 0.026794472696864 
1665	 2.67578671203571E-02 
1666	 2.67331818963183E-02 
1667	 2.66935192588909E-02 
1668	 2.66717524770368E-02 
1669	 0.026671874165285 
1670	 2.66603219628708E-02 
1671	 2.66556874168736E-02 
1672	 2.66349005836097E-02 
1673	 2.65982638330049E-02 
1674	 2.65669411510741E-02 
1675	 2.65282152740382E-02 
1676	 0.026496701246966 
1677	 0.026468349028634 
1678	 2.64457459891137E-02 
1679	 2.64312016536519E-02 
1680	 2.64026040305002E-02 
1681	 2.63694120148146E-02 
1682	 2.63444781574724E-02 
1683	 2.63128112950147E-02 
1684	 2.62895058093542E-02 
1685	 2.62839548398528E-02 
1686	 2.62591986199631E-02 
1687	 2.62248123005028E-02 
1688	 2.61962686342996E-02 
1689	 2.61614910650638E-02 
1690	 2.61331720840276E-02 
1691	 2.61053109505479E-02 
1692	 2.60817251899841E-02 
1693	 2.60654604918318E-02 
1694	 2.60448691967151E-02 
1695	 2.60293017285126E-02 
1696	 0.026010570063899 
1697	 2.59859343840488E-02 
1698	 2.59588299891887E-02 
1699	 0.025931223879336 
1700	 2.59010006607325E-02 
1701	 2.58644957326238E-02 
1702	 0.025835542052774 
1703	 2.58112348047686E-02 
1704	 2.57885351696439E-02 
1705	 2.57616167975213E-02 
1706	 2.57637876399441E-02 
1707	 2.57525605692137E-02 
1708	 2.57231699802588E-02 
1709	 2.57143549892035E-02 
1710	 2.56988092655857E-02 
1711	 2.56671592619972E-02 
1712	 2.56458215705272E-02 
1713	 2.56308162182637E-02 
1714	 2.56038007501859E-02 
1715	 2.55793161486441E-02 
1716	 2.55681156268488E-02 
1717	 2.55579277783244E-02 
1718	 2.55418025106028E-02 
1719	 2.55149289122845E-02 
1720	 2.54931173377407E-02 
1721	 2.54725098321632E-02 
1722	 2.54547041925934E-02 
1723	 2.54453764076932E-02 
1724	 2.54280318477483E-02 
1725	 2.54116310228912E-02 
1726	 2.53950117294342E-02 
1727	 2.53900297153075E-02 
1728	 2.53977785232971E-02 
1729	 2.53883181573818E-02 
1730	 2.53714590376935E-02 
1731	 2.53689469226754E-02 
1732	 2.53608587355697E-02 
1733	 0.025347472630705 
1734	 2.53567522587926E-02 
1735	 0.025350631685134 
1736	 2.53287600386409E-02 
1737	 2.53346913803862E-02 
1738	 2.53252119010215E-02 
1739	 2.53202599061891E-02 
1740	 0.025333944887221 
1741	 2.53269165335036E-02 
1742	 2.53038822484212E-02 
1743	 2.52896001875925E-02 
1744	 0.025261659274271 
1745	 2.52583365842888E-02 
1746	 2.52847951425097E-02 
1747	 2.52856194907383E-02 
1748	 2.52767721501819E-02 
1749	 2.52812832753064E-02 
1750	 2.52812903034707E-02 
1751	 2.52834697846099E-02 
1752	 2.52980118916117E-02 
1753	 2.53134491605132E-02 
1754	 2.53166920479221E-02 
1755	 2.53325100665838E-02 
1756	 2.53677538896856E-02 
1757	 2.53999722189418E-02 
1758	 2.54242387644395E-02 
1759	 2.54413642354531E-02 
1760	 2.54662620394996E-02 
1761	 2.54724944190078E-02 
1762	 2.54782486327146E-02 
1763	 0.025512570561065 
1764	 2.55390897504059E-02 
1765	 2.55562279068307E-02 
1766	 2.55863079685351E-02 
1767	 2.56056567447543E-02 
1768	 2.56363912827881E-02 
1769	 2.56964754604357E-02 
1770	 2.57308133719601E-02 
1771	 2.57497937216246E-02 
1772	 2.57575428277923E-02 
1773	 2.57481098822642E-02 
1774	 2.57557303387267E-02 
1775	 2.57646813614608E-02 
1776	 0.025782237715442 
1777	 0.025823839949478 
1778	 2.58487428674302E-02 
1779	 2.58673365448793E-02 
1780	 2.58977294077933E-02 
1781	 2.59118887971803E-02 
1782	 2.59311261342224E-02 
1783	 0.025962436796978 
1784	 2.59799981825588E-02 
1785	 2.59761131406821E-02 
1786	 2.59809083530591E-02 
1787	 2.59784829859322E-02 
1788	 0.025994300452621 
1789	 2.60269326650085E-02 
1790	 2.60475836438765E-02 
1791	 2.60834678849369E-02 
1792	 2.60897457044628E-02 
1793	 0.026057550030955 
1794	 2.60690051305792E-02 
1795	 2.61007960861973E-02 
1796	 2.61270925611714E-02 
1797	 2.61583724915593E-02 
1798	 2.61700667073937E-02 
1799	 2.61569918244039E-02 
1800	 2.61781384993763E-02 
1801	 2.74854044438189E-02 
1802	 2.75074580001541E-02 
1803	 0.027525239878964 
1804	 2.75359101178024E-02 
1805	 2.75517222786925E-02 
1806	 2.75690828991161E-02 
1807	 2.75990100342171E-02 
1808	 2.76093136985702E-02 
1809	 2.76014956373461E-02 
1810	 2.76126621454815E-02 
1811	 2.76269310391169E-02 
1812	 2.76343805028045E-02 
1813	 2.76429731478798E-02 
1814	 2.76673486280805E-02 
1815	 0.027680491128008 
1816	 2.76819135078483E-02 
1817	 0.027688224523281 
1818	 2.77014601453073E-02 
1819	 2.77093187323818E-02 
1820	 2.77031322609875E-02 
1821	 2.77141033876288E-02 
1822	 2.77415851519208E-02 
1823	 0.027755845137174 
1824	 2.77609804075975E-02 
1825	 2.77724547948575E-02 
1826	 2.77740223025805E-02 
1827	 2.77511400238406E-02 
1828	 2.77549385781185E-02 
1829	 2.77697665270668E-02 
1830	 2.77792763788534E-02 
1831	 2.77909778031339E-02 
1832	 2.78190447763757E-02 
1833	 0.027819881949393 
1834	 2.78191652174116E-02 
1835	 2.78255168489685E-02 
1836	 2.78260229524603E-02 
1837	 2.78400227457707E-02 
1838	 2.78768152562004E-02 
1839	 2.78884599114388E-02 
1840	 2.78909038499091E-02 
1841	 2.78957781766344E-02 
1842	 2.78819757430039E-02 
1843	 2.78954546837167E-02 
1844	 2.79095908024582E-02 
1845	 2.79082058603734E-02 
1846	 2.79195554455475E-02 
1847	 2.79180114887444E-02 
1848	 0.027914077278959 
1849	 2.79095322659176E-02 
1850	 0.027908630994062 
1851	 0.027903829963741 
1852	 2.78970217143331E-02 
1853	 2.79015743375048E-02 
1854	 2.78957600999852E-02 
1855	 0.027888617450527 
1856	 2.78767411869209E-02 
1857	 2.78573502575902E-02 
1858	 2.78476268860796E-02 
1859	 2.78396849370459E-02 
1860	 2.78370465035287E-02 
1861	 2.78280149509387E-02 
1862	 2.78203763607935E-02 
1863	 2.78132551911955E-02 
1864	 2.77889980747434E-02 
1865	 2.77659540697349E-02 
1866	 2.77463483963808E-02 
1867	 2.77100886437984E-02 
1868	 2.76720187383512E-02 
1869	 2.76305860026925E-02 
1870	 2.75925497731309E-02 
1871	 2.75512902629881E-02 
1872	 2.75151929684174E-02 
1873	 2.74863896344931E-02 
1874	 2.74551343045929E-02 
1875	 0.027415957535702 
1876	 2.73548084978289E-02 
1877	 2.72970533299274E-02 
1878	 2.72423889917471E-02 
1879	 2.71772877456382E-02 
1880	 2.71260372068977E-02 
1881	 2.70734181126129E-02 
1882	 0.02702423733856 
1883	 2.69603297561698E-02 
1884	 2.68996389751877E-02 
1885	 2.68262198098392E-02 
1886	 2.67367686216495E-02 
1887	 2.66592335174106E-02 
1888	 2.65747711731788E-02 
1889	 2.64837974379443E-02 
1890	 2.64059629099228E-02 
1891	 2.63154035613114E-02 
1892	 2.62163861838868E-02 
1893	 2.61238524166711E-02 
1894	 2.60382021149308E-02 
1895	 2.59393184702282E-02 
1896	 2.58330068201244E-02 
1897	 2.57358627856674E-02 
1898	 2.56418755791931E-02 
1899	 0.025542194080041 
1900	 2.54546007331945E-02 
1901	 0.025372913467344 
1902	 2.52670152638864E-02 
1903	 0.025168842126168 
1904	 2.50749625236303E-02 
1905	 2.49799694295757E-02 
1906	 2.48808120070435E-02 
1907	 2.48031388771377E-02 
1908	 2.47177104305986E-02 
1909	 2.46327083280574E-02 
1910	 0.024556058594122 
1911	 2.44706545179459E-02 
1912	 2.43949008173528E-02 
1913	 2.43102817286007E-02 
1914	 2.42126746405114E-02 
1915	 2.41218845255029E-02 
1916	 0.024033614078842 
1917	 2.39370387689356E-02 
1918	 2.38422748869177E-02 
1919	 2.37573049767653E-02 
1920	 2.36680096753444E-02 
1921	 2.35725502075235E-02 
1922	 2.34667993140984E-02 
1923	 2.33539408117549E-02 
1924	 2.32536661936183E-02 
1925	 2.31492365726045E-02 
1926	 2.30441178499044E-02 
1927	 2.29530831053656E-02 
1928	 2.28515940410779E-02 
1929	 0.022734214167261 
1930	 2.26255634574332E-02 
1931	 2.25388391081339E-02 
1932	 0.022437950514721 
1933	 2.23482296816959E-02 
1934	 2.22784356828345E-02 
1935	 2.22134797323318E-02 
1936	 2.21575954796629E-02 
1937	 2.21128767091798E-02 
1938	 2.20861709690517E-02 
1939	 2.20582278493232E-02 
1940	 2.20295351885036E-02 
1941	 2.20241605438199E-02 
1942	 2.20189500274983E-02 
1943	 0.022021491675844 
1944	 2.20375185821247E-02 
1945	 2.20481876958282E-02 
1946	 2.20773271169204E-02 
1947	 2.21121877526427E-02 
1948	 0.022157721442248 
1949	 2.22308342602657E-02 
1950	 2.23016442385367E-02 
1951	 2.23760820279634E-02 
1952	 2.24665484480481E-02 
1953	 2.25672499933042E-02 
1954	 2.26763110298183E-02 
1955	 2.27983873680826E-02 
1956	 2.29284954121739E-02 
1957	 2.30457364341763E-02 
1958	 2.31525343640263E-02 
1959	 2.32482782457564E-02 
1960	 0.023329803006269 
1961	 2.34083366706465E-02 
1962	 2.34758321074044E-02 
1963	 2.35440052136183E-02 
1964	 2.36149430746164E-02 
1965	 2.36694397426039E-02 
1966	 0.023718160717648 
1967	 2.37537866407964E-02 
1968	 2.37782897753632E-02 
1969	 2.38070882324073E-02 
1970	 2.38445376181197E-02 
1971	 2.38834537314303E-02 
1972	 2.39182900169934E-02 
1973	 2.39496813439108E-02 
1974	 2.39879557667018E-02 
1975	 2.40276131501754E-02 
1976	 2.40704289582261E-02 
1977	 2.41214178768401E-02 
1978	 2.41704839034544E-02 
1979	 2.42190344960557E-02 
1980	 2.42658577075536E-02 
1981	 0.024324148193061 
1982	 2.43765562939273E-02 
1983	 2.44282764055717E-02 
1984	 2.44804802433735E-02 
1985	 0.024530147733805 
1986	 2.45861336622535E-02 
1987	 2.46502935996772E-02 
1988	 2.47187873152799E-02 
1989	 2.48004650527776E-02 
1990	 2.48942525486216E-02 
1991	 2.49898621757897E-02 
1992	 2.50928740851368E-02 
1993	 2.52124727759891E-02 
1994	 2.53190912886605E-02 
1995	 2.54064827779729E-02 
1996	 2.54963208946395E-02 
1997	 2.55898351277296E-02 
1998	 2.56939850605324E-02 
1999	 2.58127703687357E-02 
2000	 2.59184059644598E-02 
2001	 2.60316480946103E-02 
2002	 2.61274761992364E-02 
2003	 2.62051687510385E-02 
2004	 2.62910999229991E-02 
2005	 2.63786603948298E-02 
2006	 2.64570118486203E-02 
2007	 2.65305067716799E-02 
2008	 2.66043909848289E-02 
2009	 2.66737503553997E-02 
2010	 0.026728920176544 
2011	 2.67751195583143E-02 
2012	 2.68237384047968E-02 
2013	 2.68714872434151E-02 
2014	 2.69074379266571E-02 
2015	 2.69581114478855E-02 
2016	 2.70300633152326E-02 
2017	 2.70726016871599E-02 
2018	 2.71057448404125E-02 
2019	 2.71378374801149E-02 
2020	 2.71512517949923E-02 
2021	 2.71683280854526E-02 
2022	 2.72020995526896E-02 
2023	 2.72314942148358E-02 
2024	 0.027248836084355 
2025	 2.72648426754997E-02 
2026	 2.72837087012708E-02 
2027	 2.72984698763677E-02 
2028	 2.73131991297817E-02 
2029	 2.73357901744627E-02 
2030	 2.73473132466784E-02 
2031	 2.73430348088318E-02 
2032	 2.73503097121967E-02 
2033	 2.73558312912154E-02 
2034	 2.73699262489048E-02 
2035	 2.73985648212601E-02 
2036	 2.74229541611295E-02 
2037	 2.74262459355521E-02 
2038	 0.027431699518635 
2039	 2.74404468425789E-02 
2040	 2.74319655333169E-02 
2041	 2.74444479001968E-02 
2042	 2.74835383071506E-02 
2043	 2.74972545065649E-02 
2044	 0.027502132242927 
2045	 0.027511952141331 
2046	 2.75097602402283E-02 
2047	 2.75196275793473E-02 
2048	 2.75389984343489E-02 
2049	 0.027558541053581 
2050	 0.027590963514228 
2051	 2.76069547444982E-02 
2052	 2.76239181878996E-02 
2053	 2.76232205620246E-02 
2054	 0.027621741830268 
2055	 2.76007956979111E-02 
2056	 2.76040175781378E-02 
2057	 0.027613997177102 
2058	 2.76243629342367E-02 
2059	 2.76502510732758E-02 
2060	 0.027663907306034 
2061	 0.02766904352097 
2062	 2.76776654789458E-02 
2063	 2.76851711701509E-02 
2064	 2.76933235565934E-02 
2065	 2.76993982072544E-02 
2066	 2.77126930520819E-02 
2067	 2.77216002851971E-02 
2068	 2.77259379820859E-02 
2069	 2.77356524766206E-02 
2070	 2.77436961106949E-02 
2071	 2.77583047381684E-02 
2072	 2.77823650212543E-02 
2073	 2.77957684464299E-02 
2074	 2.78042737676324E-02 
2075	 2.78189548990057E-02 
2076	 2.78340551929028E-02 
2077	 2.78461217438612E-02 
2078	 2.78554291440404E-02 
2079	 2.78742782200472E-02 
2080	 2.79078243522509E-02 
2081	 2.79199609017002E-02 
2082	 2.79257092497484E-02 
2083	 2.79369237491853E-02 
2084	 2.79232498090297E-02 
2085	 0.027900084343894 
2086	 2.79028720288795E-02 
2087	 2.79261129111729E-02 
2088	 2.79352603655841E-02 
2089	 0.027953093064201 
2090	 2.79617455126137E-02 
2091	 2.79603655790923E-02 
2092	 2.79625691879907E-02 
2093	 2.79683125046096E-02 
2094	 2.79669723665492E-02 
2095	 2.79489815176284E-02 
2096	 2.79501121132016E-02 
2097	 2.79555110825254E-02 
2098	 2.79697030613225E-02 
2099	 0.027987803580911 
2100	 2.80060480476162E-02 
2101	 0.028005371851531 
2102	 2.79808950117834E-02 
2103	 2.79775939367521E-02 
2104	 2.79763942172887E-02 
2105	 2.79727545311896E-02 
2106	 2.79820547627607E-02 
2107	 2.79749030210379E-02 
2108	 2.79455476253791E-02 
2109	 2.79378764366271E-02 
2110	 2.79379899204867E-02 
2111	 2.79336057957274E-02 
2112	 2.79436456319401E-02 
2113	 2.79404284914513E-02 
2114	 2.79201200972672E-02 
2115	 0.027909271087725 
2116	 2.78939737666481E-02 
2117	 2.78885473671314E-02 
2118	 0.027890105756873 
2119	 2.79084062292607E-02 
2120	 2.79010337718204E-02 
2121	 2.78858098738997E-02 
2122	 2.78802779861741E-02 
2123	 2.78584707310805E-02 
2124	 2.78534652238776E-02 
2125	 2.78762063267624E-02 
2126	 2.78740636895756E-02 
2127	 2.78584909794802E-02 
2128	 2.78520263086835E-02 
2129	 2.78402224249424E-02 
2130	 2.78308020761964E-02 
2131	 2.78275486730269E-02 
2132	 0.027822422549358 
2133	 2.78084830004672E-02 
2134	 2.78085397906471E-02 
2135	 2.78118141686973E-02 
2136	 2.78063419016698E-02 
2137	 2.78018821142025E-02 
2138	 2.77986228585817E-02 
2139	 2.77887384220445E-02 
2140	 2.77756728119495E-02 
2141	 2.77587208545447E-02 
2142	 0.027733618608001 
2143	 2.77150843437858E-02 
2144	 2.76949349385084E-02 
2145	 2.76761298205215E-02 
2146	 2.76601902985233E-02 
2147	 0.027644548199329 
2148	 2.76266531635792E-02 
2149	 2.76156698712991E-02 
2150	 2.76182890072345E-02 
2151	 2.76054180569609E-02 
2152	 2.75882618748718E-02 
2153	 2.75681920946674E-02 
2154	 2.75388860957707E-02 
2155	 2.75041096788784E-02 
2156	 2.74824363847489E-02 
2157	 2.74684460876431E-02 
2158	 2.74494096241208E-02 
2159	 2.74384061206459E-02 
2160	 2.74159498326411E-02 
2161	 2.73835567132801E-02 
2162	 2.73605036692281E-02 
2163	 2.73366518556893E-02 
2164	 2.73107437485923E-02 
2165	 2.72916574965257E-02 
2166	 2.72660096092922E-02 
2167	 2.72297276809157E-02 
2168	 2.72019856637827E-02 
2169	 2.71714584751333E-02 
2170	 0.027150325056813 
2171	 2.71372047621359E-02 
2172	 2.71267277214797E-02 
2173	 2.71299482987631E-02 
2174	 2.71271807495481E-02 
2175	 2.71142120766995E-02 
2176	 2.70910664769865E-02 
2177	 2.70665830770517E-02 
2178	 2.70209756657965E-02 
2179	 2.70080761826285E-02 
2180	 2.70124367676301E-02 
2181	 2.70035864513578E-02 
2182	 2.70078710759488E-02 
2183	 2.69995018091287E-02 
2184	 2.69674603497898E-02 
2185	 2.69605465100265E-02 
2186	 2.69755944285132E-02 
2187	 2.69680602143449E-02 
2188	 2.69588880065309E-02 
2189	 2.69487136107176E-02 
2190	 2.69221525409407E-02 
2191	 2.69020809948971E-02 
2192	 2.68909517391732E-02 
2193	 2.68754671048827E-02 
2194	 2.68442379994088E-02 
2195	 2.68316939298665E-02 
2196	 2.68318979290899E-02 
2197	 2.68351398748109E-02 
2198	 0.026834315079692 
2199	 2.68280393981734E-02 
2200	 0.026815498297554 
2201	 0.026785484886079 
2202	 2.67686172639104E-02 
2203	 2.67570655024014E-02 
2204	 0.026744521351672 
2205	 2.67336164609081E-02 
2206	 2.67200097210334E-02 
2207	 2.67012528142382E-02 
2208	 0.026691883963863 
2209	 2.66970095561775E-02 
2210	 2.66772982631015E-02 
2211	 0.02664109011904 
2212	 2.66278548542274E-02 
2213	 2.66041039174547E-02 
2214	 2.65916391175329E-02 
2215	 2.66117818864505E-02 
2216	 2.66130927480764E-02 
2217	 2.65986981465675E-02 
2218	 2.65961495200779E-02 
2219	 2.66066597326015E-02 
2220	 2.66030161052011E-02 
2221	 2.65895990052725E-02 
2222	 2.65808575970629E-02 
2223	 2.65795700512958E-02 
2224	 2.65670243726925E-02 
2225	 2.65773691776847E-02 
2226	 2.65970280393415E-02 
2227	 0.026597791932053 
2228	 0.02659148758917 
2229	 2.65802107094071E-02 
2230	 2.65538323957309E-02 
2231	 2.65420077310435E-02 
2232	 0.02653586178901 
2233	 2.65242066854846E-02 
2234	 2.65208447617394E-02 
2235	 0.026499245579249 
2236	 2.64655785538508E-02 
2237	 2.64289965547929E-02 
2238	 2.63841811746311E-02 
2239	 2.63405630621282E-02 
2240	 2.62993910807206E-02 
2241	 2.62398930154348E-02 
2242	 2.61657063210887E-02 
2243	 2.60938694776551E-02 
2244	 2.59984441524031E-02 
2245	 2.59267263583929E-02 
2246	 2.58846625721043E-02 
2247	 2.58180181725264E-02 
2248	 2.57502882604449E-02 
2249	 0.025675425803069 
2250	 2.55894500705887E-02 
2251	 0.025482265798302 
2252	 2.53914918075063E-02 
2253	 2.52963244196435E-02 
2254	 2.52104163667759E-02 
2255	 2.51479985929065E-02 
2256	 2.50532690764503E-02 
2257	 2.49843526384875E-02 
2258	 2.49132452087557E-02 
2259	 2.48301280596719E-02 
2260	 2.47521727218018E-02 
2261	 2.46927786065822E-02 
2262	 2.46202904059711E-02 
2263	 2.45359757552118E-02 
2264	 2.44632104744154E-02 
2265	 2.43892498321556E-02 
2266	 2.43320190965915E-02 
2267	 2.42838109292485E-02 
2268	 2.42346862803999E-02 
2269	 2.42017939054357E-02 
2270	 2.41644286035165E-02 
2271	 2.41158021383965E-02 
2272	 2.40821231188341E-02 
2273	 2.40753432163733E-02 
2274	 2.40414506090354E-02 
2275	 2.39913824605633E-02 
2276	 2.39519059219736E-02 
2277	 2.39062869534235E-02 
2278	 2.38569668567257E-02 
2279	 2.38123533543075E-02 
2280	 2.37721948897507E-02 
2281	 2.37253807297576E-02 
2282	 2.36796023907558E-02 
2283	 2.36500558006566E-02 
2284	 2.36077384900207E-02 
2285	 2.35344361998025E-02 
2286	 2.34700567912172E-02 
2287	 2.33995365540263E-02 
2288	 2.33447321924204E-02 
2289	 2.33002673432167E-02 
2290	 0.023224161974609 
2291	 2.31613428765628E-02 
2292	 2.30900062996495E-02 
2293	 2.30302130451599E-02 
2294	 2.30000264939463E-02 
2295	 2.29669549499744E-02 
2296	 2.29496279264212E-02 
2297	 2.29172213696613E-02 
2298	 2.28757640077845E-02 
2299	 2.28592466377535E-02 
2300	 2.28379478412688E-02 
2301	 2.28383714763375E-02 
2302	 2.28722597211645E-02 
2303	 2.29003854571806E-02 
2304	 2.29323471484937E-02 
2305	 2.29748785228243E-02 
2306	 2.30178471125782E-02 
2307	 2.30770083924031E-02 
2308	 2.31555293640396E-02 
2309	 2.32288999274763E-02 
2310	 2.33190181565237E-02 
2311	 2.34042195470268E-02 
2312	 2.34760142384589E-02 
2313	 2.35704766230399E-02 
2314	 0.023693637780302 
2315	 2.37818011002558E-02 
2316	 2.38607172359202E-02 
2317	 2.39460745082168E-02 
2318	 2.40122752526073E-02 
2319	 2.40777083553502E-02 
2320	 2.41640566785625E-02 
2321	 2.42260093311514E-02 
2322	 2.42769100884397E-02 
2323	 0.024310786818296 
2324	 2.43116672454896E-02 
2325	 2.43335809541862E-02 
2326	 2.43513902438203E-02 
2327	 2.43532172600973E-02 
2328	 2.43666288006335E-02 
2329	 2.43717637832527E-02 
2330	 2.43646648536459E-02 
2331	 2.43348239110043E-02 
2332	 2.42921964801413E-02 
2333	 2.42597556550261E-02 
2334	 2.41837302092109E-02 
2335	 2.41392887520832E-02 
2336	 2.41682206963127E-02 
2337	 0.024166040961229 
2338	 2.41569275986344E-02 
2339	 2.41311675091324E-02 
2340	 2.40569194253125E-02 
2341	 2.40041809971642E-02 
2342	 2.40028651730017E-02 
2343	 2.40125308970021E-02 
2344	 2.39930564090646E-02 
2345	 0.023981626725155 
2346	 2.39623499013468E-02 
2347	 2.39274975188335E-02 
2348	 2.39458478434627E-02 
2349	 2.39912855526788E-02 
2350	 2.40465926278643E-02 
2351	 0.02414349007839 
2352	 2.42170138342751E-02 
2353	 2.42857310461372E-02 
2354	 2.43942341282819E-02 
2355	 2.44356149389255E-02 
2356	 2.44457308339039E-02 
2357	 2.44572524944303E-02 
2358	 2.44196628894377E-02 
2359	 2.44119700201518E-02 
2360	 2.44458548610408E-02 
2361	 2.44540989724861E-02 
2362	 2.44124174385518E-02 
2363	 2.43899178022613E-02 
2364	 2.43873687548389E-02 
2365	 2.43630614854638E-02 
2366	 2.43738655637931E-02 
2367	 2.43717497437212E-02 
2368	 2.43541682179977E-02 
2369	 2.43700534066932E-02 
2370	 2.43737956498849E-02 
2371	 0.024332414952552 
2372	 2.42834686362159E-02 
2373	 2.42646818734568E-02 
2374	 0.02426183700607 
2375	 2.42582939271139E-02 
2376	 2.42422438862488E-02 
2377	 2.42067501721416E-02 
2378	 2.41504406615762E-02 
2379	 0.024126878848217 
2380	 2.41626203686651E-02 
2381	 2.41774340266422E-02 
2382	 2.41496383437572E-02 
2383	 2.41096909749132E-02 
2384	 2.40636740331151E-02 
2385	 2.39466819399509E-02 
2386	 0.02389073657598 
2387	 2.38884433092565E-02 
2388	 2.38498808147164E-02 
2389	 2.38094508742145E-02 
2390	 0.023763978169165 
2391	 2.36959783059466E-02 
2392	 2.36334372479953E-02 
2393	 2.35571993423082E-02 
2394	 2.35230265876523E-02 
2395	 2.35262896633039E-02 
2396	 2.34951361042429E-02 
2397	 2.34743361322301E-02 
2398	 0.023454813734196 
2399	 0.023411308062664 
2400	 2.33600015333863E-02 
2401	 2.33084426603606E-02 
2402	 2.32602503235209E-02 
2403	 0.023253862180667 
2404	 2.32179930207858E-02 
2405	 2.31957109774248E-02 
2406	 2.31863686854095E-02 
2407	 2.30884820875847E-02 
2408	 2.30275972392528E-02 
2409	 2.30575399618394E-02 
2410	 2.30034716783575E-02 
2411	 2.29127015825179E-02 
2412	 2.28813273232461E-02 
2413	 2.28359194988361E-02 
2414	 2.28544850475427E-02 
2415	 2.28920591321735E-02 
2416	 2.28960235696362E-02 
2417	 2.29082373187466E-02 
2418	 2.28715362491533E-02 
2419	 2.28566946776708E-02 
2420	 2.29105098364305E-02 
2421	 2.29095745605974E-02 
2422	 2.28321724548932E-02 
2423	 2.27587598232518E-02 
2424	 2.26824878670836E-02 
2425	 2.26774067814049E-02 
2426	 2.27447522751743E-02 
2427	 2.27616700027323E-02 
2428	 0.022659412640403 
2429	 2.25342802792993E-02 
2430	 2.24627482243226E-02 
2431	 2.24370612111816E-02 
2432	 0.022494143378291 
2433	 2.26095343017195E-02 
2434	 2.26917510153123E-02 
2435	 2.26342415086342E-02 
2436	 2.25907369660039E-02 
2437	 2.25279360541949E-02 
2438	 2.24417285511315E-02 
2439	 2.25651197718565E-02 
2440	 2.26770838582807E-02 
2441	 2.26457159234851E-02 
2442	 2.26071790394158E-02 
2443	 2.25225733008995E-02 
2444	 2.24331585750926E-02 
2445	 2.24695007024118E-02 
2446	 2.24571453420881E-02 
2447	 2.23021063121969E-02 
2448	 2.22270840203111E-02 
2449	 2.21998812379121E-02 
2450	 2.22064697344222E-02 
2451	 2.22790525329835E-02 
2452	 2.22564222598064E-02 
2453	 2.21702235608408E-02 
2454	 2.21043006764823E-02 
2455	 2.21874267936337E-02 
2456	 2.22621092591447E-02 
2457	 2.22508402330803E-02 
2458	 2.22793235358648E-02 
2459	 2.21325147153457E-02 
2460	 2.20293600986094E-02 
2461	 2.20803632777589E-02 
2462	 2.21580480385803E-02 
2463	 2.22163928606295E-02 
2464	 2.21552438197902E-02 
2465	 2.21193059126554E-02 
2466	 2.20170085652531E-02 
2467	 2.19671430040167E-02 
2468	 2.20037103848522E-02 
2469	 0.02190278993678 
2470	 2.17780264439869E-02 
2471	 2.16052536129578E-02 
2472	 0.021565434192505 
2473	 2.17813063158201E-02 
2474	 2.19417995508403E-02 
2475	 2.20701532984402E-02 
2476	 2.21737643522563E-02 
2477	 2.20900054609328E-02 
2478	 2.20294543929385E-02 
2479	 2.19129305606772E-02 
2480	 0.021759391461421 
2481	 2.17195670128984E-02 
2482	 2.15987267357903E-02 
2483	 2.17604531785169E-02 
2484	 0.021870133699712 
2485	 2.17361993900591E-02 
2486	 2.16633952416967E-02 
2487	 2.14889663813737E-02 
2488	 2.13961856265863E-02 
2489	 2.15315036802632E-02 
2490	 2.16049444848168E-02 
2491	 2.16922328273002E-02 
2492	 0.021723380147194 
2493	 2.15331718796677E-02 
2494	 2.15934402819494E-02 
2495	 2.18052186599565E-02 
2496	 2.19295737609898E-02 
2497	 2.22505676827026E-02 
2498	 2.24151912597086E-02 
2499	 2.23112158473599E-02 
2500	 2.21656722842306E-02 
