Wavelength	spectrum00002.asd
350	 3.18531812591608E-02 
351	 3.17289644496886E-02 
352	 2.89597301582874E-02 
353	 2.52977093502159E-02 
354	 2.82724459099126E-02 
355	 0.02944415865474 
356	 2.95518431845006E-02 
357	 2.99608592130151E-02 
358	 2.70410769179125E-02 
359	 2.56050172403724E-02 
360	 2.63326672013673E-02 
361	 2.74249266160042E-02 
362	 2.69081151931533E-02 
363	 0.02638231139762 
364	 2.62792787002968E-02 
365	 2.49890060312227E-02 
366	 2.62877350739734E-02 
367	 2.70810044632055E-02 
368	 2.49465693527468E-02 
369	 2.49459898113531E-02 
370	 2.56056409677075E-02 
371	 2.60729730535088E-02 
372	 0.025972685050652 
373	 2.58530795866115E-02 
374	 2.53327646424092E-02 
375	 2.47763532862468E-02 
376	 2.57410249828148E-02 
377	 2.59733871918853E-02 
378	 2.54954373140294E-02 
379	 2.50110440989123E-02 
380	 2.52861706020372E-02 
381	 2.53974329773718E-02 
382	 2.50608521875491E-02 
383	 2.45970825716653E-02 
384	 2.59004329863831E-02 
385	 2.63730301529412E-02 
386	 2.52406635516439E-02 
387	 2.51865046343484E-02 
388	 0.02521178686338 
389	 0.025321727253548 
390	 2.55341196100785E-02 
391	 2.49896039832169E-02 
392	 2.49780609722721E-02 
393	 2.53933020178334E-02 
394	 2.52927242453746E-02 
395	 2.57270037025735E-02 
396	 2.57609618208429E-02 
397	 2.52697545442507E-02 
398	 2.59049745421042E-02 
399	 2.58649930519362E-02 
400	 2.53715103715989E-02 
401	 2.51348719669541E-02 
402	 2.52482188690922E-02 
403	 2.52852953806956E-02 
404	 2.51858838516491E-02 
405	 2.51760306508644E-02 
406	 0.025268711185135 
407	 2.51827488395898E-02 
408	 2.49259928248834E-02 
409	 0.025169944814872 
410	 2.52006735215774E-02 
411	 2.51580900679001E-02 
412	 2.53382216286786E-02 
413	 2.53646106005794E-02 
414	 2.51218036633742E-02 
415	 2.49843947901057E-02 
416	 2.56529499004017E-02 
417	 2.54688867528436E-02 
418	 2.52504904682169E-02 
419	 2.56006324000575E-02 
420	 2.55710078323747E-02 
421	 0.025525548888997 
422	 2.57367136307735E-02 
423	 2.63075356276848E-02 
424	 2.65301221642144E-02 
425	 2.65959862625417E-02 
426	 2.67172254977543E-02 
427	 2.70334644702633E-02 
428	 2.71145080732917E-02 
429	 2.74345985380076E-02 
430	 2.81998184033548E-02 
431	 2.81538081379005E-02 
432	 2.84489232093475E-02 
433	 2.90821205013807E-02 
434	 2.94504313292004E-02 
435	 3.00077427799478E-02 
436	 3.06127186154433E-02 
437	 3.11557833778367E-02 
438	 3.16636440125803E-02 
439	 3.23681253417657E-02 
440	 3.31343065740217E-02 
441	 3.38077966748736E-02 
442	 3.46656982850998E-02 
443	 3.54667603490192E-02 
444	 3.62539988716496E-02 
445	 3.72874139249896E-02 
446	 3.83113858447371E-02 
447	 3.92932049942364E-02 
448	 4.03023660679979E-02 
449	 4.15542541589185E-02 
450	 4.28641593876778E-02 
451	 4.41130883710449E-02 
452	 4.52662583366642E-02 
453	 4.66149595091356E-02 
454	 4.80304531794059E-02 
455	 4.94433093195836E-02 
456	 5.08932879698714E-02 
457	 5.24616664595757E-02 
458	 5.40110991839068E-02 
459	 5.54827715940657E-02 
460	 5.71808531884892E-02 
461	 5.90028137768944E-02 
462	 6.08218767155975E-02 
463	 6.25290043147865E-02 
464	 6.42766568112039E-02 
465	 6.61733530953912E-02 
466	 6.81760514082611E-02 
467	 7.00217034280874E-02 
468	 0.071968306577821 
469	 7.39750552858353E-02 
470	 7.59762418877546E-02 
471	 7.81805506360351E-02 
472	 8.02998254806482E-02 
473	 8.23146627327648E-02 
474	 8.44240554482947E-02 
475	 8.65455056233298E-02 
476	 0.088679681457599 
477	 0.090829648277917 
478	 9.29832611045716E-02 
479	 9.51078599986507E-02 
480	 9.72836308763369E-02 
481	 9.95888746186826E-02 
482	 0.101800458434583 
483	 0.103961012839114 
484	 0.106121805817253 
485	 0.108313324219321 
486	 0.11059140053984 
487	 0.112768039978818 
488	 0.114750336982844 
489	 0.116903933611766 
490	 0.119081174745519 
491	 0.121202303703154 
492	 0.123243872386943 
493	 0.125308715555655 
494	 0.12733115466667 
495	 0.129272499154472 
496	 0.131162166689604 
497	 0.133095592181709 
498	 0.134997584525975 
499	 0.136772809141417 
500	 0.138509188727441 
501	 0.140297714279071 
502	 0.142041362768432 
503	 0.143508430436792 
504	 0.14511260005687 
505	 0.146699776887341 
506	 0.14812861465509 
507	 0.149540162215059 
508	 0.150923717849811 
509	 0.152256390061281 
510	 0.153512644561969 
511	 0.154733461273443 
512	 0.155875429123986 
513	 0.156925676994453 
514	 0.157924007368773 
515	 0.158788454144833 
516	 0.159589432976858 
517	 0.160394077398061 
518	 0.16112165264863 
519	 0.161719344832485 
520	 0.162228789392125 
521	 0.162742394672476 
522	 0.163132424317978 
523	 0.163411772722117 
524	 0.163623219025869 
525	 0.163832957469544 
526	 0.163956895957795 
527	 0.163970727737363 
528	 0.163876425244903 
529	 0.163681813240205 
530	 0.163444722298356 
531	 0.163176648024757 
532	 0.162837294591197 
533	 0.162366962523861 
534	 0.161812272755668 
535	 0.161211971573293 
536	 0.160498016215947 
537	 0.159762700852584 
538	 0.158974115951321 
539	 0.15804641159008 
540	 0.157095003415394 
541	 0.156091856274862 
542	 0.155029249538409 
543	 0.153965326479668 
544	 0.152802386876646 
545	 0.151560674807391 
546	 0.150291363182338 
547	 0.148993629497259 
548	 0.14769422880823 
549	 0.1463668000093 
550	 0.144943833420505 
551	 0.143515744517384 
552	 0.142067055802756 
553	 0.140566893033614 
554	 0.138994918904274 
555	 0.137428209772883 
556	 0.135856124780957 
557	 0.134236118012266 
558	 0.132634534504125 
559	 0.1310253214069 
560	 0.12938594405014 
561	 0.127707341965104 
562	 0.126035380456945 
563	 0.124417972585941 
564	 0.122863578647622 
565	 0.121245991112597 
566	 0.119612674835814 
567	 0.118011551484458 
568	 0.116481434427352 
569	 0.114928101433139 
570	 0.113360038602032 
571	 0.111805512484747 
572	 0.11028981052384 
573	 0.108853868871788 
574	 0.107415754489685 
575	 0.105884672700764 
576	 0.104449885593032 
577	 0.103035282831647 
578	 0.101614870964901 
579	 0.100239690178241 
580	 9.88288026395708E-02 
581	 9.74119671420502E-02 
582	 9.60198974799383E-02 
583	 9.46090899873989E-02 
584	 0.093182056636905 
585	 9.17567193290664E-02 
586	 0.090358733261556 
587	 8.89830254376363E-02 
588	 0.087640478611855 
589	 8.63210697194563E-02 
590	 8.49819073719325E-02 
591	 8.36640278294419E-02 
592	 8.23812097826447E-02 
593	 8.11265862962615E-02 
594	 0.079846295944828 
595	 7.85795946685992E-02 
596	 7.73406380310815E-02 
597	 7.61196619271479E-02 
598	 0.074943130357683 
599	 7.37991023147033E-02 
600	 7.26682523862064E-02 
601	 0.071529481882947 
602	 0.070447081062232 
603	 6.93855213139544E-02 
604	 6.82890839056467E-02 
605	 6.72821137174087E-02 
606	 6.62818164715118E-02 
607	 6.52733408394355E-02 
608	 6.43464100059614E-02 
609	 6.34055595347179E-02 
610	 0.062486738174679 
611	 6.16253621568996E-02 
612	 6.07554064295942E-02 
613	 0.059888115805339 
614	 5.90409354554914E-02 
615	 5.82287125232594E-02 
616	 5.74117741825473E-02 
617	 5.66192944477845E-02 
618	 5.58736905093108E-02 
619	 5.51705324665505E-02 
620	 5.44414489458039E-02 
621	 5.37258685141806E-02 
622	 0.053072909983853 
623	 5.23848595723582E-02 
624	 5.17187118264003E-02 
625	 5.10912745543041E-02 
626	 5.04750633466897E-02 
627	 4.98591640935006E-02 
628	 4.92725914718012E-02 
629	 4.87264096689194E-02 
630	 4.81697233881779E-02 
631	 4.76033172798259E-02 
632	 4.70695588339481E-02 
633	 4.66119048648897E-02 
634	 4.61330482591383E-02 
635	 4.56278436144205E-02 
636	 4.51254939934303E-02 
637	 4.46877670541641E-02 
638	 4.42492835473177E-02 
639	 4.38071753854621E-02 
640	 4.33735222282957E-02 
641	 4.29503041496995E-02 
642	 4.25664132860692E-02 
643	 4.22053823180642E-02 
644	 4.18250789216056E-02 
645	 4.14329868723368E-02 
646	 4.10715712019036E-02 
647	 4.07489246534347E-02 
648	 4.04098752056742E-02 
649	 4.00987134318404E-02 
650	 3.97856051313581E-02 
651	 3.94426403174653E-02 
652	 3.91466547326656E-02 
653	 3.88550666338807E-02 
654	 3.85546798506721E-02 
655	 3.82616747127248E-02 
656	 3.80188275786761E-02 
657	 3.77872608526706E-02 
658	 3.75368727198009E-02 
659	 3.72833223555219E-02 
660	 3.70401990881179E-02 
661	 3.68130767278669E-02 
662	 3.65999018557607E-02 
663	 3.63833307000175E-02 
664	 3.61533957733917E-02 
665	 3.59274694836684E-02 
666	 3.57454384398888E-02 
667	 3.55377820541552E-02 
668	 3.53381201355512E-02 
669	 3.51730670861767E-02 
670	 3.49968532385206E-02 
671	 3.48229727302936E-02 
672	 0.034647925410072 
673	 3.44683009598691E-02 
674	 0.034329908792271 
675	 3.41942643671989E-02 
676	 0.034043960042407 
677	 3.38957687735036E-02 
678	 0.033752298250799 
679	 3.36164991805035E-02 
680	 3.34872459922744E-02 
681	 3.33503326647869E-02 
682	 3.32394276425946E-02 
683	 3.31354710541654E-02 
684	 3.29975380549198E-02 
685	 3.28640432388366E-02 
686	 3.27481649230065E-02 
687	 3.26563221332611E-02 
688	 3.25905683526766E-02 
689	 3.24692747685645E-02 
690	 3.23379355893667E-02 
691	 3.22540842333299E-02 
692	 3.21932699541465E-02 
693	 3.21074017563814E-02 
694	 3.20122384969364E-02 
695	 3.19552181416016E-02 
696	 3.18616380464052E-02 
697	 0.031774805306151 
698	 0.031709950065476 
699	 0.031615356791775 
700	 0.031551370623661 
701	 3.14993515080779E-02 
702	 3.14309438442999E-02 
703	 3.13721844300341E-02 
704	 3.13173764685102E-02 
705	 3.12648750711098E-02 
706	 3.12157839333314E-02 
707	 3.11692693062823E-02 
708	 3.11134952056877E-02 
709	 3.10494178754436E-02 
710	 3.10006302534754E-02 
711	 3.09636936288423E-02 
712	 3.09250654245841E-02 
713	 3.08756126362621E-02 
714	 3.08356242125735E-02 
715	 3.08175091052233E-02 
716	 3.07995026255406E-02 
717	 3.07445551547146E-02 
718	 3.07286660217204E-02 
719	 3.07111659089733E-02 
720	 3.06746484566391E-02 
721	 3.06694781559756E-02 
722	 3.06444654888292E-02 
723	 3.06134298811452E-02 
724	 3.06010659319545E-02 
725	 3.05933196078585E-02 
726	 3.05821580764766E-02 
727	 0.030578385183102 
728	 3.05993637533533E-02 
729	 3.05860718059828E-02 
730	 3.05630388079768E-02 
731	 3.05523632284957E-02 
732	 3.05525155609985E-02 
733	 3.05652780606464E-02 
734	 3.05708400728152E-02 
735	 3.05574055391566E-02 
736	 3.05653884166848E-02 
737	 3.05801988418112E-02 
738	 3.05880460902107E-02 
739	 3.05824191579346E-02 
740	 3.06131194489163E-02 
741	 3.06400102194244E-02 
742	 3.06480490032229E-02 
743	 3.06761546912822E-02 
744	 3.06941465184205E-02 
745	 3.07076174290969E-02 
746	 3.07300072009038E-02 
747	 0.03076975349223 
748	 3.07986580884535E-02 
749	 3.08192447225122E-02 
750	 3.08502699143043E-02 
751	 3.08805911370376E-02 
752	 3.09140043290917E-02 
753	 3.09536837361127E-02 
754	 3.10000887794354E-02 
755	 3.10515699370421E-02 
756	 0.031087547050549 
757	 3.11020821831491E-02 
758	 3.11398461904746E-02 
759	 3.11926533901837E-02 
760	 3.12435942478805E-02 
761	 3.12791919102236E-02 
762	 0.031340983143822 
763	 3.14009603490943E-02 
764	 3.14493607898284E-02 
765	 3.15018615889878E-02 
766	 3.15654155924065E-02 
767	 3.16335931097528E-02 
768	 3.17022444070915E-02 
769	 3.17813510942326E-02 
770	 3.18477448092786E-02 
771	 0.031904917809372 
772	 3.19667656189323E-02 
773	 3.20421921348389E-02 
774	 0.032116987810442 
775	 3.21963403505828E-02 
776	 3.22967897176447E-02 
777	 3.23613038613233E-02 
778	 0.03243670786356 
779	 3.25437449044803E-02 
780	 3.26333548763036E-02 
781	 3.27348814393572E-02 
782	 3.28319559103594E-02 
783	 3.29107152129662E-02 
784	 3.30075658979929E-02 
785	 3.31236747284307E-02 
786	 3.32466066921348E-02 
787	 3.33582433131515E-02 
788	 3.34649730588263E-02 
789	 3.35668261090733E-02 
790	 3.36720912203896E-02 
791	 3.37976971794583E-02 
792	 3.39204610807657E-02 
793	 3.40420809160045E-02 
794	 0.034166039533828 
795	 3.42863159488307E-02 
796	 3.44069800312474E-02 
797	 3.45403768786851E-02 
798	 3.46923091790505E-02 
799	 3.48253003426398E-02 
800	 3.49527132983628E-02 
801	 3.50825356556298E-02 
802	 3.52179402908475E-02 
803	 3.53749832713795E-02 
804	 3.55298644836353E-02 
805	 3.56762235798955E-02 
806	 3.58414315948642E-02 
807	 3.59953152788726E-02 
808	 3.61489513515341E-02 
809	 3.63186578545514E-02 
810	 3.65061814642979E-02 
811	 3.66849831867518E-02 
812	 3.68546006928826E-02 
813	 3.70271977927064E-02 
814	 3.72030850787238E-02 
815	 3.74026309805013E-02 
816	 3.76104247897626E-02 
817	 3.77859638377038E-02 
818	 3.79987909203998E-02 
819	 3.81996094029966E-02 
820	 3.83711042153149E-02 
821	 3.85761194821932E-02 
822	 3.87892565392709E-02 
823	 0.039023036840305 
824	 3.92786275490125E-02 
825	 3.94975169071879E-02 
826	 3.96988213004719E-02 
827	 3.99104231717805E-02 
828	 4.01556783251732E-02 
829	 4.04064183635446E-02 
830	 4.06634726160224E-02 
831	 4.09189273972339E-02 
832	 4.11593517742153E-02 
833	 4.14067354928666E-02 
834	 4.16633589302566E-02 
835	 4.19293692137706E-02 
836	 4.22066511817697E-02 
837	 4.24919979759673E-02 
838	 4.27638112397156E-02 
839	 0.043019189787442 
840	 4.33212925418174E-02 
841	 0.043601113408461 
842	 4.38725829246217E-02 
843	 4.41722140722567E-02 
844	 4.44636620397746E-02 
845	 4.47750216989808E-02 
846	 4.50995376469969E-02 
847	 4.54065716312621E-02 
848	 4.57127825607292E-02 
849	 4.60145772116571E-02 
850	 4.63205984848051E-02 
851	 4.66541677310856E-02 
852	 4.69939440419113E-02 
853	 0.047347411575112 
854	 4.77107526475401E-02 
855	 4.80446326172751E-02 
856	 0.048389075160044 
857	 4.87390571877544E-02 
858	 4.90832027263596E-02 
859	 4.94415216410706E-02 
860	 0.049807837546719 
861	 5.01931466388494E-02 
862	 5.06053124314035E-02 
863	 5.09856615131852E-02 
864	 5.13862668787887E-02 
865	 5.18025449719268E-02 
866	 5.21824826547759E-02 
867	 5.25685659857995E-02 
868	 5.29776090202117E-02 
869	 5.34081592677663E-02 
870	 0.053839768150372 
871	 5.42902652857156E-02 
872	 5.47299494240979E-02 
873	 5.51418807251838E-02 
874	 5.55562649811018E-02 
875	 5.60185146069263E-02 
876	 5.64869751733706E-02 
877	 5.69212408516708E-02 
878	 5.73867279885729E-02 
879	 5.78905307087443E-02 
880	 5.84027188356221E-02 
881	 5.88838881101244E-02 
882	 5.93511634508594E-02 
883	 5.98471811316914E-02 
884	 6.03651808901624E-02 
885	 0.060864940509634 
886	 0.061369499477557 
887	 6.18884028692919E-02 
888	 6.24229186881424E-02 
889	 6.29644122904242E-02 
890	 6.34861485934874E-02 
891	 6.39893507086626E-02 
892	 0.064499469283438 
893	 0.065068522702264 
894	 6.56668819271153E-02 
895	 6.62310493740375E-02 
896	 6.67432983150806E-02 
897	 6.73197876234496E-02 
898	 6.79045877357002E-02 
899	 6.84627228063699E-02 
900	 6.89940881140219E-02 
901	 6.95983397803858E-02 
902	 7.02007861961953E-02 
903	 7.08044937784202E-02 
904	 0.071433206353965 
905	 0.071988622227765 
906	 0.072589925430349 
907	 7.32459458582348E-02 
908	 0.073877280920468 
909	 7.44508095019004E-02 
910	 7.50560528255145E-02 
911	 7.57149548259949E-02 
912	 0.076368371472145 
913	 0.077004280596965 
914	 7.76309035766372E-02 
915	 7.82620683902299E-02 
916	 7.89136011278695E-02 
917	 7.96185582102143E-02 
918	 8.03327185145121E-02 
919	 8.10247170219292E-02 
920	 8.17188408200182E-02 
921	 8.23673951803832E-02 
922	 8.30427458084477E-02 
923	 8.37818520558896E-02 
924	 8.44536802014027E-02 
925	 8.51533529494698E-02 
926	 8.59033166817572E-02 
927	 8.66827168949734E-02 
928	 0.087415871392763 
929	 8.81349319910254E-02 
930	 8.88590998956382E-02 
931	 8.95942592157369E-02 
932	 9.03113225199453E-02 
933	 9.10780835090721E-02 
934	 9.18845936743446E-02 
935	 9.26730864773285E-02 
936	 9.33889368455831E-02 
937	 9.41637940427121E-02 
938	 9.49925252014424E-02 
939	 9.57835966345162E-02 
940	 9.66142984935233E-02 
941	 9.74280092296428E-02 
942	 9.82148491371228E-02 
943	 9.90150585846929E-02 
944	 9.98411171674757E-02 
945	 0.100645744347668 
946	 0.101438564041175 
947	 0.102282581199051 
948	 0.103078491616067 
949	 0.103893652257613 
950	 0.104740820865543 
951	 0.105541811983434 
952	 0.106372958679889 
953	 0.107191190326945 
954	 0.107990999057826 
955	 0.108845799488478 
956	 0.109667042081983 
957	 0.110504238252565 
958	 0.111375837786953 
959	 0.112200876967355 
960	 0.113054313608024 
961	 0.113919879327807 
962	 0.114778419931094 
963	 0.115648154983454 
964	 0.116457425670416 
965	 0.11725731529658 
966	 0.118103368455995 
967	 0.118982321219495 
968	 0.119897477963307 
969	 0.120826641354829 
970	 0.121733099261309 
971	 0.122564132642786 
972	 0.123420068829069 
973	 0.124310266165512 
974	 0.12520893096658 
975	 0.126082183921952 
976	 0.126940043677452 
977	 0.127835287659255 
978	 0.128779809920576 
979	 0.129621034431682 
980	 0.130506689700413 
981	 0.131420910681405 
982	 0.132305284206259 
983	 0.133143633648358 
984	 0.134165942776658 
985	 0.135193348874996 
986	 0.136022689719812 
987	 0.136884716701893 
988	 0.13777806224105 
989	 0.138720973473496 
990	 0.139702720664861 
991	 0.140630225580998 
992	 0.141506269047121 
993	 0.142409455073721 
994	 0.143390819975749 
995	 0.144308948299849 
996	 0.145317194600894 
997	 0.146248124579918 
998	 0.147003126482479 
999	 0.148086252990617 
1000	 0.149224262624252 
1001	 0.154819773575317 
1002	 0.155838070663961 
1003	 0.156902361048084 
1004	 0.157886060537265 
1005	 0.158836558271301 
1006	 0.159813364281806 
1007	 0.160731852130601 
1008	 0.161727785383768 
1009	 0.16276355820136 
1010	 0.163787031468522 
1011	 0.16488564443255 
1012	 0.16590573639719 
1013	 0.166859177396512 
1014	 0.167862157485686 
1015	 0.16885935604427 
1016	 0.169808638067193 
1017	 0.170899801381087 
1018	 0.17197978658597 
1019	 0.173046864118257 
1020	 0.174139044890606 
1021	 0.175151626457887 
1022	 0.176080811436067 
1023	 0.177090851844632 
1024	 0.178074948585825 
1025	 0.179098932246756 
1026	 0.180195408749376 
1027	 0.181236201188848 
1028	 0.182247566075169 
1029	 0.183326951518159 
1030	 0.184326479820829 
1031	 0.185339977844945 
1032	 0.186335977877184 
1033	 0.187305830738205 
1034	 0.188355177372509 
1035	 0.189370494971388 
1036	 0.190393440466487 
1037	 0.191457337396259 
1038	 0.192483823101952 
1039	 0.19348593332334 
1040	 0.194508301010732 
1041	 0.195503701198531 
1042	 0.196541139114296 
1043	 0.197610300481899 
1044	 0.198648709790794 
1045	 0.199743693436321 
1046	 0.200864908438011 
1047	 0.201866495871731 
1048	 0.202898890893179 
1049	 0.203917075866354 
1050	 0.204917608431543 
1051	 0.206021170858961 
1052	 0.207081146129398 
1053	 0.208157052721234 
1054	 0.209275758451238 
1055	 0.21034521657198 
1056	 0.211385923871714 
1057	 0.212451464487285 
1058	 0.213507700612117 
1059	 0.214518805977201 
1060	 0.215616437521424 
1061	 0.216665294723552 
1062	 0.217732384379106 
1063	 0.218832882877005 
1064	 0.219865104849596 
1065	 0.220961762640808 
1066	 0.222043557048306 
1067	 0.223096398937153 
1068	 0.224233070103526 
1069	 0.225334504945771 
1070	 0.226435575244554 
1071	 0.227542175760257 
1072	 0.228668500122261 
1073	 0.229714795572023 
1074	 0.230776616063472 
1075	 0.231845556246134 
1076	 0.232905555739142 
1077	 0.234010132825941 
1078	 0.235066886588386 
1079	 0.236147293730037 
1080	 0.237241200249987 
1081	 0.238262377996635 
1082	 0.239345118353433 
1083	 0.240388976331224 
1084	 0.2413898589527 
1085	 0.242487699494774 
1086	 0.243545262047088 
1087	 0.244577572121903 
1088	 0.24564218748336 
1089	 0.246749845074255 
1090	 0.247750809692541 
1091	 0.248787939938896 
1092	 0.249822113767424 
1093	 0.250802002439356 
1094	 0.251854234428835 
1095	 0.252877388242517 
1096	 0.253914472325337 
1097	 0.254994383431079 
1098	 0.255981989227755 
1099	 0.256987866346456 
1100	 0.257989918983727 
1101	 0.258957867030675 
1102	 0.260003679498978 
1103	 0.261016973691992 
1104	 0.262025352490338 
1105	 0.263048758762264 
1106	 0.264088952174104 
1107	 0.265050278066834 
1108	 0.266068092363262 
1109	 0.2670689548221 
1110	 0.268029957052615 
1111	 0.269048992910918 
1112	 0.270018794961871 
1113	 0.271022818273351 
1114	 0.272067315038586 
1115	 0.273023870812109 
1116	 0.274007439078692 
1117	 0.274980126914012 
1118	 0.275947885121416 
1119	 0.276918577267989 
1120	 0.277881835592374 
1121	 0.278834809819789 
1122	 0.279792162360972 
1123	 0.280762289634677 
1124	 0.281655647895476 
1125	 0.282598536471688 
1126	 0.283543459203825 
1127	 0.284451238749899 
1128	 0.285414071597423 
1129	 0.286316096970916 
1130	 0.287210316154946 
1131	 0.288129343724271 
1132	 0.288966332997608 
1133	 0.289831014732813 
1134	 0.290697937534692 
1135	 0.291565653409373 
1136	 0.292440229092288 
1137	 0.293308092022314 
1138	 0.294187789160182 
1139	 0.295039226493647 
1140	 0.295891114177426 
1141	 0.296663870202868 
1142	 0.29743655446115 
1143	 0.298200536829953 
1144	 0.298947440111669 
1145	 0.299726423687806 
1146	 0.30047583119617 
1147	 0.301235710553575 
1148	 0.301993881743611 
1149	 0.302676417868165 
1150	 0.303371198271338 
1151	 0.304051193769247 
1152	 0.304712820917522 
1153	 0.305354614548236 
1154	 0.305993791196027 
1155	 0.306615652927813 
1156	 0.30723648364024 
1157	 0.30786381411786 
1158	 0.308444234672062 
1159	 0.308999669764568 
1160	 0.309549230098721 
1161	 0.310079219267192 
1162	 0.310620946983892 
1163	 0.311174865039811 
1164	 0.311749998341527 
1165	 0.312312153049626 
1166	 0.312841712910886 
1167	 0.313395027507072 
1168	 0.31395437550397 
1169	 0.314537962801377 
1170	 0.31515873450727 
1171	 0.315757635744259 
1172	 0.316360619787276 
1173	 0.316972354527321 
1174	 0.317575384418268 
1175	 0.318172524888165 
1176	 0.318792601663908 
1177	 0.319386910827723 
1178	 0.319942907350795 
1179	 0.320543716156911 
1180	 0.321123301830464 
1181	 0.321704134241232 
1182	 0.322283305863639 
1183	 0.322836579676879 
1184	 0.32341855290251 
1185	 0.323977032939118 
1186	 0.324547342012026 
1187	 0.325133642876232 
1188	 0.325709846869273 
1189	 0.326267428372866 
1190	 0.326860111102738 
1191	 0.327469622011336 
1192	 0.328066527903168 
1193	 0.328672248496115 
1194	 0.329285007658796 
1195	 0.329896286246942 
1196	 0.330514558546009 
1197	 0.331143255268678 
1198	 0.331783043016949 
1199	 0.332421364972724 
1200	 0.333043182726664 
1201	 0.333691600663422 
1202	 0.334344873494488 
1203	 0.335004868636268 
1204	 0.335728198363783 
1205	 0.336466098852231 
1206	 0.337213562540353 
1207	 0.338038453010108 
1208	 0.338887490003894 
1209	 0.339815690916642 
1210	 0.340810360171034 
1211	 0.341873383520484 
1212	 0.343012362894222 
1213	 0.344205227612657 
1214	 0.345459910441946 
1215	 0.346780658526141 
1216	 0.348189336957424 
1217	 0.349595803795722 
1218	 0.351065164501112 
1219	 0.352548503746246 
1220	 0.35400863512757 
1221	 0.355541397716726 
1222	 0.357033427169667 
1223	 0.358546714424191 
1224	 0.360025863249948 
1225	 0.361485479256401 
1226	 0.362914383732828 
1227	 0.36433330639605 
1228	 0.365713591993336 
1229	 0.367069200814842 
1230	 0.368394586762258 
1231	 0.369670878996981 
1232	 0.370962989895773 
1233	 0.372247719220822 
1234	 0.373487681306898 
1235	 0.374712880962896 
1236	 0.375921746298494 
1237	 0.377084212380713 
1238	 0.378249656590323 
1239	 0.379410097807672 
1240	 0.380563181897115 
1241	 0.381735798222306 
1242	 0.382832341430794 
1243	 0.383945503329955 
1244	 0.385062699536934 
1245	 0.3861492329093 
1246	 0.387211203906701 
1247	 0.388268291386206 
1248	 0.389315990169139 
1249	 0.390347914398513 
1250	 0.391377812340739 
1251	 0.392360470050329 
1252	 0.393298594997495 
1253	 0.394255465288892 
1254	 0.395205147799447 
1255	 0.39613184923911 
1256	 0.397059366328026 
1257	 0.397975032327456 
1258	 0.398853580167231 
1259	 0.399732217475416 
1260	 0.400607632252792 
1261	 0.401489031242854 
1262	 0.402336679555632 
1263	 0.403244148413942 
1264	 0.404114495185344 
1265	 0.40499173767795 
1266	 0.405864955727559 
1267	 0.406718268286578 
1268	 0.407583874755028 
1269	 0.408464351682572 
1270	 0.409331385680519 
1271	 0.410192482894509 
1272	 0.411050719580982 
1273	 0.41189592853128 
1274	 0.412757274821131 
1275	 0.413624312066029 
1276	 0.41447932714486 
1277	 0.415332049803388 
1278	 0.416190338385054 
1279	 0.41703578451762 
1280	 0.417890959288531 
1281	 0.418757383785967 
1282	 0.419623610295036 
1283	 0.420493291629749 
1284	 0.421351262125261 
1285	 0.422204393531434 
1286	 0.423056418600723 
1287	 0.423903234005408 
1288	 0.424739993293936 
1289	 0.425573021982914 
1290	 0.42640987398431 
1291	 0.427224869017 
1292	 0.428016031597537 
1293	 0.428817818339287 
1294	 0.429604372637132 
1295	 0.430408984811605 
1296	 0.431236816847125 
1297	 0.432033487742455 
1298	 0.432820781076566 
1299	 0.433606224918888 
1300	 0.434380021753158 
1301	 0.435140453677453 
1302	 0.435902903542956 
1303	 0.4366473381045 
1304	 0.437368032036654 
1305	 0.438081882929279 
1306	 0.438790990107522 
1307	 0.439484713022057 
1308	 0.440148968550283 
1309	 0.440831735111964 
1310	 0.441483278614041 
1311	 0.442120089561625 
1312	 0.442748616263193 
1313	 0.44335863047963 
1314	 0.443972204662447 
1315	 0.444583800878282 
1316	 0.445180026233197 
1317	 0.445776743976064 
1318	 0.446346215632499 
1319	 0.44689766567863 
1320	 0.44743532444605 
1321	 0.447961437536947 
1322	 0.44846019652519 
1323	 0.448930306960402 
1324	 0.449401450260088 
1325	 0.449864728150029 
1326	 0.450301703091232 
1327	 0.450737328382453 
1328	 0.451141158711129 
1329	 0.451512535208614 
1330	 0.45186465407677 
1331	 0.45218323436661 
1332	 0.452504390624866 
1333	 0.452803470538011 
1334	 0.453106105178354 
1335	 0.453402831598929 
1336	 0.453707112164806 
1337	 0.453983179690749 
1338	 0.454251812792536 
1339	 0.454488524281478 
1340	 0.45470781208491 
1341	 0.454900187533732 
1342	 0.455064110975126 
1343	 0.455217151325789 
1344	 0.455354315226831 
1345	 0.45546779966122 
1346	 0.455566090497152 
1347	 0.455637697716255 
1348	 0.455682342119031 
1349	 0.455712739133735 
1350	 0.455716632365662 
1351	 0.455717678559687 
1352	 0.455700263299719 
1353	 0.455681942528428 
1354	 0.455659232969871 
1355	 0.455628861713353 
1356	 0.45559205492945 
1357	 0.455549280494311 
1358	 0.455497045015511 
1359	 0.455442637837551 
1360	 0.455384099371774 
1361	 0.455323622057209 
1362	 0.455253099336408 
1363	 0.455173495081611 
1364	 0.455076374087854 
1365	 0.454974244150531 
1366	 0.45483107856761 
1367	 0.454673682583707 
1368	 0.454472066184801 
1369	 0.454236715017109 
1370	 0.453966829347879 
1371	 0.453658734835584 
1372	 0.453334662019461 
1373	 0.45297414248053 
1374	 0.452606035640201 
1375	 0.45222415265278 
1376	 0.451815054328201 
1377	 0.451379528792556 
1378	 0.450931617809558 
1379	 0.450443746132748 
1380	 0.449977349307905 
1381	 0.449518034107522 
1382	 0.449039690491556 
1383	 0.448556778471987 
1384	 0.44807351523423 
1385	 0.447546754648212 
1386	 0.447072974732624 
1387	 0.446598245078368 
1388	 0.446188903061225 
1389	 0.445810685099922 
1390	 0.44549570283222 
1391	 0.445254563406384 
1392	 0.445034364098655 
1393	 0.444896419956548 
1394	 0.444767722620458 
1395	 0.444591857784961 
1396	 0.444465435856707 
1397	 0.444175991199166 
1398	 0.443851285745191 
1399	 0.443346754386043 
1400	 0.442742113408787 
1401	 0.441968969817805 
1402	 0.441060874377378 
1403	 0.439988960712548 
1404	 0.438745384583723 
1405	 0.437415738694751 
1406	 0.435930551827713 
1407	 0.434374730626551 
1408	 0.432663060495406 
1409	 0.430981638629007 
1410	 0.42919418008754 
1411	 0.427462438514888 
1412	 0.425715933504774 
1413	 0.424043930061222 
1414	 0.422387864826058 
1415	 0.420779343813426 
1416	 0.419228843202235 
1417	 0.417708743194369 
1418	 0.416207066502458 
1419	 0.414757196558268 
1420	 0.413367070917586 
1421	 0.412009401719244 
1422	 0.410702225231744 
1423	 0.409407830841437 
1424	 0.408178413778814 
1425	 0.40689434258693 
1426	 0.405702229220169 
1427	 0.404457770797939 
1428	 0.403152502611576 
1429	 0.401880635375559 
1430	 0.400454970838477 
1431	 0.398971918626467 
1432	 0.397309181625642 
1433	 0.395538843466264 
1434	 0.393611863473861 
1435	 0.391513501499596 
1436	 0.389319384245606 
1437	 0.386940248290722 
1438	 0.384638375754795 
1439	 0.382144550734734 
1440	 0.379931569591679 
1441	 0.377643835950769 
1442	 0.375852559461808 
1443	 0.374140218573664 
1444	 0.373093743978261 
1445	 0.37243403742037 
1446	 0.37237801832557 
1447	 0.372878213871103 
1448	 0.373849335055969 
1449	 0.375527750377378 
1450	 0.377344692015652 
1451	 0.37973935978002 
1452	 0.382081297681075 
1453	 0.384763439889746 
1454	 0.387239009283095 
1455	 0.389809322920952 
1456	 0.392190484603419 
1457	 0.394492781835401 
1458	 0.396615609100306 
1459	 0.398585203203816 
1460	 0.400440197262361 
1461	 0.402115325404566 
1462	 0.4036872504639 
1463	 0.405120956477247 
1464	 0.406497587628868 
1465	 0.407723281722673 
1466	 0.408952379153669 
1467	 0.410104883793491 
1468	 0.411204692449995 
1469	 0.412271770213969 
1470	 0.413224312529105 
1471	 0.414174232064543 
1472	 0.415078830076861 
1473	 0.415956408926028 
1474	 0.41681771377307 
1475	 0.417583114695 
1476	 0.418315081650509 
1477	 0.418931958382247 
1478	 0.419463437822928 
1479	 0.419887592599911 
1480	 0.420231174798392 
1481	 0.420454628605712 
1482	 0.420535739530973 
1483	 0.420592508539167 
1484	 0.420509873240346 
1485	 0.420497247315952 
1486	 0.420392238969407 
1487	 0.420460890601254 
1488	 0.420522017954826 
1489	 0.420817960902993 
1490	 0.421233444813935 
1491	 0.421858806382951 
1492	 0.42265174270475 
1493	 0.423657114372125 
1494	 0.424913551327041 
1495	 0.426243237094924 
1496	 0.427782190939994 
1497	 0.429367472687479 
1498	 0.431104730750475 
1499	 0.432816042528642 
1500	 0.434646009986225 
1501	 0.436400268437562 
1502	 0.438170587960403 
1503	 0.439834678097113 
1504	 0.44148525676014 
1505	 0.443011336932966 
1506	 0.444452106914639 
1507	 0.445775016447367 
1508	 0.446972612576584 
1509	 0.448099851914222 
1510	 0.449115623449738 
1511	 0.450050070302067 
1512	 0.450901380669069 
1513	 0.45168213125478 
1514	 0.452357423465023 
1515	 0.452984973850293 
1516	 0.453550485967989 
1517	 0.454056785686018 
1518	 0.454489474165856 
1519	 0.454877469622822 
1520	 0.455203969316221 
1521	 0.45548695715439 
1522	 0.455733079026617 
1523	 0.455947271379773 
1524	 0.456117597678235 
1525	 0.456242408928819 
1526	 0.456362161530648 
1527	 0.456439373444832 
1528	 0.456527374302083 
1529	 0.456610068365491 
1530	 0.456682650161234 
1531	 0.456728394056009 
1532	 0.456815099929029 
1533	 0.456882890109747 
1534	 0.457048643069867 
1535	 0.457246394323933 
1536	 0.457532299065517 
1537	 0.457872177112897 
1538	 0.458331704088534 
1539	 0.458865717542901 
1540	 0.459517230784895 
1541	 0.460280643049823 
1542	 0.461146680090836 
1543	 0.462132434281733 
1544	 0.463167415272755 
1545	 0.464312115895965 
1546	 0.465494865898806 
1547	 0.466757635750889 
1548	 0.468019272078601 
1549	 0.469353753713625 
1550	 0.470660154826531 
1551	 0.471974146695538 
1552	 0.473271083180486 
1553	 0.47458281033058 
1554	 0.475859318346529 
1555	 0.477125613046436 
1556	 0.478345274696871 
1557	 0.479533723921402 
1558	 0.480701227784781 
1559	 0.481834364624993 
1560	 0.482937654589427 
1561	 0.48402210634049 
1562	 0.485073545047779 
1563	 0.486075157427392 
1564	 0.487073702054036 
1565	 0.488053901929991 
1566	 0.489019459879264 
1567	 0.489971004181138 
1568	 0.490899507690403 
1569	 0.491814041909764 
1570	 0.492701340236757 
1571	 0.493565813464733 
1572	 0.494402512261354 
1573	 0.495202359225309 
1574	 0.496001574884356 
1575	 0.496781925170952 
1576	 0.497548811305762 
1577	 0.498306418268261 
1578	 0.499052110049559 
1579	 0.499774458521026 
1580	 0.500494233392822 
1581	 0.501217515335149 
1582	 0.501914612659994 
1583	 0.502593085071043 
1584	 0.503261878536557 
1585	 0.503899817359168 
1586	 0.504552851638218 
1587	 0.505199752078058 
1588	 0.505853561158235 
1589	 0.506517397460687 
1590	 0.507176762351453 
1591	 0.507841899370992 
1592	 0.508498621898754 
1593	 0.509145879237805 
1594	 0.50979948737877 
1595	 0.510450616998905 
1596	 0.511101132746931 
1597	 0.511757245124201 
1598	 0.512410460917641 
1599	 0.513071784938096 
1600	 0.513712292845651 
1601	 0.514340078803537 
1602	 0.514967375118692 
1603	 0.515580124988493 
1604	 0.516187121717724 
1605	 0.516802128074533 
1606	 0.517396295187069 
1607	 0.517991226306976 
1608	 0.518545821586492 
1609	 0.519068716276608 
1610	 0.5195806861978 
1611	 0.520060207921 
1612	 0.520525034713103 
1613	 0.520972990146216 
1614	 0.521414307752045 
1615	 0.521837804112161 
1616	 0.522250553827106 
1617	 0.522669952163701 
1618	 0.523057525200763 
1619	 0.523418432247035 
1620	 0.523758774482487 
1621	 0.52408038764559 
1622	 0.524373516064987 
1623	 0.524634117440667 
1624	 0.524889254026442 
1625	 0.525098084880824 
1626	 0.52533607545517 
1627	 0.52559438232496 
1628	 0.525831310167648 
1629	 0.526075624917044 
1630	 0.526306025316715 
1631	 0.526497807282083 
1632	 0.526713901113174 
1633	 0.526938440577385 
1634	 0.527169681610733 
1635	 0.527411607126404 
1636	 0.527657936956872 
1637	 0.527919134246266 
1638	 0.528163777724222 
1639	 0.528421159451795 
1640	 0.528650936212082 
1641	 0.528876640578006 
1642	 0.52905872480113 
1643	 0.529214213524461 
1644	 0.529333255806904 
1645	 0.529422281725058 
1646	 0.529465446410479 
1647	 0.529458642702142 
1648	 0.529435333152084 
1649	 0.529376380267294 
1650	 0.529279238903611 
1651	 0.529167885471415 
1652	 0.52900670330134 
1653	 0.528795551487372 
1654	 0.528548071490286 
1655	 0.528277529626148 
1656	 0.527934080214892 
1657	 0.527547847679508 
1658	 0.527078034266412 
1659	 0.526533694563503 
1660	 0.525932188860034 
1661	 0.525264770590528 
1662	 0.524519445308344 
1663	 0.52368357611881 
1664	 0.522810889209142 
1665	 0.521877659390561 
1666	 0.520877409754028 
1667	 0.519846092871675 
1668	 0.518728057068495 
1669	 0.517530998256191 
1670	 0.516254047732632 
1671	 0.51490669915902 
1672	 0.513455740007183 
1673	 0.511918132217224 
1674	 0.51027637843775 
1675	 0.508543907454883 
1676	 0.506735293265955 
1677	 0.50485486780508 
1678	 0.502830641402827 
1679	 0.500703614302056 
1680	 0.498423484222977 
1681	 0.496021406690567 
1682	 0.493418267823941 
1683	 0.490659839318489 
1684	 0.487786613236467 
1685	 0.484733765935962 
1686	 0.481551019516839 
1687	 0.478181954779499 
1688	 0.474758513276415 
1689	 0.471176194670742 
1690	 0.467565959095084 
1691	 0.463934397853248 
1692	 0.460251449497464 
1693	 0.456526072115452 
1694	 0.452654218964658 
1695	 0.448688692210529 
1696	 0.444586937096749 
1697	 0.440336297225158 
1698	 0.435952599020329 
1699	 0.431441540726823 
1700	 0.426984692961344 
1701	 0.422347226375436 
1702	 0.417927205295984 
1703	 0.413505385960807 
1704	 0.409317093916127 
1705	 0.405228279492764 
1706	 0.40127802795136 
1707	 0.397783661817448 
1708	 0.394422845358412 
1709	 0.391242071484675 
1710	 0.388292929791406 
1711	 0.385308988156907 
1712	 0.382533038664838 
1713	 0.379828675845988 
1714	 0.37715305951945 
1715	 0.374743701334243 
1716	 0.372299684781607 
1717	 0.369938141448246 
1718	 0.367760770342269 
1719	 0.365592348998424 
1720	 0.363614703154479 
1721	 0.361853432329527 
1722	 0.360274435935464 
1723	 0.359060133848279 
1724	 0.358155648239988 
1725	 0.35752997411068 
1726	 0.357332914762872 
1727	 0.357536665585572 
1728	 0.358101005829716 
1729	 0.359092102917763 
1730	 0.36047675901876 
1731	 0.362021001733152 
1732	 0.363819915332884 
1733	 0.365710181214542 
1734	 0.367595272165231 
1735	 0.369534084787215 
1736	 0.371299045905369 
1737	 0.372867135599667 
1738	 0.374202839488741 
1739	 0.375183629701516 
1740	 0.375864148399621 
1741	 0.376283374541962 
1742	 0.37633597277047 
1743	 0.376239753213183 
1744	 0.375854085966392 
1745	 0.375388269611209 
1746	 0.374658659190913 
1747	 0.374017714082233 
1748	 0.373267853936499 
1749	 0.372619919121304 
1750	 0.371968455718424 
1751	 0.371453882326729 
1752	 0.370978517006563 
1753	 0.370686456535438 
1754	 0.370510983494195 
1755	 0.370544452069561 
1756	 0.370710155408538 
1757	 0.371114950539837 
1758	 0.371756988694219 
1759	 0.372562552318241 
1760	 0.373668997064678 
1761	 0.375068807900379 
1762	 0.376606269742874 
1763	 0.378458611676036 
1764	 0.380499550247014 
1765	 0.38264093812511 
1766	 0.38507179922008 
1767	 0.38752734454409 
1768	 0.3900318974443 
1769	 0.392602706416088 
1770	 0.394959421187888 
1771	 0.397301256864276 
1772	 0.399552386574279 
1773	 0.401624878119099 
1774	 0.403736803920585 
1775	 0.405701850588652 
1776	 0.407602947882848 
1777	 0.40948636921119 
1778	 0.41119149139002 
1779	 0.412865893087134 
1780	 0.414448311214368 
1781	 0.415925201872272 
1782	 0.417414079991148 
1783	 0.41879321157378 
1784	 0.420154904440433 
1785	 0.421428839797069 
1786	 0.422630892699565 
1787	 0.423777014773493 
1788	 0.42488244700358 
1789	 0.425933489569424 
1790	 0.42698190902687 
1791	 0.428001702117418 
1792	 0.429001465307386 
1793	 0.429948736762395 
1794	 0.430864082030463 
1795	 0.431756669081491 
1796	 0.432616926539203 
1797	 0.43350414678614 
1798	 0.434333992536288 
1799	 0.435169977428917 
1800	 0.436019067096847 
1801	 0.428951611299855 
1802	 0.429779665687774 
1803	 0.430572188037933 
1804	 0.431322033700175 
1805	 0.432085423256055 
1806	 0.432784333122556 
1807	 0.433455162434431 
1808	 0.43409856696664 
1809	 0.434698901607104 
1810	 0.435283176323163 
1811	 0.435811905663687 
1812	 0.436382153247886 
1813	 0.436931021584815 
1814	 0.43752746096378 
1815	 0.438124552250993 
1816	 0.438763587360142 
1817	 0.439413534437328 
1818	 0.440080529297981 
1819	 0.440734534995702 
1820	 0.441428159997749 
1821	 0.442089611432435 
1822	 0.442712196619353 
1823	 0.443383143869828 
1824	 0.444026489367454 
1825	 0.444643437549 
1826	 0.445257843624743 
1827	 0.445863175021995 
1828	 0.446437157611293 
1829	 0.447012129027386 
1830	 0.447546751232415 
1831	 0.44803375643319 
1832	 0.448537515417832 
1833	 0.449019573625154 
1834	 0.449481339857538 
1835	 0.449937720614653 
1836	 0.450359978487203 
1837	 0.450781494144615 
1838	 0.451179910129765 
1839	 0.451582578040129 
1840	 0.451992955356477 
1841	 0.452381122319628 
1842	 0.452765339856533 
1843	 0.453120359680381 
1844	 0.45347178859138 
1845	 0.453772380603992 
1846	 0.454041730513904 
1847	 0.454282538051782 
1848	 0.454449572176458 
1849	 0.454576173782582 
1850	 0.454620919694394 
1851	 0.454608290831665 
1852	 0.454519056651545 
1853	 0.454342740717782 
1854	 0.454102441731998 
1855	 0.453766459171569 
1856	 0.453352821172935 
1857	 0.452856262654874 
1858	 0.452241892633911 
1859	 0.45155535796573 
1860	 0.450789060148482 
1861	 0.449913723101375 
1862	 0.448935228101754 
1863	 0.447915969966598 
1864	 0.446748438647288 
1865	 0.445513854628934 
1866	 0.444175373729559 
1867	 0.442628847853862 
1868	 0.441021151298609 
1869	 0.439228964981613 
1870	 0.437308095147384 
1871	 0.435260349947237 
1872	 0.433140495408895 
1873	 0.430888840597355 
1874	 0.42858382335199 
1875	 0.42619423494005 
1876	 0.423493873105467 
1877	 0.420783930080824 
1878	 0.417885098162941 
1879	 0.41476725693332 
1880	 0.411758973334687 
1881	 0.408557425042499 
1882	 0.405178748241475 
1883	 0.401729329087126 
1884	 0.398184344587731 
1885	 0.394286718324407 
1886	 0.390397815323822 
1887	 0.386296439822489 
1888	 0.382008285218521 
1889	 0.377956716179788 
1890	 0.373702767761461 
1891	 0.369459002098435 
1892	 0.36531439919069 
1893	 0.360995710869881 
1894	 0.356481667979928 
1895	 0.352143477302236 
1896	 0.347711609932741 
1897	 0.343196308751879 
1898	 0.339027722085236 
1899	 0.334722599136956 
1900	 0.330483497734389 
1901	 0.326365368945587 
1902	 0.321971949237267 
1903	 0.317746977501479 
1904	 0.313534561382344 
1905	 0.309293370436972 
1906	 0.305052678868899 
1907	 0.301165518393146 
1908	 0.297181530114098 
1909	 0.293282704143821 
1910	 0.289498470968628 
1911	 0.285453282220825 
1912	 0.281542541842126 
1913	 0.277531406824939 
1914	 0.27338167228148 
1915	 0.269379711333481 
1916	 0.26553071541839 
1917	 0.261457755500259 
1918	 0.257420812879467 
1919	 0.253376989975659 
1920	 0.248947031814713 
1921	 0.244609753641898 
1922	 0.240113304135061 
1923	 0.23543378596705 
1924	 0.231070497389994 
1925	 0.226526009644298 
1926	 0.222036698525067 
1927	 0.217648674834408 
1928	 0.213205201787885 
1929	 0.208598250540189 
1930	 0.204251216626763 
1931	 0.20002112189867 
1932	 0.195906778921266 
1933	 0.192357648347319 
1934	 0.189008662167374 
1935	 0.185936541515032 
1936	 0.183353603317412 
1937	 0.181023712579025 
1938	 0.178942000602957 
1939	 0.177315875331747 
1940	 0.176059920175213 
1941	 0.175143555939917 
1942	 0.174644683806969 
1943	 0.174428174347634 
1944	 0.17448347420436 
1945	 0.174858258378298 
1946	 0.175598027579938 
1947	 0.176575899180112 
1948	 0.177997245869291 
1949	 0.179874138074521 
1950	 0.182023167637596 
1951	 0.184569180237559 
1952	 0.187425500854655 
1953	 0.19058781481215 
1954	 0.194073311593526 
1955	 0.198028307219353 
1956	 0.202005928525178 
1957	 0.206094009021847 
1958	 0.210192441016922 
1959	 0.213820220674219 
1960	 0.217244275587438 
1961	 0.220317359053154 
1962	 0.223040733843822 
1963	 0.225450754885409 
1964	 0.227550650557969 
1965	 0.229336574150636 
1966	 0.230767846646069 
1967	 0.231980582452522 
1968	 0.232904707510909 
1969	 0.233802820107061 
1970	 0.23465227811608 
1971	 0.235521695777585 
1972	 0.23651686827381 
1973	 0.237566956233 
1974	 0.23871811404901 
1975	 0.239988466712568 
1976	 0.241308919060508 
1977	 0.242696801778735 
1978	 0.244180258770742 
1979	 0.245737526004842 
1980	 0.24734967834116 
1981	 0.249162201491642 
1982	 0.250952355097585 
1983	 0.252895034238108 
1984	 0.254977574472489 
1985	 0.257028579830109 
1986	 0.259292835968901 
1987	 0.261773113373488 
1988	 0.26427903269851 
1989	 0.267255667090744 
1990	 0.270565547695809 
1991	 0.274103711844867 
1992	 0.277976958879522 
1993	 0.282204280446321 
1994	 0.286318373429213 
1995	 0.29076515796294 
1996	 0.295262170670765 
1997	 0.299731564124058 
1998	 0.304365814903033 
1999	 0.309275726320742 
2000	 0.313850195037475 
2001	 0.318607058664263 
2002	 0.322875883880073 
2003	 0.326836907778741 
2004	 0.330667627113976 
2005	 0.334157669177462 
2006	 0.337581943833938 
2007	 0.340965370331202 
2008	 0.344021098696592 
2009	 0.346899412459714 
2010	 0.349683516095124 
2011	 0.352066562656323 
2012	 0.354347209357384 
2013	 0.356502259194803 
2014	 0.358438479419269 
2015	 0.360337394933515 
2016	 0.362164107732456 
2017	 0.363837711534106 
2018	 0.36543568660668 
2019	 0.366856398192261 
2020	 0.368085986960626 
2021	 0.369235085928012 
2022	 0.370260567924723 
2023	 0.371136882443903 
2024	 0.371988786855419 
2025	 0.372729814925352 
2026	 0.37340077067863 
2027	 0.373985332557159 
2028	 0.374509116599604 
2029	 0.374929273209307 
2030	 0.375332255436637 
2031	 0.375643548020663 
2032	 0.375975080125683 
2033	 0.376271404043619 
2034	 0.376563844781583 
2035	 0.376843817974827 
2036	 0.377133390727697 
2037	 0.3773844775308 
2038	 0.377649713349465 
2039	 0.37793593543139 
2040	 0.378218196751434 
2041	 0.378545401481926 
2042	 0.378912618386375 
2043	 0.379273337223839 
2044	 0.379676334888399 
2045	 0.380042648995381 
2046	 0.380394021254619 
2047	 0.380750821034297 
2048	 0.381085475170629 
2049	 0.381440560597558 
2050	 0.381824202631709 
2051	 0.382184289614434 
2052	 0.382533035101812 
2053	 0.38288270667392 
2054	 0.383192726105888 
2055	 0.383467308408432 
2056	 0.383737378332889 
2057	 0.383987520663626 
2058	 0.384228748500249 
2059	 0.384436896028327 
2060	 0.384667888767632 
2061	 0.384899709641795 
2062	 0.385128003580165 
2063	 0.385364023518385 
2064	 0.385602648950586 
2065	 0.385827735491934 
2066	 0.386067578090488 
2067	 0.38632871094408 
2068	 0.386583247570848 
2069	 0.386846673547891 
2070	 0.387127364945805 
2071	 0.387385652749529 
2072	 0.387652813300348 
2073	 0.387887894341542 
2074	 0.388106341421164 
2075	 0.388305588044736 
2076	 0.388507505661585 
2077	 0.388645565828627 
2078	 0.388754271012395 
2079	 0.38881960848697 
2080	 0.38882168467838 
2081	 0.388800938018895 
2082	 0.388741367194608 
2083	 0.388671379672415 
2084	 0.388560055310539 
2085	 0.388413141412563 
2086	 0.388223992703199 
2087	 0.387993104655589 
2088	 0.387737817894949 
2089	 0.387430457131505 
2090	 0.387124412325108 
2091	 0.38683038888994 
2092	 0.38645223950664 
2093	 0.386044439888843 
2094	 0.385576723876412 
2095	 0.385014003709144 
2096	 0.384449146272994 
2097	 0.383855852922068 
2098	 0.383220409141448 
2099	 0.382592505883996 
2100	 0.381952221748498 
2101	 0.38122324604507 
2102	 0.38045855404214 
2103	 0.379636397371376 
2104	 0.378703900965312 
2105	 0.377814729280044 
2106	 0.376915953467924 
2107	 0.375988927271936 
2108	 0.375082524091466 
2109	 0.374088233693892 
2110	 0.373031424950436 
2111	 0.371960171510494 
2112	 0.370784944289609 
2113	 0.369664617097247 
2114	 0.368548050951965 
2115	 0.367440434937674 
2116	 0.366354301873094 
2117	 0.3652842095418 
2118	 0.364190980491389 
2119	 0.363073577074181 
2120	 0.362024675017162 
2121	 0.360941837246486 
2122	 0.360007402204666 
2123	 0.359163450381777 
2124	 0.358359475261613 
2125	 0.357665103470882 
2126	 0.356964129011146 
2127	 0.356281589967445 
2128	 0.355664256647973 
2129	 0.355102735458307 
2130	 0.354560746878809 
2131	 0.354093725647353 
2132	 0.353613990263305 
2133	 0.3531676435466 
2134	 0.352700946689968 
2135	 0.352194030844238 
2136	 0.351684079202259 
2137	 0.351149259130937 
2138	 0.35056069761852 
2139	 0.350003428178228 
2140	 0.349453670900591 
2141	 0.348894840844045 
2142	 0.348317732617149 
2143	 0.347770495761392 
2144	 0.34718713298524 
2145	 0.346711179832428 
2146	 0.346274196245567 
2147	 0.345904334368281 
2148	 0.345656624331388 
2149	 0.345378370395171 
2150	 0.345150517116878 
2151	 0.344898696913331 
2152	 0.34465038854898 
2153	 0.344388757091649 
2154	 0.344114009797581 
2155	 0.343802385632429 
2156	 0.343466044911719 
2157	 0.343115274799305 
2158	 0.342692183948976 
2159	 0.342243628801147 
2160	 0.34171286089468 
2161	 0.341085368585324 
2162	 0.340469215138677 
2163	 0.339779902004764 
2164	 0.339129555845792 
2165	 0.338482883001058 
2166	 0.337829700146555 
2167	 0.337182498605234 
2168	 0.33652468077215 
2169	 0.335811141794358 
2170	 0.335175889596166 
2171	 0.334529419727758 
2172	 0.33397157112753 
2173	 0.333497344346293 
2174	 0.333060702758743 
2175	 0.332659026166255 
2176	 0.33234508921418 
2177	 0.332061624772888 
2178	 0.331832919288224 
2179	 0.331628346893066 
2180	 0.331477946302705 
2181	 0.331338381121036 
2182	 0.331246099264363 
2183	 0.33112282220419 
2184	 0.331033812589702 
2185	 0.330894519196019 
2186	 0.330732287149895 
2187	 0.330541526911175 
2188	 0.330337876378464 
2189	 0.330090610405795 
2190	 0.329802097284626 
2191	 0.32949045007767 
2192	 0.329175644957583 
2193	 0.328778552248735 
2194	 0.328325097930416 
2195	 0.327835910407046 
2196	 0.327295305732734 
2197	 0.326672189453921 
2198	 0.326050948415659 
2199	 0.325395315752749 
2200	 0.32470169492235 
2201	 0.323984623135233 
2202	 0.323170747225468 
2203	 0.32228891074434 
2204	 0.321399283453733 
2205	 0.320398056836185 
2206	 0.319477050180406 
2207	 0.318589322745661 
2208	 0.317665569082361 
2209	 0.316746263368848 
2210	 0.315812571119927 
2211	 0.31481577997886 
2212	 0.313909466188493 
2213	 0.312957839149481 
2214	 0.31217024617594 
2215	 0.311474062757709 
2216	 0.310877785838704 
2217	 0.310403901908668 
2218	 0.310026286444774 
2219	 0.309750377521724 
2220	 0.309558849463827 
2221	 0.309488119910013 
2222	 0.309484113812154 
2223	 0.309547895897805 
2224	 0.309672828163575 
2225	 0.309796602837073 
2226	 0.309861544796266 
2227	 0.309821622869152 
2228	 0.309733050963811 
2229	 0.30951449098088 
2230	 0.309199430520079 
2231	 0.30877198544158 
2232	 0.308261299593807 
2233	 0.307574445025431 
2234	 0.306780753094208 
2235	 0.305780362020998 
2236	 0.304607368976067 
2237	 0.303273863194071 
2238	 0.301716111581716 
2239	 0.300077503411221 
2240	 0.29831657807526 
2241	 0.296370523488384 
2242	 0.294325893267539 
2243	 0.292051872626407 
2244	 0.289512547284371 
2245	 0.28690663664854 
2246	 0.284038540777405 
2247	 0.281194135697153 
2248	 0.278335976991597 
2249	 0.275324382884909 
2250	 0.272198520502339 
2251	 0.269083269593038 
2252	 0.26566965641842 
2253	 0.262273270390174 
2254	 0.258821495505811 
2255	 0.255295243451692 
2256	 0.252007114091243 
2257	 0.248664136019864 
2258	 0.245389986851559 
2259	 0.24225344448211 
2260	 0.238990167143326 
2261	 0.235651772298133 
2262	 0.23243406242415 
2263	 0.229131350889742 
2264	 0.226072712452641 
2265	 0.223172209559732 
2266	 0.220306415338815 
2267	 0.217608172265137 
2268	 0.214900103384772 
2269	 0.212181413490873 
2270	 0.209638713550993 
2271	 0.207146043443832 
2272	 0.20482555457063 
2273	 0.202729268335345 
2274	 0.200616251844776 
2275	 0.198689735854383 
2276	 0.196650300227081 
2277	 0.194622175409725 
2278	 0.1925473764981 
2279	 0.190394254332751 
2280	 0.18823763757953 
2281	 0.186097543769658 
2282	 0.183863439897611 
2283	 0.181589362631219 
2284	 0.179294599734474 
2285	 0.176745163149283 
2286	 0.174204002765397 
2287	 0.171530510576112 
2288	 0.168724992066302 
2289	 0.166071258334575 
2290	 0.163247007494141 
2291	 0.160384991021609 
2292	 0.157492733205812 
2293	 0.154317924430882 
2294	 0.151181135536214 
2295	 0.148015277551277 
2296	 0.144868666372802 
2297	 0.142062272846879 
2298	 0.139431204367202 
2299	 0.137031328648712 
2300	 0.134861119678838 
2301	 0.132992620711188 
2302	 0.131248166111604 
2303	 0.130108179238419 
2304	 0.129356610452014 
2305	 0.129100934495377 
2306	 0.129362940324882 
2307	 0.130061471700541 
2308	 0.131177794696574 
2309	 0.132911739577327 
2310	 0.135350377338335 
2311	 0.137977953991206 
2312	 0.141394354303448 
2313	 0.144550801044744 
2314	 0.147959495004639 
2315	 0.151188549955551 
2316	 0.154490473248142 
2317	 0.157467777903443 
2318	 0.160438244706529 
2319	 0.162894157185875 
2320	 0.165017248438637 
2321	 0.166779278752681 
2322	 0.168062517327588 
2323	 0.169146104260282 
2324	 0.169877064134403 
2325	 0.170393924783293 
2326	 0.170626328545901 
2327	 0.170617119970077 
2328	 0.170332769003359 
2329	 0.169802893329183 
2330	 0.169007922466655 
2331	 0.167925820406214 
2332	 0.166628225669524 
2333	 0.165078119238261 
2334	 0.163200970166055 
2335	 0.161164581820374 
2336	 0.158834023224626 
2337	 0.156254242276396 
2338	 0.153741732538249 
2339	 0.151070340666795 
2340	 0.148473474278975 
2341	 0.146077460689512 
2342	 0.1436163368399 
2343	 0.141435414941697 
2344	 0.139605429607687 
2345	 0.13814479625454 
2346	 0.137284648271788 
2347	 0.137002907043511 
2348	 0.137220632114551 
2349	 0.138060777729136 
2350	 0.13936907678615 
2351	 0.141075051964361 
2352	 0.143019884506331 
2353	 0.145099042513072 
2354	 0.14711627028293 
2355	 0.148982308931684 
2356	 0.150706483776817 
2357	 0.152149947476956 
2358	 0.153311383603752 
2359	 0.15414963269622 
2360	 0.154753672740825 
2361	 0.15501700053568 
2362	 0.155082251510498 
2363	 0.155028021769459 
2364	 0.154814043110103 
2365	 0.154495081398429 
2366	 0.154077667492319 
2367	 0.153628505774001 
2368	 0.153156453284806 
2369	 0.152728550531774 
2370	 0.152374890934741 
2371	 0.152070217604136 
2372	 0.151780904840264 
2373	 0.151390210466431 
2374	 0.150931334621279 
2375	 0.150514908934895 
2376	 0.150088051414848 
2377	 0.149730598086188 
2378	 0.149416426970772 
2379	 0.149025274071101 
2380	 0.148596876580227 
2381	 0.148129525552871 
2382	 0.147715039242474 
2383	 0.147321764014127 
2384	 0.146949151272693 
2385	 0.146627320017061 
2386	 0.146264047431672 
2387	 0.145871803175125 
2388	 0.145473933815752 
2389	 0.145118849687234 
2390	 0.144665279662151 
2391	 0.144166006410886 
2392	 0.143639225522246 
2393	 0.143018165997668 
2394	 0.142419533678679 
2395	 0.141805846567013 
2396	 0.141205956339967 
2397	 0.140605914644009 
2398	 0.139963279544447 
2399	 0.139339913108629 
2400	 0.138659064434676 
2401	 0.137879992416915 
2402	 0.137236062866934 
2403	 0.136549323055487 
2404	 0.135956897794452 
2405	 0.135353712590073 
2406	 0.134632671585026 
2407	 0.134023781284296 
2408	 0.133448196342937 
2409	 0.132860267605042 
2410	 0.132413108503521 
2411	 0.132001767913287 
2412	 0.131661406045128 
2413	 0.131417201221411 
2414	 0.131175876945766 
2415	 0.130953771936499 
2416	 0.130765777548671 
2417	 0.130571863815092 
2418	 0.130286788917858 
2419	 0.13011698105917 
2420	 0.130021395998205 
2421	 0.129899439820085 
2422	 0.129920092503566 
2423	 0.129876983568868 
2424	 0.1297085277258 
2425	 0.129651984603221 
2426	 0.129604624724611 
2427	 0.129569372276353 
2428	 0.129671206804472 
2429	 0.129692492772746 
2430	 0.129628443138656 
2431	 0.1295911822053 
2432	 0.129533628419064 
2433	 0.129501648667389 
2434	 0.12949287579729 
2435	 0.129464154620774 
2436	 0.129367873831252 
2437	 0.129243873511967 
2438	 0.129234204959703 
2439	 0.129268341073848 
2440	 0.12933655879961 
2441	 0.129425066369168 
2442	 0.129372999589784 
2443	 0.129373581996311 
2444	 0.129401852148393 
2445	 0.129225518358602 
2446	 0.129127461775867 
2447	 0.129098512002261 
2448	 0.12884983819829 
2449	 0.128710406707515 
2450	 0.128698194498206 
2451	 0.128344342446661 
2452	 0.128053799093839 
2453	 0.127867541273578 
2454	 0.127396853931053 
2455	 0.127123833297205 
2456	 0.127102999203744 
2457	 0.126948501827556 
2458	 0.12673438805069 
2459	 0.126504732090996 
2460	 0.126096928611496 
2461	 0.125655121741943 
2462	 0.125415566847654 
2463	 0.125244658449556 
2464	 0.124936729080797 
2465	 0.124672212024461 
2466	 0.124465542371453 
2467	 0.124146694581221 
2468	 0.123862110845269 
2469	 0.123595727293794 
2470	 0.12339749540227 
2471	 0.123191787861369 
2472	 0.122946767185042 
2473	 0.122823502010159 
2474	 0.122551971551342 
2475	 0.122354818931682 
2476	 0.122478628723994 
2477	 0.122604686316465 
2478	 0.122743984398599 
2479	 0.122876584800799 
2480	 0.122968383494925 
2481	 0.122963888911049 
2482	 0.122872930002111 
2483	 0.122912250038013 
2484	 0.122925586845595 
2485	 0.123255325809738 
2486	 0.123535405087487 
2487	 0.123868904142524 
2488	 0.124237674752756 
2489	 0.124445333706089 
2490	 0.124789905838409 
2491	 0.125015671325151 
2492	 0.125209839382951 
2493	 0.12566654152969 
2494	 0.1261725947 
2495	 0.126806261096243 
2496	 0.127540891243511 
2497	 0.128298686672876 
2498	 0.128980089293264 
2499	 0.129265009277148 
2500	 0.129589964098525 
