Wavelength	spectrum00016.asd
350	 3.08455693281428E-02 
351	 2.97014736829124E-02 
352	 0.026804502411251 
353	 2.44513150114552E-02 
354	 2.69622863469245E-02 
355	 2.79574657791367E-02 
356	 2.69319171672841E-02 
357	 2.52056389656239E-02 
358	 2.50322568707806E-02 
359	 2.43245633391464E-02 
360	 2.39115371628875E-02 
361	 2.56256438964249E-02 
362	 2.68212661158175E-02 
363	 2.63396190631276E-02 
364	 2.46080377771757E-02 
365	 2.37713820387276E-02 
366	 2.42850042854506E-02 
367	 2.46424394689305E-02 
368	 2.37671147164985E-02 
369	 2.35558694634033E-02 
370	 2.39959207099777E-02 
371	 2.48774436770686E-02 
372	 2.57733641718786E-02 
373	 2.56313333095676E-02 
374	 2.56928594737874E-02 
375	 2.60964448564244E-02 
376	 2.50592749646757E-02 
377	 2.43129451702268E-02 
378	 2.43910590850969E-02 
379	 2.50883145533944E-02 
380	 2.48179573659913E-02 
381	 2.56510706363492E-02 
382	 2.65902898766749E-02 
383	 2.52016792307591E-02 
384	 2.41987378865796E-02 
385	 2.49283234720373E-02 
386	 2.65336655460389E-02 
387	 2.51943320291753E-02 
388	 2.48205186965639E-02 
389	 2.52655259830293E-02 
390	 2.55734718146804E-02 
391	 2.63476077522888E-02 
392	 0.02614410038775 
393	 0.025361987064091 
394	 2.54787091375061E-02 
395	 2.53262967973795E-02 
396	 2.55034226369132E-02 
397	 2.60826285666635E-02 
398	 2.59191546787395E-02 
399	 2.57892299017211E-02 
400	 2.58803948302707E-02 
401	 0.026053256318909 
402	 2.54895852736058E-02 
403	 2.55301994226964E-02 
404	 2.61641525897006E-02 
405	 2.63438943543839E-02 
406	 2.59582581909319E-02 
407	 2.58442811760282E-02 
408	 2.62764684308603E-02 
409	 2.61816274016251E-02 
410	 2.61979358355523E-02 
411	 2.65080440948333E-02 
412	 2.70380207908796E-02 
413	 2.72940442289261E-02 
414	 2.70865425286337E-02 
415	 2.67198936618378E-02 
416	 2.68656453304129E-02 
417	 2.70038680692035E-02 
418	 2.70522217253841E-02 
419	 2.70567616398981E-02 
420	 2.71876736216879E-02 
421	 2.71543495888662E-02 
422	 2.71472783978045E-02 
423	 2.74304511489924E-02 
424	 0.02735295436647 
425	 2.74285599203747E-02 
426	 2.76672513784638E-02 
427	 2.74180150374221E-02 
428	 2.73975582405442E-02 
429	 2.76300098863722E-02 
430	 2.79000130744246E-02 
431	 2.77476613313535E-02 
432	 2.78912068967829E-02 
433	 2.81499916300115E-02 
434	 2.79314682503624E-02 
435	 2.79094082719862E-02 
436	 2.80362352856147E-02 
437	 2.82117787890499E-02 
438	 2.83951971788103E-02 
439	 2.85367420761458E-02 
440	 0.028604792834709 
441	 2.86225469558061E-02 
442	 2.87925616150719E-02 
443	 2.89450318092036E-02 
444	 2.90090768060456E-02 
445	 2.90171399448177E-02 
446	 2.91577604868982E-02 
447	 2.92329006944352E-02 
448	 2.91940833773167E-02 
449	 2.94979040309511E-02 
450	 2.95816274269534E-02 
451	 0.029555139242643 
452	 2.97184658199351E-02 
453	 2.97917082723913E-02 
454	 2.99390898129028E-02 
455	 3.01308374339035E-02 
456	 3.01017188825257E-02 
457	 3.01656356319264E-02 
458	 3.02664492698415E-02 
459	 3.03245879846356E-02 
460	 0.030445435087225 
461	 3.06285584382465E-02 
462	 3.07711165521196E-02 
463	 3.07587629852542E-02 
464	 3.09083756633066E-02 
465	 3.11033546929952E-02 
466	 3.12509654850664E-02 
467	 3.13781597993016E-02 
468	 3.14140816723368E-02 
469	 3.14123333373699E-02 
470	 3.14848578141171E-02 
471	 3.18552216525349E-02 
472	 3.19422896647036E-02 
473	 3.17720488950675E-02 
474	 3.18546384571511E-02 
475	 3.20049991397378E-02 
476	 3.21633033387956E-02 
477	 3.22882093193433E-02 
478	 3.23360847993735E-02 
479	 3.24074427594415E-02 
480	 3.25097831539988E-02 
481	 3.26107863622845E-02 
482	 3.26861926024212E-02 
483	 3.28106613789104E-02 
484	 0.032948267306185 
485	 3.29351478427987E-02 
486	 3.30923250730395E-02 
487	 3.32806583083312E-02 
488	 3.33368766029333E-02 
489	 3.33537411240767E-02 
490	 0.033489669420195 
491	 3.36373829225508E-02 
492	 3.35771679077062E-02 
493	 3.36592302725208E-02 
494	 3.37593342533776E-02 
495	 3.38407265725843E-02 
496	 3.41251430516091E-02 
497	 3.42294025868186E-02 
498	 3.42315695209636E-02 
499	 3.43113846160761E-02 
500	 3.43848992745935E-02 
501	 3.44299006932894E-02 
502	 3.44775451502918E-02 
503	 3.45983902776011E-02 
504	 3.47374577209899E-02 
505	 3.48101981312377E-02 
506	 3.48013278559333E-02 
507	 0.034864076006979 
508	 3.49633606274957E-02 
509	 3.50475318577938E-02 
510	 3.50774785051014E-02 
511	 3.51808622117551E-02 
512	 3.52880557453157E-02 
513	 3.53735900096655E-02 
514	 3.54931944406685E-02 
515	 0.035552611602438 
516	 3.55732994012876E-02 
517	 3.56012190546256E-02 
518	 3.56489198557149E-02 
519	 3.57137638218663E-02 
520	 3.58068389182771E-02 
521	 0.035940941082088 
522	 3.60335281198972E-02 
523	 3.61056932942175E-02 
524	 3.61787099502944E-02 
525	 3.62402138774154E-02 
526	 3.63078586331615E-02 
527	 3.63856894666442E-02 
528	 3.64670530703538E-02 
529	 3.65175232971366E-02 
530	 3.65732223064536E-02 
531	 3.66552866312886E-02 
532	 3.67623476478219E-02 
533	 3.68165927048909E-02 
534	 3.68423899202489E-02 
535	 3.68759209682014E-02 
536	 3.69127497314662E-02 
537	 3.69594977224155E-02 
538	 3.70244867831589E-02 
539	 3.71094828503467E-02 
540	 3.71525657762947E-02 
541	 3.71970500835625E-02 
542	 3.72621889517981E-02 
543	 3.73103378368083E-02 
544	 3.73236741800962E-02 
545	 3.73256298046243E-02 
546	 3.73545470987758E-02 
547	 3.74488043439826E-02 
548	 3.75298562887207E-02 
549	 3.75934767376902E-02 
550	 3.77018308235872E-02 
551	 3.77702030896432E-02 
552	 3.78784862738764E-02 
553	 3.80615100227955E-02 
554	 3.81626085119209E-02 
555	 3.82561805804028E-02 
556	 3.83799996889894E-02 
557	 3.85415550584597E-02 
558	 3.86465934128071E-02 
559	 3.87553133815738E-02 
560	 3.88802556117697E-02 
561	 3.89480835772721E-02 
562	 3.89659767888947E-02 
563	 3.89818363989998E-02 
564	 3.90279124587418E-02 
565	 3.90278600609607E-02 
566	 3.90197054590917E-02 
567	 0.039014871102415 
568	 3.90079840729839E-02 
569	 3.90692058401773E-02 
570	 3.91397809869925E-02 
571	 3.91839705468176E-02 
572	 3.92588503435827E-02 
573	 3.93507377534162E-02 
574	 3.94342368195643E-02 
575	 3.94838747004485E-02 
576	 3.95200651178016E-02 
577	 3.95024774379407E-02 
578	 3.94473829132015E-02 
579	 3.94370405820281E-02 
580	 3.94671677115649E-02 
581	 3.95108722442356E-02 
582	 3.95471622734905E-02 
583	 3.95980749399621E-02 
584	 3.96448180589367E-02 
585	 3.96905408553304E-02 
586	 3.97493968352477E-02 
587	 3.98064275983304E-02 
588	 3.98590265694116E-02 
589	 3.99120824235756E-02 
590	 0.039982655853926 
591	 3.99974979857177E-02 
592	 4.00238178101681E-02 
593	 4.01328508904326E-02 
594	 4.02172249381926E-02 
595	 4.02502951316811E-02 
596	 4.02699703821848E-02 
597	 4.03601702283004E-02 
598	 4.04184031055049E-02 
599	 4.04701828584328E-02 
600	 4.05334367578446E-02 
601	 4.05440333941906E-02 
602	 4.05953438952574E-02 
603	 4.06617349710074E-02 
604	 4.06806558847231E-02 
605	 4.07247452734198E-02 
606	 4.07858852623059E-02 
607	 4.08523863541131E-02 
608	 4.09168405563623E-02 
609	 4.09726852259477E-02 
610	 4.10238691847502E-02 
611	 4.10769537137523E-02 
612	 4.11388650161134E-02 
613	 4.11773234001431E-02 
614	 4.12018263905563E-02 
615	 4.12461090229167E-02 
616	 4.12845933525414E-02 
617	 4.13327014736888E-02 
618	 4.13928712511263E-02 
619	 4.14372062625474E-02 
620	 4.14537292842403E-02 
621	 4.14845959824219E-02 
622	 4.15650804489777E-02 
623	 4.16025489107089E-02 
624	 4.16388589374442E-02 
625	 4.16927126359281E-02 
626	 4.17535946894614E-02 
627	 4.17773562648889E-02 
628	 4.17956248234444E-02 
629	 4.18382371280217E-02 
630	 4.18943649564328E-02 
631	 4.19445671343026E-02 
632	 4.19994723924507E-02 
633	 4.20711395832199E-02 
634	 4.20763057944312E-02 
635	 4.20980578403453E-02 
636	 0.042168164934653 
637	 4.22369937590408E-02 
638	 4.22651300887299E-02 
639	 4.22825537560888E-02 
640	 4.23219810028717E-02 
641	 4.23578537447263E-02 
642	 4.24078736654196E-02 
643	 0.042453868413129 
644	 4.24654815206801E-02 
645	 4.25173843770055E-02 
646	 4.25804157534181E-02 
647	 4.26344101010675E-02 
648	 4.26967071226124E-02 
649	 4.27407578364515E-02 
650	 4.27755304150366E-02 
651	 4.28173219952932E-02 
652	 4.28636022971816E-02 
653	 4.29012615392581E-02 
654	 4.29200549031939E-02 
655	 4.29187157042113E-02 
656	 4.29780874302996E-02 
657	 4.30501842654796E-02 
658	 4.30958824468462E-02 
659	 4.31415774017864E-02 
660	 4.31778128206801E-02 
661	 4.32070549644114E-02 
662	 4.32402722419435E-02 
663	 4.33164723885107E-02 
664	 4.33458407065841E-02 
665	 4.33353450099492E-02 
666	 4.33912647395709E-02 
667	 4.34254864257778E-02 
668	 0.04346393882486 
669	 4.35269147385444E-02 
670	 4.35656118735493E-02 
671	 4.35751026598028E-02 
672	 4.35885981370459E-02 
673	 4.36466661535638E-02 
674	 4.37000687544057E-02 
675	 4.37643360179106E-02 
676	 4.38258937483565E-02 
677	 4.38318447414051E-02 
678	 4.38514392941591E-02 
679	 4.38986394304459E-02 
680	 4.39610026807704E-02 
681	 4.39919073862459E-02 
682	 4.40175930328294E-02 
683	 4.40554687304284E-02 
684	 4.41116007798105E-02 
685	 4.41422437980488E-02 
686	 4.41801887399456E-02 
687	 4.42318201718313E-02 
688	 4.42553461298912E-02 
689	 4.42977633208351E-02 
690	 4.43401622926404E-02 
691	 4.43628857978435E-02 
692	 4.44064027021753E-02 
693	 4.44460404346114E-02 
694	 4.44817749067281E-02 
695	 4.45275226335146E-02 
696	 4.45698726307332E-02 
697	 4.46028710714614E-02 
698	 4.46270122950489E-02 
699	 4.46501393758542E-02 
700	 0.044690814794681 
701	 4.47475182888551E-02 
702	 4.48080507874382E-02 
703	 4.48493999097137E-02 
704	 4.48823061208944E-02 
705	 0.044912119519933 
706	 4.49413920120209E-02 
707	 4.49880694883362E-02 
708	 4.50423004269946E-02 
709	 4.50877740660088E-02 
710	 4.51029479692688E-02 
711	 4.51347141269809E-02 
712	 4.51772424685827E-02 
713	 4.52165768703388E-02 
714	 4.52787478403531E-02 
715	 4.53323309011365E-02 
716	 4.53668819895665E-02 
717	 4.53915419768864E-02 
718	 0.045436291793873 
719	 4.55001111588825E-02 
720	 4.55604940882372E-02 
721	 4.55659333690259E-02 
722	 4.55892469577652E-02 
723	 4.56364186377735E-02 
724	 4.56928765811827E-02 
725	 4.57571394847369E-02 
726	 0.045791659707195 
727	 4.58085011850057E-02 
728	 4.58518661424661E-02 
729	 4.59021698219299E-02 
730	 4.59463033789674E-02 
731	 4.59838308330533E-02 
732	 0.046034780585563 
733	 4.60621387724294E-02 
734	 4.60943233856495E-02 
735	 0.046160638368694 
736	 4.62214369552942E-02 
737	 4.62619309694836E-02 
738	 4.62970575080091E-02 
739	 4.63565111482118E-02 
740	 4.64128684397295E-02 
741	 4.64478017176588E-02 
742	 4.64660719205522E-02 
743	 0.046503811966119 
744	 4.65461871158451E-02 
745	 4.66028129413621E-02 
746	 4.66743697386534E-02 
747	 4.67125249598263E-02 
748	 4.67565519416945E-02 
749	 4.68019416781097E-02 
750	 4.68245286935167E-02 
751	 4.68585014199419E-02 
752	 4.69187523233899E-02 
753	 0.046991250278559 
754	 4.70295535138424E-02 
755	 4.70631653404854E-02 
756	 4.71026478740036E-02 
757	 4.71453872873896E-02 
758	 4.71609818673117E-02 
759	 4.71921754079936E-02 
760	 4.72418837209831E-02 
761	 4.72924695808787E-02 
762	 4.73334191365249E-02 
763	 4.73697613839653E-02 
764	 4.74097837611242E-02 
765	 0.047461878609154 
766	 4.74941861324602E-02 
767	 4.75280162554179E-02 
768	 4.75821929212849E-02 
769	 0.047648922607152 
770	 4.76905032397395E-02 
771	 4.77213478725727E-02 
772	 4.77668578827564E-02 
773	 4.77966803375906E-02 
774	 4.78262428066921E-02 
775	 4.78660806773011E-02 
776	 4.79178063728744E-02 
777	 4.79445966372338E-02 
778	 4.79973716742258E-02 
779	 4.80799018474632E-02 
780	 4.80959238817922E-02 
781	 4.81223395334796E-02 
782	 4.81683851638877E-02 
783	 4.82236529120072E-02 
784	 4.82817357123129E-02 
785	 4.83339328466959E-02 
786	 4.83783097410305E-02 
787	 4.84168293246665E-02 
788	 4.84438018659073E-02 
789	 0.048474816431738 
790	 4.85220529568028E-02 
791	 4.85897380106766E-02 
792	 4.86488497540212E-02 
793	 4.86903044682279E-02 
794	 4.87227638554884E-02 
795	 4.87875589061219E-02 
796	 4.88252141382474E-02 
797	 4.88626722389727E-02 
798	 4.89348315017815E-02 
799	 4.89483270257854E-02 
800	 4.89757634721093E-02 
801	 4.90259086950793E-02 
802	 4.90562066721764E-02 
803	 4.90898657503355E-02 
804	 4.91369078955865E-02 
805	 4.91938803288096E-02 
806	 4.92403159822305E-02 
807	 4.92889245654146E-02 
808	 4.93224901038568E-02 
809	 4.93392948614836E-02 
810	 0.049403526359149 
811	 4.94699775425587E-02 
812	 4.95209680955857E-02 
813	 4.95587387475629E-02 
814	 4.96197057246578E-02 
815	 4.96805629226348E-02 
816	 0.049712268104882 
817	 4.96969989735503E-02 
818	 4.97665543926179E-02 
819	 0.049831175618785 
820	 4.98455547623118E-02 
821	 4.98933616638444E-02 
822	 4.99513111183988E-02 
823	 5.00075046794448E-02 
824	 5.00570361486509E-02 
825	 5.01143470042011E-02 
826	 5.01444211706656E-02 
827	 5.01707753420395E-02 
828	 5.02316573724058E-02 
829	 5.02779269888103E-02 
830	 5.03396882882515E-02 
831	 5.04038271113832E-02 
832	 0.050425841826271 
833	 5.04958772834186E-02 
834	 5.05473133659907E-02 
835	 5.05636067256767E-02 
836	 5.06381882696353E-02 
837	 5.06942934178701E-02 
838	 5.07407525507547E-02 
839	 5.07950287999612E-02 
840	 5.08369324376102E-02 
841	 5.08835301310232E-02 
842	 5.09295268552673E-02 
843	 5.09655008736652E-02 
844	 5.10085076187963E-02 
845	 0.051051147358418 
846	 5.11020355676812E-02 
847	 5.11751947198821E-02 
848	 5.12261143573702E-02 
849	 5.12423281487197E-02 
850	 5.12440818139693E-02 
851	 5.12839758648882E-02 
852	 5.13718694524784E-02 
853	 0.051433210699685 
854	 0.051440259057805 
855	 5.15020539890495E-02 
856	 5.15472165420763E-02 
857	 5.15850683856601E-02 
858	 5.16390510484005E-02 
859	 5.16932049686297E-02 
860	 5.17285040757627E-02 
861	 5.17612876256054E-02 
862	 5.18213064044081E-02 
863	 5.19008141098511E-02 
864	 5.19553760698317E-02 
865	 5.19802318407626E-02 
866	 5.20078252855064E-02 
867	 5.20464905285894E-02 
868	 5.21181051569433E-02 
869	 5.21908530229935E-02 
870	 5.21678847022511E-02 
871	 5.22164417545221E-02 
872	 5.22877291071319E-02 
873	 0.052326394981714 
874	 5.23717866884815E-02 
875	 5.24338688418539E-02 
876	 5.24920024154525E-02 
877	 5.25301408808448E-02 
878	 5.25892015299473E-02 
879	 5.26264376456762E-02 
880	 5.26571128706889E-02 
881	 5.27142857157006E-02 
882	 5.27587671405375E-02 
883	 5.28145745089929E-02 
884	 0.052873421056191 
885	 5.29075869333812E-02 
886	 5.29621931250789E-02 
887	 5.30280819889869E-02 
888	 5.31017625583284E-02 
889	 5.31892990353104E-02 
890	 5.32193769720124E-02 
891	 5.32335688501494E-02 
892	 5.32743809074054E-02 
893	 5.33468048814388E-02 
894	 5.34243527134647E-02 
895	 5.34843609918337E-02 
896	 5.35175525655025E-02 
897	 5.35411244638605E-02 
898	 5.35696390872645E-02 
899	 5.35987437029369E-02 
900	 5.36241674549914E-02 
901	 5.36685526079913E-02 
902	 5.37454190863474E-02 
903	 0.053819770795486 
904	 5.38453343294713E-02 
905	 5.38460162141437E-02 
906	 5.39065266538871E-02 
907	 5.40179780035643E-02 
908	 0.054098794062466 
909	 5.40967425402697E-02 
910	 5.41070670998059E-02 
911	 5.41675283292841E-02 
912	 5.42376847562115E-02 
913	 5.42807729010996E-02 
914	 5.43322612406458E-02 
915	 5.43937498094297E-02 
916	 0.054409219327544 
917	 5.44352037729703E-02 
918	 5.45011108071973E-02 
919	 5.45923139209586E-02 
920	 5.46297598247378E-02 
921	 5.46324409764327E-02 
922	 0.054665423625951 
923	 5.47559674982867E-02 
924	 5.48067187367676E-02 
925	 5.48596543641777E-02 
926	 5.49184729758957E-02 
927	 5.49745489881917E-02 
928	 5.50183731541743E-02 
929	 5.50442864902676E-02 
930	 5.50773737457816E-02 
931	 5.51387823124431E-02 
932	 5.51768261730126E-02 
933	 5.52095850633357E-02 
934	 5.52668160784374E-02 
935	 0.055358830836454 
936	 5.53641257064067E-02 
937	 5.54368279838698E-02 
938	 5.55386701200718E-02 
939	 5.55297768227312E-02 
940	 5.56112833735011E-02 
941	 5.57027223253768E-02 
942	 5.57724067416515E-02 
943	 5.58457867598561E-02 
944	 5.58656215922329E-02 
945	 5.59139884673893E-02 
946	 5.59950074547983E-02 
947	 5.60245844458591E-02 
948	 5.60716848184937E-02 
949	 5.61230019091542E-02 
950	 5.61673800497218E-02 
951	 5.62113786174522E-02 
952	 5.62575949651499E-02 
953	 5.63008078550835E-02 
954	 5.63442998060797E-02 
955	 5.64038348895875E-02 
956	 5.64377726955297E-02 
957	 5.65036045239336E-02 
958	 5.66056792217575E-02 
959	 5.66292950563263E-02 
960	 5.66945480602012E-02 
961	 0.056721579469382 
962	 5.66989135927088E-02 
963	 0.056834025521088 
964	 5.68683644483375E-02 
965	 5.68866650682841E-02 
966	 5.69861970514052E-02 
967	 5.70852442780561E-02 
968	 5.70961863382178E-02 
969	 5.71130536752717E-02 
970	 5.72001168134774E-02 
971	 5.71991082731379E-02 
972	 5.73171257529512E-02 
973	 5.73909851853191E-02 
974	 5.73076278920494E-02 
975	 5.74120465310784E-02 
976	 0.057482042003832 
977	 5.75597399626355E-02 
978	 5.76855569644913E-02 
979	 5.76362608889406E-02 
980	 0.057615092908812 
981	 5.76684899606583E-02 
982	 5.77561376966136E-02 
983	 5.77516228450766E-02 
984	 5.78022631723596E-02 
985	 5.79011621412507E-02 
986	 5.79981360145805E-02 
987	 5.81056750428507E-02 
988	 5.81681601758144E-02 
989	 5.82397454557344E-02 
990	 5.83299325431464E-02 
991	 0.058149652956081 
992	 5.80951548163978E-02 
993	 5.82100179971418E-02 
994	 5.83726346448639E-02 
995	 5.84222739638617E-02 
996	 5.85135725075051E-02 
997	 5.85712527278388E-02 
998	 5.85367925377542E-02 
999	 5.86863576217953E-02 
1000	 5.88030982563065E-02 
1001	 5.98247278691528E-02 
1002	 5.99039997507251E-02 
1003	 5.99980511071505E-02 
1004	 6.00732159622826E-02 
1005	 6.01337202904255E-02 
1006	 6.01941885981843E-02 
1007	 6.02552643038836E-02 
1008	 6.03290861863578E-02 
1009	 6.03980912486815E-02 
1010	 6.04673640123483E-02 
1011	 6.05558018245163E-02 
1012	 6.06234252641084E-02 
1013	 6.06905002137237E-02 
1014	 6.07371309849162E-02 
1015	 6.07667873948416E-02 
1016	 6.07839406058405E-02 
1017	 6.08169321733887E-02 
1018	 6.08580475690666E-02 
1019	 6.09425011887767E-02 
1020	 6.10239615261588E-02 
1021	 6.10932066602637E-02 
1022	 6.11752889775623E-02 
1023	 6.12194600528219E-02 
1024	 6.12220089215601E-02 
1025	 6.12691210170347E-02 
1026	 6.13142744205184E-02 
1027	 6.13569912459732E-02 
1028	 6.14324897615551E-02 
1029	 6.14797538306602E-02 
1030	 6.14991113893241E-02 
1031	 6.15345133261308E-02 
1032	 6.15977191006146E-02 
1033	 6.16806235904687E-02 
1034	 6.17464753591362E-02 
1035	 6.17878495954238E-02 
1036	 6.18505559607405E-02 
1037	 6.19131102894125E-02 
1038	 6.19636400746379E-02 
1039	 6.20378056082356E-02 
1040	 6.20868287640457E-02 
1041	 6.20706106460189E-02 
1042	 6.21147977760685E-02 
1043	 6.21965557403506E-02 
1044	 6.22548534413701E-02 
1045	 6.23171938766711E-02 
1046	 6.24118154493775E-02 
1047	 6.24717251100468E-02 
1048	 6.25228579126939E-02 
1049	 6.25842808815205E-02 
1050	 6.26530081449256E-02 
1051	 6.27079708208854E-02 
1052	 0.062769849453241 
1053	 6.28521029836809E-02 
1054	 6.29614464823328E-02 
1055	 0.063042155255512 
1056	 6.31358060287903E-02 
1057	 6.32118808938556E-02 
1058	 6.32683281501559E-02 
1059	 0.063314102643019 
1060	 6.33809887092015E-02 
1061	 6.34328741701014E-02 
1062	 6.34880840643435E-02 
1063	 6.35778958683261E-02 
1064	 6.36443173086074E-02 
1065	 6.36948475499998E-02 
1066	 6.37702292077486E-02 
1067	 6.38185692898656E-02 
1068	 6.38823885551977E-02 
1069	 0.063982402691329 
1070	 6.40551556523731E-02 
1071	 6.41130133362221E-02 
1072	 6.41895505128218E-02 
1073	 6.42746757397452E-02 
1074	 6.43483210021403E-02 
1075	 6.44242018890479E-02 
1076	 6.44720463274307E-02 
1077	 6.45199201232758E-02 
1078	 6.45758891436984E-02 
1079	 6.46513551179843E-02 
1080	 6.47299452198924E-02 
1081	 6.47816726279152E-02 
1082	 6.48338588946075E-02 
1083	 6.48710141765236E-02 
1084	 6.49345773420208E-02 
1085	 6.50260389155539E-02 
1086	 6.50988397590717E-02 
1087	 6.51628831150826E-02 
1088	 6.52407922864817E-02 
1089	 6.52943299049629E-02 
1090	 6.53259290181825E-02 
1091	 6.53819480826937E-02 
1092	 6.54381353958003E-02 
1093	 6.54997061526753E-02 
1094	 0.065570402154555 
1095	 6.56417680370987E-02 
1096	 6.57003526817514E-02 
1097	 6.57339673772423E-02 
1098	 6.57634135213681E-02 
1099	 6.57939307364698E-02 
1100	 0.065829815298098 
1101	 6.58927690007044E-02 
1102	 6.59592055257779E-02 
1103	 6.60173541191554E-02 
1104	 6.60696021244554E-02 
1105	 0.06612883181735 
1106	 6.61888003679433E-02 
1107	 6.62564034510856E-02 
1108	 6.63343875563175E-02 
1109	 6.63898576176144E-02 
1110	 6.64427436545399E-02 
1111	 6.65080071168924E-02 
1112	 6.65611164399642E-02 
1113	 6.66140987597615E-02 
1114	 6.66650149961646E-02 
1115	 6.67094862958841E-02 
1116	 0.066772343377029 
1117	 6.68489216284692E-02 
1118	 6.69180112901121E-02 
1119	 6.69987972408833E-02 
1120	 6.70550251632418E-02 
1121	 6.70965018275676E-02 
1122	 6.71399447820094E-02 
1123	 6.71837341873636E-02 
1124	 6.72264022049625E-02 
1125	 6.72766031561819E-02 
1126	 6.73200834507003E-02 
1127	 6.73502381450024E-02 
1128	 6.73994677499138E-02 
1129	 6.74612437674626E-02 
1130	 6.75181297920279E-02 
1131	 6.75803094194652E-02 
1132	 6.76313451213193E-02 
1133	 6.76658692631175E-02 
1134	 6.76953754745618E-02 
1135	 6.77315008168164E-02 
1136	 6.77623822596432E-02 
1137	 6.78044388488271E-02 
1138	 6.78647910213616E-02 
1139	 6.79103909713102E-02 
1140	 6.79574704099396E-02 
1141	 0.067985499619993 
1142	 6.80259313989171E-02 
1143	 6.80551251795353E-02 
1144	 6.80772225460245E-02 
1145	 6.81257074498128E-02 
1146	 6.81621117511081E-02 
1147	 6.81940256507232E-02 
1148	 6.82318934798902E-02 
1149	 6.82695592829738E-02 
1150	 6.83013620708927E-02 
1151	 6.83235522471609E-02 
1152	 6.83554440329898E-02 
1153	 6.83949190109557E-02 
1154	 6.84233053269368E-02 
1155	 6.84573753251941E-02 
1156	 6.84821590859927E-02 
1157	 6.84903626161667E-02 
1158	 6.85078289611992E-02 
1159	 6.85289462534159E-02 
1160	 6.85421781598034E-02 
1161	 6.85461912019744E-02 
1162	 6.85756325257869E-02 
1163	 6.85938893390068E-02 
1164	 0.068593361682618 
1165	 6.86163695791948E-02 
1166	 6.86288849564481E-02 
1167	 6.86503948349915E-02 
1168	 6.86838647943786E-02 
1169	 6.87062532164493E-02 
1170	 6.87232992121776E-02 
1171	 0.068752298212815 
1172	 6.87773331826268E-02 
1173	 6.88127584558448E-02 
1174	 6.88671103316496E-02 
1175	 6.89059670840502E-02 
1176	 6.89410288717183E-02 
1177	 6.89767947652416E-02 
1178	 6.90030666455536E-02 
1179	 6.90379234364793E-02 
1180	 0.069094636694124 
1181	 6.91411443931211E-02 
1182	 0.069180579818438 
1183	 6.92320166810447E-02 
1184	 6.92643983236118E-02 
1185	 0.069294488060193 
1186	 6.93484209297845E-02 
1187	 6.94263574911289E-02 
1188	 0.069482690792819 
1189	 6.95462755891421E-02 
1190	 6.96010891850034E-02 
1191	 6.96346900328394E-02 
1192	 6.96849658451052E-02 
1193	 6.97495077164066E-02 
1194	 6.98020808783126E-02 
1195	 6.98527057010099E-02 
1196	 6.99038973685519E-02 
1197	 6.99502851649809E-02 
1198	 6.99951584292096E-02 
1199	 7.00461153270783E-02 
1200	 7.00913222892179E-02 
1201	 0.070140890626033 
1202	 7.01995741588763E-02 
1203	 7.02592286845284E-02 
1204	 7.03222015992918E-02 
1205	 7.03881520539339E-02 
1206	 7.04566785690233E-02 
1207	 7.05252946186417E-02 
1208	 7.05960387532523E-02 
1209	 0.070670177472212 
1210	 7.07436678600943E-02 
1211	 7.08218905983879E-02 
1212	 7.09072578437222E-02 
1213	 7.09937865598085E-02 
1214	 7.10800171231664E-02 
1215	 7.11700380065977E-02 
1216	 7.12650290426907E-02 
1217	 7.13610679060679E-02 
1218	 7.14593499878913E-02 
1219	 7.15636349331828E-02 
1220	 0.071665997370091 
1221	 0.071755290805318 
1222	 7.18324429095618E-02 
1223	 7.19139815232898E-02 
1224	 7.20001369690822E-02 
1225	 7.20856851537456E-02 
1226	 7.21725882858662E-02 
1227	 7.22668463835196E-02 
1228	 7.23554017877734E-02 
1229	 7.24424453320964E-02 
1230	 7.25251282314779E-02 
1231	 7.26059723547459E-02 
1232	 7.26851069135404E-02 
1233	 7.27540529331304E-02 
1234	 7.28322523844134E-02 
1235	 7.29130926320568E-02 
1236	 7.29987849904397E-02 
1237	 7.30914962079472E-02 
1238	 7.31820428856127E-02 
1239	 7.32766429770955E-02 
1240	 7.33700625271165E-02 
1241	 7.34542498107855E-02 
1242	 7.35383970742278E-02 
1243	 7.36194920274921E-02 
1244	 7.36968146577739E-02 
1245	 7.37692102916772E-02 
1246	 7.38366034690678E-02 
1247	 7.39083020390842E-02 
1248	 7.39750945036001E-02 
1249	 7.40478850877942E-02 
1250	 0.074134884678506 
1251	 7.42013775337775E-02 
1252	 7.42539091338707E-02 
1253	 7.43153016356179E-02 
1254	 0.074372882848098 
1255	 7.44284083106086E-02 
1256	 7.44884588063494E-02 
1257	 7.45479914707961E-02 
1258	 0.074596150003315 
1259	 7.46527667554433E-02 
1260	 7.47174413462728E-02 
1261	 0.074782270554627 
1262	 7.48469583969188E-02 
1263	 7.49193073740486E-02 
1264	 0.074985806577014 
1265	 7.50525403325911E-02 
1266	 7.51217761484931E-02 
1267	 7.51876744802389E-02 
1268	 7.52602091100844E-02 
1269	 0.075339568816783 
1270	 7.54164451994536E-02 
1271	 7.54975518878548E-02 
1272	 7.55712062757396E-02 
1273	 7.56409142324038E-02 
1274	 7.57126429436708E-02 
1275	 7.57667295178331E-02 
1276	 7.58493151989145E-02 
1277	 7.59589324504876E-02 
1278	 7.60488448094092E-02 
1279	 7.61489150550569E-02 
1280	 7.62392082522951E-02 
1281	 0.076305635919049 
1282	 7.63831330452501E-02 
1283	 0.076469393549537 
1284	 7.65512035419307E-02 
1285	 7.66318667249256E-02 
1286	 7.67107349564452E-02 
1287	 7.67925673945834E-02 
1288	 7.68801503003087E-02 
1289	 7.69479059925024E-02 
1290	 7.70045167652186E-02 
1291	 7.70736488968583E-02 
1292	 0.077130824804413 
1293	 7.72016986964682E-02 
1294	 7.72929468522646E-02 
1295	 7.73697627011173E-02 
1296	 7.74392545449385E-02 
1297	 7.75123865797436E-02 
1298	 7.75965523457133E-02 
1299	 0.077658448534171 
1300	 7.77024384709024E-02 
1301	 0.077757877996511 
1302	 7.78005276123493E-02 
1303	 7.78530338138207E-02 
1304	 7.79240283582664E-02 
1305	 0.077985060982353 
1306	 7.80439933596795E-02 
1307	 7.80978985831549E-02 
1308	 7.81457945008081E-02 
1309	 7.81923105453468E-02 
1310	 7.82445852191605E-02 
1311	 7.82924833427121E-02 
1312	 7.83519245946997E-02 
1313	 7.84260224596684E-02 
1314	 7.84816591917846E-02 
1315	 7.85355965843818E-02 
1316	 7.85843348353143E-02 
1317	 7.86243484113573E-02 
1318	 0.078662207297011 
1319	 7.86907049998985E-02 
1320	 7.87335779890345E-02 
1321	 7.87787106093166E-02 
1322	 7.88226365042838E-02 
1323	 7.88812210665448E-02 
1324	 7.89265339373193E-02 
1325	 7.89603783205575E-02 
1326	 7.89966877528259E-02 
1327	 0.079022834040861 
1328	 7.90637206773958E-02 
1329	 7.91201815793746E-02 
1330	 0.079161922838076 
1331	 7.92067070115225E-02 
1332	 7.92472620609094E-02 
1333	 7.92796279252509E-02 
1334	 7.93012455571108E-02 
1335	 7.93280094041403E-02 
1336	 7.93577897453784E-02 
1337	 7.93838303211594E-02 
1338	 7.94016773297036E-02 
1339	 7.94311530744852E-02 
1340	 7.94694049123648E-02 
1341	 7.94970085142865E-02 
1342	 7.95281938273837E-02 
1343	 7.95495018773453E-02 
1344	 7.95531096660008E-02 
1345	 0.079576471648156 
1346	 7.96129035987742E-02 
1347	 7.96312214286542E-02 
1348	 7.96536224534729E-02 
1349	 7.96657318036794E-02 
1350	 7.96489943679144E-02 
1351	 7.96583934091369E-02 
1352	 7.96814609821445E-02 
1353	 7.97000477205595E-02 
1354	 7.97315503082461E-02 
1355	 7.97523866864702E-02 
1356	 7.97610065461684E-02 
1357	 7.97779268987974E-02 
1358	 7.97922713439213E-02 
1359	 7.98131049635401E-02 
1360	 7.98448383500002E-02 
1361	 7.98741051691839E-02 
1362	 7.98915579314293E-02 
1363	 7.99169041741004E-02 
1364	 7.99333606776494E-02 
1365	 7.99422343813594E-02 
1366	 7.99490401580149E-02 
1367	 7.99512989119429E-02 
1368	 7.99616102436804E-02 
1369	 7.99683253828973E-02 
1370	 7.99809786693054E-02 
1371	 8.00077305012835E-02 
1372	 8.00190010403209E-02 
1373	 8.00219339042808E-02 
1374	 8.00291940892617E-02 
1375	 8.00330519499163E-02 
1376	 8.00369768476718E-02 
1377	 8.00478716132813E-02 
1378	 8.00469696162737E-02 
1379	 8.00341874351973E-02 
1380	 8.00300518319555E-02 
1381	 8.00225371011503E-02 
1382	 8.00174475907765E-02 
1383	 8.00204269096456E-02 
1384	 8.00194200998581E-02 
1385	 0.080016085679537 
1386	 8.00124487491796E-02 
1387	 8.00070124308303E-02 
1388	 8.00030949335405E-02 
1389	 0.079998250997507 
1390	 7.99943568508316E-02 
1391	 7.99945172126502E-02 
1392	 7.99917697709476E-02 
1393	 0.079986198485138 
1394	 7.99843235498961E-02 
1395	 7.99725908298315E-02 
1396	 7.99577574539718E-02 
1397	 7.99355399202169E-02 
1398	 7.99110089727655E-02 
1399	 0.079869963346593 
1400	 0.079819117742422 
1401	 7.97623157189111E-02 
1402	 7.96932876128868E-02 
1403	 7.96175095566782E-02 
1404	 7.95370918322448E-02 
1405	 7.94479070791761E-02 
1406	 7.93470453480031E-02 
1407	 7.92429872328432E-02 
1408	 7.91344762988587E-02 
1409	 7.90182308070377E-02 
1410	 7.88914811478774E-02 
1411	 7.87646093443101E-02 
1412	 7.86348593444677E-02 
1413	 7.85003234449084E-02 
1414	 7.83618797187604E-02 
1415	 7.82199014971349E-02 
1416	 7.80657681353758E-02 
1417	 7.79195995830719E-02 
1418	 7.77753164921457E-02 
1419	 7.76326269674265E-02 
1420	 7.74904388228528E-02 
1421	 7.73550485976966E-02 
1422	 7.72194541083216E-02 
1423	 7.70913793023921E-02 
1424	 7.69754920822401E-02 
1425	 7.68581837559206E-02 
1426	 7.67473246036642E-02 
1427	 0.076629295627494 
1428	 7.64916687427947E-02 
1429	 7.63519809679688E-02 
1430	 7.62008606347899E-02 
1431	 7.60402128183645E-02 
1432	 7.58601638651801E-02 
1433	 7.56701799587563E-02 
1434	 7.54653866414673E-02 
1435	 7.52411086754776E-02 
1436	 7.50051262769721E-02 
1437	 7.47543191261824E-02 
1438	 7.45065843111243E-02 
1439	 0.074227609207682 
1440	 7.39906521010081E-02 
1441	 7.37517154232333E-02 
1442	 7.35630163458777E-02 
1443	 7.33827078577885E-02 
1444	 7.32817903059962E-02 
1445	 7.32297880347052E-02 
1446	 7.32337144468063E-02 
1447	 7.33005434763843E-02 
1448	 7.34145999065221E-02 
1449	 7.35912075057393E-02 
1450	 7.37941925283159E-02 
1451	 0.074070170990859 
1452	 7.43325882484194E-02 
1453	 7.46307337855253E-02 
1454	 7.49063290851709E-02 
1455	 7.51842913698705E-02 
1456	 7.54504789613187E-02 
1457	 7.57148411034858E-02 
1458	 7.59580072440339E-02 
1459	 7.61842815619909E-02 
1460	 7.64051513450335E-02 
1461	 7.66162677504598E-02 
1462	 7.68049553353523E-02 
1463	 7.69728751933795E-02 
1464	 7.71422203967092E-02 
1465	 0.077293673628527 
1466	 7.74453218698088E-02 
1467	 7.75857953419853E-02 
1468	 7.77192931696694E-02 
1469	 7.78409946972194E-02 
1470	 7.79582151522159E-02 
1471	 7.80796504344821E-02 
1472	 7.82137806961702E-02 
1473	 7.83211996345513E-02 
1474	 7.84145716304458E-02 
1475	 7.85077221605539E-02 
1476	 7.85905329010208E-02 
1477	 7.86699026108992E-02 
1478	 7.87504776250927E-02 
1479	 7.88160456993059E-02 
1480	 7.88711856373592E-02 
1481	 7.89170427232744E-02 
1482	 7.89522170667454E-02 
1483	 7.89806220447464E-02 
1484	 7.89877475661556E-02 
1485	 7.90168255558824E-02 
1486	 7.90409315618723E-02 
1487	 7.90875109312054E-02 
1488	 7.91511779493011E-02 
1489	 7.92217348365658E-02 
1490	 0.079298455599705 
1491	 0.079396020371036 
1492	 7.94998394103715E-02 
1493	 7.96363958358606E-02 
1494	 7.98071380787925E-02 
1495	 7.99765564701979E-02 
1496	 8.01708356985376E-02 
1497	 8.03614617662468E-02 
1498	 8.05595129984589E-02 
1499	 8.07534455203762E-02 
1500	 8.09518261669219E-02 
1501	 8.11475338304542E-02 
1502	 8.13453892218736E-02 
1503	 0.081529025429671 
1504	 0.08170851088423 
1505	 8.18826123761301E-02 
1506	 8.20447641748354E-02 
1507	 8.22021760942987E-02 
1508	 0.082357306416362 
1509	 8.25054888167494E-02 
1510	 8.26509881571426E-02 
1511	 8.27795610061815E-02 
1512	 8.28899178817459E-02 
1513	 8.30053126740308E-02 
1514	 8.31132471786113E-02 
1515	 8.32140372333017E-02 
1516	 8.33229099346909E-02 
1517	 8.34163020515919E-02 
1518	 8.34872098241075E-02 
1519	 8.35599935870214E-02 
1520	 8.36239626150851E-02 
1521	 8.36901842033511E-02 
1522	 8.37611519634869E-02 
1523	 8.38281864946978E-02 
1524	 8.38886424253747E-02 
1525	 8.39471594526437E-02 
1526	 8.40037002432835E-02 
1527	 8.40509911080944E-02 
1528	 8.41072637043115E-02 
1529	 8.41664295919704E-02 
1530	 8.42277946617766E-02 
1531	 8.42892993154037E-02 
1532	 8.43581624171291E-02 
1533	 8.44339722236168E-02 
1534	 8.45069430301603E-02 
1535	 8.45789438635562E-02 
1536	 8.46626284742314E-02 
1537	 8.47497326705439E-02 
1538	 8.48416230874756E-02 
1539	 8.49441361245125E-02 
1540	 8.50473255112328E-02 
1541	 8.51469921931733E-02 
1542	 0.085262696375848 
1543	 8.53867580398851E-02 
1544	 8.55219502797449E-02 
1545	 8.56714614165534E-02 
1546	 8.58199764669814E-02 
1547	 8.59792959878473E-02 
1548	 8.61345124311151E-02 
1549	 8.62894764835941E-02 
1550	 8.64470434282813E-02 
1551	 8.66006244970608E-02 
1552	 8.67698697877605E-02 
1553	 8.69584998057736E-02 
1554	 8.71227725399763E-02 
1555	 0.087287819602442 
1556	 8.74456747324968E-02 
1557	 8.75860653666426E-02 
1558	 8.77266312723627E-02 
1559	 8.78619918998607E-02 
1560	 8.80086420585873E-02 
1561	 8.81536372876734E-02 
1562	 8.82975940644008E-02 
1563	 8.84593832421389E-02 
1564	 8.86018796292559E-02 
1565	 8.87214489702903E-02 
1566	 8.88573273963208E-02 
1567	 8.89985099377489E-02 
1568	 8.91350604013732E-02 
1569	 0.089278648037605 
1570	 8.94125557532539E-02 
1571	 8.95365993515894E-02 
1572	 0.089663203278365 
1573	 8.97860943400501E-02 
1574	 0.089911975115379 
1575	 9.00388969649002E-02 
1576	 9.01655179691562E-02 
1577	 9.02944014006691E-02 
1578	 9.04204637690396E-02 
1579	 9.05510093291991E-02 
1580	 9.06685276029642E-02 
1581	 9.07740527203869E-02 
1582	 9.08864724502605E-02 
1583	 9.09924169225593E-02 
1584	 9.11017648855847E-02 
1585	 9.12164281155077E-02 
1586	 9.13319107424147E-02 
1587	 9.14456930369495E-02 
1588	 9.15617304946631E-02 
1589	 0.091682262442322 
1590	 9.18026547423525E-02 
1591	 0.091926929796975 
1592	 9.20440460323879E-02 
1593	 9.21561129289231E-02 
1594	 9.22736067755417E-02 
1595	 9.23851127099223E-02 
1596	 9.25031194689364E-02 
1597	 0.09263469675999 
1598	 9.27558781150141E-02 
1599	 9.28702823036113E-02 
1600	 0.092990801087221 
1601	 9.31155254372633E-02 
1602	 9.32313306390482E-02 
1603	 9.33432360898192E-02 
1604	 9.34575404100222E-02 
1605	 9.35672252925639E-02 
1606	 9.36752794769929E-02 
1607	 9.37864196391963E-02 
1608	 9.38975175214264E-02 
1609	 9.39997372947658E-02 
1610	 9.41086174130173E-02 
1611	 9.42249309492298E-02 
1612	 0.094339208392825 
1613	 9.44586775743444E-02 
1614	 9.45710126292619E-02 
1615	 0.094683307910012 
1616	 9.47888036719909E-02 
1617	 9.48768476999339E-02 
1618	 9.49790138757795E-02 
1619	 0.09509344606402 
1620	 9.51917908231563E-02 
1621	 9.52875940332738E-02 
1622	 9.53854674484815E-02 
1623	 9.54711740422754E-02 
1624	 9.55614712911506E-02 
1625	 9.56604510451164E-02 
1626	 0.095755640424217 
1627	 9.58425967592127E-02 
1628	 9.59340085203049E-02 
1629	 9.60265586678228E-02 
1630	 9.61265002269655E-02 
1631	 9.62366262492765E-02 
1632	 9.63376553041598E-02 
1633	 9.64476264377978E-02 
1634	 9.65402771232342E-02 
1635	 9.66117004636646E-02 
1636	 9.66920270873151E-02 
1637	 0.096760464223904 
1638	 9.68443417986211E-02 
1639	 9.69432871392168E-02 
1640	 9.70376512858797E-02 
1641	 9.71400349972062E-02 
1642	 0.097236853581008 
1643	 9.73299813635811E-02 
1644	 9.74190799369463E-02 
1645	 0.097511058030327 
1646	 9.75922070507703E-02 
1647	 9.76599603097342E-02 
1648	 9.77322705355328E-02 
1649	 9.77993758419419E-02 
1650	 9.78680717859052E-02 
1651	 9.79425029921075E-02 
1652	 9.80105538782608E-02 
1653	 9.80716367919347E-02 
1654	 9.81355699655138E-02 
1655	 9.82004054438319E-02 
1656	 9.82628180801661E-02 
1657	 9.83242557296075E-02 
1658	 9.83853075665005E-02 
1659	 9.84453421183914E-02 
1660	 9.85023656270797E-02 
1661	 9.85638032872126E-02 
1662	 9.86123886186868E-02 
1663	 9.86569148320682E-02 
1664	 9.86889100004166E-02 
1665	 9.87045884468802E-02 
1666	 9.87234657931634E-02 
1667	 9.87364829166867E-02 
1668	 9.87457515636516E-02 
1669	 9.87550565737109E-02 
1670	 0.098756942636506 
1671	 9.87545107582065E-02 
1672	 9.87375928266716E-02 
1673	 0.098708906921599 
1674	 0.098680405351911 
1675	 9.86419362024159E-02 
1676	 0.098603728708591 
1677	 9.85734011608304E-02 
1678	 9.85228599025874E-02 
1679	 9.84513884930258E-02 
1680	 9.83880432566097E-02 
1681	 9.83173051914596E-02 
1682	 9.82465799193799E-02 
1683	 0.098181683919186 
1684	 9.81140646875828E-02 
1685	 9.80429665519075E-02 
1686	 9.79626282113578E-02 
1687	 9.78769877976989E-02 
1688	 9.77936576571825E-02 
1689	 9.77097316050707E-02 
1690	 9.76182296624434E-02 
1691	 9.75293378992182E-02 
1692	 9.74264734425693E-02 
1693	 9.73001277596922E-02 
1694	 9.71896488368062E-02 
1695	 9.70867568673772E-02 
1696	 9.69699617369075E-02 
1697	 9.68589391980187E-02 
1698	 9.67239088763968E-02 
1699	 9.65641683475465E-02 
1700	 9.64184057874822E-02 
1701	 9.62659043534772E-02 
1702	 9.61210957479926E-02 
1703	 9.59820429897534E-02 
1704	 9.58424385069764E-02 
1705	 9.56993957835627E-02 
1706	 9.55601454690103E-02 
1707	 9.54386964365933E-02 
1708	 9.52972025550998E-02 
1709	 9.51741752692782E-02 
1710	 9.50646808806995E-02 
1711	 9.49223523262612E-02 
1712	 9.47905837492387E-02 
1713	 9.46611654844479E-02 
1714	 9.45155024190451E-02 
1715	 0.094383270035367 
1716	 9.42471383241307E-02 
1717	 9.40944153368911E-02 
1718	 9.39488621959351E-02 
1719	 9.38075694756938E-02 
1720	 9.36772384188295E-02 
1721	 9.35576576328533E-02 
1722	 9.34244995246752E-02 
1723	 9.33025824406293E-02 
1724	 9.31912836843679E-02 
1725	 9.30867208219426E-02 
1726	 9.30155587932497E-02 
1727	 9.29608922465961E-02 
1728	 9.29155086244761E-02 
1729	 9.28945297577822E-02 
1730	 9.28998551656934E-02 
1731	 9.29166909317407E-02 
1732	 9.29398046518997E-02 
1733	 0.092952466166579 
1734	 0.092961689117999 
1735	 0.092971589553222 
1736	 9.29655635968122E-02 
1737	 9.29609330986055E-02 
1738	 0.092933253461428 
1739	 9.29066028482615E-02 
1740	 9.28675931977408E-02 
1741	 9.28453910026303E-02 
1742	 9.28359478531627E-02 
1743	 9.28205288366653E-02 
1744	 9.28201550309003E-02 
1745	 0.092804635705602 
1746	 9.27485230199241E-02 
1747	 9.27433365805266E-02 
1748	 9.27576046677159E-02 
1749	 9.27778394114287E-02 
1750	 9.28345261624365E-02 
1751	 9.29021145798491E-02 
1752	 9.29532981675672E-02 
1753	 9.30563329207008E-02 
1754	 9.32105414693211E-02 
1755	 9.33419466548349E-02 
1756	 9.34902577884919E-02 
1757	 9.36254354957959E-02 
1758	 9.37820373142117E-02 
1759	 9.39611126551793E-02 
1760	 0.094156978082488 
1761	 9.43736286527345E-02 
1762	 9.45732279462522E-02 
1763	 9.47604541151272E-02 
1764	 9.49418495658771E-02 
1765	 9.51334008481326E-02 
1766	 9.53313736184074E-02 
1767	 9.55292814646422E-02 
1768	 0.095751471190205 
1769	 9.59368259750169E-02 
1770	 9.60985280262015E-02 
1771	 9.62971003998561E-02 
1772	 9.64679082932484E-02 
1773	 9.66282666670343E-02 
1774	 9.68300483304931E-02 
1775	 9.69868232203881E-02 
1776	 0.097118992701957 
1777	 9.72720497900321E-02 
1778	 9.74081152250708E-02 
1779	 9.75552953688691E-02 
1780	 9.77094269637297E-02 
1781	 9.78703484275862E-02 
1782	 9.80479286514379E-02 
1783	 9.82248169527081E-02 
1784	 9.84160362517015E-02 
1785	 9.85775765507111E-02 
1786	 9.87445546074348E-02 
1787	 9.89023959222343E-02 
1788	 9.90624523927236E-02 
1789	 0.099244353529271 
1790	 9.94128559916834E-02 
1791	 9.95594701081259E-02 
1792	 9.97253479280193E-02 
1793	 9.98967333906283E-02 
1794	 0.100072189487714 
1795	 0.100242170768831 
1796	 0.100394231800597 
1797	 0.100552589993785 
1798	 0.100705178494452 
1799	 0.100882333264918 
1800	 0.101070033276856 
1801	 0.104273309028616 
1802	 0.104438246376773 
1803	 0.104586607097154 
1804	 0.104725857384253 
1805	 0.104873643587369 
1806	 0.105014811290762 
1807	 0.105151007388989 
1808	 0.105287373187681 
1809	 0.10543305474688 
1810	 0.105559371801998 
1811	 0.105675443335957 
1812	 0.105785011476892 
1813	 0.105869717875904 
1814	 0.10597494861665 
1815	 0.106089985249901 
1816	 0.106209206635531 
1817	 0.10632948051869 
1818	 0.10646594624798 
1819	 0.106584910319966 
1820	 0.106688383766631 
1821	 0.106808357076748 
1822	 0.10693289161199 
1823	 0.107064664750127 
1824	 0.107180943095827 
1825	 0.10729107312034 
1826	 0.107390158641952 
1827	 0.107461345379778 
1828	 0.107545659777907 
1829	 0.107627417746733 
1830	 0.107716883929058 
1831	 0.107795531602465 
1832	 0.107913488519309 
1833	 0.108021693804287 
1834	 0.108105871363905 
1835	 0.108190971849392 
1836	 0.108247519319704 
1837	 0.108313917468922 
1838	 0.10837556483305 
1839	 0.108444965401689 
1840	 0.108514336483621 
1841	 0.108584236551029 
1842	 0.1086627677689 
1843	 0.108731393436278 
1844	 0.108785168333144 
1845	 0.108836308978195 
1846	 0.108869887185695 
1847	 0.108893891888352 
1848	 0.108914363454139 
1849	 0.108931844357238 
1850	 0.108940608266011 
1851	 0.108944392457277 
1852	 0.108934740802668 
1853	 0.108920038387311 
1854	 0.108893091945861 
1855	 0.108860923582822 
1856	 0.108824684512313 
1857	 0.108771464456378 
1858	 0.108697964948231 
1859	 0.108613566396263 
1860	 0.108516780909894 
1861	 0.108397308785086 
1862	 0.108256661875687 
1863	 0.108117314931604 
1864	 0.107953471626577 
1865	 0.107772389672382 
1866	 0.107589106522591 
1867	 0.107374780469584 
1868	 0.10715231292803 
1869	 0.106914245381507 
1870	 0.106651443985652 
1871	 0.106373417599276 
1872	 0.106079552336635 
1873	 0.105764008854947 
1874	 0.105434433050501 
1875	 0.105097300399912 
1876	 0.104711489114248 
1877	 0.104312813662262 
1878	 0.10387914864726 
1879	 0.103408915900651 
1880	 0.102951787860656 
1881	 0.102466746209532 
1882	 0.10195603861272 
1883	 0.101439250913383 
1884	 0.100904194619421 
1885	 0.100316065900708 
1886	 9.97373350620288E-02 
1887	 9.91064999617509E-02 
1888	 9.84351216330936E-02 
1889	 9.78058090982676E-02 
1890	 9.71323270015041E-02 
1891	 9.64565289136104E-02 
1892	 9.57924307350749E-02 
1893	 9.50910134748833E-02 
1894	 9.43491936028618E-02 
1895	 9.36177850401271E-02 
1896	 9.28603027401291E-02 
1897	 9.20919174319389E-02 
1898	 9.13707232100633E-02 
1899	 9.06297878945241E-02 
1900	 8.99104170369187E-02 
1901	 8.91862990155729E-02 
1902	 8.83880493804221E-02 
1903	 8.76201260396791E-02 
1904	 8.68446660133003E-02 
1905	 8.60454240270954E-02 
1906	 8.52501895351352E-02 
1907	 0.084532393977381 
1908	 8.37821862552862E-02 
1909	 8.30405549260566E-02 
1910	 8.23138131445002E-02 
1911	 8.15258096552095E-02 
1912	 8.07531092714436E-02 
1913	 7.99619465848986E-02 
1914	 7.91325252077697E-02 
1915	 7.83416709614303E-02 
1916	 7.75808613476236E-02 
1917	 7.67895065971422E-02 
1918	 7.59926820663323E-02 
1919	 7.52001019144099E-02 
1920	 7.43205243523978E-02 
1921	 7.34355393857889E-02 
1922	 7.25136607323129E-02 
1923	 7.15593073055762E-02 
1924	 0.070674011125074 
1925	 6.97510107476533E-02 
1926	 0.068835679984374 
1927	 6.79435391266134E-02 
1928	 0.067035236554711 
1929	 6.60878132645365E-02 
1930	 0.065189639399107 
1931	 6.43252206062786E-02 
1932	 6.34823609925328E-02 
1933	 6.27515991852364E-02 
1934	 6.20645738715536E-02 
1935	 6.14209654059039E-02 
1936	 6.08924662358266E-02 
1937	 6.04206601240634E-02 
1938	 5.99988588439727E-02 
1939	 5.96799649875698E-02 
1940	 5.94498232346477E-02 
1941	 5.92878395319121E-02 
1942	 5.92048925599918E-02 
1943	 5.91990283347617E-02 
1944	 5.92705106741722E-02 
1945	 5.94157979021331E-02 
1946	 5.96572412649906E-02 
1947	 5.99712110012697E-02 
1948	 6.03810821469705E-02 
1949	 6.09002932358907E-02 
1950	 6.14763107707124E-02 
1951	 6.21477672071789E-02 
1952	 6.28823703024216E-02 
1953	 6.36831866081618E-02 
1954	 6.45493853519238E-02 
1955	 0.065520703049459 
1956	 6.64864077937767E-02 
1957	 6.74693866168334E-02 
1958	 6.84324328231447E-02 
1959	 6.92852636542583E-02 
1960	 7.00930040961154E-02 
1961	 7.08195669573633E-02 
1962	 7.14653886965954E-02 
1963	 7.20407511309331E-02 
1964	 7.25448950202548E-02 
1965	 7.29748469343026E-02 
1966	 7.33231931068924E-02 
1967	 7.36143462001094E-02 
1968	 7.38473330882199E-02 
1969	 7.40810540769894E-02 
1970	 7.43032731314144E-02 
1971	 7.45296396986192E-02 
1972	 7.47724323181366E-02 
1973	 7.50118555047923E-02 
1974	 7.52845102912747E-02 
1975	 7.55827618712837E-02 
1976	 7.58951528082779E-02 
1977	 7.62255075084721E-02 
1978	 0.076580685731539 
1979	 7.69548492626038E-02 
1980	 7.73344196031745E-02 
1981	 7.77724996082172E-02 
1982	 7.82104394380544E-02 
1983	 7.86786770360285E-02 
1984	 7.91907799722372E-02 
1985	 0.079692366821717 
1986	 8.02553883885828E-02 
1987	 8.08618478423367E-02 
1988	 8.14906288323276E-02 
1989	 8.21921404300875E-02 
1990	 0.082953110265137 
1991	 8.37592640572097E-02 
1992	 8.46244124781868E-02 
1993	 8.55605150040481E-02 
1994	 8.64720455797356E-02 
1995	 0.087456386658799 
1996	 8.84435293344701E-02 
1997	 0.089421286131176 
1998	 9.04247731635121E-02 
1999	 9.14817187311675E-02 
2000	 9.24617445298144E-02 
2001	 9.34588824097882E-02 
2002	 9.43739468206818E-02 
2003	 9.52340319488394E-02 
2004	 9.60599890597988E-02 
2005	 9.68151082950341E-02 
2006	 9.75632407321748E-02 
2007	 9.82983571340568E-02 
2008	 0.098971621634309 
2009	 9.96232015639456E-02 
2010	 0.100256148771906 
2011	 0.100794545937124 
2012	 0.101317803995558 
2013	 0.101805141860095 
2014	 0.102229923723824 
2015	 0.102664817603296 
2016	 0.10309153991286 
2017	 0.10348159224642 
2018	 0.103861230555327 
2019	 0.104207568248711 
2020	 0.104512601042652 
2021	 0.104801724522136 
2022	 0.10507123750096 
2023	 0.105303815679127 
2024	 0.10553631802668 
2025	 0.105744877946988 
2026	 0.105928091182546 
2027	 0.106086457727997 
2028	 0.106240568159047 
2029	 0.106356152809567 
2030	 0.106492048533621 
2031	 0.106639529177341 
2032	 0.106769399506165 
2033	 0.106889067508941 
2034	 0.107008928898578 
2035	 0.107122733396793 
2036	 0.107223321613633 
2037	 0.107326810299591 
2038	 0.107457438862317 
2039	 0.107575231322758 
2040	 0.107687578964751 
2041	 0.107809593352541 
2042	 0.107933493094355 
2043	 0.108061565475625 
2044	 0.108194037619962 
2045	 0.108333543269956 
2046	 0.108486784952318 
2047	 0.108629726058812 
2048	 0.108773577246201 
2049	 0.108915441797898 
2050	 0.109060686564043 
2051	 0.109185781915222 
2052	 0.109309829880024 
2053	 0.109444237176049 
2054	 0.109565733472183 
2055	 0.1096765438391 
2056	 0.109794425478399 
2057	 0.109908650703801 
2058	 0.110021911166815 
2059	 0.110131596158552 
2060	 0.110248277477588 
2061	 0.110372831367846 
2062	 0.110492356386749 
2063	 0.110624838060647 
2064	 0.110736327066846 
2065	 0.110832671219429 
2066	 0.110922795091688 
2067	 0.110997668225642 
2068	 0.11108881503811 
2069	 0.111196104550474 
2070	 0.111316798743143 
2071	 0.111433660583096 
2072	 0.111573919604833 
2073	 0.111686723240253 
2074	 0.111783795872457 
2075	 0.111888771042931 
2076	 0.111989581580649 
2077	 0.11208705477022 
2078	 0.112196471011402 
2079	 0.112284131119484 
2080	 0.112358593240042 
2081	 0.11242400821581 
2082	 0.112477145502443 
2083	 0.11251421324362 
2084	 0.112554097068898 
2085	 0.112590195311646 
2086	 0.112628741728318 
2087	 0.112669147199855 
2088	 0.112707594832275 
2089	 0.112752056292011 
2090	 0.112779775648553 
2091	 0.112802908266421 
2092	 0.112813367715197 
2093	 0.112800040163677 
2094	 0.112799349681058 
2095	 0.112803215694077 
2096	 0.112798851417619 
2097	 0.112802163128614 
2098	 0.112788327006654 
2099	 0.112755558293536 
2100	 0.112712000359613 
2101	 0.112678170899357 
2102	 0.112636549717919 
2103	 0.11260345264307 
2104	 0.112586467869876 
2105	 0.112546624947898 
2106	 0.112497601475315 
2107	 0.112444059598386 
2108	 0.112375026153077 
2109	 0.112312494262191 
2110	 0.112248651359252 
2111	 0.112186599538453 
2112	 0.112124152315017 
2113	 0.112063651911196 
2114	 0.112004669386129 
2115	 0.111945264323461 
2116	 0.111885753860186 
2117	 0.11183167314711 
2118	 0.111768495028846 
2119	 0.111698505516605 
2120	 0.111638626011392 
2121	 0.111578885449286 
2122	 0.11151925565886 
2123	 0.111469553255558 
2124	 0.111409005885133 
2125	 0.111345041394183 
2126	 0.111272918992291 
2127	 0.111190666999356 
2128	 0.111115577389596 
2129	 0.111029077059709 
2130	 0.110955395123436 
2131	 0.110894787846787 
2132	 0.110832116759882 
2133	 0.11078138128141 
2134	 0.110721169900987 
2135	 0.110644888523386 
2136	 0.110556221586975 
2137	 0.110468433922233 
2138	 0.110363810553936 
2139	 0.110269202219852 
2140	 0.110178373591104 
2141	 0.110087363520528 
2142	 0.110003641687346 
2143	 0.109897552892157 
2144	 0.10977778162007 
2145	 0.109671187902526 
2146	 0.109548827265197 
2147	 0.109439040248358 
2148	 0.109357616523956 
2149	 0.109253558100617 
2150	 0.109138678668866 
2151	 0.109021463981677 
2152	 0.108891446793177 
2153	 0.108770069327521 
2154	 0.108640948493356 
2155	 0.108506584175895 
2156	 0.108377051942678 
2157	 0.108246586516141 
2158	 0.108113411187759 
2159	 0.107993407202174 
2160	 0.107843775270238 
2161	 0.107668406542384 
2162	 0.107515748047684 
2163	 0.107349550068836 
2164	 0.107198944992222 
2165	 0.107070342752233 
2166	 0.106937228713791 
2167	 0.106800429057323 
2168	 0.106672831534983 
2169	 0.106547181829321 
2170	 0.106436252204812 
2171	 0.106334075991409 
2172	 0.106239234972191 
2173	 0.106158824314525 
2174	 0.106082918700505 
2175	 0.106008310871173 
2176	 0.105950902632226 
2177	 0.105909526513365 
2178	 0.105880962452087 
2179	 0.105872276720292 
2180	 0.105898793240434 
2181	 0.105892333328604 
2182	 0.105887851966616 
2183	 0.105880416158196 
2184	 0.105843745354956 
2185	 0.105842676594259 
2186	 0.10587642604423 
2187	 0.105879581190494 
2188	 0.105883340219379 
2189	 0.105881638464403 
2190	 0.10587169397059 
2191	 0.105849328034243 
2192	 0.105812836127599 
2193	 0.105784266673067 
2194	 0.10574462871779 
2195	 0.105706067877612 
2196	 0.105681478020396 
2197	 0.1056522685354 
2198	 0.105597912696489 
2199	 0.105531901243972 
2200	 0.105461561900016 
2201	 0.105379853743532 
2202	 0.105293010957436 
2203	 0.105195441404186 
2204	 0.105104616479504 
2205	 0.105003875188368 
2206	 0.104914739882659 
2207	 0.104829824523782 
2208	 0.104753541104721 
2209	 0.104682052718214 
2210	 0.104618515797884 
2211	 0.104569354340764 
2212	 0.104516553448222 
2213	 0.104438676892066 
2214	 0.104416252397382 
2215	 0.104418675777209 
2216	 0.104440324960158 
2217	 0.104495626857844 
2218	 0.104577130457742 
2219	 0.104669808687137 
2220	 0.104795060467632 
2221	 0.104962060417671 
2222	 0.10515524229658 
2223	 0.105360971101912 
2224	 0.105573750716969 
2225	 0.105781272763924 
2226	 0.105990006092557 
2227	 0.106181477518943 
2228	 0.106366718573159 
2229	 0.106532912224438 
2230	 0.106691604158366 
2231	 0.10681886118138 
2232	 0.106924134127274 
2233	 0.107008249518769 
2234	 0.107083590974221 
2235	 0.107102538599238 
2236	 0.107076896930141 
2237	 0.107043366878573 
2238	 0.106954812654362 
2239	 0.106877617388847 
2240	 0.106823997702419 
2241	 0.10671018061882 
2242	 0.106570495403463 
2243	 0.106390593231145 
2244	 0.106157879321565 
2245	 0.105909286549685 
2246	 0.105612550945767 
2247	 0.105324858879512 
2248	 0.105028623054281 
2249	 0.104707905911173 
2250	 0.104372013387713 
2251	 0.104040810702685 
2252	 0.103650319749706 
2253	 0.103254978186608 
2254	 0.102842922313949 
2255	 0.102391625789399 
2256	 0.101947576194536 
2257	 0.101502535427029 
2258	 0.101080715301971 
2259	 0.100676295840113 
2260	 0.100263116925606 
2261	 9.98651014570859E-02 
2262	 9.94578471146438E-02 
2263	 9.90192449122135E-02 
2264	 9.86387820957422E-02 
2265	 9.82767077175051E-02 
2266	 9.79335239086941E-02 
2267	 9.76176912073233E-02 
2268	 0.097333008673474 
2269	 9.70631485097634E-02 
2270	 0.096840178651014 
2271	 9.66951959888801E-02 
2272	 9.65097810955123E-02 
2273	 9.63231498721888E-02 
2274	 9.61564858222273E-02 
2275	 9.59981816866396E-02 
2276	 9.58282004862782E-02 
2277	 9.56898098976748E-02 
2278	 9.55167864132932E-02 
2279	 9.53118136166015E-02 
2280	 9.51010246273009E-02 
2281	 9.48785248915952E-02 
2282	 9.46478783843738E-02 
2283	 9.43956921210282E-02 
2284	 9.41534528869454E-02 
2285	 9.39000027328061E-02 
2286	 9.36401828833599E-02 
2287	 9.33459888015894E-02 
2288	 9.30009777904095E-02 
2289	 9.26453736726195E-02 
2290	 9.22570946810397E-02 
2291	 9.18767413557071E-02 
2292	 9.14844942124525E-02 
2293	 0.091064835007288 
2294	 9.06866523205861E-02 
2295	 0.090328522382142 
2296	 8.99841543352505E-02 
2297	 8.97116881698021E-02 
2298	 8.95018057086083E-02 
2299	 8.92977835101506E-02 
2300	 0.089114520049029 
2301	 8.90366739642291E-02 
2302	 0.088993710170983 
2303	 8.90471476659632E-02 
2304	 8.92226432026239E-02 
2305	 8.94164450995742E-02 
2306	 8.96505875353386E-02 
2307	 8.99750481906455E-02 
2308	 9.03882942227393E-02 
2309	 0.090838782745216 
2310	 9.13817114255639E-02 
2311	 9.19070774336438E-02 
2312	 9.24947027751366E-02 
2313	 9.30434212455278E-02 
2314	 9.36033971370398E-02 
2315	 0.094143548148003 
2316	 0.094681237765126 
2317	 0.095158777118015 
2318	 9.56178161643051E-02 
2319	 9.60092705589144E-02 
2320	 9.63459796666099E-02 
2321	 9.66306095477036E-02 
2322	 9.68499837325817E-02 
2323	 9.70444477025301E-02 
2324	 9.72204313450748E-02 
2325	 9.72970925441965E-02 
2326	 9.72953845669186E-02 
2327	 9.72567455082683E-02 
2328	 9.70825915288303E-02 
2329	 9.69482260634253E-02 
2330	 9.68150668753491E-02 
2331	 9.66678333566687E-02 
2332	 9.64923995618889E-02 
2333	 9.62855691475576E-02 
2334	 9.60034007885465E-02 
2335	 9.56955239466317E-02 
2336	 9.53515334025469E-02 
2337	 9.49230090058228E-02 
2338	 9.45021807188682E-02 
2339	 9.40970515550787E-02 
2340	 0.093663502701003 
2341	 9.32961957776599E-02 
2342	 9.29859599876059E-02 
2343	 9.26490337245412E-02 
2344	 9.23870582752069E-02 
2345	 9.22397330590648E-02 
2346	 9.21167176158491E-02 
2347	 9.20869371667159E-02 
2348	 9.21449927804066E-02 
2349	 9.22757977678681E-02 
2350	 9.24743432781111E-02 
2351	 9.26883156181258E-02 
2352	 9.29218725911933E-02 
2353	 9.31961565210777E-02 
2354	 0.093476491458434 
2355	 0.093719524076206 
2356	 9.38990075495968E-02 
2357	 9.40128289696219E-02 
2358	 9.40821104052994E-02 
2359	 9.40952319141726E-02 
2360	 0.094103001551414 
2361	 9.40634518625486E-02 
2362	 0.093971290227237 
2363	 9.39081936800601E-02 
2364	 0.093810450485269 
2365	 9.36542294998765E-02 
2366	 9.34489759706252E-02 
2367	 9.32110250289178E-02 
2368	 0.093027687921197 
2369	 9.28158190846245E-02 
2370	 9.25747652342566E-02 
2371	 9.23781816412047E-02 
2372	 9.21521636941174E-02 
2373	 9.19557744663893E-02 
2374	 9.17971722879594E-02 
2375	 9.15973762568752E-02 
2376	 9.13038196775204E-02 
2377	 9.09864672319567E-02 
2378	 9.07271438288668E-02 
2379	 9.04007056183378E-02 
2380	 9.00839924234518E-02 
2381	 8.98032228214103E-02 
2382	 8.95274165864507E-02 
2383	 8.92700475881267E-02 
2384	 8.89801072945708E-02 
2385	 8.86798116135514E-02 
2386	 8.83893923065834E-02 
2387	 8.80796430413859E-02 
2388	 8.77221914788061E-02 
2389	 8.73887570878033E-02 
2390	 8.70115816445948E-02 
2391	 8.65422866891149E-02 
2392	 8.61213235562478E-02 
2393	 8.57131358531061E-02 
2394	 8.53111565102374E-02 
2395	 8.49035634290964E-02 
2396	 8.44764881800481E-02 
2397	 8.40755402677188E-02 
2398	 8.36217332008678E-02 
2399	 8.31169618787242E-02 
2400	 8.26703803103486E-02 
2401	 8.22286234875085E-02 
2402	 8.18021226598538E-02 
2403	 8.13801390257618E-02 
2404	 8.10603364916321E-02 
2405	 0.080654666976744 
2406	 8.02584439034118E-02 
2407	 7.98851323694321E-02 
2408	 7.94034701939585E-02 
2409	 7.89662223850719E-02 
2410	 7.85866070566739E-02 
2411	 0.078188974877205 
2412	 7.78217873847113E-02 
2413	 7.74988921376984E-02 
2414	 7.72211814404463E-02 
2415	 7.69578610114319E-02 
2416	 7.66902263115932E-02 
2417	 7.64823577639856E-02 
2418	 7.62474274708924E-02 
2419	 7.60329741246312E-02 
2420	 7.58749122358331E-02 
2421	 7.55788032077622E-02 
2422	 7.52804994291136E-02 
2423	 7.50941239968908E-02 
2424	 7.49015251961572E-02 
2425	 7.47353621908527E-02 
2426	 7.46323293141541E-02 
2427	 7.44878744800702E-02 
2428	 7.42556423809098E-02 
2429	 0.074089984938618 
2430	 7.40078518860184E-02 
2431	 7.39167890924088E-02 
2432	 0.073858359085098 
2433	 7.38031508850309E-02 
2434	 7.36611949922945E-02 
2435	 0.073441777094514 
2436	 7.32032135979523E-02 
2437	 7.30627613354194E-02 
2438	 0.072951283856758 
2439	 7.28152500184113E-02 
2440	 7.28312953630818E-02 
2441	 7.27953960137592E-02 
2442	 7.27217149264547E-02 
2443	 7.27790140015861E-02 
2444	 7.27291658488349E-02 
2445	 7.26740033428992E-02 
2446	 7.26325738335046E-02 
2447	 7.25111711566889E-02 
2448	 7.23801249608614E-02 
2449	 7.22750610984607E-02 
2450	 7.22081775140974E-02 
2451	 7.20493214768226E-02 
2452	 7.19659194445658E-02 
2453	 7.18572052677209E-02 
2454	 7.16974067511879E-02 
2455	 7.16895972961513E-02 
2456	 7.14874970463045E-02 
2457	 7.12350262244202E-02 
2458	 7.10465007209119E-02 
2459	 7.07203650981981E-02 
2460	 7.06187640589644E-02 
2461	 7.07642232190097E-02 
2462	 7.07457956846959E-02 
2463	 7.06239254122183E-02 
2464	 7.04119974945862E-02 
2465	 6.99787936619998E-02 
2466	 6.96060333015795E-02 
2467	 6.93560350812038E-02 
2468	 0.069158319353939 
2469	 0.068964741786974 
2470	 6.87395158878669E-02 
2471	 6.85945435896175E-02 
2472	 6.84498059440964E-02 
2473	 6.83373265575511E-02 
2474	 6.82495378704442E-02 
2475	 6.81501151021533E-02 
2476	 6.80858673951686E-02 
2477	 6.79375591593977E-02 
2478	 6.78327364078343E-02 
2479	 6.77896559832555E-02 
2480	 6.77843256597251E-02 
2481	 6.77019865026744E-02 
2482	 6.75015735793517E-02 
2483	 6.75859230296478E-02 
2484	 6.74361156167204E-02 
2485	 0.067377403654691 
2486	 6.74950099805981E-02 
2487	 6.73884869498422E-02 
2488	 6.76629602214475E-02 
2489	 6.80563873466361E-02 
2490	 6.80363378517487E-02 
2491	 6.80705345558247E-02 
2492	 6.79700899026515E-02 
2493	 6.78619560990676E-02 
2494	 6.80087074388199E-02 
2495	 6.82258072175407E-02 
2496	 6.85427392811438E-02 
2497	 6.88290780621877E-02 
2498	 0.069106366232229 
2499	 6.91946791488982E-02 
2500	 6.92185545876428E-02 
