Wavelength	spectrum00007.asd
350	 2.59837050090591E-02 
351	 2.47675742668793E-02 
352	 2.32079974513559E-02 
353	 2.27901090297721E-02 
354	 2.37103868448777E-02 
355	 2.40486585674874E-02 
356	 2.33728149849251E-02 
357	 2.19320386336226E-02 
358	 2.04136522684697E-02 
359	 2.05870949403353E-02 
360	 2.17219691463372E-02 
361	 2.19600124500115E-02 
362	 2.20867661855338E-02 
363	 2.12219989075396E-02 
364	 1.99183839483481E-02 
365	 2.07128816119262E-02 
366	 2.13955237015803E-02 
367	 2.15491403451955E-02 
368	 2.14482763042272E-02 
369	 2.21671762912977E-02 
370	 2.19133963910681E-02 
371	 2.12312577860256E-02 
372	 2.16776279711483E-02 
373	 2.06239185504977E-02 
374	 0.021231969716648 
375	 2.34528568490262E-02 
376	 2.18930533951453E-02 
377	 2.22871908806279E-02 
378	 2.28933529612668E-02 
379	 2.14903064179279E-02 
380	 2.10026650412251E-02 
381	 2.17696517877128E-02 
382	 2.25004109794214E-02 
383	 2.14430389701075E-02 
384	 2.24586378513922E-02 
385	 2.30297166734033E-02 
386	 2.22276172981622E-02 
387	 2.26191806219258E-02 
388	 2.23394045348752E-02 
389	 2.21905769141813E-02 
390	 2.29450107812272E-02 
391	 0.022648033705923 
392	 2.22417136633502E-02 
393	 2.23946852101305E-02 
394	 2.33495264294622E-02 
395	 2.35481586644418E-02 
396	 2.33799047825813E-02 
397	 0.023387269761577 
398	 2.39652655838145E-02 
399	 2.38610208292469E-02 
400	 2.34798142202508E-02 
401	 2.35278578881851E-02 
402	 0.023678201953677 
403	 2.43480281084587E-02 
404	 2.49432145414039E-02 
405	 2.43303390918087E-02 
406	 2.47800147113159E-02 
407	 2.51767947141599E-02 
408	 0.024926784726399 
409	 2.54540659370627E-02 
410	 2.56582635397953E-02 
411	 2.55209542296608E-02 
412	 2.54751229333074E-02 
413	 2.64426089709066E-02 
414	 2.64366331134199E-02 
415	 2.57561556484205E-02 
416	 2.67063987973283E-02 
417	 2.71143925172189E-02 
418	 2.72823702876874E-02 
419	 2.76087419192571E-02 
420	 2.76328651617979E-02 
421	 2.77643959268879E-02 
422	 2.81077808883375E-02 
423	 0.028582597267446 
424	 2.88690416659991E-02 
425	 2.90326683517695E-02 
426	 2.92151448968852E-02 
427	 2.95969402031053E-02 
428	 2.98970719438155E-02 
429	 3.01556693109075E-02 
430	 3.04309303527524E-02 
431	 3.05792939159586E-02 
432	 3.08737919014418E-02 
433	 3.12415051066593E-02 
434	 3.14611424720915E-02 
435	 3.19152655537998E-02 
436	 3.23427440205039E-02 
437	 3.26196881386995E-02 
438	 3.29439655117606E-02 
439	 3.32228337041802E-02 
440	 3.35060586159872E-02 
441	 3.38650975093492E-02 
442	 3.42955127711646E-02 
443	 3.47633828519656E-02 
444	 3.52253262118567E-02 
445	 3.56337716144501E-02 
446	 3.59411501402095E-02 
447	 3.62423099130384E-02 
448	 3.66028266671065E-02 
449	 3.69469983286139E-02 
450	 3.75721236023715E-02 
451	 3.82029268105677E-02 
452	 3.84698005462015E-02 
453	 0.038904085995369 
454	 0.039422797474774 
455	 3.99117695576864E-02 
456	 4.02818036161001E-02 
457	 4.08963979519251E-02 
458	 4.14420865705169E-02 
459	 4.17336950834899E-02 
460	 4.24456499320825E-02 
461	 4.30701785812529E-02 
462	 0.043496325533086 
463	 4.38746666805966E-02 
464	 4.44890977268105E-02 
465	 4.52027755334607E-02 
466	 4.58399984731261E-02 
467	 4.62399333070471E-02 
468	 4.67913340731377E-02 
469	 4.73775860101517E-02 
470	 4.78534820163374E-02 
471	 4.86422358902924E-02 
472	 4.93137079754183E-02 
473	 4.98071829499694E-02 
474	 5.03719673636641E-02 
475	 5.09287192396798E-02 
476	 5.15550621193917E-02 
477	 5.22413452390042E-02 
478	 5.27123762443051E-02 
479	 5.33760100208019E-02 
480	 0.054157781187095 
481	 5.48214773078446E-02 
482	 5.54302706499254E-02 
483	 0.05609455786763 
484	 5.68050851547537E-02 
485	 5.74140180614762E-02 
486	 0.05817285824844 
487	 5.89432114404532E-02 
488	 0.059585908261419 
489	 6.02372382813416E-02 
490	 6.09504259791572E-02 
491	 6.17222395637721E-02 
492	 6.25054304840639E-02 
493	 6.32169619427672E-02 
494	 6.39124666509172E-02 
495	 6.46453668598957E-02 
496	 6.54429624283873E-02 
497	 6.61129781493135E-02 
498	 6.67675784985888E-02 
499	 6.75550432720562E-02 
500	 6.83263527664891E-02 
501	 6.90357306688842E-02 
502	 6.97153673253417E-02 
503	 0.070459926190504 
504	 7.12530539526512E-02 
505	 7.20850392016047E-02 
506	 7.29307935017193E-02 
507	 7.37370368651432E-02 
508	 7.44536420418412E-02 
509	 7.51779446250543E-02 
510	 7.60291207746369E-02 
511	 0.076760951280413 
512	 7.75570273423534E-02 
513	 7.84472931772958E-02 
514	 0.07922176150266 
515	 7.99428246723876E-02 
516	 8.07021201719415E-02 
517	 8.15523003656679E-02 
518	 8.23851680573793E-02 
519	 8.31462005830953E-02 
520	 8.38906256601626E-02 
521	 8.47318665147031E-02 
522	 8.55165193670474E-02 
523	 8.63085804894182E-02 
524	 8.71426767035467E-02 
525	 8.79413798300718E-02 
526	 8.86883133338027E-02 
527	 8.94277193354343E-02 
528	 9.02108991933505E-02 
529	 9.09807999780558E-02 
530	 0.091729272252437 
531	 9.24850465995646E-02 
532	 9.33075029529143E-02 
533	 9.40263526789866E-02 
534	 9.47380609616443E-02 
535	 9.55236527175964E-02 
536	 9.62498951880901E-02 
537	 9.69444876404331E-02 
538	 9.76113857946533E-02 
539	 9.82497007585985E-02 
540	 9.89215742437338E-02 
541	 0.099565479671961 
542	 0.100151437488759 
543	 0.100721283573479 
544	 0.101268669426378 
545	 0.10175773542444 
546	 0.102168087613936 
547	 0.102589276931135 
548	 0.102994892248574 
549	 0.10336001010387 
550	 0.103668619846628 
551	 0.10398438731552 
552	 0.104265152378827 
553	 0.104480655818506 
554	 0.104685826026153 
555	 0.104823416442188 
556	 0.104927940317731 
557	 0.105062745424549 
558	 0.105151513253321 
559	 0.105201428000484 
560	 0.105211116353396 
561	 0.105156039206844 
562	 0.105066891217941 
563	 0.104992599434125 
564	 0.104939256204094 
565	 0.104745362528871 
566	 0.104486168962264 
567	 0.10418549172645 
568	 0.103827795440525 
569	 0.1034434410639 
570	 0.103020086096801 
571	 0.102575697438275 
572	 0.102209093434871 
573	 0.101858317493603 
574	 0.101496777224538 
575	 0.101108453331161 
576	 0.100679427582435 
577	 0.10019556428433 
578	 9.96811430351499E-02 
579	 9.91994697935207E-02 
580	 9.85983287972985E-02 
581	 9.79355420463777E-02 
582	 9.72811555186296E-02 
583	 9.65828419336406E-02 
584	 9.58637686405105E-02 
585	 9.51289238981899E-02 
586	 9.43737354207024E-02 
587	 9.36055911862721E-02 
588	 9.28519776066314E-02 
589	 9.20975794003608E-02 
590	 9.12544666078682E-02 
591	 9.04304579769084E-02 
592	 8.96161516340913E-02 
593	 8.87741315719838E-02 
594	 8.79166600847034E-02 
595	 8.70516561574758E-02 
596	 0.086194404401043 
597	 8.53617249230913E-02 
598	 8.44837378000852E-02 
599	 8.35820409994796E-02 
600	 8.26800674447883E-02 
601	 8.17590206323096E-02 
602	 8.08802909112174E-02 
603	 0.080011433919894 
604	 0.079093591684391 
605	 7.81879276141623E-02 
606	 7.73166823586586E-02 
607	 7.64696672151364E-02 
608	 7.56022973820511E-02 
609	 7.47096419921239E-02 
610	 7.38368266022029E-02 
611	 0.073016326577457 
612	 7.22082651767063E-02 
613	 7.13818522943742E-02 
614	 7.05396291233057E-02 
615	 6.97069916596977E-02 
616	 6.89110945003748E-02 
617	 6.81191860342129E-02 
618	 6.73283876189039E-02 
619	 6.66044630230335E-02 
620	 0.065857896513702 
621	 6.50978753992085E-02 
622	 6.43606047551291E-02 
623	 6.36357434089554E-02 
624	 6.29452134513416E-02 
625	 6.22759128403711E-02 
626	 6.15842154218211E-02 
627	 6.09149068037605E-02 
628	 6.02569011111958E-02 
629	 5.96062683507034E-02 
630	 5.90074682157515E-02 
631	 5.83998266857092E-02 
632	 5.77948605222483E-02 
633	 5.72250321065785E-02 
634	 0.056613436538875 
635	 5.60274954385057E-02 
636	 5.54915248301419E-02 
637	 0.054964138858976 
638	 5.44536382350849E-02 
639	 5.39309830778158E-02 
640	 5.33877586881793E-02 
641	 5.29047248866528E-02 
642	 5.24368724128944E-02 
643	 0.051968563652372 
644	 5.15035031489265E-02 
645	 0.051043495630776 
646	 5.06091641451738E-02 
647	 5.01982393958009E-02 
648	 4.97671259289893E-02 
649	 4.93653233678282E-02 
650	 0.04897517758778 
651	 4.85721275067994E-02 
652	 0.048195007572505 
653	 4.78204839631599E-02 
654	 0.04744985499102 
655	 4.71020843780278E-02 
656	 4.67332754869406E-02 
657	 4.63850400038616E-02 
658	 4.60775459948621E-02 
659	 4.57562385089676E-02 
660	 4.54542164093477E-02 
661	 4.51649420033047E-02 
662	 4.48708193060519E-02 
663	 0.04457522770659 
664	 4.42698036042838E-02 
665	 4.39750532646816E-02 
666	 4.37355561711149E-02 
667	 4.34655580720775E-02 
668	 4.31977385702904E-02 
669	 4.29621142435033E-02 
670	 4.27182130524424E-02 
671	 4.24713669405354E-02 
672	 4.22316835737737E-02 
673	 4.20077560138947E-02 
674	 4.17746460772548E-02 
675	 4.15636569053438E-02 
676	 4.13738917359529E-02 
677	 0.04116125091368 
678	 4.09481093879484E-02 
679	 4.07447880537507E-02 
680	 4.05548032429174E-02 
681	 4.03695180241188E-02 
682	 4.01883819851609E-02 
683	 4.00081253996252E-02 
684	 3.98248505462845E-02 
685	 3.96431238097215E-02 
686	 3.94652509565658E-02 
687	 3.92934859407057E-02 
688	 3.91303050642219E-02 
689	 3.89583665894059E-02 
690	 3.87894036223363E-02 
691	 3.86380861480334E-02 
692	 3.85043850817532E-02 
693	 3.83580180416131E-02 
694	 3.82040224528869E-02 
695	 3.80665449894585E-02 
696	 3.79169719835486E-02 
697	 3.77652283997581E-02 
698	 3.76230100507461E-02 
699	 3.74978739125122E-02 
700	 0.03736932055271 
701	 3.72323817550831E-02 
702	 3.70913689786398E-02 
703	 3.69623071225907E-02 
704	 0.03686066394253 
705	 3.67638653760338E-02 
706	 3.66303721841307E-02 
707	 3.65115026950402E-02 
708	 3.64025615908743E-02 
709	 3.62928119249889E-02 
710	 3.61734591653053E-02 
711	 3.60746837143637E-02 
712	 0.035983284931194 
713	 3.58806404859067E-02 
714	 3.57849068807101E-02 
715	 3.56795272957409E-02 
716	 3.55681674740742E-02 
717	 3.54684156866174E-02 
718	 3.53723774587139E-02 
719	 3.52831652018936E-02 
720	 3.51998002779551E-02 
721	 3.51129097534251E-02 
722	 3.50231395992188E-02 
723	 3.49340737092698E-02 
724	 0.034845351190501 
725	 3.47313481449757E-02 
726	 3.46530634771115E-02 
727	 3.45983661361789E-02 
728	 3.45090723554683E-02 
729	 3.44403385496252E-02 
730	 3.43734528441094E-02 
731	 0.034295500165357 
732	 0.034217864695026 
733	 0.034154581249201 
734	 0.034098946619189 
735	 0.034035087107904 
736	 0.033938320462661 
737	 3.38574117720893E-02 
738	 3.38028566757707E-02 
739	 3.37554422241689E-02 
740	 0.033688091121032 
741	 3.36278833037063E-02 
742	 3.35856639886888E-02 
743	 3.35379055087851E-02 
744	 3.34858845297362E-02 
745	 3.34326775129643E-02 
746	 3.33817266281776E-02 
747	 3.33331278061297E-02 
748	 3.32935757215188E-02 
749	 3.32464580316756E-02 
750	 3.31729623431574E-02 
751	 3.31491147930745E-02 
752	 3.31167132153338E-02 
753	 3.30586082827569E-02 
754	 0.033027548520859 
755	 3.29954115794756E-02 
756	 0.032948165488411 
757	 3.28886811988241E-02 
758	 3.28595636119435E-02 
759	 3.28232985283082E-02 
760	 3.27821698726115E-02 
761	 3.27541518092044E-02 
762	 3.27292134494145E-02 
763	 3.26902175681237E-02 
764	 3.26435496941262E-02 
765	 3.26190076553175E-02 
766	 3.25954741599605E-02 
767	 3.25669919997149E-02 
768	 3.25371123563736E-02 
769	 3.25265008884113E-02 
770	 3.25004677854535E-02 
771	 3.24685248856523E-02 
772	 3.24506162197286E-02 
773	 3.24306971123804E-02 
774	 3.24054729508701E-02 
775	 0.032382205849802 
776	 3.23735412462826E-02 
777	 3.23544096404352E-02 
778	 3.23399352531658E-02 
779	 3.23344134866424E-02 
780	 0.032314323212963 
781	 3.22910285458182E-02 
782	 3.22695886783819E-02 
783	 3.22537520123365E-02 
784	 3.22467608697606E-02 
785	 3.22572736074381E-02 
786	 3.22679775420417E-02 
787	 0.032252511720131 
788	 3.22354172551653E-02 
789	 3.22205113346555E-02 
790	 3.22093604801965E-02 
791	 3.22028588853803E-02 
792	 3.22005826346832E-02 
793	 0.032201281022622 
794	 3.22025546223115E-02 
795	 3.22005827601717E-02 
796	 3.21872884688754E-02 
797	 3.21792387138159E-02 
798	 3.21902355446201E-02 
799	 0.032171523311523 
800	 3.21716628601138E-02 
801	 0.032184904827205 
802	 3.21665701213743E-02 
803	 3.21593448476951E-02 
804	 3.21595610712696E-02 
805	 3.21631681406377E-02 
806	 3.21748345949918E-02 
807	 3.21717379841644E-02 
808	 3.21564822964708E-02 
809	 3.21444682362681E-02 
810	 3.21685684895187E-02 
811	 3.21786160305234E-02 
812	 0.032178483820082 
813	 3.21910919054062E-02 
814	 3.21908092830995E-02 
815	 3.22094597018539E-02 
816	 3.22375208218942E-02 
817	 0.032232311938288 
818	 0.032247037152998 
819	 3.22607576404703E-02 
820	 3.22629324438384E-02 
821	 3.22777759848634E-02 
822	 3.23097750578236E-02 
823	 3.23430990595931E-02 
824	 3.23614663550943E-02 
825	 3.23631144968796E-02 
826	 3.23925231808448E-02 
827	 3.24338292061742E-02 
828	 3.24511169937346E-02 
829	 3.24733393755899E-02 
830	 3.25154566743164E-02 
831	 3.25594451395027E-02 
832	 3.25660247282705E-02 
833	 3.25831989382545E-02 
834	 3.26113601720398E-02 
835	 3.26481026126026E-02 
836	 0.032697765581198 
837	 3.27414528480358E-02 
838	 3.27684567432103E-02 
839	 3.27861764318432E-02 
840	 3.28447510381479E-02 
841	 3.28949704079524E-02 
842	 3.29364709785663E-02 
843	 3.29828232021428E-02 
844	 0.033009407024869 
845	 0.033039244431116 
846	 3.30804149710625E-02 
847	 3.31280028851295E-02 
848	 3.31860858734968E-02 
849	 3.32244233492023E-02 
850	 3.32522756680994E-02 
851	 3.33282746001137E-02 
852	 3.34055186370498E-02 
853	 3.34674110060417E-02 
854	 3.35146020637897E-02 
855	 3.35697016039484E-02 
856	 3.36274231751056E-02 
857	 3.36884166235762E-02 
858	 3.37543444971014E-02 
859	 3.38270947180894E-02 
860	 3.38943008389718E-02 
861	 3.39644406541852E-02 
862	 3.40501973004252E-02 
863	 3.41195206840744E-02 
864	 3.42001078206844E-02 
865	 3.42947036912815E-02 
866	 3.43824465831424E-02 
867	 3.44661688648067E-02 
868	 3.45669927360246E-02 
869	 3.46754885783026E-02 
870	 3.47410257002122E-02 
871	 3.48361757763124E-02 
872	 3.49388574972977E-02 
873	 3.50250419824797E-02 
874	 3.51116947952694E-02 
875	 3.52384116801218E-02 
876	 3.53658280828564E-02 
877	 3.54571756570254E-02 
878	 3.55791669748839E-02 
879	 3.57124636416118E-02 
880	 3.58304611306087E-02 
881	 3.59191810506126E-02 
882	 3.60455463770979E-02 
883	 3.61889963885376E-02 
884	 3.63366804003015E-02 
885	 3.64837836316772E-02 
886	 3.66053771828898E-02 
887	 0.036728800625158 
888	 3.68750693394061E-02 
889	 3.70461680501436E-02 
890	 3.71875512977951E-02 
891	 3.73309938960234E-02 
892	 3.74893670484689E-02 
893	 3.76160441043867E-02 
894	 3.77790414017035E-02 
895	 3.79479664205216E-02 
896	 3.80964951966486E-02 
897	 3.82746901069351E-02 
898	 3.84693588816017E-02 
899	 3.86454003150701E-02 
900	 3.87856641711213E-02 
901	 3.89680171059776E-02 
902	 3.91476188637283E-02 
903	 3.93355018579244E-02 
904	 3.95518676332301E-02 
905	 3.97034226504204E-02 
906	 3.99000370295227E-02 
907	 4.01343583743385E-02 
908	 4.03179960474337E-02 
909	 4.04979972241297E-02 
910	 4.06645200418676E-02 
911	 4.08484228171783E-02 
912	 4.11110796808757E-02 
913	 4.13435965706896E-02 
914	 0.041553633975708 
915	 4.17674275346332E-02 
916	 4.20077303110309E-02 
917	 4.22239285137141E-02 
918	 4.24638032023717E-02 
919	 4.27433818783932E-02 
920	 4.29860075764087E-02 
921	 0.043200566908046 
922	 4.34183757539907E-02 
923	 4.36696325083339E-02 
924	 0.04396588430163 
925	 4.42358547776467E-02 
926	 4.44768843655912E-02 
927	 4.47173637827009E-02 
928	 4.49975777041402E-02 
929	 0.045282749387768 
930	 4.55507794516434E-02 
931	 4.57969657068207E-02 
932	 4.60562511776095E-02 
933	 4.63514531397786E-02 
934	 4.66683101630752E-02 
935	 4.69713594683501E-02 
936	 4.72319954438517E-02 
937	 4.75326796815725E-02 
938	 4.78456721612708E-02 
939	 4.80953776429373E-02 
940	 4.84628500084913E-02 
941	 0.048806751604704 
942	 4.90855335586695E-02 
943	 4.93691408103367E-02 
944	 4.96697076230861E-02 
945	 4.99805191962356E-02 
946	 5.02981790461209E-02 
947	 5.06231336594623E-02 
948	 5.09179773567719E-02 
949	 5.12452396293141E-02 
950	 5.16038339818876E-02 
951	 5.19029243634019E-02 
952	 5.21838089106007E-02 
953	 5.25452687605759E-02 
954	 5.29676153292723E-02 
955	 5.32588180627378E-02 
956	 5.35761150028419E-02 
957	 5.39357911988755E-02 
958	 5.43021741000662E-02 
959	 5.46068104904905E-02 
960	 5.48959572610211E-02 
961	 5.52117862049569E-02 
962	 5.55778149359216E-02 
963	 5.59838075966881E-02 
964	 5.62867240988829E-02 
965	 5.65507235371339E-02 
966	 5.68671264695627E-02 
967	 5.72469953296739E-02 
968	 5.76769399125694E-02 
969	 5.80553120777162E-02 
970	 5.83378345072746E-02 
971	 0.058678610992133 
972	 5.90327332170676E-02 
973	 5.93673498189303E-02 
974	 5.96952783319312E-02 
975	 6.01571748357576E-02 
976	 6.04864709149041E-02 
977	 6.08437978276731E-02 
978	 6.13533575794783E-02 
979	 6.15842262866915E-02 
980	 6.19311144659732E-02 
981	 6.23239391753264E-02 
982	 6.26297949299658E-02 
983	 0.063051041100631 
984	 6.34270705263891E-02 
985	 6.37946974903299E-02 
986	 6.42164865123161E-02 
987	 6.46028631616716E-02 
988	 6.49638435549203E-02 
989	 0.065334249626153 
990	 6.57211717281309E-02 
991	 0.066003403262006 
992	 6.63193777079092E-02 
993	 0.066695168556445 
994	 0.067103278799761 
995	 6.75013172195931E-02 
996	 6.79221726232851E-02 
997	 6.82625612297929E-02 
998	 6.84966776816556E-02 
999	 6.89984837913869E-02 
1000	 6.95129735585009E-02 
1001	 7.28463348503323E-02 
1002	 7.32672331079567E-02 
1003	 7.36514805629593E-02 
1004	 7.40358688190612E-02 
1005	 7.44023461167381E-02 
1006	 0.074758836934325 
1007	 7.50922291843802E-02 
1008	 0.075460776243067 
1009	 7.58129153007731E-02 
1010	 7.61828756187906E-02 
1011	 7.66146391286595E-02 
1012	 7.70043850568278E-02 
1013	 7.73531773276971E-02 
1014	 7.77200686273836E-02 
1015	 7.80926612775501E-02 
1016	 7.84590495389305E-02 
1017	 7.88066998736714E-02 
1018	 0.079183233410835 
1019	 7.95700570813662E-02 
1020	 7.99311224280882E-02 
1021	 8.02791159944277E-02 
1022	 8.06240536711188E-02 
1023	 8.09627227211736E-02 
1024	 8.12739847846797E-02 
1025	 8.16027481485564E-02 
1026	 8.19402897256449E-02 
1027	 8.22775947520565E-02 
1028	 8.26311181752749E-02 
1029	 8.29508249578991E-02 
1030	 8.32621519661195E-02 
1031	 8.35927696286415E-02 
1032	 8.38898693502758E-02 
1033	 8.41955265016659E-02 
1034	 8.45089742964537E-02 
1035	 8.47838864454053E-02 
1036	 8.50884269015315E-02 
1037	 8.54274542502867E-02 
1038	 0.085713096567504 
1039	 8.59681117563139E-02 
1040	 8.62594082127278E-02 
1041	 8.65337826136945E-02 
1042	 8.68102561802459E-02 
1043	 8.70985646378337E-02 
1044	 8.74210514061622E-02 
1045	 8.77443233632281E-02 
1046	 8.80282090442697E-02 
1047	 8.83134655073906E-02 
1048	 8.86210495784774E-02 
1049	 8.88518416996049E-02 
1050	 8.90453192170951E-02 
1051	 8.92850904624809E-02 
1052	 8.95508988280001E-02 
1053	 8.98032862356343E-02 
1054	 9.00781805356591E-02 
1055	 9.03285073391056E-02 
1056	 9.05589216772892E-02 
1057	 0.090779594622268 
1058	 9.09706552367424E-02 
1059	 9.12187076297268E-02 
1060	 0.091449018598229 
1061	 9.16443508469637E-02 
1062	 9.18871828468741E-02 
1063	 9.21212112241868E-02 
1064	 9.23186003020433E-02 
1065	 9.25486039184595E-02 
1066	 9.27716854153774E-02 
1067	 9.29737344651791E-02 
1068	 0.093204963775217 
1069	 0.093426380569538 
1070	 9.36353638769084E-02 
1071	 9.38309589443475E-02 
1072	 0.094021029901412 
1073	 0.094186541639649 
1074	 9.43546502452909E-02 
1075	 9.45071048917492E-02 
1076	 9.46488313313385E-02 
1077	 9.48343423978619E-02 
1078	 9.50243392548125E-02 
1079	 9.52003840376651E-02 
1080	 9.53857794381148E-02 
1081	 9.55432248287411E-02 
1082	 9.56902500088493E-02 
1083	 9.58337893365823E-02 
1084	 0.095957789107259 
1085	 9.60883321733566E-02 
1086	 9.62124288760254E-02 
1087	 9.63220915465267E-02 
1088	 9.64438291724371E-02 
1089	 0.096584440329051 
1090	 9.67082892088053E-02 
1091	 9.68454365668334E-02 
1092	 9.69828727241387E-02 
1093	 9.70845425554643E-02 
1094	 9.71868660450602E-02 
1095	 9.72907494131621E-02 
1096	 9.73810234945125E-02 
1097	 9.74923198214588E-02 
1098	 0.097600973057674 
1099	 0.097685639768599 
1100	 0.097779755137061 
1101	 9.78877658335051E-02 
1102	 9.79849131780964E-02 
1103	 9.80678054089317E-02 
1104	 9.81487627833973E-02 
1105	 9.82211445800239E-02 
1106	 9.82757809891591E-02 
1107	 0.098344492326869 
1108	 9.84285726781866E-02 
1109	 9.85009239942719E-02 
1110	 9.85658309803948E-02 
1111	 9.86259014478601E-02 
1112	 9.86909753431283E-02 
1113	 9.87547661878639E-02 
1114	 9.88151607658549E-02 
1115	 9.88772634720802E-02 
1116	 9.89246752194753E-02 
1117	 9.89683701103857E-02 
1118	 9.90198815223799E-02 
1119	 0.099078675032399 
1120	 9.91300830425723E-02 
1121	 9.91834984701189E-02 
1122	 9.92294490353763E-02 
1123	 9.92711473342967E-02 
1124	 9.93011273020177E-02 
1125	 9.93346462607961E-02 
1126	 9.93879347609332E-02 
1127	 9.94304572747825E-02 
1128	 9.94662058297615E-02 
1129	 9.95144440723731E-02 
1130	 9.95544216213185E-02 
1131	 9.95917020936227E-02 
1132	 9.96374276614349E-02 
1133	 9.96671295170839E-02 
1134	 9.96876852483692E-02 
1135	 9.97137513622395E-02 
1136	 9.97329934493254E-02 
1137	 9.97656097825494E-02 
1138	 9.98189405721252E-02 
1139	 9.98548796411781E-02 
1140	 0.099893255203091 
1141	 9.99155279099767E-02 
1142	 9.99389999862399E-02 
1143	 0.099952469286079 
1144	 9.99616263578514E-02 
1145	 9.99923210729815E-02 
1146	 0.100015899184215 
1147	 0.10003863158924 
1148	 0.100075076941804 
1149	 0.100108533059602 
1150	 0.10013679124274 
1151	 0.100152164996808 
1152	 0.100178921513776 
1153	 0.100208016520923 
1154	 0.100233718005568 
1155	 0.100274070186696 
1156	 0.10029716510935 
1157	 0.100295649982083 
1158	 0.100311235955851 
1159	 0.100340280600804 
1160	 0.10034532594476 
1161	 0.100344425370324 
1162	 0.100362476192056 
1163	 0.100369945324915 
1164	 0.100384358575346 
1165	 0.100409385936129 
1166	 0.100427376541033 
1167	 0.10044866919196 
1168	 0.100480388215889 
1169	 0.100512860200852 
1170	 0.1005624051052 
1171	 0.100593929145896 
1172	 0.100611548084461 
1173	 0.100641623662847 
1174	 0.100666245255503 
1175	 0.100703435638137 
1176	 0.100759148311109 
1177	 0.100804117582559 
1178	 0.100850725223692 
1179	 0.10089397263493 
1180	 0.100923267232677 
1181	 0.100963097890679 
1182	 0.101008307392028 
1183	 0.101049854086694 
1184	 0.101097412777845 
1185	 0.101147185642215 
1186	 0.101206722998856 
1187	 0.101272950826928 
1188	 0.101336092308596 
1189	 0.101410540944431 
1190	 0.101474304753928 
1191	 0.10152708901529 
1192	 0.101587391402456 
1193	 0.101638218983982 
1194	 0.101712361058769 
1195	 0.101802079057745 
1196	 0.101886591481949 
1197	 0.10197800576309 
1198	 0.102087410044567 
1199	 0.102174318204512 
1200	 0.102257656228871 
1201	 0.102354259066682 
1202	 0.102442999222296 
1203	 0.102536089635768 
1204	 0.102639840827376 
1205	 0.102746771197295 
1206	 0.102860385065531 
1207	 0.102974769837868 
1208	 0.103086420189684 
1209	 0.10321612371913 
1210	 0.103347004489383 
1211	 0.103497064346895 
1212	 0.103678674936061 
1213	 0.103846929632588 
1214	 0.104018369417705 
1215	 0.104193568148764 
1216	 0.104358276195357 
1217	 0.104538405349264 
1218	 0.104735260107673 
1219	 0.104932755649748 
1220	 0.10512222667889 
1221	 0.105326912798695 
1222	 0.10551242503369 
1223	 0.105699025369787 
1224	 0.105889645238123 
1225	 0.106077582110113 
1226	 0.106273820096156 
1227	 0.106482536070023 
1228	 0.106677492844512 
1229	 0.106873395550225 
1230	 0.107064067270557 
1231	 0.107241042950254 
1232	 0.107427447884591 
1233	 0.107615194339022 
1234	 0.107806141242333 
1235	 0.107995621596329 
1236	 0.108193464459885 
1237	 0.108409491305865 
1238	 0.108609428131492 
1239	 0.108798226984658 
1240	 0.109000252199902 
1241	 0.109210197703255 
1242	 0.109385982097136 
1243	 0.109580239616897 
1244	 0.109789880339548 
1245	 0.109981236472562 
1246	 0.110156871300887 
1247	 0.110350434859211 
1248	 0.110552053419068 
1249	 0.11074176414151 
1250	 0.110930809159589 
1251	 0.111122432242311 
1252	 0.111303345355896 
1253	 0.111494960006918 
1254	 0.111699937591454 
1255	 0.111900235225558 
1256	 0.112101154913876 
1257	 0.112301168153272 
1258	 0.112500836697322 
1259	 0.112701443575855 
1260	 0.112894647477186 
1261	 0.113099472982257 
1262	 0.113311792942434 
1263	 0.113533773987618 
1264	 0.113738291682441 
1265	 0.113941907190387 
1266	 0.114147941822388 
1267	 0.11433715239732 
1268	 0.114547845745263 
1269	 0.114775835298169 
1270	 0.114996658495791 
1271	 0.115221465774065 
1272	 0.115442243744267 
1273	 0.115665122101749 
1274	 0.115882128370542 
1275	 0.116081794953036 
1276	 0.116304614959461 
1277	 0.116537492756816 
1278	 0.11676742123112 
1279	 0.1170139336641 
1280	 0.117252028916009 
1281	 0.117476514427421 
1282	 0.117709616666158 
1283	 0.117941146698214 
1284	 0.118181827145739 
1285	 0.118428287990241 
1286	 0.118678397814549 
1287	 0.118936129454326 
1288	 0.119211471160977 
1289	 0.119460780790488 
1290	 0.119697651091087 
1291	 0.119951605636447 
1292	 0.120196504881946 
1293	 0.120452715157586 
1294	 0.120725426053079 
1295	 0.120995785995271 
1296	 0.121261035675482 
1297	 0.121535523732748 
1298	 0.12182476590738 
1299	 0.122105583563935 
1300	 0.122390040388894 
1301	 0.122663617736988 
1302	 0.122927754425871 
1303	 0.123195276027618 
1304	 0.123454245649167 
1305	 0.123718405586095 
1306	 0.123984044763506 
1307	 0.124254779170059 
1308	 0.12451661534062 
1309	 0.124803724288619 
1310	 0.125082343392431 
1311	 0.125366644192459 
1312	 0.12564941972983 
1313	 0.125935356422146 
1314	 0.12621406317342 
1315	 0.126494347139663 
1316	 0.126765458607791 
1317	 0.127025964977386 
1318	 0.127292471189786 
1319	 0.127550516526455 
1320	 0.127823663208045 
1321	 0.128112213922512 
1322	 0.128384802709506 
1323	 0.128655110643763 
1324	 0.12892826358138 
1325	 0.129199217194252 
1326	 0.129462191148913 
1327	 0.129726263167501 
1328	 0.129987355660689 
1329	 0.130227091358146 
1330	 0.130483381471653 
1331	 0.130758937693803 
1332	 0.131021738072034 
1333	 0.131279925562412 
1334	 0.131547488641892 
1335	 0.131796623881986 
1336	 0.132027993588337 
1337	 0.132280606418158 
1338	 0.132533822180759 
1339	 0.13279111389993 
1340	 0.133063712303491 
1341	 0.133318750934403 
1342	 0.133567851758432 
1343	 0.133815617650571 
1344	 0.134054867275529 
1345	 0.134300748149198 
1346	 0.134548831446825 
1347	 0.134792898162906 
1348	 0.135039008937687 
1349	 0.135280897367426 
1350	 0.135519458296514 
1351	 0.13575735003617 
1352	 0.135989303233185 
1353	 0.136229285137787 
1354	 0.13647312702721 
1355	 0.136713620108041 
1356	 0.136957600669261 
1357	 0.137201379516841 
1358	 0.137438678796573 
1359	 0.137683947800614 
1360	 0.137928511016438 
1361	 0.138185771246044 
1362	 0.138463421465489 
1363	 0.138717489311353 
1364	 0.138972351133193 
1365	 0.139224668091083 
1366	 0.139483279714697 
1367	 0.139735814696585 
1368	 0.139993181138015 
1369	 0.140262777704712 
1370	 0.140521957135386 
1371	 0.140771485168624 
1372	 0.141025366248933 
1373	 0.141286018207527 
1374	 0.141535748573233 
1375	 0.141781626686979 
1376	 0.142024882948462 
1377	 0.14226069805162 
1378	 0.142500794648672 
1379	 0.142737901494836 
1380	 0.142981981038413 
1381	 0.143230337505716 
1382	 0.143478723498092 
1383	 0.143730830124588 
1384	 0.143983271118277 
1385	 0.144230670850337 
1386	 0.144487579039903 
1387	 0.144748585147273 
1388	 0.145012283421353 
1389	 0.14528266959688 
1390	 0.145555041710104 
1391	 0.145826505261587 
1392	 0.146112668902538 
1393	 0.146387537199043 
1394	 0.146660847812151 
1395	 0.146930836146454 
1396	 0.147201454318558 
1397	 0.147448285499856 
1398	 0.147693337709652 
1399	 0.147911024197645 
1400	 0.148106386609389 
1401	 0.148286415584315 
1402	 0.148453442836811 
1403	 0.148597310187595 
1404	 0.148719433204691 
1405	 0.14882477023262 
1406	 0.148908312022545 
1407	 0.148983098582349 
1408	 0.149035571552256 
1409	 0.149088946713524 
1410	 0.14913510619088 
1411	 0.149172666686709 
1412	 0.149197166903344 
1413	 0.149227662150858 
1414	 0.149248292573768 
1415	 0.149279536225629 
1416	 0.149315977139358 
1417	 0.149356676308389 
1418	 0.149404502581575 
1419	 0.149451945600153 
1420	 0.149501019081926 
1421	 0.149556347075974 
1422	 0.149603318070405 
1423	 0.149670252494344 
1424	 0.149756506521986 
1425	 0.149842636953693 
1426	 0.149941803709146 
1427	 0.150041442555984 
1428	 0.1501172099541 
1429	 0.15018852852401 
1430	 0.150240555794622 
1431	 0.150282916372591 
1432	 0.150293311352029 
1433	 0.150288319956929 
1434	 0.150252035141751 
1435	 0.15018471275928 
1436	 0.150098976316546 
1437	 0.149975057048678 
1438	 0.149871630313379 
1439	 0.149737169243654 
1440	 0.149650829881492 
1441	 0.149558486744614 
1442	 0.149545963670511 
1443	 0.149539451696986 
1444	 0.149657923356839 
1445	 0.149851176277375 
1446	 0.150137058875619 
1447	 0.150521965992152 
1448	 0.150979569718879 
1449	 0.151544038896245 
1450	 0.152143254186822 
1451	 0.152841750557756 
1452	 0.153537625787807 
1453	 0.154292894281607 
1454	 0.155020585242458 
1455	 0.155772394598256 
1456	 0.15649362224509 
1457	 0.157208921051098 
1458	 0.157897557727764 
1459	 0.158561053516599 
1460	 0.159212888872934 
1461	 0.159848015454577 
1462	 0.160455119044033 
1463	 0.161037877603853 
1464	 0.161611065275927 
1465	 0.16214376443411 
1466	 0.16269699787221 
1467	 0.163231271766439 
1468	 0.16375886282649 
1469	 0.1642968348366 
1470	 0.164804301089754 
1471	 0.165312117892001 
1472	 0.165813381693337 
1473	 0.166315633545558 
1474	 0.166811707733666 
1475	 0.167298891388821 
1476	 0.167793606700429 
1477	 0.168260328911845 
1478	 0.16871295626892 
1479	 0.169132607442526 
1480	 0.169533191542298 
1481	 0.169910569709072 
1482	 0.170250609572948 
1483	 0.170593491796363 
1484	 0.170909467905313 
1485	 0.171250791278802 
1486	 0.171580883657137 
1487	 0.171940810890187 
1488	 0.172309623270061 
1489	 0.172717354848144 
1490	 0.173142424021798 
1491	 0.173608911232926 
1492	 0.174114853233871 
1493	 0.174649428995951 
1494	 0.175221218390671 
1495	 0.175809419676794 
1496	 0.17643122138095 
1497	 0.177065779883774 
1498	 0.177733421172276 
1499	 0.178393629530142 
1500	 0.179072570565446 
1501	 0.179743138020093 
1502	 0.180422927634798 
1503	 0.18107294138732 
1504	 0.18171484810117 
1505	 0.182340484343318 
1506	 0.182950221826791 
1507	 0.183535135863302 
1508	 0.184102779268697 
1509	 0.184653607564208 
1510	 0.185169081241584 
1511	 0.185680040149163 
1512	 0.186186203325148 
1513	 0.186674466671285 
1514	 0.187145685629935 
1515	 0.187606898445664 
1516	 0.188050767579005 
1517	 0.188487722502026 
1518	 0.188916932387367 
1519	 0.189332096042746 
1520	 0.189734475134662 
1521	 0.190123772543434 
1522	 0.1905100860882 
1523	 0.190912328160927 
1524	 0.191304355412868 
1525	 0.191702571005949 
1526	 0.192092899489558 
1527	 0.192472759232873 
1528	 0.192859230712482 
1529	 0.193244259590515 
1530	 0.193641520890206 
1531	 0.194044519472698 
1532	 0.194446359313986 
1533	 0.194850332589377 
1534	 0.19527391802594 
1535	 0.195692142450987 
1536	 0.19614704025957 
1537	 0.196634621364362 
1538	 0.197120808569919 
1539	 0.197615176956242 
1540	 0.198138927534018 
1541	 0.19867294799379 
1542	 0.199241253219571 
1543	 0.199846214626762 
1544	 0.200456030317622 
1545	 0.201084160389119 
1546	 0.201729932355806 
1547	 0.202398590549574 
1548	 0.203066853125517 
1549	 0.203749066612936 
1550	 0.20444097822721 
1551	 0.20514556163982 
1552	 0.205840316226162 
1553	 0.20654678075857 
1554	 0.207244495777415 
1555	 0.207926741836406 
1556	 0.208621354114569 
1557	 0.209327105016439 
1558	 0.210024116120585 
1559	 0.210724720776784 
1560	 0.211411116426585 
1561	 0.212087111239997 
1562	 0.212764905257841 
1563	 0.213436472846103 
1564	 0.214104269488368 
1565	 0.214772211844117 
1566	 0.215435203756347 
1567	 0.216097760064196 
1568	 0.216743112373492 
1569	 0.217377546384668 
1570	 0.218011634341217 
1571	 0.218635773630052 
1572	 0.219250580487565 
1573	 0.219856139843209 
1574	 0.220469344828929 
1575	 0.221075831908862 
1576	 0.221680872840933 
1577	 0.222295252307849 
1578	 0.222903158909688 
1579	 0.223502868066343 
1580	 0.22409701229041 
1581	 0.224685333610999 
1582	 0.225280632310378 
1583	 0.225867519945955 
1584	 0.226464206031012 
1585	 0.2270677853464 
1586	 0.227681356898551 
1587	 0.228303985833156 
1588	 0.228922966675998 
1589	 0.229551593631975 
1590	 0.230178806779285 
1591	 0.230797357506807 
1592	 0.231427741192386 
1593	 0.232071892019143 
1594	 0.232709405065257 
1595	 0.233350009253016 
1596	 0.233984546110939 
1597	 0.234602440202617 
1598	 0.235242051623121 
1599	 0.235897679530832 
1600	 0.236544872711661 
1601	 0.237202202312136 
1602	 0.237855498127601 
1603	 0.238495699837771 
1604	 0.23914062733833 
1605	 0.239791681028199 
1606	 0.240442281577036 
1607	 0.241099116519896 
1608	 0.241745892488364 
1609	 0.24240056070649 
1610	 0.243032367116883 
1611	 0.243631842866806 
1612	 0.244244003610016 
1613	 0.244851148505983 
1614	 0.245457144682622 
1615	 0.246080557552609 
1616	 0.246685185850656 
1617	 0.247263202373804 
1618	 0.247857381871472 
1619	 0.24845881382372 
1620	 0.249042955295671 
1621	 0.249628985206542 
1622	 0.250207169791616 
1623	 0.250772284885427 
1624	 0.251330678310276 
1625	 0.251872660675849 
1626	 0.252433138441035 
1627	 0.252998220795781 
1628	 0.253551377358389 
1629	 0.254116520726683 
1630	 0.254671840105348 
1631	 0.255202229858096 
1632	 0.255748740566885 
1633	 0.256303807928374 
1634	 0.256861966706328 
1635	 0.257426008712458 
1636	 0.257983582022385 
1637	 0.258546594226301 
1638	 0.259101369251728 
1639	 0.259651429430794 
1640	 0.260200413343328 
1641	 0.260745108414886 
1642	 0.261286501816844 
1643	 0.261831450215837 
1644	 0.2623559078349 
1645	 0.262865238019263 
1646	 0.26337293168184 
1647	 0.263873953417649 
1648	 0.264364545107481 
1649	 0.26485195819996 
1650	 0.265326980970967 
1651	 0.265788768621954 
1652	 0.26623315127059 
1653	 0.266668354813058 
1654	 0.267086024045359 
1655	 0.267481594461481 
1656	 0.267874288215009 
1657	 0.268261609451189 
1658	 0.268629660584744 
1659	 0.268989472999164 
1660	 0.269321260045056 
1661	 0.269636151939205 
1662	 0.269920960588199 
1663	 0.270175840675321 
1664	 0.270416142180525 
1665	 0.270637554914966 
1666	 0.270825295336324 
1667	 0.270996516597543 
1668	 0.271126237585986 
1669	 0.2712103518784 
1670	 0.271276533228636 
1671	 0.271314836723995 
1672	 0.271327678342013 
1673	 0.271326789194632 
1674	 0.271271222300292 
1675	 0.27117913281894 
1676	 0.271045764011066 
1677	 0.270854264032545 
1678	 0.270647292884271 
1679	 0.27042452249055 
1680	 0.270135556617969 
1681	 0.269808648455065 
1682	 0.269429642134789 
1683	 0.268980878319832 
1684	 0.268517171840383 
1685	 0.268025708496955 
1686	 0.267485003122861 
1687	 0.266888136089752 
1688	 0.266274064760779 
1689	 0.265627104243377 
1690	 0.264941774404101 
1691	 0.26423799161286 
1692	 0.263498276151294 
1693	 0.262715712957049 
1694	 0.261895293025984 
1695	 0.261040458495896 
1696	 0.260137924477312 
1697	 0.259182358484971 
1698	 0.258192971048885 
1699	 0.257151039077685 
1700	 0.256140107584699 
1701	 0.255087645987756 
1702	 0.254099570843399 
1703	 0.253112641391071 
1704	 0.252205600351814 
1705	 0.251333235824092 
1706	 0.250535352275098 
1707	 0.249854966273024 
1708	 0.249213928936541 
1709	 0.248614745576043 
1710	 0.248070334526348 
1711	 0.247520887600727 
1712	 0.247001133790228 
1713	 0.246488775241421 
1714	 0.245945114761375 
1715	 0.245448103207159 
1716	 0.244953404416814 
1717	 0.244461514832998 
1718	 0.244024878162282 
1719	 0.243588122356525 
1720	 0.243164764931083 
1721	 0.242808814569674 
1722	 0.242504710465162 
1723	 0.242284825781206 
1724	 0.242164717392576 
1725	 0.242111064057316 
1726	 0.242149514712726 
1727	 0.242290801340332 
1728	 0.24253868259692 
1729	 0.242891920314297 
1730	 0.243339665839132 
1731	 0.243825848187938 
1732	 0.24435004740507 
1733	 0.244897148581761 
1734	 0.245457000402634 
1735	 0.246021450568645 
1736	 0.24651463529532 
1737	 0.246941450280792 
1738	 0.247288683832984 
1739	 0.247568194182343 
1740	 0.247786369444446 
1741	 0.24795819609623 
1742	 0.248045317691521 
1743	 0.248110460029306 
1744	 0.248097298577636 
1745	 0.248133378375965 
1746	 0.248123709407329 
1747	 0.248198995512247 
1748	 0.248318910902539 
1749	 0.24850648609751 
1750	 0.24875595503322 
1751	 0.249062229054443 
1752	 0.249417382033932 
1753	 0.249847859590155 
1754	 0.250330367562693 
1755	 0.250890980757099 
1756	 0.251532203806015 
1757	 0.252244563242848 
1758	 0.253066706574244 
1759	 0.253923957536501 
1760	 0.254886076679032 
1761	 0.255934127060766 
1762	 0.256936324089225 
1763	 0.258028885988832 
1764	 0.259158573665099 
1765	 0.260252713259947 
1766	 0.261456455670589 
1767	 0.262651718506445 
1768	 0.263827780399703 
1769	 0.265029393218192 
1770	 0.266121199889105 
1771	 0.267175708844812 
1772	 0.268188053023923 
1773	 0.269130480159745 
1774	 0.270109409246901 
1775	 0.27105217362388 
1776	 0.27197302828422 
1777	 0.272872224057003 
1778	 0.273702973143083 
1779	 0.274522274095546 
1780	 0.275287815028077 
1781	 0.276038021679593 
1782	 0.276793627782763 
1783	 0.277488740317551 
1784	 0.278210330736701 
1785	 0.27889119282805 
1786	 0.279559652434974 
1787	 0.280241885840722 
1788	 0.280887305770461 
1789	 0.281503871666931 
1790	 0.282131624743228 
1791	 0.282737041736672 
1792	 0.283355399554509 
1793	 0.283984362589463 
1794	 0.28458578613524 
1795	 0.285160263170976 
1796	 0.285696134911773 
1797	 0.286276285612764 
1798	 0.286830496121182 
1799	 0.287378120054307 
1800	 0.287959093728394 
1801	 0.28132635936878 
1802	 0.281868240312071 
1803	 0.282385682917935 
1804	 0.28287322416491 
1805	 0.283394681794267 
1806	 0.283874574302293 
1807	 0.284330270437742 
1808	 0.284783650852556 
1809	 0.28522524115448 
1810	 0.285660161946387 
1811	 0.28608944882694 
1812	 0.286508760588245 
1813	 0.286902099443596 
1814	 0.28732944226149 
1815	 0.287739339949425 
1816	 0.288162953236974 
1817	 0.288591077226509 
1818	 0.289035011120703 
1819	 0.28945878611718 
1820	 0.28988502641221 
1821	 0.290301871236544 
1822	 0.290703775458284 
1823	 0.291123212924717 
1824	 0.291513137845589 
1825	 0.291894310330018 
1826	 0.292270869957337 
1827	 0.292634916737666 
1828	 0.292985376255685 
1829	 0.293342380095398 
1830	 0.293666614734136 
1831	 0.293960577909768 
1832	 0.294256424693814 
1833	 0.294541277145749 
1834	 0.29481661477953 
1835	 0.295071072515783 
1836	 0.295313090754742 
1837	 0.295556264198873 
1838	 0.295779163453563 
1839	 0.296006882988695 
1840	 0.296246269182113 
1841	 0.296472065120069 
1842	 0.296684703588529 
1843	 0.296904989116033 
1844	 0.297112868784366 
1845	 0.297288785466278 
1846	 0.297461132141472 
1847	 0.297608916500297 
1848	 0.297761025351274 
1849	 0.297916605171 
1850	 0.298052729426601 
1851	 0.298181812608117 
1852	 0.298300475708056 
1853	 0.298391472040012 
1854	 0.298452291939852 
1855	 0.298479231134119 
1856	 0.298476036741796 
1857	 0.298438514134244 
1858	 0.298347543668834 
1859	 0.298215031362553 
1860	 0.29805541178119 
1861	 0.297825195908436 
1862	 0.297543221624069 
1863	 0.297206968118167 
1864	 0.296809672862718 
1865	 0.296366908736608 
1866	 0.295837283202845 
1867	 0.295216207560842 
1868	 0.294551634421433 
1869	 0.293786719140226 
1870	 0.292962901600073 
1871	 0.292079602792532 
1872	 0.291156428873501 
1873	 0.290166763884325 
1874	 0.289147917632609 
1875	 0.288088014034122 
1876	 0.286875482874455 
1877	 0.28564115584649 
1878	 0.284294591752026 
1879	 0.282819595428239 
1880	 0.281375666340145 
1881	 0.279821453487908 
1882	 0.278167862190742 
1883	 0.276460518616334 
1884	 0.274676719072162 
1885	 0.272693499996033 
1886	 0.270697132492933 
1887	 0.268534941349329 
1888	 0.266236408360503 
1889	 0.264067355674111 
1890	 0.261764737309966 
1891	 0.259455289689761 
1892	 0.257186774871396 
1893	 0.254814995340916 
1894	 0.252316715647924 
1895	 0.249909257444879 
1896	 0.247450418559607 
1897	 0.244951324315157 
1898	 0.24265793170043 
1899	 0.240284231373136 
1900	 0.237958599510322 
1901	 0.235744469033944 
1902	 0.233383380788997 
1903	 0.231132001706369 
1904	 0.228902873591182 
1905	 0.226681919059185 
1906	 0.224465260493758 
1907	 0.222449941203999 
1908	 0.220367734890014 
1909	 0.218324993886859 
1910	 0.21635070037801 
1911	 0.214240040474831 
1912	 0.212231006951259 
1913	 0.210199760293591 
1914	 0.208082629569254 
1915	 0.206036747749446 
1916	 0.204062198490448 
1917	 0.201982838586508 
1918	 0.19992620724564 
1919	 0.197879601136051 
1920	 0.195646175381233 
1921	 0.193440062609617 
1922	 0.191150983365753 
1923	 0.188786359389841 
1924	 0.186591608607444 
1925	 0.184317749945947 
1926	 0.182068738234906 
1927	 0.179876239316812 
1928	 0.177647562155447 
1929	 0.175332419400522 
1930	 0.17315064614175 
1931	 0.171028074741046 
1932	 0.168974761389225 
1933	 0.167201030573743 
1934	 0.165533891040549 
1935	 0.164022344259652 
1936	 0.162754707747929 
1937	 0.16162978792459 
1938	 0.160640220370975 
1939	 0.159900482832174 
1940	 0.15935931891169 
1941	 0.15899994414639 
1942	 0.158877680436095 
1943	 0.158913712842399 
1944	 0.159103394631909 
1945	 0.159506975882361 
1946	 0.160139567269558 
1947	 0.160924794201928 
1948	 0.161965094579197 
1949	 0.163266142506251 
1950	 0.164689920514218 
1951	 0.166323299061865 
1952	 0.168111908105078 
1953	 0.170063375202526 
1954	 0.172153154187453 
1955	 0.17448861261272 
1956	 0.176805805491819 
1957	 0.179163274426563 
1958	 0.181494025775531 
1959	 0.183546001157281 
1960	 0.185484739782295 
1961	 0.187229249894359 
1962	 0.188763710668504 
1963	 0.190143063470739 
1964	 0.191363780310086 
1965	 0.192400504211005 
1966	 0.193236442751151 
1967	 0.193958768370856 
1968	 0.194526918762855 
1969	 0.195082651702406 
1970	 0.19560632369 
1971	 0.196131435273541 
1972	 0.196714421260518 
1973	 0.19731270176114 
1974	 0.197970322608203 
1975	 0.198694743351283 
1976	 0.199441153415243 
1977	 0.200216493849536 
1978	 0.201046624180829 
1979	 0.201913780990218 
1980	 0.202812953276952 
1981	 0.203825267159088 
1982	 0.204839498791279 
1983	 0.205945635943025 
1984	 0.20712876232453 
1985	 0.208293414529478 
1986	 0.209578612290569 
1987	 0.210952221334436 
1988	 0.212329610436811 
1989	 0.213938072667499 
1990	 0.2157049020513 
1991	 0.217578528492187 
1992	 0.219617680520574 
1993	 0.221824643716198 
1994	 0.223965049546622 
1995	 0.226252880062112 
1996	 0.228550823663163 
1997	 0.230842597811298 
1998	 0.233194220963443 
1999	 0.235665781558459 
2000	 0.237968920830568 
2001	 0.240344574178502 
2002	 0.242483458332805 
2003	 0.24447686011387 
2004	 0.246385645073708 
2005	 0.248124538886906 
2006	 0.249810593299753 
2007	 0.251456296259784 
2008	 0.252928342200903 
2009	 0.254305051243897 
2010	 0.255623653040273 
2011	 0.256739560716161 
2012	 0.257788718154525 
2013	 0.258757031013846 
2014	 0.259606538782654 
2015	 0.260409491225146 
2016	 0.261149647809563 
2017	 0.261804534042958 
2018	 0.262386368651076 
2019	 0.262894019978225 
2020	 0.263303312383623 
2021	 0.263667889938341 
2022	 0.263977849632922 
2023	 0.264197452643706 
2024	 0.264388740502878 
2025	 0.26454478380052 
2026	 0.264662319020008 
2027	 0.264724763646978 
2028	 0.264787112315612 
2029	 0.264801356113946 
2030	 0.264832436321239 
2031	 0.264855629359495 
2032	 0.264878547667495 
2033	 0.264886917417877 
2034	 0.264913699546276 
2035	 0.264940789751795 
2036	 0.264979555003782 
2037	 0.265023597666016 
2038	 0.265096259913199 
2039	 0.265186275389607 
2040	 0.265288571239596 
2041	 0.265412204911967 
2042	 0.265568298132704 
2043	 0.265721882806539 
2044	 0.265895315933891 
2045	 0.266059847951538 
2046	 0.266230778578286 
2047	 0.266400635047416 
2048	 0.266567051290999 
2049	 0.266734939955672 
2050	 0.266916352792272 
2051	 0.267083456527995 
2052	 0.267226103430971 
2053	 0.267374154416948 
2054	 0.267499976574549 
2055	 0.267596754108055 
2056	 0.267703496656401 
2057	 0.267810059800599 
2058	 0.267902988667901 
2059	 0.267982621870298 
2060	 0.268069596690096 
2061	 0.268146052253414 
2062	 0.268227397961077 
2063	 0.268318411869571 
2064	 0.26840608720031 
2065	 0.268483905389676 
2066	 0.268573849884732 
2067	 0.268678833381139 
2068	 0.268763520823706 
2069	 0.268865740057071 
2070	 0.268982573132084 
2071	 0.269090187493062 
2072	 0.269212240388418 
2073	 0.269302673279465 
2074	 0.269380371425325 
2075	 0.26944637009562 
2076	 0.269491254276305 
2077	 0.269529923758092 
2078	 0.269565569469281 
2079	 0.269584001764372 
2080	 0.269595109735985 
2081	 0.269578764415448 
2082	 0.269545097813042 
2083	 0.269494955387136 
2084	 0.269406119255738 
2085	 0.269297930619486 
2086	 0.269171971296657 
2087	 0.269016094956178 
2088	 0.26885981011391 
2089	 0.26869000272973 
2090	 0.268506034355095 
2091	 0.268318619785177 
2092	 0.26810278233426 
2093	 0.267873861685846 
2094	 0.267617954930753 
2095	 0.26731606109123 
2096	 0.267025020433996 
2097	 0.2667262786401 
2098	 0.266405033487937 
2099	 0.266107177253744 
2100	 0.265806536322052 
2101	 0.265449099644341 
2102	 0.265058633846023 
2103	 0.264669026491196 
2104	 0.264224709522506 
2105	 0.26382130629499 
2106	 0.263445526650865 
2107	 0.263038948598696 
2108	 0.262642403945863 
2109	 0.262207325539958 
2110	 0.261733681314613 
2111	 0.261270571936431 
2112	 0.260776471344082 
2113	 0.26029844427159 
2114	 0.259831953450788 
2115	 0.25936293617189 
2116	 0.25889324589137 
2117	 0.258436129134792 
2118	 0.257956419748129 
2119	 0.257471477350088 
2120	 0.256981256247633 
2121	 0.25646013238668 
2122	 0.255984407355207 
2123	 0.255518349472145 
2124	 0.255071667310116 
2125	 0.254673653351727 
2126	 0.254235571538217 
2127	 0.253793663689872 
2128	 0.253348957765515 
2129	 0.252857171953878 
2130	 0.252419399847934 
2131	 0.252012161323457 
2132	 0.251606026112755 
2133	 0.251225442236912 
2134	 0.250862662910739 
2135	 0.250460046340046 
2136	 0.250085438848838 
2137	 0.249691909752357 
2138	 0.249279019255831 
2139	 0.248898469313889 
2140	 0.24852754675646 
2141	 0.2481579625389 
2142	 0.247831071197617 
2143	 0.247446941986828 
2144	 0.247024532784456 
2145	 0.246627239599132 
2146	 0.246193958272291 
2147	 0.245803034888948 
2148	 0.245469350747967 
2149	 0.245094260408599 
2150	 0.244723719032473 
2151	 0.244335486714662 
2152	 0.243918856027183 
2153	 0.243500538098783 
2154	 0.24308225305392 
2155	 0.242650390939659 
2156	 0.242227691689874 
2157	 0.241805725943898 
2158	 0.241373097166295 
2159	 0.240947127571313 
2160	 0.240500342127319 
2161	 0.240027577005532 
2162	 0.239579080167662 
2163	 0.239123528084234 
2164	 0.238679571100258 
2165	 0.23825908904323 
2166	 0.237822572077712 
2167	 0.237368108494985 
2168	 0.236941834280395 
2169	 0.236508573471738 
2170	 0.236109436182661 
2171	 0.235733701310335 
2172	 0.235381089244138 
2173	 0.235062944474734 
2174	 0.234746727498083 
2175	 0.234458858015549 
2176	 0.234201734922467 
2177	 0.233920932490231 
2178	 0.233638699627939 
2179	 0.233384709221719 
2180	 0.233140859498164 
2181	 0.232879779951554 
2182	 0.232646907601207 
2183	 0.232377106996457 
2184	 0.232082281108898 
2185	 0.231770379129667 
2186	 0.231456816103588 
2187	 0.231111315931454 
2188	 0.230731894486482 
2189	 0.230333616538831 
2190	 0.22993776004728 
2191	 0.229474594724759 
2192	 0.228986187129881 
2193	 0.228432128554245 
2194	 0.227802621684349 
2195	 0.227149414810044 
2196	 0.226444239677446 
2197	 0.225691913832496 
2198	 0.224978020550668 
2199	 0.224182269315827 
2200	 0.223337046758286 
2201	 0.222478865300905 
2202	 0.221500548337845 
2203	 0.220419479510154 
2204	 0.21931791912768 
2205	 0.21809523823283 
2206	 0.216953609808424 
2207	 0.215788737624303 
2208	 0.214658290445867 
2209	 0.21355822344241 
2210	 0.212481801491958 
2211	 0.211368544769976 
2212	 0.210386238783732 
2213	 0.209412508642384 
2214	 0.208618149805237 
2215	 0.207953215363975 
2216	 0.20739526859842 
2217	 0.206981989458613 
2218	 0.206669973893093 
2219	 0.206483751775224 
2220	 0.2063785170924 
2221	 0.2064037027469 
2222	 0.206504079656936 
2223	 0.206647313234433 
2224	 0.206819327795649 
2225	 0.206980170201822 
2226	 0.207107773214264 
2227	 0.207141228792733 
2228	 0.207146255497211 
2229	 0.207008098867928 
2230	 0.206765925321201 
2231	 0.206439946053013 
2232	 0.206003678306121 
2233	 0.205496266744759 
2234	 0.204919222335995 
2235	 0.204224404033599 
2236	 0.20342743629822 
2237	 0.202541503078148 
2238	 0.201525389730255 
2239	 0.200459050806089 
2240	 0.199330932164118 
2241	 0.198084314229157 
2242	 0.196785889405003 
2243	 0.195325638596041 
2244	 0.19371668932781 
2245	 0.192015073462568 
2246	 0.190116409009867 
2247	 0.188216153952291 
2248	 0.186275874048663 
2249	 0.184215941632767 
2250	 0.182096188735753 
2251	 0.179902381845705 
2252	 0.177440236833425 
2253	 0.175020739042413 
2254	 0.172521519953119 
2255	 0.169946778756673 
2256	 0.167567316508756 
2257	 0.165119096379357 
2258	 0.162742098953485 
2259	 0.160434111943338 
2260	 0.158125569866239 
2261	 0.155756379777842 
2262	 0.153626496892889 
2263	 0.151526562501702 
2264	 0.149684899482435 
2265	 0.148092635891094 
2266	 0.146547919601413 
2267	 0.145179611669812 
2268	 0.143875254555431 
2269	 0.142633548418151 
2270	 0.141563035963077 
2271	 0.140641299794088 
2272	 0.139808958221177 
2273	 0.139162231480198 
2274	 0.13851935369842 
2275	 0.137993204893525 
2276	 0.13744266783558 
2277	 0.136955661982629 
2278	 0.136431889630498 
2279	 0.135903649741209 
2280	 0.135353148491194 
2281	 0.134790579203237 
2282	 0.13420215939083 
2283	 0.133605934293017 
2284	 0.13297998931299 
2285	 0.132268898078597 
2286	 0.131545799843678 
2287	 0.130774657944121 
2288	 0.129939836573562 
2289	 0.129105250746491 
2290	 0.128209696238054 
2291	 0.127311383386254 
2292	 0.126398099832546 
2293	 0.125452488988886 
2294	 0.124564721065741 
2295	 0.123717099812438 
2296	 0.122937532312261 
2297	 0.122346920811811 
2298	 0.121897590293698 
2299	 0.121587839193068 
2300	 0.121416830722711 
2301	 0.121438487891492 
2302	 0.121591330538222 
2303	 0.121999805139238 
2304	 0.122671787652275 
2305	 0.123440791396441 
2306	 0.124421521285609 
2307	 0.125523636691149 
2308	 0.12673419289421 
2309	 0.128162945275545 
2310	 0.129866879750993 
2311	 0.131549418271946 
2312	 0.133486840581769 
2313	 0.135257030674003 
2314	 0.137040799467599 
2315	 0.138733703411953 
2316	 0.140385111632658 
2317	 0.141891628960614 
2318	 0.143389068511261 
2319	 0.144593438820753 
2320	 0.145630242443033 
2321	 0.146435869940779 
2322	 0.146928471277756 
2323	 0.14733036114202 
2324	 0.147568110474177 
2325	 0.147606502431301 
2326	 0.147471698373281 
2327	 0.147169675347192 
2328	 0.146607785616294 
2329	 0.145960809904995 
2330	 0.145201149821478 
2331	 0.144226257140008 
2332	 0.143140356301971 
2333	 0.141905226792957 
2334	 0.140485174839905 
2335	 0.139034665217104 
2336	 0.13743767558524 
2337	 0.135739122654925 
2338	 0.134129016486014 
2339	 0.132430047639022 
2340	 0.130755462333931 
2341	 0.129191667548077 
2342	 0.127607307918418 
2343	 0.126206772627544 
2344	 0.125018086406675 
2345	 0.124019776270596 
2346	 0.123262428089741 
2347	 0.122726512828765 
2348	 0.12242391658459 
2349	 0.12241009291802 
2350	 0.12259970984486 
2351	 0.122922781417489 
2352	 0.123355159935435 
2353	 0.123908672949784 
2354	 0.124483725267194 
2355	 0.125082038687419 
2356	 0.125702494256508 
2357	 0.126219946616819 
2358	 0.126694334204355 
2359	 0.127101818968665 
2360	 0.127408627286677 
2361	 0.127639405725515 
2362	 0.127836448777824 
2363	 0.127971605344227 
2364	 0.128083286201232 
2365	 0.128163579026604 
2366	 0.128151413526779 
2367	 0.128164148876221 
2368	 0.128112155741165 
2369	 0.128002006052306 
2370	 0.127911283922062 
2371	 0.127768120114471 
2372	 0.12764102869693 
2373	 0.127468747393468 
2374	 0.127267893220825 
2375	 0.127078057984023 
2376	 0.126829952670016 
2377	 0.126604965375402 
2378	 0.126415457686945 
2379	 0.126158893547328 
2380	 0.125871585895759 
2381	 0.125601744463917 
2382	 0.125301590865115 
2383	 0.124951726868701 
2384	 0.124642340815163 
2385	 0.124356612439093 
2386	 0.12401307405552 
2387	 0.123645247705843 
2388	 0.123257629000778 
2389	 0.122828670254251 
2390	 0.122389677596752 
2391	 0.121965975379192 
2392	 0.121509369771225 
2393	 0.120994798864564 
2394	 0.120537826787448 
2395	 0.120066507505328 
2396	 0.11959705227605 
2397	 0.119176922158955 
2398	 0.118704668481771 
2399	 0.11817834966278 
2400	 0.117747378562982 
2401	 0.117348005357514 
2402	 0.116921694047539 
2403	 0.11654921090412 
2404	 0.116187439189409 
2405	 0.115800736789414 
2406	 0.115481561865667 
2407	 0.115225657411878 
2408	 0.114964713313795 
2409	 0.114739297569221 
2410	 0.114461137689412 
2411	 0.114182680372525 
2412	 0.114004435283364 
2413	 0.113798678844471 
2414	 0.113666782909214 
2415	 0.113523003380795 
2416	 0.113203931853386 
2417	 0.112897761491347 
2418	 0.112656028927955 
2419	 0.112464266803835 
2420	 0.112386390140502 
2421	 0.112323370447346 
2422	 0.112277110208588 
2423	 0.112283787826498 
2424	 0.112248100793212 
2425	 0.112292043559015 
2426	 0.112276146372217 
2427	 0.112200445194252 
2428	 0.112282564518834 
2429	 0.112252101461899 
2430	 0.112183469111382 
2431	 0.112249916392531 
2432	 0.112247828894377 
2433	 0.11223905342466 
2434	 0.112299232769334 
2435	 0.112373095437286 
2436	 0.11242873526015 
2437	 0.112423222767382 
2438	 0.112514223759301 
2439	 0.112647157620801 
2440	 0.112664897795235 
2441	 0.112788397554481 
2442	 0.112943345838112 
2443	 0.112918741137556 
2444	 0.11298789727185 
2445	 0.113127698678346 
2446	 0.113192662946114 
2447	 0.113332259212204 
2448	 0.113444549460299 
2449	 0.113513253166459 
2450	 0.113582495684541 
2451	 0.113591918767546 
2452	 0.113617367675358 
2453	 0.113681581259145 
2454	 0.113695666750834 
2455	 0.113613568806212 
2456	 0.113507188328253 
2457	 0.113409944660898 
2458	 0.113231108599363 
2459	 0.113066259786689 
2460	 0.113005268874862 
2461	 0.112813326552169 
2462	 0.112629249364385 
2463	 0.112653591663832 
2464	 0.112571494247933 
2465	 0.112494622898352 
2466	 0.112504096075099 
2467	 0.112380870514469 
2468	 0.112282687073825 
2469	 0.112137177599166 
2470	 0.111984054104687 
2471	 0.111845585203399 
2472	 0.111610196717385 
2473	 0.111522101669897 
2474	 0.111504644416266 
2475	 0.111461489661404 
2476	 0.111535358030476 
2477	 0.11148809201817 
2478	 0.11120725107284 
2479	 0.111142264960338 
2480	 0.111063986873529 
2481	 0.111098773071866 
2482	 0.111427041148951 
2483	 0.111533964362102 
2484	 0.11163929868869 
2485	 0.111839619921284 
2486	 0.111983242250246 
2487	 0.112106165011243 
2488	 0.112307709977671 
2489	 0.112410885710493 
2490	 0.11239146004962 
2491	 0.112541726560001 
2492	 0.112863257509294 
2493	 0.11324766903643 
2494	 0.113652981684912 
2495	 0.113872259429087 
2496	 0.113972781061157 
2497	 0.114123749828499 
2498	 0.114230910269361 
2499	 0.1143686835189 
2500	 0.114659821213646 
