Wavelength	spectrum00005.asd
350	 3.45268600601762E-02 
351	 3.23316340371674E-02 
352	 3.02459672118729E-02 
353	 2.98460000841387E-02 
354	 2.93235363049153E-02 
355	 2.97548899143148E-02 
356	 0.029987095907583 
357	 2.89384007261544E-02 
358	 0.026965934291517 
359	 2.48609927780275E-02 
360	 2.40651451679784E-02 
361	 2.56374010494716E-02 
362	 2.58200372219657E-02 
363	 2.47650095542912E-02 
364	 2.34004614063271E-02 
365	 2.30381029655433E-02 
366	 2.32165410176493E-02 
367	 2.30739065562038E-02 
368	 0.022334392240387 
369	 2.29096508378824E-02 
370	 2.36791741986849E-02 
371	 2.40535389574781E-02 
372	 2.38473730136019E-02 
373	 2.33923939533287E-02 
374	 2.26961243613604E-02 
375	 2.21646086659417E-02 
376	 2.28384393454085E-02 
377	 2.24063591228371E-02 
378	 0.0217757649999 
379	 2.20464018108251E-02 
380	 2.17618050807703E-02 
381	 2.25167345980433E-02 
382	 2.31865562318843E-02 
383	 2.15670339267942E-02 
384	 2.18561676878442E-02 
385	 0.0227707707202 
386	 2.29594912880549E-02 
387	 0.021951284346993 
388	 2.14446610668673E-02 
389	 2.15289068724748E-02 
390	 2.17230806401812E-02 
391	 2.12861668807426E-02 
392	 2.16100554221032E-02 
393	 2.21396430996443E-02 
394	 2.13097818731568E-02 
395	 0.021540089244107 
396	 2.20405747523809E-02 
397	 2.22196543515921E-02 
398	 2.25432139507844E-02 
399	 2.24446935383868E-02 
400	 0.022320737538412 
401	 2.25744375405164E-02 
402	 2.23467766033867E-02 
403	 2.27529038125269E-02 
404	 2.33868631991504E-02 
405	 2.28873139422717E-02 
406	 2.36498081231789E-02 
407	 2.42807521691425E-02 
408	 2.40990436986872E-02 
409	 0.024909779629277 
410	 2.53005485464063E-02 
411	 2.54593856240914E-02 
412	 2.59917095039473E-02 
413	 2.69161943868536E-02 
414	 0.027390235851835 
415	 0.027529574456925 
416	 0.028286775012894 
417	 2.90761076181684E-02 
418	 2.98219140675711E-02 
419	 3.05922704354151E-02 
420	 3.16212891825461E-02 
421	 3.23666308498246E-02 
422	 3.31862191538796E-02 
423	 3.46037519351397E-02 
424	 3.56259289372971E-02 
425	 3.66336344367744E-02 
426	 3.77988479310265E-02 
427	 3.89295577111762E-02 
428	 4.01440847651181E-02 
429	 4.14353930959799E-02 
430	 4.27756486663434E-02 
431	 4.41522752916486E-02 
432	 4.57226924393634E-02 
433	 4.73508050981853E-02 
434	 4.87895101157837E-02 
435	 5.03665188816319E-02 
436	 0.052089954471407 
437	 5.38868266656602E-02 
438	 5.56106124958459E-02 
439	 5.74338857744652E-02 
440	 0.059357157370253 
441	 6.13351341887503E-02 
442	 6.33631202615824E-02 
443	 6.54862396005372E-02 
444	 6.75929732878278E-02 
445	 6.94907217608154E-02 
446	 7.16552541747667E-02 
447	 7.38720316497001E-02 
448	 7.60151694917225E-02 
449	 0.078406697725857 
450	 8.08987066753112E-02 
451	 8.33506719541065E-02 
452	 8.56730535469932E-02 
453	 8.80564514382136E-02 
454	 9.07042320719496E-02 
455	 9.34613469553106E-02 
456	 9.58164938407872E-02 
457	 9.85508495367084E-02 
458	 0.101262694168257 
459	 0.103650105785272 
460	 0.106510833605762 
461	 0.109325563081889 
462	 0.112014154059851 
463	 0.114749616540111 
464	 0.117553924342771 
465	 0.120446826218364 
466	 0.123389231463679 
467	 0.126267458913834 
468	 0.129045550350308 
469	 0.131835260692549 
470	 0.134763550634587 
471	 0.137805651846516 
472	 0.140711434471672 
473	 0.143535358768901 
474	 0.146550849655129 
475	 0.149388960208276 
476	 0.152292246927352 
477	 0.155375965073536 
478	 0.158266864938776 
479	 0.161058276117454 
480	 0.163947818367741 
481	 0.167078207381314 
482	 0.169926270771104 
483	 0.172781449895545 
484	 0.175757442517277 
485	 0.178691235489204 
486	 0.181505025586371 
487	 0.184245172039223 
488	 0.186986696879127 
489	 0.189768058177358 
490	 0.192651479698619 
491	 0.195567190598907 
492	 0.198369360183359 
493	 0.200999955546816 
494	 0.203579428995362 
495	 0.206215347237556 
496	 0.208964801478242 
497	 0.211532856859154 
498	 0.214010229749546 
499	 0.216556527890952 
500	 0.219047531367046 
501	 0.221502374034694 
502	 0.223921811141599 
503	 0.226292426045086 
504	 0.228686000870965 
505	 0.230950927901918 
506	 0.2330524502254 
507	 0.235342156037885 
508	 0.23749293486079 
509	 0.23950617685118 
510	 0.241517610582003 
511	 0.243509362635388 
512	 0.245444122213808 
513	 0.24730932031105 
514	 0.249135650543642 
515	 0.250799357301088 
516	 0.25238428643043 
517	 0.253989464056884 
518	 0.255575554180259 
519	 0.257004595194549 
520	 0.258308734162703 
521	 0.25962634963016 
522	 0.260854161968184 
523	 0.26201154692526 
524	 0.263101758757463 
525	 0.264063708066945 
526	 0.264955347486804 
527	 0.265777571790733 
528	 0.266516808029464 
529	 0.267204011075994 
530	 0.267778945955994 
531	 0.26824209410639 
532	 0.268660405028251 
533	 0.268907281585833 
534	 0.269054148353974 
535	 0.269177398995238 
536	 0.269250480553802 
537	 0.269174796161582 
538	 0.268950957078773 
539	 0.268640287442246 
540	 0.268271330553332 
541	 0.267862002764053 
542	 0.267383794095249 
543	 0.266734522777624 
544	 0.266078383419656 
545	 0.265340700892461 
546	 0.264430504652256 
547	 0.263531206917451 
548	 0.262552312462874 
549	 0.261492303908971 
550	 0.260438253422275 
551	 0.259415445279286 
552	 0.258392204272034 
553	 0.257316815999657 
554	 0.256126059129527 
555	 0.254837397330544 
556	 0.253483994523678 
557	 0.252111405436843 
558	 0.250766448400566 
559	 0.249374929137443 
560	 0.247911751430278 
561	 0.246432719762588 
562	 0.244959149771286 
563	 0.243523080125361 
564	 0.24210198764769 
565	 0.240481488719506 
566	 0.238780368563529 
567	 0.237046981922589 
568	 0.235272753977039 
569	 0.233433102390767 
570	 0.231604992601238 
571	 0.229888467821215 
572	 0.228395725104996 
573	 0.227117551986248 
574	 0.22591123266801 
575	 0.22459225278998 
576	 0.223146146803841 
577	 0.221614190489602 
578	 0.220037734140474 
579	 0.218450618655453 
580	 0.216852424122111 
581	 0.215208794901385 
582	 0.21351040398074 
583	 0.211855700290519 
584	 0.210191264302003 
585	 0.208534922121825 
586	 0.206934083656836 
587	 0.205305140886299 
588	 0.20365353567437 
589	 0.202003523155851 
590	 0.200392139563328 
591	 0.198833894800162 
592	 0.19737575752866 
593	 0.196043940209242 
594	 0.194755192510275 
595	 0.193489766036389 
596	 0.192231057918356 
597	 0.190961544588995 
598	 0.189618654421632 
599	 0.188242410018285 
600	 0.186868509534921 
601	 0.185470415007105 
602	 0.184116462435691 
603	 0.182770126319291 
604	 0.181369587992592 
605	 0.180006923065626 
606	 0.178695612185229 
607	 0.17743508856687 
608	 0.176217071903135 
609	 0.174966058345399 
610	 0.173761513772353 
611	 0.17266170121404 
612	 0.171536204412445 
613	 0.170404010065937 
614	 0.169291187615437 
615	 0.168220904785538 
616	 0.167153295877729 
617	 0.16611407350168 
618	 0.165115733705102 
619	 0.164130822658107 
620	 0.163123647648802 
621	 0.162163473574256 
622	 0.161304256458986 
623	 0.160348449172713 
624	 0.159407815242744 
625	 0.15852771041356 
626	 0.157677412922214 
627	 0.156854380589486 
628	 0.156045792901108 
629	 0.155242574954117 
630	 0.154447362701358 
631	 0.153656380896077 
632	 0.152905084262394 
633	 0.152222136783131 
634	 0.151453080545562 
635	 0.15072943631155 
636	 0.150084725530194 
637	 0.149405128643579 
638	 0.148751660058374 
639	 0.148115617815812 
640	 0.147481348879337 
641	 0.146858094729172 
642	 0.14627184389355 
643	 0.14570514533452 
644	 0.145121623616999 
645	 0.144589586868491 
646	 0.144067085473803 
647	 0.143538957490208 
648	 0.143057375429053 
649	 0.142563265781434 
650	 0.142055838697433 
651	 0.141561721233373 
652	 0.141141889806185 
653	 0.14070996064788 
654	 0.140265936839996 
655	 0.139877655949286 
656	 0.139489574349458 
657	 0.139085709988761 
658	 0.138678817248472 
659	 0.138327469622986 
660	 0.13800411506474 
661	 0.137681147365582 
662	 0.137340783383575 
663	 0.13702573629945 
664	 0.136700672150995 
665	 0.136379320577516 
666	 0.136123899009433 
667	 0.135860353730782 
668	 0.135591750331368 
669	 0.135336990137922 
670	 0.135116652115893 
671	 0.134876925051105 
672	 0.134627821102335 
673	 0.134409469996545 
674	 0.134244348890408 
675	 0.134076905285609 
676	 0.133883783457439 
677	 0.133688844720123 
678	 0.133503419174154 
679	 0.133345534721943 
680	 0.133223481714605 
681	 0.133123996743975 
682	 0.132986659061872 
683	 0.132830937158204 
684	 0.132714782701892 
685	 0.132606015901697 
686	 0.132506749400415 
687	 0.1324207928332 
688	 0.132350017761499 
689	 0.132274665925116 
690	 0.132204804221145 
691	 0.1321560374776 
692	 0.132137945714629 
693	 0.132095692796094 
694	 0.132049796897211 
695	 0.132056960452911 
696	 0.132024277077427 
697	 0.131992967673629 
698	 0.131988551421044 
699	 0.131985717530245 
700	 0.132010554118956 
701	 0.132021941574626 
702	 0.131999435713193 
703	 0.132072680655815 
704	 0.13215860656919 
705	 0.132205821424305 
706	 0.132202325480379 
707	 0.132256562709889 
708	 0.132335135369152 
709	 0.132407734622675 
710	 0.132482066748165 
711	 0.132590978189774 
712	 0.13270473294924 
713	 0.132789437436996 
714	 0.132872223162387 
715	 0.132989744505598 
716	 0.133125358387345 
717	 0.133228249343617 
718	 0.13332163979094 
719	 0.133452186998241 
720	 0.133628902227213 
721	 0.13379404842207 
722	 0.133945606069443 
723	 0.134102687709122 
724	 0.1342753830695 
725	 0.134400200859401 
726	 0.134557418758813 
727	 0.13475434327426 
728	 0.134946491495976 
729	 0.135161317404703 
730	 0.135369154168492 
731	 0.135559645864256 
732	 0.135766114823768 
733	 0.135947057232015 
734	 0.136157130930938 
735	 0.136432013902275 
736	 0.136626138220352 
737	 0.136849479969549 
738	 0.137118543898094 
739	 0.137381506296706 
740	 0.137601604452951 
741	 0.137841735792997 
742	 0.138129350849221 
743	 0.138422015679319 
744	 0.138662646264507 
745	 0.138890604493827 
746	 0.139156392021661 
747	 0.139447438450104 
748	 0.139738586173564 
749	 0.140025986793895 
750	 0.140319698117249 
751	 0.140625277454709 
752	 0.140929727279136 
753	 0.141240393190011 
754	 0.141591833609287 
755	 0.141949327412737 
756	 0.142281887475977 
757	 0.142582881078642 
758	 0.142903377575301 
759	 0.143249483134295 
760	 0.14360860501059 
761	 0.143963310314165 
762	 0.144341461624504 
763	 0.144701521688495 
764	 0.145046489991925 
765	 0.14542910213976 
766	 0.145788011949676 
767	 0.146175707948277 
768	 0.146615319962221 
769	 0.147015806899848 
770	 0.147391474237201 
771	 0.147769237866932 
772	 0.148174122632608 
773	 0.148584167055901 
774	 0.148981618216762 
775	 0.149381104145211 
776	 0.149816359410557 
777	 0.15021543799503 
778	 0.150624304744695 
779	 0.151075049712479 
780	 0.151546739762624 
781	 0.152011344456012 
782	 0.15244680323046 
783	 0.152859508129996 
784	 0.153337530386938 
785	 0.153813429833032 
786	 0.154283484723385 
787	 0.154771554365848 
788	 0.155208000299936 
789	 0.155645345386643 
790	 0.156110878777501 
791	 0.156588321416597 
792	 0.157080719043788 
793	 0.157569473674429 
794	 0.158049872021318 
795	 0.158561586310446 
796	 0.159052960243135 
797	 0.159555409000989 
798	 0.160106763207616 
799	 0.160624673224679 
800	 0.161104379502193 
801	 0.161578501962146 
802	 0.162099204290189 
803	 0.162627269540386 
804	 0.16316779832707 
805	 0.163717526108428 
806	 0.164253630810298 
807	 0.164794542259449 
808	 0.165313809152184 
809	 0.165805401758174 
810	 0.166350268650888 
811	 0.16693129264701 
812	 0.167495786508979 
813	 0.168004244647253 
814	 0.168584500624309 
815	 0.169176629303115 
816	 0.169743933120062 
817	 0.170284694229282 
818	 0.170833342344166 
819	 0.171370926849536 
820	 0.171904481806461 
821	 0.17249565653778 
822	 0.173059846962075 
823	 0.173628048456805 
824	 0.174232064079146 
825	 0.174805458091199 
826	 0.17538978904237 
827	 0.175972402301704 
828	 0.176531465328921 
829	 0.177143819894946 
830	 0.177759739803617 
831	 0.178340825630979 
832	 0.178875180978189 
833	 0.179430005072633 
834	 0.180015634065211 
835	 0.180619108782304 
836	 0.181208732586064 
837	 0.181826145635325 
838	 0.182456995284808 
839	 0.183077539170838 
840	 0.183681737300889 
841	 0.184258061387839 
842	 0.184855301113615 
843	 0.185518262211621 
844	 0.186146198627774 
845	 0.186772502889261 
846	 0.187392045872447 
847	 0.187977702705838 
848	 0.188599789923806 
849	 0.189240892099575 
850	 0.189879090096288 
851	 0.190501955350615 
852	 0.191181222255569 
853	 0.191835774549817 
854	 0.19243495552875 
855	 0.193125431469909 
856	 0.193776074638953 
857	 0.194407406474901 
858	 0.195061222171758 
859	 0.195673601183529 
860	 0.196312394300317 
861	 0.196980589187708 
862	 0.197647733729507 
863	 0.19831990990037 
864	 0.19900148258753 
865	 0.199666929018452 
866	 0.200278668780198 
867	 0.200925169140336 
868	 0.201596929583832 
869	 0.202271318338854 
870	 0.202930095498385 
871	 0.203612800027928 
872	 0.20428414690443 
873	 0.204935520087389 
874	 0.205655603508916 
875	 0.206361358101748 
876	 0.207042543966695 
877	 0.207719685165625 
878	 0.208425966711756 
879	 0.209139763521514 
880	 0.209831248093229 
881	 0.210485620416924 
882	 0.211177970342978 
883	 0.211903522750565 
884	 0.212640127025855 
885	 0.213359974395701 
886	 0.214070918872366 
887	 0.214743237530586 
888	 0.215403752773163 
889	 0.2161359224724 
890	 0.216827142686908 
891	 0.217523406379131 
892	 0.218262774348049 
893	 0.219019833989699 
894	 0.219730904949335 
895	 0.220446566655673 
896	 0.221202406376068 
897	 0.221903624233968 
898	 0.222704264543852 
899	 0.223512765010631 
900	 0.224221313746561 
901	 0.224996280538261 
902	 0.225776637497735 
903	 0.22654943474348 
904	 0.227321500929444 
905	 0.228063719961143 
906	 0.228823860338056 
907	 0.229606836517258 
908	 0.230383607320634 
909	 0.231135000229643 
910	 0.231934259210445 
911	 0.232780192689188 
912	 0.233593398358262 
913	 0.234396521708738 
914	 0.235183341763143 
915	 0.235973913005868 
916	 0.236823624194161 
917	 0.237680966176533 
918	 0.238539258199967 
919	 0.239395530785598 
920	 0.240236765182153 
921	 0.241077855262962 
922	 0.241917545568188 
923	 0.242757484467083 
924	 0.243621044374311 
925	 0.244448652218355 
926	 0.245282915710818 
927	 0.246168771036879 
928	 0.247038030360306 
929	 0.247926811769625 
930	 0.248818929880841 
931	 0.249685052464538 
932	 0.250530382814931 
933	 0.251480700758921 
934	 0.252465621309671 
935	 0.253342063593466 
936	 0.254211354465717 
937	 0.255104408528423 
938	 0.256026543294479 
939	 0.25696297913136 
940	 0.257894421848731 
941	 0.258823759499357 
942	 0.259747935078205 
943	 0.260658212235859 
944	 0.261537525674916 
945	 0.262476077173549 
946	 0.263449068680296 
947	 0.264316352483002 
948	 0.265183339300205 
949	 0.26607520372551 
950	 0.267020787155981 
951	 0.268051425727962 
952	 0.26896632869781 
953	 0.26988821514507 
954	 0.270850907491367 
955	 0.271681563378725 
956	 0.272563507618484 
957	 0.273507844228897 
958	 0.274473968917298 
959	 0.275401916375313 
960	 0.2763406279417 
961	 0.277277497271989 
962	 0.278212567673958 
963	 0.279195749169522 
964	 0.280124625063772 
965	 0.281039500896798 
966	 0.281987949187406 
967	 0.282943212389788 
968	 0.283949901900749 
969	 0.284894663741401 
970	 0.285734897446624 
971	 0.286710794561549 
972	 0.287706827601909 
973	 0.288646308766288 
974	 0.289519031080681 
975	 0.290458748693584 
976	 0.291412625141089 
977	 0.292412847015628 
978	 0.293443251238283 
979	 0.294264949990694 
980	 0.295171139099033 
981	 0.296159567791012 
982	 0.297111670081577 
983	 0.297874487756527 
984	 0.298938847856365 
985	 0.300082163802442 
986	 0.300977084723614 
987	 0.301862212614962 
988	 0.302830902607679 
989	 0.303858637377016 
990	 0.304866029800484 
991	 0.305788719644583 
992	 0.306678299205848 
993	 0.307683835338902 
994	 0.308842807966065 
995	 0.30972258035211 
996	 0.310719578776544 
997	 0.31176591034207 
998	 0.312722706813707 
999	 0.313807192043997 
1000	 0.314994266458745 
1001	 0.321422263548141 
1002	 0.322556797297263 
1003	 0.32374493667321 
1004	 0.324836538740423 
1005	 0.325879663306624 
1006	 0.326938281451272 
1007	 0.327928215465295 
1008	 0.329009662984225 
1009	 0.330142497651469 
1010	 0.33124698627693 
1011	 0.332395187288808 
1012	 0.333506936671068 
1013	 0.334575384121859 
1014	 0.335660249113183 
1015	 0.336728364142757 
1016	 0.337822196486456 
1017	 0.338985670230779 
1018	 0.340093386615197 
1019	 0.341230824140781 
1020	 0.34241906504334 
1021	 0.343518248699761 
1022	 0.344531683721303 
1023	 0.345632608162172 
1024	 0.346731934770723 
1025	 0.347842833182978 
1026	 0.34899401957876 
1027	 0.350135118436751 
1028	 0.35128687195873 
1029	 0.352435731497801 
1030	 0.353501561153562 
1031	 0.354638904091369 
1032	 0.355737184588297 
1033	 0.356750009812709 
1034	 0.357918641578067 
1035	 0.35908870571033 
1036	 0.360220594267323 
1037	 0.361394585824857 
1038	 0.362519763777873 
1039	 0.363562500110868 
1040	 0.364667371276833 
1041	 0.365786787607832 
1042	 0.366916595303395 
1043	 0.368075595053929 
1044	 0.369218166927024 
1045	 0.370351569568938 
1046	 0.371482601568594 
1047	 0.372575063075053 
1048	 0.373686032009567 
1049	 0.374790426247465 
1050	 0.375890052288824 
1051	 0.377045710701252 
1052	 0.37816010162478 
1053	 0.379280006717258 
1054	 0.380451445200904 
1055	 0.381548328155324 
1056	 0.382584285109071 
1057	 0.383650241403517 
1058	 0.384691574870014 
1059	 0.38572203465424 
1060	 0.386848184904117 
1061	 0.387894986987747 
1062	 0.388937595542545 
1063	 0.390001051187026 
1064	 0.390949224670882 
1065	 0.39195258694381 
1066	 0.392999950614416 
1067	 0.39402021697068 
1068	 0.395122272420504 
1069	 0.396210938433023 
1070	 0.397273346146368 
1071	 0.398332235603845 
1072	 0.399380851638596 
1073	 0.400356535752458 
1074	 0.401352310611113 
1075	 0.402330052763769 
1076	 0.403321975768074 
1077	 0.404366087610063 
1078	 0.405344439105896 
1079	 0.406376732017383 
1080	 0.407414135896933 
1081	 0.408369885539416 
1082	 0.409392338507504 
1083	 0.410369215421902 
1084	 0.411315693350716 
1085	 0.412325929216606 
1086	 0.413284901690891 
1087	 0.414201718706435 
1088	 0.415156993724682 
1089	 0.41615405067974 
1090	 0.417097038824655 
1091	 0.418070219704975 
1092	 0.419001497675405 
1093	 0.419875860947244 
1094	 0.420794336508218 
1095	 0.421705903224598 
1096	 0.422662006404563 
1097	 0.423648473432623 
1098	 0.42456199971523 
1099	 0.425489951566981 
1100	 0.42639662816832 
1101	 0.427295326481678 
1102	 0.428238001052946 
1103	 0.429150109430796 
1104	 0.430043444046104 
1105	 0.43097620141207 
1106	 0.431902796952904 
1107	 0.432773930299877 
1108	 0.433688449123037 
1109	 0.434582080404169 
1110	 0.435467794931576 
1111	 0.436383883104148 
1112	 0.437245420617196 
1113	 0.438123153426514 
1114	 0.439016617031181 
1115	 0.439855071863992 
1116	 0.440728541834421 
1117	 0.441582117830973 
1118	 0.442416716340727 
1119	 0.443227148149447 
1120	 0.444052162637095 
1121	 0.444864318212732 
1122	 0.445694338555605 
1123	 0.446540865568092 
1124	 0.447308678554403 
1125	 0.448074477827638 
1126	 0.448809590818205 
1127	 0.449489488665375 
1128	 0.450189604698553 
1129	 0.450865520323846 
1130	 0.451536110057688 
1131	 0.452199998754971 
1132	 0.45280284843708 
1133	 0.453385363247919 
1134	 0.453932423413105 
1135	 0.45447179879108 
1136	 0.454994994186611 
1137	 0.45549917859997 
1138	 0.456002683254293 
1139	 0.456466049793914 
1140	 0.456902705963068 
1141	 0.457294144271341 
1142	 0.457676984136067 
1143	 0.458025696621009 
1144	 0.458347892820358 
1145	 0.458671905694808 
1146	 0.458967220030853 
1147	 0.459250023778434 
1148	 0.459519367641635 
1149	 0.459756520721058 
1150	 0.459971107993495 
1151	 0.460150545715378 
1152	 0.460308974122908 
1153	 0.460449045824379 
1154	 0.46054452324171 
1155	 0.460618045899809 
1156	 0.460649220571123 
1157	 0.460640581715108 
1158	 0.460593495560253 
1159	 0.460509714648542 
1160	 0.460394614345434 
1161	 0.460224517555154 
1162	 0.460019616260647 
1163	 0.459827757118828 
1164	 0.459576814713206 
1165	 0.459302864544768 
1166	 0.459057513259665 
1167	 0.458760116218619 
1168	 0.458459715701958 
1169	 0.458161965013583 
1170	 0.457855842092159 
1171	 0.4575537001387 
1172	 0.45724203280291 
1173	 0.456953031822725 
1174	 0.456669805287688 
1175	 0.456408499043517 
1176	 0.456153619140881 
1177	 0.455930455114799 
1178	 0.455722588610286 
1179	 0.455544998923211 
1180	 0.455401353137878 
1181	 0.455295651440795 
1182	 0.455250781637212 
1183	 0.455256101388521 
1184	 0.455314750364386 
1185	 0.455430932017374 
1186	 0.45560342878343 
1187	 0.455832087332597 
1188	 0.456107355883711 
1189	 0.45645333434732 
1190	 0.4568152557336 
1191	 0.457220625886075 
1192	 0.457639223515957 
1193	 0.458086723939262 
1194	 0.458554019262116 
1195	 0.459055120418255 
1196	 0.459564799664246 
1197	 0.460083970592602 
1198	 0.460642277834593 
1199	 0.461203827077066 
1200	 0.461738834081645 
1201	 0.462316827048392 
1202	 0.462884623990331 
1203	 0.463472134420749 
1204	 0.464138637534893 
1205	 0.46484216814065 
1206	 0.465560429804649 
1207	 0.466400683885904 
1208	 0.467304247296436 
1209	 0.468292181985135 
1210	 0.46936268750314 
1211	 0.470532071042604 
1212	 0.47182231918435 
1213	 0.473136287169696 
1214	 0.4745568976052 
1215	 0.475985745153226 
1216	 0.47745075407035 
1217	 0.478916132326472 
1218	 0.480436427263125 
1219	 0.481945457621979 
1220	 0.483406892121848 
1221	 0.484925613592455 
1222	 0.486346784035419 
1223	 0.487781254368895 
1224	 0.489180953198328 
1225	 0.490546801428435 
1226	 0.491876194600587 
1227	 0.493191265327291 
1228	 0.494459594898174 
1229	 0.49569156533849 
1230	 0.496887078560733 
1231	 0.498047240711569 
1232	 0.499181011255849 
1233	 0.500250113509799 
1234	 0.501322625765046 
1235	 0.50237970829275 
1236	 0.503422084327907 
1237	 0.504462013350198 
1238	 0.505475365141523 
1239	 0.506454134212792 
1240	 0.50743358927456 
1241	 0.508430671995545 
1242	 0.509347914187484 
1243	 0.510275558479771 
1244	 0.511202462454776 
1245	 0.512094855554559 
1246	 0.512972139975573 
1247	 0.513801015655032 
1248	 0.514595750353427 
1249	 0.515375457151892 
1250	 0.516115589653569 
1251	 0.516832148222702 
1252	 0.517523878034144 
1253	 0.518215377255694 
1254	 0.518878560538957 
1255	 0.519538901414932 
1256	 0.520225411904824 
1257	 0.520859437875743 
1258	 0.521444076205704 
1259	 0.522029631985948 
1260	 0.522572636061948 
1261	 0.523137543270252 
1262	 0.523696813014569 
1263	 0.524290443490579 
1264	 0.524854052374561 
1265	 0.52541740586207 
1266	 0.525981453859831 
1267	 0.526533635885445 
1268	 0.527084636207165 
1269	 0.527647391851886 
1270	 0.528189169633198 
1271	 0.528719690904742 
1272	 0.529234846799013 
1273	 0.52973276716055 
1274	 0.530232713945515 
1275	 0.530715417287968 
1276	 0.531198711806722 
1277	 0.531692123127536 
1278	 0.532162518190276 
1279	 0.532615294525879 
1280	 0.533063762932812 
1281	 0.533495459455424 
1282	 0.533926291788312 
1283	 0.534363330043877 
1284	 0.534774884629737 
1285	 0.535171319591994 
1286	 0.53555398072311 
1287	 0.535930590752844 
1288	 0.536292102175471 
1289	 0.536637231781444 
1290	 0.536976785574484 
1291	 0.537296440772908 
1292	 0.537580203937091 
1293	 0.537884316210017 
1294	 0.538196884553275 
1295	 0.538485076049732 
1296	 0.538764304049346 
1297	 0.53903976929371 
1298	 0.539308174062337 
1299	 0.539554632795483 
1300	 0.539804876268007 
1301	 0.540021720721612 
1302	 0.540195756779676 
1303	 0.540374765824966 
1304	 0.540541008157899 
1305	 0.540700311217565 
1306	 0.540855447965522 
1307	 0.540999824592811 
1308	 0.541139724250788 
1309	 0.541263010250639 
1310	 0.541367551881496 
1311	 0.541460315931988 
1312	 0.541535618360892 
1313	 0.541589992941123 
1314	 0.541634966403717 
1315	 0.541664745051 
1316	 0.541691465980212 
1317	 0.541709322140647 
1318	 0.54171291086482 
1319	 0.541718209522549 
1320	 0.541692292000676 
1321	 0.541652497268424 
1322	 0.541580650153639 
1323	 0.541480313374211 
1324	 0.541366234576721 
1325	 0.541224558561503 
1326	 0.541072307850279 
1327	 0.540916692956774 
1328	 0.540728903244655 
1329	 0.540524274582537 
1330	 0.540289950244104 
1331	 0.540031569662739 
1332	 0.539744222863643 
1333	 0.539445582124146 
1334	 0.539088361988735 
1335	 0.538720593375459 
1336	 0.538341214555576 
1337	 0.537883725189695 
1338	 0.537386157634577 
1339	 0.536847443360358 
1340	 0.536260103601443 
1341	 0.535614187257352 
1342	 0.53494310035712 
1343	 0.534187647346182 
1344	 0.533352482441757 
1345	 0.53247745245086 
1346	 0.531531451257793 
1347	 0.530579112718332 
1348	 0.529576275435804 
1349	 0.528567816578317 
1350	 0.527517997728563 
1351	 0.526494994077428 
1352	 0.525459725466846 
1353	 0.524433885804411 
1354	 0.523406198053909 
1355	 0.522414872073767 
1356	 0.521431859465968 
1357	 0.520468362535793 
1358	 0.519543396771865 
1359	 0.51862185829983 
1360	 0.51772908620495 
1361	 0.516809024843505 
1362	 0.51587505775839 
1363	 0.514990104459656 
1364	 0.514065814603513 
1365	 0.513136221708977 
1366	 0.512167567765993 
1367	 0.511183019271595 
1368	 0.510180425313702 
1369	 0.509136354101723 
1370	 0.508104579520156 
1371	 0.507068612311102 
1372	 0.506039633392821 
1373	 0.504999074915881 
1374	 0.503970393327184 
1375	 0.502931504780296 
1376	 0.501923930881312 
1377	 0.500924447943573 
1378	 0.499936160029736 
1379	 0.498975974531368 
1380	 0.498014949079664 
1381	 0.497051992224048 
1382	 0.496102297891682 
1383	 0.49515373113957 
1384	 0.494233304423109 
1385	 0.493321685498038 
1386	 0.49244522457852 
1387	 0.491588904429017 
1388	 0.490782169877085 
1389	 0.490019237363043 
1390	 0.489275881246415 
1391	 0.488601264022041 
1392	 0.487896648145347 
1393	 0.48724678473933 
1394	 0.48654432840549 
1395	 0.485723513733201 
1396	 0.484902025848143 
1397	 0.483852211903371 
1398	 0.482691594670053 
1399	 0.48130759810286 
1400	 0.479747780521476 
1401	 0.47802838771385 
1402	 0.476122500244792 
1403	 0.474058666900433 
1404	 0.471813858513152 
1405	 0.469494047680679 
1406	 0.467008889230275 
1407	 0.464448056841827 
1408	 0.461767711048512 
1409	 0.459043185244882 
1410	 0.456197578102777 
1411	 0.453330285128523 
1412	 0.450400524960997 
1413	 0.447490565129493 
1414	 0.444528224522008 
1415	 0.441575823201413 
1416	 0.438587073363275 
1417	 0.435658418000008 
1418	 0.432717899969843 
1419	 0.429834328705422 
1420	 0.426970040622762 
1421	 0.424231693546838 
1422	 0.421554333591455 
1423	 0.418951398093736 
1424	 0.416534012686309 
1425	 0.414029795596654 
1426	 0.411675993181279 
1427	 0.409284932844423 
1428	 0.406823069202403 
1429	 0.404495182630906 
1430	 0.40197620021404 
1431	 0.399428580825645 
1432	 0.396635257158125 
1433	 0.393719820911041 
1434	 0.390622137222397 
1435	 0.387300303646527 
1436	 0.383897288370605 
1437	 0.380290153115806 
1438	 0.376808595107974 
1439	 0.373096972025613 
1440	 0.369784304800787 
1441	 0.366420244336957 
1442	 0.363693932756225 
1443	 0.361116262562399 
1444	 0.359351683838365 
1445	 0.358100503802253 
1446	 0.357573751503119 
1447	 0.357744219442629 
1448	 0.358461512215656 
1449	 0.360030625854033 
1450	 0.361764842015687 
1451	 0.364169187028234 
1452	 0.366542207940792 
1453	 0.369332930860459 
1454	 0.37190200599802 
1455	 0.374594805727615 
1456	 0.377099310082292 
1457	 0.379537230518768 
1458	 0.381786615128539 
1459	 0.383899353596517 
1460	 0.385877376794216 
1461	 0.387642976937587 
1462	 0.38932449935788 
1463	 0.390877069708755 
1464	 0.392362701706165 
1465	 0.393706307312695 
1466	 0.395046556293783 
1467	 0.396273499517427 
1468	 0.397462737199859 
1469	 0.398642754929239 
1470	 0.399699506444722 
1471	 0.4007652457026 
1472	 0.401817387743092 
1473	 0.402792347831984 
1474	 0.403738922719009 
1475	 0.404562367283388 
1476	 0.405330876618395 
1477	 0.40595282832667 
1478	 0.406475021531626 
1479	 0.406839036243996 
1480	 0.407074106707952 
1481	 0.407181411882131 
1482	 0.407093433887866 
1483	 0.407013093738096 
1484	 0.406777031616609 
1485	 0.406649957117144 
1486	 0.406444462584952 
1487	 0.406436753601123 
1488	 0.406436304264125 
1489	 0.40671173650435 
1490	 0.407128311983387 
1491	 0.40779624684309 
1492	 0.408688980026981 
1493	 0.409791088797267 
1494	 0.411165335268121 
1495	 0.412631654287954 
1496	 0.414321104860221 
1497	 0.416074798071518 
1498	 0.418020410576098 
1499	 0.419924722069396 
1500	 0.421960861553803 
1501	 0.423905759559123 
1502	 0.42586520325125 
1503	 0.42770075727422 
1504	 0.42950632454923 
1505	 0.431184464888452 
1506	 0.43278525841139 
1507	 0.434226754618942 
1508	 0.435529150900871 
1509	 0.436732121141555 
1510	 0.437774707752453 
1511	 0.438732192439978 
1512	 0.439585830401445 
1513	 0.44036427609817 
1514	 0.441038146839984 
1515	 0.441634200963174 
1516	 0.442147588483958 
1517	 0.442591088546075 
1518	 0.442926923305447 
1519	 0.443220219596624 
1520	 0.443447275720812 
1521	 0.443631898710983 
1522	 0.443759684808227 
1523	 0.443838813985805 
1524	 0.443873477347735 
1525	 0.443852847645818 
1526	 0.443811589307625 
1527	 0.443720604093824 
1528	 0.443632012827404 
1529	 0.4435129856173 
1530	 0.443406413024419 
1531	 0.443274565912142 
1532	 0.44319710841927 
1533	 0.443115553894222 
1534	 0.44311719903619 
1535	 0.443148451805894 
1536	 0.443283014551886 
1537	 0.443469657832607 
1538	 0.443781535839336 
1539	 0.444187676831943 
1540	 0.444697913055638 
1541	 0.445307038457545 
1542	 0.446033014052967 
1543	 0.446876648442775 
1544	 0.447795639884398 
1545	 0.448832697332479 
1546	 0.449928726885741 
1547	 0.451136974748948 
1548	 0.452331672878622 
1549	 0.453596246832286 
1550	 0.454859454106706 
1551	 0.456146180234189 
1552	 0.457412918337913 
1553	 0.458718478993292 
1554	 0.459972898806349 
1555	 0.461191932310282 
1556	 0.462400471703951 
1557	 0.463597353539539 
1558	 0.464770603405324 
1559	 0.465932820216505 
1560	 0.467047388981074 
1561	 0.468121743791536 
1562	 0.469192167297254 
1563	 0.470232680355968 
1564	 0.471251886034424 
1565	 0.472262697805263 
1566	 0.473248773792671 
1567	 0.474202626546343 
1568	 0.475136568305572 
1569	 0.476067905529373 
1570	 0.476952068631026 
1571	 0.477793022707662 
1572	 0.478614013272411 
1573	 0.479382676710042 
1574	 0.480172247391425 
1575	 0.480953645058786 
1576	 0.481726146839123 
1577	 0.482511622392497 
1578	 0.483267235981272 
1579	 0.484005731642803 
1580	 0.484718008184415 
1581	 0.485395213595419 
1582	 0.486082324533967 
1583	 0.486749914941002 
1584	 0.487420608645852 
1585	 0.488103233641937 
1586	 0.488769672113705 
1587	 0.489411038610803 
1588	 0.490068847261378 
1589	 0.49073436068092 
1590	 0.491390961814939 
1591	 0.492057789009139 
1592	 0.49270917618667 
1593	 0.493332711156414 
1594	 0.493978603610564 
1595	 0.494637694646496 
1596	 0.495280825159151 
1597	 0.495933903723957 
1598	 0.49657060002002 
1599	 0.497189070607232 
1600	 0.497802635242225 
1601	 0.498415443592901 
1602	 0.499012242251224 
1603	 0.499605677307232 
1604	 0.500166904569614 
1605	 0.500693878345669 
1606	 0.501226656710018 
1607	 0.501756416602974 
1608	 0.502252817615344 
1609	 0.502745770599345 
1610	 0.503207024620989 
1611	 0.503625638315892 
1612	 0.504027664429617 
1613	 0.504417266423489 
1614	 0.504777902163828 
1615	 0.50510679501236 
1616	 0.505415996856577 
1617	 0.505717847674513 
1618	 0.505967712149336 
1619	 0.50617383175001 
1620	 0.506359485078031 
1621	 0.506496022272726 
1622	 0.506624190604269 
1623	 0.50672445787304 
1624	 0.506830860063572 
1625	 0.506911880194927 
1626	 0.507008645853784 
1627	 0.50713020938269 
1628	 0.507225330571442 
1629	 0.507303924861362 
1630	 0.507393677676181 
1631	 0.507452105614951 
1632	 0.507551785795569 
1633	 0.507684516436155 
1634	 0.507819652928619 
1635	 0.507970742296335 
1636	 0.50813596172688 
1637	 0.508322623436433 
1638	 0.508497169600072 
1639	 0.508695314063659 
1640	 0.508866722213424 
1641	 0.509040925530683 
1642	 0.509165664859182 
1643	 0.509277918261717 
1644	 0.509331718971638 
1645	 0.509345292617674 
1646	 0.50929383043506 
1647	 0.509194318062561 
1648	 0.509026226279355 
1649	 0.508795328177001 
1650	 0.508489489400099 
1651	 0.508114515848996 
1652	 0.507680916199405 
1653	 0.507193276279997 
1654	 0.506607503377799 
1655	 0.505971808645814 
1656	 0.505196961825705 
1657	 0.504326532558343 
1658	 0.503303583136759 
1659	 0.502166310644302 
1660	 0.500875618342485 
1661	 0.499424700632586 
1662	 0.497844654889363 
1663	 0.496099375290186 
1664	 0.494234600141372 
1665	 0.49226917684013 
1666	 0.490101410446567 
1667	 0.487781196775648 
1668	 0.485321283881978 
1669	 0.482709040265891 
1670	 0.479893139357578 
1671	 0.476885403522491 
1672	 0.473724870525406 
1673	 0.470350160139922 
1674	 0.466849457920552 
1675	 0.463186673692727 
1676	 0.459504019362053 
1677	 0.455651029233345 
1678	 0.451819455557345 
1679	 0.447895522877884 
1680	 0.444043167192693 
1681	 0.440169131604663 
1682	 0.436331081762089 
1683	 0.432552885853809 
1684	 0.428856134541524 
1685	 0.425172658297388 
1686	 0.421564785496414 
1687	 0.41800864765586 
1688	 0.414525668993484 
1689	 0.411075547404529 
1690	 0.407743870275796 
1691	 0.404548377079428 
1692	 0.401459386971037 
1693	 0.398478395489291 
1694	 0.395542831782664 
1695	 0.392692531135968 
1696	 0.38988360381895 
1697	 0.387127195422796 
1698	 0.384407474359288 
1699	 0.381792097252525 
1700	 0.379194094013678 
1701	 0.37660612342956 
1702	 0.374093415159736 
1703	 0.37160151967533 
1704	 0.369218956213974 
1705	 0.366896079039321 
1706	 0.364642476195997 
1707	 0.362595430869499 
1708	 0.360608720261057 
1709	 0.358720053321002 
1710	 0.356914916592198 
1711	 0.355083243325996 
1712	 0.353348293639657 
1713	 0.351605105951648 
1714	 0.349844895006209 
1715	 0.348228833144105 
1716	 0.346595805209667 
1717	 0.344997768887343 
1718	 0.343481971898985 
1719	 0.341942503266209 
1720	 0.340481671224927 
1721	 0.339114694071384 
1722	 0.337869833865178 
1723	 0.336824016431892 
1724	 0.335904877291175 
1725	 0.335125408168775 
1726	 0.334535697575132 
1727	 0.334122349156308 
1728	 0.33390237221382 
1729	 0.333859835110721 
1730	 0.334007345255075 
1731	 0.334282032338429 
1732	 0.334667121286702 
1733	 0.335113830175599 
1734	 0.335575381826641 
1735	 0.336018088309118 
1736	 0.336380786003704 
1737	 0.336663746318075 
1738	 0.336852000836646 
1739	 0.336949265401216 
1740	 0.336945414732839 
1741	 0.336891095438251 
1742	 0.336713240045521 
1743	 0.336558268730368 
1744	 0.336301371545221 
1745	 0.336170044881669 
1746	 0.336050536655085 
1747	 0.336063261208856 
1748	 0.336148334658825 
1749	 0.33638780252834 
1750	 0.336743035405311 
1751	 0.337243109369431 
1752	 0.337884502273788 
1753	 0.338674752695128 
1754	 0.339604655716143 
1755	 0.340645535471006 
1756	 0.341831280649511 
1757	 0.343142400008887 
1758	 0.34463943305368 
1759	 0.346204510146854 
1760	 0.34793700097835 
1761	 0.349817106322511 
1762	 0.351684363622894 
1763	 0.353730583512548 
1764	 0.355832774702348 
1765	 0.357938485457836 
1766	 0.360219789401784 
1767	 0.362430869206691 
1768	 0.364667194019806 
1769	 0.366922761916642 
1770	 0.368970213378796 
1771	 0.3710196526354 
1772	 0.372969301312152 
1773	 0.374777993432088 
1774	 0.376646207676454 
1775	 0.378405719250225 
1776	 0.380132394882552 
1777	 0.38186088974999 
1778	 0.383419611178879 
1779	 0.384955992541151 
1780	 0.386442299972641 
1781	 0.387835363604745 
1782	 0.389243180744292 
1783	 0.390581038271044 
1784	 0.391908188480627 
1785	 0.393172253995958 
1786	 0.394391029285099 
1787	 0.395589170205951 
1788	 0.396742189085615 
1789	 0.397846073506741 
1790	 0.398942621144469 
1791	 0.400017179683089 
1792	 0.401064080190175 
1793	 0.402056710188883 
1794	 0.40306044422271 
1795	 0.40401249541937 
1796	 0.404914895683657 
1797	 0.405888518098512 
1798	 0.406782038962867 
1799	 0.407638035536831 
1800	 0.408504662927482 
1801	 0.402893903380641 
1802	 0.403690294058314 
1803	 0.404432464976562 
1804	 0.405109447851406 
1805	 0.40578740950882 
1806	 0.406408016512311 
1807	 0.406985657006698 
1808	 0.407547288076213 
1809	 0.408069663014189 
1810	 0.408579056282118 
1811	 0.409054634179383 
1812	 0.409544407608459 
1813	 0.410008825011888 
1814	 0.410501007012334 
1815	 0.410997244085673 
1816	 0.411508853744913 
1817	 0.41202834786395 
1818	 0.41256313335761 
1819	 0.413086733002756 
1820	 0.4136328692416 
1821	 0.414148556900144 
1822	 0.41464930914171 
1823	 0.415151389547816 
1824	 0.415613281377028 
1825	 0.41608350285985 
1826	 0.416529823126574 
1827	 0.416954775446303 
1828	 0.417363327571682 
1829	 0.417759470563456 
1830	 0.418135766994185 
1831	 0.418473934692436 
1832	 0.418849268889409 
1833	 0.419208756905591 
1834	 0.419562297309079 
1835	 0.419896886475845 
1836	 0.420196128186879 
1837	 0.420497511515496 
1838	 0.420772852510692 
1839	 0.421043578371089 
1840	 0.421336833133702 
1841	 0.421580232232971 
1842	 0.421801591110545 
1843	 0.421990085291284 
1844	 0.422143555504197 
1845	 0.422252955474019 
1846	 0.422312261452577 
1847	 0.422325289525944 
1848	 0.422268917240044 
1849	 0.422181265568344 
1850	 0.421977307492371 
1851	 0.421700084981577 
1852	 0.421331644798661 
1853	 0.420871627842239 
1854	 0.420355227112403 
1855	 0.419757233255282 
1856	 0.419090706787245 
1857	 0.418301243437053 
1858	 0.417356462802002 
1859	 0.416335689883432 
1860	 0.415211458162493 
1861	 0.413961313717686 
1862	 0.41258673372299 
1863	 0.411186539204734 
1864	 0.409607972271648 
1865	 0.4079530506057 
1866	 0.406218227562844 
1867	 0.404230083242419 
1868	 0.402183007628143 
1869	 0.399965833769776 
1870	 0.397601840307605 
1871	 0.395116323527696 
1872	 0.392540374057671 
1873	 0.389821183493149 
1874	 0.387029774525166 
1875	 0.384162101994493 
1876	 0.380962639340017 
1877	 0.377747863191317 
1878	 0.374294499036741 
1879	 0.370583562422005 
1880	 0.366988841324251 
1881	 0.363168987149891 
1882	 0.359141132946636 
1883	 0.355054752910864 
1884	 0.350818631318382 
1885	 0.346127417118302 
1886	 0.341469510206962 
1887	 0.336554011045826 
1888	 0.331395047382737 
1889	 0.326546071386253 
1890	 0.321465042870998 
1891	 0.31636271846653 
1892	 0.31137910653257 
1893	 0.30624033773588 
1894	 0.300901052393767 
1895	 0.295766100970393 
1896	 0.290576311422979 
1897	 0.285353278795381 
1898	 0.280568703513706 
1899	 0.275713653800037 
1900	 0.270978614889272 
1901	 0.266456468997024 
1902	 0.261686395693458 
1903	 0.257152520210323 
1904	 0.252696039230509 
1905	 0.248276168875273 
1906	 0.243914364755862 
1907	 0.239979083881735 
1908	 0.235957827096766 
1909	 0.232042672851301 
1910	 0.228291549582212 
1911	 0.22432176775073 
1912	 0.220528608980751 
1913	 0.21670505875986 
1914	 0.212790296177929 
1915	 0.209035384614631 
1916	 0.205459147535455 
1917	 0.201698408698021 
1918	 0.197992021802278 
1919	 0.194328354548946 
1920	 0.190363328507149 
1921	 0.186508640439926 
1922	 0.182546930735678 
1923	 0.178440132196492 
1924	 0.174619300896425 
1925	 0.170674861044615 
1926	 0.166802285258329 
1927	 0.163040336757703 
1928	 0.159253063171404 
1929	 0.155358906172074 
1930	 0.151697304149774 
1931	 0.148134613127639 
1932	 0.14470830162248 
1933	 0.141772053166889 
1934	 0.139006813495943 
1935	 0.136481839467764 
1936	 0.134362336757925 
1937	 0.132453785028198 
1938	 0.130740272254836 
1939	 0.129420655825997 
1940	 0.128421507632434 
1941	 0.127700375541926 
1942	 0.127323372124042 
1943	 0.127199742914513 
1944	 0.12731854019345 
1945	 0.127711498132765 
1946	 0.128434225725146 
1947	 0.12938588422316 
1948	 0.130728334998321 
1949	 0.132485575826479 
1950	 0.134495044403172 
1951	 0.136871198286285 
1952	 0.139523628569139 
1953	 0.142445588752558 
1954	 0.145679794867464 
1955	 0.149350622709658 
1956	 0.153044854432342 
1957	 0.156837222388923 
1958	 0.160648380880544 
1959	 0.164039384708029 
1960	 0.167232043748555 
1961	 0.170101207921962 
1962	 0.172653884361405 
1963	 0.174920456522084 
1964	 0.176890081564577 
1965	 0.178587607018821 
1966	 0.179976486972855 
1967	 0.181160634264408 
1968	 0.182077716381062 
1969	 0.182959712588521 
1970	 0.183781837061103 
1971	 0.184601304918636 
1972	 0.185538684173095 
1973	 0.186543087411559 
1974	 0.187640813527598 
1975	 0.18885872813484 
1976	 0.190125777343177 
1977	 0.191444339954001 
1978	 0.192870995581826 
1979	 0.194367426761084 
1980	 0.195951102499642 
1981	 0.197736108033774 
1982	 0.199495028485768 
1983	 0.201414960466042 
1984	 0.203462335676737 
1985	 0.205469326555358 
1986	 0.207714658039126 
1987	 0.210164944730089 
1988	 0.212646006246278 
1989	 0.215583909272955 
1990	 0.218850218871324 
1991	 0.222334074867869 
1992	 0.226149165920077 
1993	 0.230291369580509 
1994	 0.234327064277938 
1995	 0.238700939997616 
1996	 0.243105455777947 
1997	 0.24750876258896 
1998	 0.252063234202555 
1999	 0.256888035408995 
2000	 0.261374774430653 
2001	 0.266038708991977 
2002	 0.27021797288551 
2003	 0.274091876679497 
2004	 0.277827305148824 
2005	 0.281240698898534 
2006	 0.284555135793435 
2007	 0.287803977710292 
2008	 0.290730004813253 
2009	 0.293455825114689 
2010	 0.296026236907497 
2011	 0.298210667464164 
2012	 0.30026435432891 
2013	 0.302154701128546 
2014	 0.303807628813042 
2015	 0.30538540569826 
2016	 0.306835707365065 
2017	 0.308128661416801 
2018	 0.309294234049911 
2019	 0.310312294268144 
2020	 0.311146929995372 
2021	 0.311888146657445 
2022	 0.312498068856374 
2023	 0.312956782726468 
2024	 0.313340021928308 
2025	 0.313593181795377 
2026	 0.313751316872496 
2027	 0.313777154849317 
2028	 0.313778850114725 
2029	 0.313662193588098 
2030	 0.313536259393038 
2031	 0.313370188704988 
2032	 0.313162588378738 
2033	 0.312876874892146 
2034	 0.312603216291764 
2035	 0.312299104218761 
2036	 0.311980784531841 
2037	 0.311689828860764 
2038	 0.311394403704724 
2039	 0.311136626206883 
2040	 0.310907712957728 
2041	 0.310690232811455 
2042	 0.310491859027066 
2043	 0.310313493484435 
2044	 0.310147627463439 
2045	 0.310006312952141 
2046	 0.30989888632258 
2047	 0.309791395782358 
2048	 0.309711992499102 
2049	 0.309620696996741 
2050	 0.309538693427539 
2051	 0.309448905162363 
2052	 0.309333241905987 
2053	 0.309217105202776 
2054	 0.309087831221211 
2055	 0.308930626917173 
2056	 0.308791015380882 
2057	 0.308659440072197 
2058	 0.308515000490225 
2059	 0.308354845179906 
2060	 0.308220623336636 
2061	 0.308071795912576 
2062	 0.307958063302714 
2063	 0.30787693492073 
2064	 0.30780447561695 
2065	 0.307739293698509 
2066	 0.307709463206156 
2067	 0.30769435131436 
2068	 0.307692103167132 
2069	 0.307690097061651 
2070	 0.307711307758934 
2071	 0.307711996446327 
2072	 0.307709753312105 
2073	 0.307697105164119 
2074	 0.307689208154794 
2075	 0.307653394467085 
2076	 0.307601814997459 
2077	 0.307537669366126 
2078	 0.307455204599782 
2079	 0.307355600487943 
2080	 0.307247186084266 
2081	 0.307113969271865 
2082	 0.306953982760634 
2083	 0.306795546886129 
2084	 0.306586332618997 
2085	 0.306355758979033 
2086	 0.306102140393603 
2087	 0.305814310276235 
2088	 0.305508398306936 
2089	 0.305187864664421 
2090	 0.304835939593426 
2091	 0.304457624708018 
2092	 0.304050447799364 
2093	 0.303617863913736 
2094	 0.303156434643629 
2095	 0.302642261056838 
2096	 0.302135489697749 
2097	 0.301623789196176 
2098	 0.301079879667489 
2099	 0.300529698049364 
2100	 0.299981433187004 
2101	 0.299360394305481 
2102	 0.298690367786222 
2103	 0.298008028563183 
2104	 0.297267443086955 
2105	 0.296541219482158 
2106	 0.295819548937742 
2107	 0.29505406693157 
2108	 0.294285307794044 
2109	 0.293456508938277 
2110	 0.292558120778954 
2111	 0.291673921425725 
2112	 0.29072360573378 
2113	 0.289819807655089 
2114	 0.288963884482157 
2115	 0.28806772106496 
2116	 0.287154786293705 
2117	 0.286267442097767 
2118	 0.28535202619608 
2119	 0.284391200356179 
2120	 0.283490320029494 
2121	 0.282592876829516 
2122	 0.281741270199566 
2123	 0.280920499073345 
2124	 0.28012126059429 
2125	 0.279379297313627 
2126	 0.278613371369586 
2127	 0.277842538949346 
2128	 0.277107927191841 
2129	 0.276354213329457 
2130	 0.275661389065583 
2131	 0.275035816533515 
2132	 0.274409337794878 
2133	 0.273808046647877 
2134	 0.273250343283281 
2135	 0.272633329745877 
2136	 0.272036596027267 
2137	 0.271451781232317 
2138	 0.270852401234829 
2139	 0.270285948458943 
2140	 0.269754701994104 
2141	 0.269218722077678 
2142	 0.268688859688629 
2143	 0.268172330675287 
2144	 0.267665898040827 
2145	 0.267174672169382 
2146	 0.266686864560567 
2147	 0.266225700726969 
2148	 0.26579773455017 
2149	 0.265364546606911 
2150	 0.264958332294837 
2151	 0.264536193404085 
2152	 0.264087045450479 
2153	 0.263673084220226 
2154	 0.263285758684198 
2155	 0.262881687456525 
2156	 0.262483071785527 
2157	 0.262115454800801 
2158	 0.261702168118692 
2159	 0.261259870766121 
2160	 0.260826590378728 
2161	 0.260381037028067 
2162	 0.259941116791299 
2163	 0.259485874930093 
2164	 0.259058613638344 
2165	 0.258645279128478 
2166	 0.258234012414951 
2167	 0.257833518139409 
2168	 0.257443543119888 
2169	 0.257036300602655 
2170	 0.256678374986128 
2171	 0.256329702950257 
2172	 0.256041375369775 
2173	 0.255818334266263 
2174	 0.255594290517276 
2175	 0.255425288356857 
2176	 0.255301546494773 
2177	 0.255205846296035 
2178	 0.255147552100612 
2179	 0.255111689840617 
2180	 0.255128851002673 
2181	 0.255120238696885 
2182	 0.255133848103678 
2183	 0.255122919738144 
2184	 0.255103448899267 
2185	 0.255074033848544 
2186	 0.255050841996704 
2187	 0.254985431163136 
2188	 0.254893300703873 
2189	 0.254792624307952 
2190	 0.254679587687507 
2191	 0.254524648233334 
2192	 0.254357832147256 
2193	 0.254149750425926 
2194	 0.253892454729138 
2195	 0.253607174740039 
2196	 0.253293369554812 
2197	 0.252943236934458 
2198	 0.252563839387241 
2199	 0.252146272467084 
2200	 0.251714866146722 
2201	 0.251273146729026 
2202	 0.250760513109371 
2203	 0.25020745331725 
2204	 0.249624575945777 
2205	 0.248967127552906 
2206	 0.248332400641145 
2207	 0.247687520306492 
2208	 0.247020758473557 
2209	 0.24634090735972 
2210	 0.245645110249307 
2211	 0.244903853611078 
2212	 0.244209061015912 
2213	 0.243465762518394 
2214	 0.242833560817458 
2215	 0.242243310658006 
2216	 0.241734860975262 
2217	 0.241332731714328 
2218	 0.240960480263897 
2219	 0.240668796686286 
2220	 0.24038841038527 
2221	 0.240139051980046 
2222	 0.239929325159854 
2223	 0.23977130033588 
2224	 0.23959476472728 
2225	 0.239390538273065 
2226	 0.239102648238967 
2227	 0.238635189084253 
2228	 0.238042289885633 
2229	 0.237323947763746 
2230	 0.236457776122489 
2231	 0.235464936572211 
2232	 0.234376519411477 
2233	 0.233070523966028 
2234	 0.231638346060964 
2235	 0.229942452451105 
2236	 0.228003250430481 
2237	 0.225931682146625 
2238	 0.223563336542546 
2239	 0.221185244790485 
2240	 0.218739791734712 
2241	 0.216090688356513 
2242	 0.213389025139256 
2243	 0.210401181589545 
2244	 0.207066435682437 
2245	 0.203753401547496 
2246	 0.200149477524237 
2247	 0.196660178777593 
2248	 0.193210756467266 
2249	 0.189712952302829 
2250	 0.186180161807604 
2251	 0.182728731700954 
2252	 0.179065536269674 
2253	 0.175532119413963 
2254	 0.172046440090932 
2255	 0.16860902104498 
2256	 0.165542954609967 
2257	 0.162559001752528 
2258	 0.159715518384486 
2259	 0.157086297640943 
2260	 0.154477376639123 
2261	 0.151928510496023 
2262	 0.149568736994109 
2263	 0.147289084093503 
2264	 0.145232542039877 
2265	 0.143400414104921 
2266	 0.141628184407572 
2267	 0.14004984471547 
2268	 0.138507098678569 
2269	 0.137058717218055 
2270	 0.135693507830322 
2271	 0.134423711242127 
2272	 0.133208404370644 
2273	 0.132123208083179 
2274	 0.13099241184627 
2275	 0.129990477217554 
2276	 0.128829207889176 
2277	 0.127600820149158 
2278	 0.126336364324658 
2279	 0.124946473067318 
2280	 0.123563226458223 
2281	 0.122184496786402 
2282	 0.120732378850594 
2283	 0.119236067091481 
2284	 0.11770040965473 
2285	 0.116021688631192 
2286	 0.114422007946021 
2287	 0.112767357743925 
2288	 0.111091208976278 
2289	 0.109551692192167 
2290	 0.1079331191405 
2291	 0.106337120310219 
2292	 0.104811806573049 
2293	 0.103254930044831 
2294	 0.101814298173836 
2295	 0.100500752485133 
2296	 0.099295569819712 
2297	 0.098291552604324 
2298	 9.74608585207063E-02 
2299	 9.67931737363717E-02 
2300	 9.62882099303855E-02 
2301	 9.60058646122341E-02 
2302	 9.58869042790624E-02 
2303	 9.60453479056798E-02 
2304	 9.64638269200849E-02 
2305	 9.70824899783095E-02 
2306	 9.79821907797462E-02 
2307	 9.90379772807827E-02 
2308	 0.100283209322987 
2309	 0.101766052542314 
2310	 0.103530365644971 
2311	 0.105359157122472 
2312	 0.107536645984143 
2313	 0.109548938068668 
2314	 0.111637465403479 
2315	 0.11362641806983 
2316	 0.115590556538649 
2317	 0.117406557775409 
2318	 0.119206326439252 
2319	 0.12075977790994 
2320	 0.122189743305705 
2321	 0.123367752568786 
2322	 0.124271260077211 
2323	 0.125050907185729 
2324	 0.125574261878489 
2325	 0.126022620994227 
2326	 0.126377440616312 
2327	 0.126529776322421 
2328	 0.126497625781599 
2329	 0.126325087516966 
2330	 0.125945960046024 
2331	 0.125449255715442 
2332	 0.124853682407374 
2333	 0.124092754217759 
2334	 0.123176039351849 
2335	 0.122184485504496 
2336	 0.121058890119551 
2337	 0.119915825420325 
2338	 0.11884864529892 
2339	 0.117712840289507 
2340	 0.116627985084914 
2341	 0.115611147278383 
2342	 0.114612217819265 
2343	 0.1137890161345 
2344	 0.113157714223274 
2345	 0.112773355500389 
2346	 0.112650703898015 
2347	 0.11275684101098 
2348	 0.113060357949314 
2349	 0.113677450111977 
2350	 0.114547209435171 
2351	 0.115511100284283 
2352	 0.116592359511547 
2353	 0.117738133450336 
2354	 0.118780289017726 
2355	 0.119787158693622 
2356	 0.12070365182287 
2357	 0.121474791295222 
2358	 0.12217375302917 
2359	 0.122633096264539 
2360	 0.122920474068392 
2361	 0.123076654183992 
2362	 0.123064521519043 
2363	 0.122958574432574 
2364	 0.122802249795262 
2365	 0.12253779175211 
2366	 0.122223711162754 
2367	 0.121961698954096 
2368	 0.121682924280145 
2369	 0.121369462375075 
2370	 0.121040556944083 
2371	 0.120653748594884 
2372	 0.12025079717035 
2373	 0.119878307672436 
2374	 0.119471575293875 
2375	 0.119053169699837 
2376	 0.118586347489221 
2377	 0.118081543223659 
2378	 0.117631073076231 
2379	 0.117103978945717 
2380	 0.116547469929575 
2381	 0.116011503763495 
2382	 0.115445579498863 
2383	 0.114838897151451 
2384	 0.114242997741032 
2385	 0.11364896861438 
2386	 0.113023022530469 
2387	 0.112346839835422 
2388	 0.111664162837484 
2389	 0.111009695529336 
2390	 0.110274996186438 
2391	 0.109474907332516 
2392	 0.108694343311232 
2393	 0.107820254738568 
2394	 0.107075833366573 
2395	 0.106431039988466 
2396	 0.105738633968136 
2397	 0.105110872401474 
2398	 0.104377755426353 
2399	 0.103570771175693 
2400	 0.102784441917124 
2401	 0.101916190349141 
2402	 0.101170592316722 
2403	 0.100471769955862 
2404	 9.98872523266969E-02 
2405	 9.93416647941956E-02 
2406	 0.098722695753633 
2407	 9.80786009972255E-02 
2408	 9.74035972459664E-02 
2409	 9.67634082939418E-02 
2410	 9.61877691381959E-02 
2411	 0.095652897013668 
2412	 9.51267937694794E-02 
2413	 0.094599028612483 
2414	 9.41528946022527E-02 
2415	 9.37548538884837E-02 
2416	 9.33208333107532E-02 
2417	 9.29599475467536E-02 
2418	 9.26382267166501E-02 
2419	 9.22881071999074E-02 
2420	 9.20194672907101E-02 
2421	 9.17170742830198E-02 
2422	 9.14220554557971E-02 
2423	 9.12811936878491E-02 
2424	 9.11214035220417E-02 
2425	 9.09027410872218E-02 
2426	 9.07245017006024E-02 
2427	 0.090476845481918 
2428	 9.01864725681026E-02 
2429	 9.00585288790777E-02 
2430	 8.99253097893246E-02 
2431	 8.96790628383224E-02 
2432	 8.94130536469261E-02 
2433	 8.91307506590621E-02 
2434	 8.89061189354085E-02 
2435	 8.86524553245646E-02 
2436	 8.84687403933386E-02 
2437	 0.088346550897333 
2438	 8.81253654423351E-02 
2439	 8.79858913324906E-02 
2440	 8.77821404815071E-02 
2441	 8.75627262265605E-02 
2442	 8.73327860257046E-02 
2443	 8.69293447070446E-02 
2444	 8.67069824379097E-02 
2445	 8.66268056617747E-02 
2446	 8.65309402778519E-02 
2447	 8.64601599847663E-02 
2448	 8.62599615924145E-02 
2449	 8.58792619736545E-02 
2450	 8.54185596393883E-02 
2451	 8.50275369026241E-02 
2452	 8.47589187775097E-02 
2453	 8.44739184558871E-02 
2454	 8.40966752402732E-02 
2455	 8.37736071436422E-02 
2456	 8.33925697850957E-02 
2457	 8.29179530573868E-02 
2458	 8.26116654050225E-02 
2459	 8.23154867877036E-02 
2460	 8.20514409538292E-02 
2461	 8.17528238392487E-02 
2462	 8.13544786894227E-02 
2463	 8.11144148580144E-02 
2464	 8.07656388135784E-02 
2465	 8.03123530412067E-02 
2466	 7.99996818241509E-02 
2467	 0.07962802272312 
2468	 7.92356641640332E-02 
2469	 7.89937935014251E-02 
2470	 7.87482517309131E-02 
2471	 7.83596398629017E-02 
2472	 7.79396916651806E-02 
2473	 7.76452520092473E-02 
2474	 7.74339765232583E-02 
2475	 7.74070570053349E-02 
2476	 7.75320989912191E-02 
2477	 7.76433294951414E-02 
2478	 7.76947019852074E-02 
2479	 7.75908160215274E-02 
2480	 7.75685440253391E-02 
2481	 7.76520469461082E-02 
2482	 7.79136973428593E-02 
2483	 7.80449689400311E-02 
2484	 7.81020042941689E-02 
2485	 7.80631992715724E-02 
2486	 7.81750025271649E-02 
2487	 7.83399943643746E-02 
2488	 7.85800686730742E-02 
2489	 0.078909722613244 
2490	 7.89932350913187E-02 
2491	 7.92481548311432E-02 
2492	 7.95062473637427E-02 
2493	 7.96407697760905E-02 
2494	 8.00284952807929E-02 
2495	 8.04778823630181E-02 
2496	 8.09384859546721E-02 
2497	 8.13169521673713E-02 
2498	 8.16013703545887E-02 
2499	 8.17468547001332E-02 
2500	 8.18591420169071E-02 
