Wavelength	spectrum00013.asd
350	 6.10974797940064E-02 
351	 6.02485555339448E-02 
352	 5.85278779660931E-02 
353	 5.67562251066339E-02 
354	 5.84089853466985E-02 
355	 5.80637490433246E-02 
356	 0.057021545880633 
357	 5.68595188867736E-02 
358	 5.51638664503954E-02 
359	 5.33610975065055E-02 
360	 5.30319431548546E-02 
361	 5.49820394052312E-02 
362	 5.41093418681426E-02 
363	 5.23436263275763E-02 
364	 5.15133726777692E-02 
365	 5.23185334836367E-02 
366	 5.36479370782716E-02 
367	 5.37868826702306E-02 
368	 5.23902322294482E-02 
369	 5.38542739910724E-02 
370	 0.054129682542251 
371	 5.33225585733254E-02 
372	 5.37466746240847E-02 
373	 5.42104142447149E-02 
374	 5.45884031314252E-02 
375	 5.48891629655093E-02 
376	 5.51503028102294E-02 
377	 5.57708719183273E-02 
378	 5.62788619521393E-02 
379	 5.61463701793876E-02 
380	 5.52489028108181E-02 
381	 5.58896576315751E-02 
382	 5.70867113194832E-02 
383	 5.62983677612814E-02 
384	 5.67548926488609E-02 
385	 0.057410396619881 
386	 5.75146665588151E-02 
387	 5.75073145672491E-02 
388	 5.77317593741462E-02 
389	 5.81649166602858E-02 
390	 5.84972250112341E-02 
391	 5.77474485697741E-02 
392	 5.77553717862773E-02 
393	 5.86034400528833E-02 
394	 5.91969753726093E-02 
395	 5.97000244590095E-02 
396	 0.060160771183032 
397	 6.05366320802396E-02 
398	 6.06414803293541E-02 
399	 6.04907411417727E-02 
400	 0.060290403136404 
401	 0.060268357879151 
402	 6.04361542826702E-02 
403	 6.10966196731191E-02 
404	 6.18272397687407E-02 
405	 6.17900124964055E-02 
406	 6.21692242499289E-02 
407	 6.22805850584086E-02 
408	 6.19791187096603E-02 
409	 6.27601206066307E-02 
410	 6.30197825424455E-02 
411	 0.062843118555933 
412	 6.28743805804612E-02 
413	 6.35892168270592E-02 
414	 6.38366705598207E-02 
415	 6.37483256871776E-02 
416	 6.45800635769343E-02 
417	 6.49303905429915E-02 
418	 6.50976917501828E-02 
419	 0.065433551712152 
420	 0.065661216849417 
421	 6.60920196808907E-02 
422	 6.66100669818129E-02 
423	 6.69493612335058E-02 
424	 6.70800197487384E-02 
425	 6.74597734791577E-02 
426	 6.81036794058994E-02 
427	 6.84959874980705E-02 
428	 6.90064647325115E-02 
429	 6.96093505796027E-02 
430	 7.01904929573384E-02 
431	 7.06331587115284E-02 
432	 0.07116234673038 
433	 7.17398110185509E-02 
434	 7.22188320590768E-02 
435	 7.29356197491109E-02 
436	 7.36736003530014E-02 
437	 7.43155451213254E-02 
438	 7.49908356415118E-02 
439	 7.57252912265512E-02 
440	 7.63516762935278E-02 
441	 7.67914080175071E-02 
442	 7.75537651545752E-02 
443	 7.85275646289659E-02 
444	 7.93685463203736E-02 
445	 7.96516137341769E-02 
446	 8.03331650227428E-02 
447	 8.11214055862629E-02 
448	 8.17401237766719E-02 
449	 8.23947804511921E-02 
450	 8.32117092619048E-02 
451	 8.40425321152325E-02 
452	 8.46766815728432E-02 
453	 8.52898174117211E-02 
454	 8.59498812324994E-02 
455	 8.66143326367837E-02 
456	 8.71365961705142E-02 
457	 8.78478708152987E-02 
458	 8.85538349237261E-02 
459	 8.91076931953794E-02 
460	 8.98894318746133E-02 
461	 9.05039571138563E-02 
462	 9.09714475441766E-02 
463	 9.15357953639002E-02 
464	 9.21658252506212E-02 
465	 9.27133545291557E-02 
466	 9.31579782493077E-02 
467	 9.36989840867214E-02 
468	 9.42072637963462E-02 
469	 9.46634138231906E-02 
470	 9.51110495182764E-02 
471	 0.095716978682035 
472	 9.62856372133393E-02 
473	 0.096753556477256 
474	 0.097182730317499 
475	 9.76966821162152E-02 
476	 9.83062336022747E-02 
477	 9.89285920256004E-02 
478	 9.93042594763096E-02 
479	 9.97917903047241E-02 
480	 0.10036640193625 
481	 0.100880228452744 
482	 0.10143962514698 
483	 0.102094085078132 
484	 0.102780382791408 
485	 0.103316880252217 
486	 0.10395307945727 
487	 0.104625049851659 
488	 0.105246515872362 
489	 0.105899652888542 
490	 0.10655320308772 
491	 0.107253727935533 
492	 0.10805950932826 
493	 0.108682760922165 
494	 0.109319561348312 
495	 0.110098945045431 
496	 0.110940388108528 
497	 0.111856397889556 
498	 0.112790976965396 
499	 0.113695529126392 
500	 0.114657335282907 
501	 0.115615554059674 
502	 0.11654453877378 
503	 0.11746287568245 
504	 0.118531002874624 
505	 0.119610722467712 
506	 0.120612876560835 
507	 0.12170626187601 
508	 0.122784869175536 
509	 0.123828950879133 
510	 0.124866353494031 
511	 0.125984729422688 
512	 0.127083038872952 
513	 0.128134152375255 
514	 0.129232127518483 
515	 0.130261165603849 
516	 0.13129448577697 
517	 0.132406067682522 
518	 0.13349472649671 
519	 0.134599176046791 
520	 0.135708117634594 
521	 0.136779287393551 
522	 0.137864834766155 
523	 0.138901504564032 
524	 0.13987213228124 
525	 0.14088276000275 
526	 0.141888510530921 
527	 0.142862045551664 
528	 0.143796513105238 
529	 0.144767363390745 
530	 0.145742708195263 
531	 0.146702203834061 
532	 0.147643619038495 
533	 0.148514248675376 
534	 0.149351181639097 
535	 0.150196789913924 
536	 0.151050132259502 
537	 0.151898548175772 
538	 0.152722872738451 
539	 0.153502802984665 
540	 0.154226734664944 
541	 0.15494791982165 
542	 0.155676503370267 
543	 0.156338291019428 
544	 0.157023247155271 
545	 0.15769252994174 
546	 0.158306446777894 
547	 0.159002194860975 
548	 0.159736794452513 
549	 0.160475408888039 
550	 0.161199048849899 
551	 0.161912975279891 
552	 0.162677566039326 
553	 0.16350441839464 
554	 0.164255299616414 
555	 0.164999163060108 
556	 0.165748048148734 
557	 0.166484306249067 
558	 0.16717357175693 
559	 0.167872730433408 
560	 0.168570770797375 
561	 0.169153622141779 
562	 0.169582672239834 
563	 0.169918083147239 
564	 0.170222629087538 
565	 0.170426044771267 
566	 0.170645599518872 
567	 0.170902988933732 
568	 0.171153297031869 
569	 0.17152716821628 
570	 0.171948333813811 
571	 0.17235494997377 
572	 0.172786511872404 
573	 0.173249109863689 
574	 0.173690297313846 
575	 0.174033565255396 
576	 0.174228679759463 
577	 0.174295954084053 
578	 0.174302206649258 
579	 0.174356721458664 
580	 0.174534022146559 
581	 0.174771284000821 
582	 0.174998314542413 
583	 0.175242092924404 
584	 0.175499472520664 
585	 0.17577070906645 
586	 0.176054458554692 
587	 0.176314639687954 
588	 0.176583530410745 
589	 0.176887087981987 
590	 0.177233920563746 
591	 0.177465946218434 
592	 0.17770047419762 
593	 0.178076089715626 
594	 0.178428640665881 
595	 0.178697930372784 
596	 0.178898908692624 
597	 0.179108948310931 
598	 0.179337263013364 
599	 0.179563907110863 
600	 0.179772960706703 
601	 0.179969557296903 
602	 0.18020039982228 
603	 0.180443827161241 
604	 0.180659514841395 
605	 0.180911938435547 
606	 0.181185117142058 
607	 0.18146235230241 
608	 0.181734917022992 
609	 0.181945904924386 
610	 0.182141108176556 
611	 0.182364641562359 
612	 0.182557698750417 
613	 0.182759891319496 
614	 0.182961345667074 
615	 0.183131203460432 
616	 0.183377701500705 
617	 0.18361074068857 
618	 0.183784337042842 
619	 0.183976937612181 
620	 0.184170845016627 
621	 0.184379582575542 
622	 0.18461282744881 
623	 0.1848253751719 
624	 0.185022524492336 
625	 0.185221026534823 
626	 0.185441811175734 
627	 0.185601731121058 
628	 0.185746437564604 
629	 0.18593059528038 
630	 0.186175992265429 
631	 0.186380602936159 
632	 0.186568065495099 
633	 0.186799897816003 
634	 0.186964433570137 
635	 0.187123879137689 
636	 0.187315223629571 
637	 0.187524285420585 
638	 0.187685357321497 
639	 0.187845454694365 
640	 0.188047220005156 
641	 0.18821890356148 
642	 0.188401513201447 
643	 0.188593113860993 
644	 0.188767184218487 
645	 0.188931892950181 
646	 0.189102871801573 
647	 0.189288621994061 
648	 0.189486165405372 
649	 0.189664929231076 
650	 0.189805490866 
651	 0.189923937594425 
652	 0.190167172249994 
653	 0.190356324196304 
654	 0.190472675566235 
655	 0.190633252954422 
656	 0.190829176741007 
657	 0.190997397718646 
658	 0.191120437496386 
659	 0.191294584308437 
660	 0.191513716330964 
661	 0.19170211886234 
662	 0.191801109424407 
663	 0.192017686160012 
664	 0.192179393668642 
665	 0.192281796578624 
666	 0.19250166062373 
667	 0.192657040241317 
668	 0.192835417320347 
669	 0.193088177404517 
670	 0.193236630142132 
671	 0.193370372187291 
672	 0.19353421719386 
673	 0.193743557387064 
674	 0.193955350927548 
675	 0.194123905999691 
676	 0.194264035672698 
677	 0.194459811475649 
678	 0.194658964084462 
679	 0.194834345695946 
680	 0.194995302475424 
681	 0.19525260473306 
682	 0.195450598447418 
683	 0.195589558494928 
684	 0.195758311759796 
685	 0.195981402036347 
686	 0.196199943444332 
687	 0.196382456650009 
688	 0.196548913979167 
689	 0.196762901709163 
690	 0.196995916185797 
691	 0.197211954786688 
692	 0.197450938615438 
693	 0.197650944202246 
694	 0.197843475693319 
695	 0.19810592233541 
696	 0.198344011061848 
697	 0.198588438535226 
698	 0.198846126591246 
699	 0.199062185563769 
700	 0.199301805431068 
701	 0.199561603935904 
702	 0.199827136133447 
703	 0.200123932261547 
704	 0.200433174179153 
705	 0.200714052172325 
706	 0.20092943583154 
707	 0.201220683343902 
708	 0.201571330978691 
709	 0.201914348714029 
710	 0.202133509749966 
711	 0.202418149594874 
712	 0.202767887219198 
713	 0.203129947410672 
714	 0.203508179799161 
715	 0.203839298153808 
716	 0.20412423243445 
717	 0.204419969561279 
718	 0.20484360181258 
719	 0.205275095169632 
720	 0.205638427684748 
721	 0.205986960871833 
722	 0.206362117514144 
723	 0.206756883908242 
724	 0.207154846841295 
725	 0.207581580732373 
726	 0.207991199468984 
727	 0.208391313856343 
728	 0.208821979801452 
729	 0.209225044192964 
730	 0.20967044377183 
731	 0.210176252030952 
732	 0.210653237298591 
733	 0.211097188609966 
734	 0.21156083786081 
735	 0.21208500460853 
736	 0.212590368836017 
737	 0.213107009147678 
738	 0.213635045792337 
739	 0.214155123351363 
740	 0.214672550744258 
741	 0.215218250196657 
742	 0.215789195167698 
743	 0.21632950487165 
744	 0.21685483877433 
745	 0.217407014687743 
746	 0.218004217608897 
747	 0.218559833643543 
748	 0.219120684186054 
749	 0.219712388223945 
750	 0.220335473872672 
751	 0.220912480814 
752	 0.221496621234079 
753	 0.222101867215794 
754	 0.222673915987052 
755	 0.223307999140017 
756	 0.223966636290241 
757	 0.224601203110006 
758	 0.225224532098646 
759	 0.225824503090491 
760	 0.226432921115067 
761	 0.227086736070886 
762	 0.227717888481463 
763	 0.228351899988867 
764	 0.2289992297846 
765	 0.229649061556495 
766	 0.230327766003091 
767	 0.231016595568768 
768	 0.231688277608257 
769	 0.232310477000993 
770	 0.232970978944128 
771	 0.233654952504506 
772	 0.234313617509927 
773	 0.234945756758683 
774	 0.235566036555776 
775	 0.236185508600128 
776	 0.236813899666679 
777	 0.23748888902512 
778	 0.23816896476755 
779	 0.238812324531415 
780	 0.239395528663394 
781	 0.240003058103862 
782	 0.240631760691667 
783	 0.241257259100009 
784	 0.241890092867273 
785	 0.242458913182737 
786	 0.243004276833162 
787	 0.24361309398608 
788	 0.244198168134648 
789	 0.244740439572928 
790	 0.245261775325536 
791	 0.245821816787424 
792	 0.246379908320258 
793	 0.246898855546003 
794	 0.247379033479685 
795	 0.247909661063049 
796	 0.248408250789838 
797	 0.248887042905968 
798	 0.249373799417594 
799	 0.249788353073427 
800	 0.250230560670058 
801	 0.250703598351145 
802	 0.25113205657173 
803	 0.251515483299635 
804	 0.251889514349792 
805	 0.252278159497672 
806	 0.252678200931698 
807	 0.253065100715338 
808	 0.253411018562193 
809	 0.253709827261426 
810	 0.254008860807564 
811	 0.254346780184121 
812	 0.254683015484188 
813	 0.254957373878184 
814	 0.255228280040679 
815	 0.255500410796773 
816	 0.255778656705929 
817	 0.256065574833991 
818	 0.256318714663876 
819	 0.256519490290086 
820	 0.256681689654923 
821	 0.256860268237551 
822	 0.257092459842869 
823	 0.257314258795595 
824	 0.257476321835878 
825	 0.257670617020743 
826	 0.25783288518436 
827	 0.257957806863362 
828	 0.2580796105285 
829	 0.258281756261123 
830	 0.258464066423158 
831	 0.258590557564352 
832	 0.258693564368268 
833	 0.258775229033646 
834	 0.258854378810533 
835	 0.258948322176306 
836	 0.259068690767847 
837	 0.259162582696271 
838	 0.259228380358902 
839	 0.259275513471591 
840	 0.259296822856432 
841	 0.259344826467921 
842	 0.259423627588436 
843	 0.259508646615821 
844	 0.259557614699473 
845	 0.259590156609655 
846	 0.259625194180213 
847	 0.259673534403733 
848	 0.259705175982204 
849	 0.259719707536935 
850	 0.259731335886303 
851	 0.259764400032533 
852	 0.259758116171264 
853	 0.259777342930143 
854	 0.259847449582403 
855	 0.25985788861323 
856	 0.259836140114414 
857	 0.259845297920777 
858	 0.259916639735122 
859	 0.259925817545291 
860	 0.259911450851555 
861	 0.259910682613819 
862	 0.259953211145861 
863	 0.260036904035456 
864	 0.260095245618934 
865	 0.260086811330175 
866	 0.260015828951 
867	 0.26004440041883 
868	 0.260129545447701 
869	 0.260206668137463 
870	 0.260231066129913 
871	 0.260291759461936 
872	 0.26032341850704 
873	 0.260302920043706 
874	 0.260371286388702 
875	 0.260472464130254 
876	 0.260580582147143 
877	 0.260671067822286 
878	 0.260695240409233 
879	 0.260738470041431 
880	 0.260825943811497 
881	 0.26093562423368 
882	 0.260987556684313 
883	 0.261041838474825 
884	 0.261133886093184 
885	 0.261262889450337 
886	 0.261361888222644 
887	 0.261458505235139 
888	 0.261577681082299 
889	 0.261724894472346 
890	 0.261882840599601 
891	 0.262014456242262 
892	 0.262117097395936 
893	 0.262248522010901 
894	 0.262416774193456 
895	 0.262589428474317 
896	 0.262728941628272 
897	 0.262810093874091 
898	 0.262932332554155 
899	 0.26309211209499 
900	 0.263262116501553 
901	 0.26348947252126 
902	 0.263638633316308 
903	 0.263779296960756 
904	 0.264043308205377 
905	 0.264298111537711 
906	 0.264484768900304 
907	 0.264646826867264 
908	 0.26487914698718 
909	 0.265076077688186 
910	 0.265294221382863 
911	 0.265544726896972 
912	 0.265778777008872 
913	 0.265981070262014 
914	 0.266215912929795 
915	 0.266501369717331 
916	 0.266775678704011 
917	 0.266979166530608 
918	 0.26720376201853 
919	 0.267499606061349 
920	 0.267780415013542 
921	 0.268026678663702 
922	 0.268293020242048 
923	 0.268623757379902 
924	 0.268989985125799 
925	 0.269285038363228 
926	 0.269541447004496 
927	 0.269824738727527 
928	 0.270129612790602 
929	 0.270432738067969 
930	 0.270729422387045 
931	 0.271026108521838 
932	 0.271334009935658 
933	 0.271663282175589 
934	 0.2720153890606 
935	 0.272374589327817 
936	 0.272663432813962 
937	 0.273010488347375 
938	 0.273341487688462 
939	 0.273507838000658 
940	 0.273891292486944 
941	 0.274319697226074 
942	 0.274668146136005 
943	 0.274926158334742 
944	 0.275274855040065 
945	 0.275595194725179 
946	 0.275885627372577 
947	 0.27628329063425 
948	 0.276640676405254 
949	 0.27693527852014 
950	 0.277195688333912 
951	 0.277484268312828 
952	 0.277754242807881 
953	 0.278079815266401 
954	 0.278480764356561 
955	 0.278867983733898 
956	 0.279159078720747 
957	 0.279395470343929 
958	 0.279654095535089 
959	 0.280009335945761 
960	 0.280279562938111 
961	 0.280533265282112 
962	 0.280837029875951 
963	 0.281129512299621 
964	 0.281419021377731 
965	 0.281736033428289 
966	 0.282068510041306 
967	 0.282300384472285 
968	 0.282514423914399 
969	 0.282744191555441 
970	 0.283001629634934 
971	 0.283276829128033 
972	 0.283633918291962 
973	 0.28397375719834 
974	 0.284232648742429 
975	 0.284592497062154 
976	 0.28484516173595 
977	 0.285087535739595 
978	 0.285417712453847 
979	 0.285623352124043 
980	 0.285858412528395 
981	 0.286111261514582 
982	 0.286325191268949 
983	 0.286476737286097 
984	 0.286759630939311 
985	 0.287072111346501 
986	 0.28727154687108 
987	 0.287450436898894 
988	 0.287765100571391 
989	 0.288073172461064 
990	 0.288213406687206 
991	 0.28834993429672 
992	 0.288580858742849 
993	 0.288882186372258 
994	 0.289170543972617 
995	 0.289369767477253 
996	 0.289486771596058 
997	 0.289659005948542 
998	 0.289985060950443 
999	 0.290292954964868 
1000	 0.290540630026013 
1001	 0.295852012635656 
1002	 0.296149782587112 
1003	 0.296399849330066 
1004	 0.296612516767936 
1005	 0.29675819026593 
1006	 0.296973170746064 
1007	 0.297181577454053 
1008	 0.297428036584336 
1009	 0.297745852798852 
1010	 0.297991362858772 
1011	 0.298209607311226 
1012	 0.29843229841664 
1013	 0.2986161274643 
1014	 0.298833122824346 
1015	 0.299069542673884 
1016	 0.299314497396237 
1017	 0.299568867947811 
1018	 0.299783186229008 
1019	 0.299942079177578 
1020	 0.300097835030747 
1021	 0.300260250420469 
1022	 0.300380688404165 
1023	 0.300552381637406 
1024	 0.300765331712363 
1025	 0.300963018105229 
1026	 0.301192830715251 
1027	 0.301367877857587 
1028	 0.301511934217074 
1029	 0.301667271008544 
1030	 0.301802845861869 
1031	 0.30194143685044 
1032	 0.302105815458941 
1033	 0.302244355867605 
1034	 0.302371179924432 
1035	 0.302529243968986 
1036	 0.302681422027736 
1037	 0.302846156122394 
1038	 0.302992148557928 
1039	 0.303132390881522 
1040	 0.303275617334365 
1041	 0.30341173863991 
1042	 0.303561278803656 
1043	 0.303719678449763 
1044	 0.303859235038625 
1045	 0.304042287909682 
1046	 0.304232195367641 
1047	 0.304424525485141 
1048	 0.30461962451341 
1049	 0.304779154707723 
1050	 0.304960313771082 
1051	 0.305190316225087 
1052	 0.30541219635305 
1053	 0.305603896232176 
1054	 0.305783465254195 
1055	 0.305969866175157 
1056	 0.306109767286502 
1057	 0.306299219385317 
1058	 0.306519507744326 
1059	 0.306760615062422 
1060	 0.30700045221369 
1061	 0.307217988921076 
1062	 0.30742631571815 
1063	 0.307637311260291 
1064	 0.307827164691472 
1065	 0.308055196575792 
1066	 0.308288960228527 
1067	 0.308490241083128 
1068	 0.308735613619426 
1069	 0.308974285745402 
1070	 0.30920801125708 
1071	 0.30944180963555 
1072	 0.309701064526881 
1073	 0.309931778212575 
1074	 0.310155189476559 
1075	 0.310378949350464 
1076	 0.310631948274517 
1077	 0.310895176212867 
1078	 0.311113477664525 
1079	 0.311349342471106 
1080	 0.311576380825595 
1081	 0.311781615280669 
1082	 0.312029592061299 
1083	 0.312267610160209 
1084	 0.31250726813304 
1085	 0.312754901148344 
1086	 0.312983802283932 
1087	 0.31319254784003 
1088	 0.313436604597833 
1089	 0.313684922955592 
1090	 0.313906939431506 
1091	 0.314154822665204 
1092	 0.314392649737783 
1093	 0.314610350134661 
1094	 0.314840993678974 
1095	 0.315067032718318 
1096	 0.315282779280259 
1097	 0.315491170584775 
1098	 0.315701839317991 
1099	 0.315921154311637 
1100	 0.316136573417394 
1101	 0.316369161165026 
1102	 0.31663038505666 
1103	 0.316880586837257 
1104	 0.317134530273409 
1105	 0.317396933924231 
1106	 0.317654526989636 
1107	 0.317865343485599 
1108	 0.318076084751758 
1109	 0.318299403484517 
1110	 0.31850964396221 
1111	 0.318732726380554 
1112	 0.318970840575196 
1113	 0.319208304114653 
1114	 0.319430589080295 
1115	 0.319659186494808 
1116	 0.31988232715877 
1117	 0.320088873637363 
1118	 0.320321694724932 
1119	 0.320582133169493 
1120	 0.320818779005413 
1121	 0.321054098763205 
1122	 0.321300792512338 
1123	 0.32152530342631 
1124	 0.321734381052779 
1125	 0.321969359369624 
1126	 0.322197817624612 
1127	 0.322416907762915 
1128	 0.322650881789537 
1129	 0.322866793963395 
1130	 0.323090379787521 
1131	 0.323309941270996 
1132	 0.323529944990286 
1133	 0.323761950959621 
1134	 0.32396901173938 
1135	 0.324190352764773 
1136	 0.32441789223499 
1137	 0.324643797070988 
1138	 0.324891325185472 
1139	 0.325113187931542 
1140	 0.325324877460834 
1141	 0.325522430551545 
1142	 0.325721735488224 
1143	 0.325894467501662 
1144	 0.326078874652574 
1145	 0.326284510960432 
1146	 0.326481385021687 
1147	 0.326685677099545 
1148	 0.326893169180732 
1149	 0.327091382191809 
1150	 0.327282748202215 
1151	 0.327468471790091 
1152	 0.327654105562849 
1153	 0.327836151375883 
1154	 0.328017749120138 
1155	 0.328211117301721 
1156	 0.328382242956805 
1157	 0.328546128104102 
1158	 0.328692607622112 
1159	 0.328825011221066 
1160	 0.328926160510159 
1161	 0.32904695877883 
1162	 0.329211412774826 
1163	 0.329367627660504 
1164	 0.329546700039121 
1165	 0.329715264510526 
1166	 0.329859207067787 
1167	 0.330048766044263 
1168	 0.330247688406546 
1169	 0.330442393760281 
1170	 0.330657634700921 
1171	 0.330861061891312 
1172	 0.331043690361877 
1173	 0.331252073189743 
1174	 0.33146808266577 
1175	 0.331694158785496 
1176	 0.33192230626254 
1177	 0.33217116845679 
1178	 0.332428717834608 
1179	 0.332723711421812 
1180	 0.333001261753937 
1181	 0.333306834064364 
1182	 0.333631824757467 
1183	 0.333924232738342 
1184	 0.334230731206388 
1185	 0.334552426577928 
1186	 0.334883633644369 
1187	 0.335216375585417 
1188	 0.335560630389226 
1189	 0.335929278745309 
1190	 0.336292296947453 
1191	 0.33664952448314 
1192	 0.337010558296545 
1193	 0.337379224274719 
1194	 0.337747292777752 
1195	 0.338118976669142 
1196	 0.338495107089127 
1197	 0.33887141288325 
1198	 0.33925350699544 
1199	 0.339661435781524 
1200	 0.340052745222751 
1201	 0.340456343034691 
1202	 0.340862523407984 
1203	 0.341275504143142 
1204	 0.34172437827304 
1205	 0.342178908861551 
1206	 0.342654785169631 
1207	 0.343156231093806 
1208	 0.343662176115491 
1209	 0.34419754555029 
1210	 0.344766231821699 
1211	 0.345352844619912 
1212	 0.345965740303475 
1213	 0.346592535378573 
1214	 0.347242380642732 
1215	 0.34791036411487 
1216	 0.348603274591791 
1217	 0.349289417857277 
1218	 0.349997873411082 
1219	 0.350698869996755 
1220	 0.351385992118764 
1221	 0.35210625447916 
1222	 0.352790845952144 
1223	 0.353479786375363 
1224	 0.354156964427214 
1225	 0.354808340030855 
1226	 0.355471892216095 
1227	 0.356147745221003 
1228	 0.356800828102955 
1229	 0.357444842960119 
1230	 0.358088250351076 
1231	 0.358714386380273 
1232	 0.359352900607427 
1233	 0.360002357773752 
1234	 0.36063131445436 
1235	 0.36124728744784 
1236	 0.361871174205493 
1237	 0.36248555501535 
1238	 0.363107094018805 
1239	 0.36373110954142 
1240	 0.364367262192923 
1241	 0.365023343401807 
1242	 0.365650596908898 
1243	 0.366269262333977 
1244	 0.366887663541139 
1245	 0.367496957750432 
1246	 0.368086955974935 
1247	 0.368676408983827 
1248	 0.369277761294257 
1249	 0.369850197019954 
1250	 0.370399745416316 
1251	 0.370941249177697 
1252	 0.371465760013097 
1253	 0.371990432902196 
1254	 0.372507514219116 
1255	 0.373020305578061 
1256	 0.373520286976595 
1257	 0.374035235730705 
1258	 0.374555341572835 
1259	 0.375066673592865 
1260	 0.375581592251601 
1261	 0.376100514035716 
1262	 0.376603136897633 
1263	 0.377131648528549 
1264	 0.377643507865717 
1265	 0.378159499129503 
1266	 0.378676745079701 
1267	 0.379180521496092 
1268	 0.379702055298568 
1269	 0.380237650529759 
1270	 0.380772447308545 
1271	 0.381314216785569 
1272	 0.381849864593505 
1273	 0.382384240322405 
1274	 0.382924559273675 
1275	 0.383454900498576 
1276	 0.383999381897199 
1277	 0.384548696310923 
1278	 0.385111861556223 
1279	 0.385704384843978 
1280	 0.386269480014594 
1281	 0.386827330751235 
1282	 0.387387339405331 
1283	 0.387920445195106 
1284	 0.388466642739157 
1285	 0.389019551296027 
1286	 0.389590197300142 
1287	 0.390138697295562 
1288	 0.390681700387469 
1289	 0.39122178523178 
1290	 0.391747030418518 
1291	 0.392288305325621 
1292	 0.392831740281299 
1293	 0.393377687239787 
1294	 0.393932285885318 
1295	 0.394480050555019 
1296	 0.395030495602119 
1297	 0.39557021996464 
1298	 0.396107932679936 
1299	 0.396633928001257 
1300	 0.397144984807523 
1301	 0.397657979899159 
1302	 0.398173708297342 
1303	 0.398671028435005 
1304	 0.39916356301676 
1305	 0.399642003533238 
1306	 0.400089518334509 
1307	 0.400548723113274 
1308	 0.400994029249193 
1309	 0.401472572401302 
1310	 0.401902357631058 
1311	 0.402321233345793 
1312	 0.402738561176429 
1313	 0.403135973167708 
1314	 0.403524239138068 
1315	 0.403914372541572 
1316	 0.404292125152904 
1317	 0.404643580151126 
1318	 0.405002758142216 
1319	 0.40538005344187 
1320	 0.405720077650933 
1321	 0.406042107560044 
1322	 0.406348317079364 
1323	 0.406619764071467 
1324	 0.406907399336151 
1325	 0.40719589973789 
1326	 0.407471501191797 
1327	 0.40774608012106 
1328	 0.408014970698116 
1329	 0.408279990274484 
1330	 0.408525170147507 
1331	 0.408766636284586 
1332	 0.408991354271948 
1333	 0.409181915670587 
1334	 0.409383757044444 
1335	 0.40957052995166 
1336	 0.409754253063969 
1337	 0.409917313945445 
1338	 0.410066785690499 
1339	 0.41020741936161 
1340	 0.410339117913122 
1341	 0.410448169711237 
1342	 0.410540951328187 
1343	 0.410630007884995 
1344	 0.410696512955348 
1345	 0.410769002057117 
1346	 0.410847626542562 
1347	 0.410908761505416 
1348	 0.410958048968171 
1349	 0.411003919207845 
1350	 0.411048154931397 
1351	 0.41107357826117 
1352	 0.411073878233804 
1353	 0.411093783064963 
1354	 0.411111396415735 
1355	 0.411126116061348 
1356	 0.411145641149536 
1357	 0.411172673664095 
1358	 0.41119020644851 
1359	 0.411220413230159 
1360	 0.411280915495536 
1361	 0.411322443627444 
1362	 0.411358143329593 
1363	 0.411396700943529 
1364	 0.411418833083099 
1365	 0.411428509677887 
1366	 0.411441076990112 
1367	 0.411452883818202 
1368	 0.411443670778353 
1369	 0.411425253612427 
1370	 0.411402379026143 
1371	 0.4113682798242 
1372	 0.411321751238482 
1373	 0.41127342139036 
1374	 0.411209349251162 
1375	 0.411134237028431 
1376	 0.411032412517364 
1377	 0.41092634379357 
1378	 0.41078224822741 
1379	 0.410615103910796 
1380	 0.41040718019255 
1381	 0.410206667515153 
1382	 0.409900615268347 
1383	 0.409557468945231 
1384	 0.40910416738798 
1385	 0.408542634343882 
1386	 0.407929606413019 
1387	 0.407190960229849 
1388	 0.406471986048908 
1389	 0.405652718033267 
1390	 0.404918556409493 
1391	 0.404210539671416 
1392	 0.403513317265512 
1393	 0.402940146046319 
1394	 0.402415824564832 
1395	 0.401945589500594 
1396	 0.401563631700758 
1397	 0.401165778766221 
1398	 0.400840209857995 
1399	 0.400413420399807 
1400	 0.399997952651809 
1401	 0.399470975850498 
1402	 0.398871968811961 
1403	 0.398213033455708 
1404	 0.397490631836577 
1405	 0.396713778747837 
1406	 0.395869661254743 
1407	 0.394979975703565 
1408	 0.393995567717459 
1409	 0.393044502207196 
1410	 0.392034804793657 
1411	 0.39108112025819 
1412	 0.390127601623917 
1413	 0.389242411285346 
1414	 0.388390205770268 
1415	 0.387582023847697 
1416	 0.386818050238275 
1417	 0.386103083589728 
1418	 0.385442467809031 
1419	 0.384801036297493 
1420	 0.384209117995026 
1421	 0.383643937181331 
1422	 0.383101971168853 
1423	 0.382579919627127 
1424	 0.382107862776326 
1425	 0.381629511288694 
1426	 0.381187261895439 
1427	 0.380706757704313 
1428	 0.380192419654754 
1429	 0.379678718923455 
1430	 0.379057014777053 
1431	 0.378382687295002 
1432	 0.377610603868015 
1433	 0.37675946889257 
1434	 0.375824024203147 
1435	 0.374788157302345 
1436	 0.373714296302619 
1437	 0.372525042082092 
1438	 0.371407964432613 
1439	 0.370206454798689 
1440	 0.369168145335779 
1441	 0.368111600213225 
1442	 0.367313894061353 
1443	 0.366571753822678 
1444	 0.366182193265417 
1445	 0.366004213856408 
1446	 0.366134735461552 
1447	 0.36657787775117 
1448	 0.367233563346554 
1449	 0.368243142346806 
1450	 0.36931120321294 
1451	 0.370646537920018 
1452	 0.371974066388357 
1453	 0.373472910264625 
1454	 0.374872335211499 
1455	 0.37633564268668 
1456	 0.37769649630887 
1457	 0.379011610190382 
1458	 0.38024240628613 
1459	 0.381395942608091 
1460	 0.38249695425352 
1461	 0.383520187764366 
1462	 0.384479714588638 
1463	 0.385354214146042 
1464	 0.386218962552268 
1465	 0.387020513370805 
1466	 0.387812377406547 
1467	 0.38856143372797 
1468	 0.389305179897034 
1469	 0.390014262930207 
1470	 0.390651598188436 
1471	 0.391285916690512 
1472	 0.391904837457852 
1473	 0.392484475570517 
1474	 0.393033679630533 
1475	 0.393542546865072 
1476	 0.394033764164392 
1477	 0.394447514119148 
1478	 0.394816737196307 
1479	 0.395105804727691 
1480	 0.395324218834937 
1481	 0.395491788474332 
1482	 0.395571217263549 
1483	 0.395653061773368 
1484	 0.395660225546431 
1485	 0.395727674897982 
1486	 0.395759079616312 
1487	 0.395890840620236 
1488	 0.396037928944339 
1489	 0.396309536254609 
1490	 0.396662579210908 
1491	 0.397104769817103 
1492	 0.397645049923349 
1493	 0.39826884384334 
1494	 0.398987373343409 
1495	 0.399764450009389 
1496	 0.400645342024141 
1497	 0.401554485619003 
1498	 0.402554417708406 
1499	 0.403536511706697 
1500	 0.404572865406998 
1501	 0.405578815533982 
1502	 0.406606263841688 
1503	 0.407564709652378 
1504	 0.408507273689367 
1505	 0.409393444388118 
1506	 0.410225203231989 
1507	 0.41100858120432 
1508	 0.411738245767148 
1509	 0.412437246995479 
1510	 0.413084978223207 
1511	 0.413694884120298 
1512	 0.414257602376034 
1513	 0.414808233059019 
1514	 0.415325781240456 
1515	 0.41581609434173 
1516	 0.416295435327634 
1517	 0.416739076869693 
1518	 0.417133366162941 
1519	 0.417513947746982 
1520	 0.417872387916943 
1521	 0.418211489402706 
1522	 0.418513961536815 
1523	 0.418806629366676 
1524	 0.419074466836977 
1525	 0.419308977317752 
1526	 0.419553348398261 
1527	 0.41978070450041 
1528	 0.420024796059327 
1529	 0.420274873786215 
1530	 0.420510992021276 
1531	 0.420738446601301 
1532	 0.420994438092084 
1533	 0.42123853396052 
1534	 0.421531230262236 
1535	 0.42185859426929 
1536	 0.42220404682715 
1537	 0.422558994949704 
1538	 0.422973944947455 
1539	 0.423426619478654 
1540	 0.423917368583167 
1541	 0.424450969618004 
1542	 0.425029254186649 
1543	 0.425652278010991 
1544	 0.426295777988121 
1545	 0.426982978422271 
1546	 0.427696146724007 
1547	 0.428442330566116 
1548	 0.429194000398607 
1549	 0.429985336600632 
1550	 0.430768825078997 
1551	 0.431555627003477 
1552	 0.43234338425822 
1553	 0.433146918577766 
1554	 0.433939541553207 
1555	 0.434736116312813 
1556	 0.435507506104748 
1557	 0.436276155998611 
1558	 0.437020210190868 
1559	 0.437736245659687 
1560	 0.438445207648203 
1561	 0.439139001279358 
1562	 0.439826628933366 
1563	 0.440514025983684 
1564	 0.44116438851627 
1565	 0.441785217282193 
1566	 0.442411653255888 
1567	 0.443007763290882 
1568	 0.443616103968839 
1569	 0.444241055555115 
1570	 0.444847465221436 
1571	 0.445446543086426 
1572	 0.446030070129288 
1573	 0.446593142006684 
1574	 0.447167303509037 
1575	 0.447739862860118 
1576	 0.448301273585629 
1577	 0.448867068310986 
1578	 0.44942194231894 
1579	 0.449956939355044 
1580	 0.450493213074474 
1581	 0.451032097891844 
1582	 0.451561475725333 
1583	 0.452084283286353 
1584	 0.452598328903979 
1585	 0.453095421959077 
1586	 0.453605332762058 
1587	 0.45411799128026 
1588	 0.454621886088681 
1589	 0.455129742561928 
1590	 0.455634270334711 
1591	 0.456119083617617 
1592	 0.456622057455784 
1593	 0.45714116718086 
1594	 0.457653906649049 
1595	 0.458174303658183 
1596	 0.458683865072781 
1597	 0.459165583730228 
1598	 0.459684081741271 
1599	 0.460232141398932 
1600	 0.460760230961895 
1601	 0.461307759153365 
1602	 0.461838768977133 
1603	 0.462345933854418 
1604	 0.462847777761507 
1605	 0.463349797003899 
1606	 0.463842580701631 
1607	 0.464319844261404 
1608	 0.464794850479571 
1609	 0.465255938214652 
1610	 0.465732840238084 
1611	 0.466233681880738 
1612	 0.466691679801442 
1613	 0.467130924677963 
1614	 0.467576067895266 
1615	 0.46800008187709 
1616	 0.468414544175676 
1617	 0.468848048335869 
1618	 0.469250674367952 
1619	 0.46961100578222 
1620	 0.46997304722349 
1621	 0.470329441236564 
1622	 0.47067544580141 
1623	 0.470992705416333 
1624	 0.471335754448856 
1625	 0.471685776220737 
1626	 0.472036256803649 
1627	 0.472410478847301 
1628	 0.472766670743925 
1629	 0.47310808117553 
1630	 0.473452204567202 
1631	 0.473800872522672 
1632	 0.47413581357102 
1633	 0.474457564500975 
1634	 0.474785861324878 
1635	 0.475116740222294 
1636	 0.475427261916908 
1637	 0.475736958956955 
1638	 0.476032976524786 
1639	 0.476295704773662 
1640	 0.476573293192549 
1641	 0.476856782645412 
1642	 0.47713559720096 
1643	 0.47742925129762 
1644	 0.47769289854697 
1645	 0.477946714315209 
1646	 0.478175928411007 
1647	 0.478381844412976 
1648	 0.478566853449417 
1649	 0.478734346393085 
1650	 0.47887813894896 
1651	 0.478988411097645 
1652	 0.479091192328869 
1653	 0.479161271703625 
1654	 0.479246078035779 
1655	 0.479348335178335 
1656	 0.47941545779253 
1657	 0.479481566106772 
1658	 0.47951161125249 
1659	 0.479510693247418 
1660	 0.479476855695874 
1661	 0.479423724465159 
1662	 0.479326640943646 
1663	 0.479190845013265 
1664	 0.479012885286702 
1665	 0.478788776681202 
1666	 0.478538838452387 
1667	 0.478248219015723 
1668	 0.477928471775066 
1669	 0.47759286055151 
1670	 0.477203472792051 
1671	 0.476776028010459 
1672	 0.476289610872433 
1673	 0.475748089208763 
1674	 0.475157831906623 
1675	 0.474502240381378 
1676	 0.473841144973392 
1677	 0.47315295679969 
1678	 0.472421327903127 
1679	 0.471659524175778 
1680	 0.470848330411091 
1681	 0.469972506407224 
1682	 0.46908356020751 
1683	 0.46816297187106 
1684	 0.467239158011074 
1685	 0.466312562239216 
1686	 0.465328069606715 
1687	 0.464289269989137 
1688	 0.463252546278947 
1689	 0.462175293785409 
1690	 0.461098000274106 
1691	 0.460043645282738 
1692	 0.458957877296941 
1693	 0.457839914015755 
1694	 0.456705291452123 
1695	 0.455562566386015 
1696	 0.454361970893282 
1697	 0.453131890027026 
1698	 0.451841957736539 
1699	 0.450489811670851 
1700	 0.449169049726328 
1701	 0.447804639168556 
1702	 0.446477176861766 
1703	 0.445148897267596 
1704	 0.44384730536105 
1705	 0.442538358094304 
1706	 0.441280054539499 
1707	 0.440146726491388 
1708	 0.438997013386455 
1709	 0.437884146279052 
1710	 0.436785168125147 
1711	 0.435626066119974 
1712	 0.43453230965017 
1713	 0.433397789621371 
1714	 0.432225833056249 
1715	 0.43112650138962 
1716	 0.429995837820532 
1717	 0.428892107305103 
1718	 0.427806920076814 
1719	 0.426680839616487 
1720	 0.42561879035321 
1721	 0.424587412704682 
1722	 0.423590469374683 
1723	 0.422725238557297 
1724	 0.421927517999501 
1725	 0.421196011212757 
1726	 0.420606256600573 
1727	 0.42014829869105 
1728	 0.419830770759765 
1729	 0.419641450870683 
1730	 0.419582755917049 
1731	 0.419615997790164 
1732	 0.419711454156388 
1733	 0.419842651619834 
1734	 0.420002426641461 
1735	 0.420171380985143 
1736	 0.420306261006073 
1737	 0.420405233297129 
1738	 0.420455308981147 
1739	 0.420439385398219 
1740	 0.420344024632323 
1741	 0.420233119102198 
1742	 0.420071131331773 
1743	 0.419899847868669 
1744	 0.419669898183131 
1745	 0.419479656630306 
1746	 0.419251376784358 
1747	 0.419125723518034 
1748	 0.419058594562875 
1749	 0.419036735595793 
1750	 0.419065346571996 
1751	 0.419182317480621 
1752	 0.419342217178227 
1753	 0.419615456143267 
1754	 0.419993009961177 
1755	 0.420435249500309 
1756	 0.420963230500282 
1757	 0.421543520261729 
1758	 0.422232363300834 
1759	 0.422954825156665 
1760	 0.423784726306971 
1761	 0.424694517425502 
1762	 0.425591216104664 
1763	 0.426559379036309 
1764	 0.427525696223366 
1765	 0.428510706589006 
1766	 0.429589343584359 
1767	 0.430606228120915 
1768	 0.431626487307359 
1769	 0.432642158927217 
1770	 0.433536964662337 
1771	 0.434451248908972 
1772	 0.435340099777286 
1773	 0.436156024788626 
1774	 0.437002478978037 
1775	 0.437787704184996 
1776	 0.438547024810274 
1777	 0.43930403058431 
1778	 0.439982098998457 
1779	 0.44065003928594 
1780	 0.441321420473044 
1781	 0.441994094170352 
1782	 0.442672956627743 
1783	 0.443325694346601 
1784	 0.443961808156375 
1785	 0.444561723667332 
1786	 0.445179977836819 
1787	 0.445815520870246 
1788	 0.446441736043423 
1789	 0.44707086463412 
1790	 0.447684962365079 
1791	 0.448308074338129 
1792	 0.448904417019551 
1793	 0.449474354510344 
1794	 0.450002799374849 
1795	 0.450513358426581 
1796	 0.451023879744359 
1797	 0.451530499933089 
1798	 0.451983396944599 
1799	 0.452431610560952 
1800	 0.452879565651706 
1801	 0.464206888119597 
1802	 0.464664096777337 
1803	 0.465122950932067 
1804	 0.465548201392681 
1805	 0.465981405876876 
1806	 0.466413360141649 
1807	 0.466874153164505 
1808	 0.467290148635503 
1809	 0.467674690622753 
1810	 0.468071214858772 
1811	 0.468449719446539 
1812	 0.468838505677713 
1813	 0.469232888508121 
1814	 0.469649865279904 
1815	 0.470030067991641 
1816	 0.470409605807606 
1817	 0.470783403035608 
1818	 0.471150388444695 
1819	 0.471497104966144 
1820	 0.471842626119352 
1821	 0.47217052629928 
1822	 0.472464586635099 
1823	 0.472775123519664 
1824	 0.473075932815703 
1825	 0.473369919070169 
1826	 0.473667731568154 
1827	 0.473969779115993 
1828	 0.474246034516201 
1829	 0.47452335133234 
1830	 0.474779912073346 
1831	 0.475011145784089 
1832	 0.475245723866453 
1833	 0.47547612343388 
1834	 0.475678089190031 
1835	 0.475849840964886 
1836	 0.476006279745087 
1837	 0.476162567505112 
1838	 0.476303734320419 
1839	 0.476434737761408 
1840	 0.476577228115448 
1841	 0.476684648039099 
1842	 0.476775107720883 
1843	 0.476826241258865 
1844	 0.476877668772308 
1845	 0.476890565389284 
1846	 0.476861263565241 
1847	 0.476819594319451 
1848	 0.476711106158899 
1849	 0.476559139401434 
1850	 0.476353924729399 
1851	 0.476106191798768 
1852	 0.475787567913214 
1853	 0.475427677262198 
1854	 0.475019604013529 
1855	 0.474529512385794 
1856	 0.474006499147804 
1857	 0.473415252420981 
1858	 0.472729649560053 
1859	 0.471998740542434 
1860	 0.471218153450326 
1861	 0.470344886137668 
1862	 0.469387790689687 
1863	 0.468411737497179 
1864	 0.46732785711083 
1865	 0.466191419387719 
1866	 0.464984103874944 
1867	 0.463618439693726 
1868	 0.462211562369984 
1869	 0.460679160453757 
1870	 0.459040123727272 
1871	 0.45731901546302 
1872	 0.455532194884282 
1873	 0.453639950476141 
1874	 0.451685413149481 
1875	 0.449702538850226 
1876	 0.447476024889428 
1877	 0.445227841368623 
1878	 0.442833690929144 
1879	 0.440243874927411 
1880	 0.437731902200285 
1881	 0.435069332895271 
1882	 0.432262984997984 
1883	 0.429407932003404 
1884	 0.426473434523852 
1885	 0.42321761339807 
1886	 0.419965724280441 
1887	 0.416513036587158 
1888	 0.412857757712355 
1889	 0.40937503755014 
1890	 0.405684777209418 
1891	 0.40194105324063 
1892	 0.398193672599642 
1893	 0.394257196145444 
1894	 0.390100783378163 
1895	 0.386033637499245 
1896	 0.38181023706101 
1897	 0.377470918750516 
1898	 0.373427614411411 
1899	 0.369210502148322 
1900	 0.36506972608933 
1901	 0.361069701291286 
1902	 0.356824260742652 
1903	 0.352787189990777 
1904	 0.348824566597422 
1905	 0.344879406586979 
1906	 0.341022489598685 
1907	 0.3375624943573 
1908	 0.33407583624839 
1909	 0.33074233720499 
1910	 0.327614624995442 
1911	 0.324346950270933 
1912	 0.321293105886827 
1913	 0.318282366326123 
1914	 0.315231753181009 
1915	 0.312351258534251 
1916	 0.309666134810362 
1917	 0.306874427203452 
1918	 0.304138934865486 
1919	 0.301488261174006 
1920	 0.298615693144595 
1921	 0.295817585683872 
1922	 0.292947940362192 
1923	 0.28994406614388 
1924	 0.287152374714899 
1925	 0.284257890548171 
1926	 0.281408946272301 
1927	 0.278634632264322 
1928	 0.275826367745555 
1929	 0.272925906276466 
1930	 0.270197267864272 
1931	 0.267521505063967 
1932	 0.264932674027985 
1933	 0.262710673065869 
1934	 0.260614337585022 
1935	 0.258709340978246 
1936	 0.257106982556369 
1937	 0.255696524189751 
1938	 0.254448427144872 
1939	 0.253529112556291 
1940	 0.252861994840915 
1941	 0.252464163481419 
1942	 0.252372888727026 
1943	 0.252481471566412 
1944	 0.252794560617227 
1945	 0.253394836212355 
1946	 0.25428739813465 
1947	 0.255371343836737 
1948	 0.256813144714386 
1949	 0.258586542218015 
1950	 0.260508960753488 
1951	 0.262698116582916 
1952	 0.265085648691333 
1953	 0.267675172803867 
1954	 0.270441788252556 
1955	 0.273538782288762 
1956	 0.276604423935775 
1957	 0.279693663314792 
1958	 0.282759108174347 
1959	 0.285460866413138 
1960	 0.287983875929095 
1961	 0.290247322458435 
1962	 0.29223097896345 
1963	 0.294010180729954 
1964	 0.295561772001379 
1965	 0.296881081453139 
1966	 0.297948133047955 
1967	 0.298860469584321 
1968	 0.299553215590231 
1969	 0.300233191583242 
1970	 0.300888252635641 
1971	 0.301549380445794 
1972	 0.302279050156597 
1973	 0.303033489342029 
1974	 0.303872719413853 
1975	 0.304796778252638 
1976	 0.305759068792837 
1977	 0.306774621633468 
1978	 0.307856803590614 
1979	 0.308984636602024 
1980	 0.310155335731719 
1981	 0.311491409068377 
1982	 0.312853318181213 
1983	 0.314358839088258 
1984	 0.315990423480051 
1985	 0.317577421424652 
1986	 0.319313751853769 
1987	 0.321187452071076 
1988	 0.32306460840209 
1989	 0.325256555755179 
1990	 0.327694468534636 
1991	 0.330239509354208 
1992	 0.332987822824018 
1993	 0.335958519986961 
1994	 0.338814554684774 
1995	 0.341877634637087 
1996	 0.344985713961774 
1997	 0.348064298709893 
1998	 0.351264622710027 
1999	 0.354657304775349 
2000	 0.357824522308047 
2001	 0.361113990083628 
2002	 0.36408772051647 
2003	 0.366853052635605 
2004	 0.369549492762492 
2005	 0.372039255744692 
2006	 0.374471594079903 
2007	 0.376877054384072 
2008	 0.379078577659997 
2009	 0.38115191512351 
2010	 0.383145960958214 
2011	 0.38487676848803 
2012	 0.386555978882315 
2013	 0.388125494801539 
2014	 0.389539704636577 
2015	 0.390918163837377 
2016	 0.392233412861917 
2017	 0.393432626851865 
2018	 0.394562964631393 
2019	 0.39558406254372 
2020	 0.396463716618555 
2021	 0.39729964945603 
2022	 0.39807181702622 
2023	 0.398726097829973 
2024	 0.399354977072098 
2025	 0.399902354406114 
2026	 0.400377305011996 
2027	 0.400768946839375 
2028	 0.40111341904848 
2029	 0.401368010844466 
2030	 0.401609276955537 
2031	 0.401794205005902 
2032	 0.401960629062722 
2033	 0.402078443781763 
2034	 0.402190779980472 
2035	 0.402273333482786 
2036	 0.402342386551281 
2037	 0.402419878155056 
2038	 0.402506008131599 
2039	 0.40258456818916 
2040	 0.402664925266968 
2041	 0.402746447393127 
2042	 0.402813799944542 
2043	 0.402905374288416 
2044	 0.403013634892276 
2045	 0.403115953740843 
2046	 0.403215717762105 
2047	 0.403337253887364 
2048	 0.403460840998844 
2049	 0.403604270566401 
2050	 0.403774629921262 
2051	 0.403941244476142 
2052	 0.404141712716701 
2053	 0.40435286663691 
2054	 0.40457328500821 
2055	 0.404821580860153 
2056	 0.405062327536754 
2057	 0.405289872745367 
2058	 0.405558292517004 
2059	 0.405830242971795 
2060	 0.406144673692266 
2061	 0.406499746030317 
2062	 0.4068693254399 
2063	 0.407277349946213 
2064	 0.407692223107658 
2065	 0.408123051849865 
2066	 0.408565654106662 
2067	 0.409043708817896 
2068	 0.409507603159762 
2069	 0.409975280446704 
2070	 0.410473433300226 
2071	 0.410922151942835 
2072	 0.411357256528285 
2073	 0.411765729886367 
2074	 0.412145043825028 
2075	 0.412510325669313 
2076	 0.412873631649132 
2077	 0.413179551126396 
2078	 0.413460396065482 
2079	 0.413699740678566 
2080	 0.413887093438524 
2081	 0.414041780111425 
2082	 0.414168328419404 
2083	 0.414250233935554 
2084	 0.414274891914023 
2085	 0.414292847768768 
2086	 0.414267719910602 
2087	 0.414195515101363 
2088	 0.414117752213144 
2089	 0.41402734226396 
2090	 0.413884246304302 
2091	 0.413718840440424 
2092	 0.413508810638983 
2093	 0.413236163485581 
2094	 0.412954053811756 
2095	 0.412620286500937 
2096	 0.41230503192984 
2097	 0.412001512717925 
2098	 0.41165128171289 
2099	 0.411291795613816 
2100	 0.410921445093067 
2101	 0.41049543328416 
2102	 0.410001243952863 
2103	 0.409538352459924 
2104	 0.409053643027654 
2105	 0.408574087867001 
2106	 0.40810365775168 
2107	 0.407606830332527 
2108	 0.407099095073941 
2109	 0.406573477095535 
2110	 0.406025278079925 
2111	 0.405479932393079 
2112	 0.404911048503542 
2113	 0.40435541305389 
2114	 0.40380890344191 
2115	 0.403249563588486 
2116	 0.402698638050679 
2117	 0.402137656428035 
2118	 0.401540202462787 
2119	 0.40091548527363 
2120	 0.400301328648513 
2121	 0.399640808507862 
2122	 0.39904346110234 
2123	 0.398481151976845 
2124	 0.397905032140452 
2125	 0.397363855488392 
2126	 0.396789799727212 
2127	 0.396191071839666 
2128	 0.395610668238484 
2129	 0.395000977594785 
2130	 0.394438339898975 
2131	 0.393929947368038 
2132	 0.393385644715916 
2133	 0.392857643922458 
2134	 0.392334492379619 
2135	 0.391693629694593 
2136	 0.391066539729804 
2137	 0.390455598225865 
2138	 0.389813955169193 
2139	 0.38920547321197 
2140	 0.388649086339081 
2141	 0.388037938044566 
2142	 0.387412710128808 
2143	 0.386771536540577 
2144	 0.386092089042831 
2145	 0.385446977282538 
2146	 0.384790331832626 
2147	 0.38415545877001 
2148	 0.383559496671356 
2149	 0.382943074078108 
2150	 0.382360411850162 
2151	 0.381718548118942 
2152	 0.381035905740395 
2153	 0.380352074221215 
2154	 0.379629023342225 
2155	 0.378881825978525 
2156	 0.37819768387789 
2157	 0.377551133027646 
2158	 0.376871008820542 
2159	 0.376218007012253 
2160	 0.375531523458561 
2161	 0.374803356078098 
2162	 0.374107804451472 
2163	 0.373389382761255 
2164	 0.372735462097617 
2165	 0.372117619016125 
2166	 0.371504804749793 
2167	 0.370932396107157 
2168	 0.370372458940308 
2169	 0.36979123701625 
2170	 0.369278628921736 
2171	 0.368814453608408 
2172	 0.368377736477786 
2173	 0.367985030790118 
2174	 0.367617870056758 
2175	 0.367290322664332 
2176	 0.367005720358618 
2177	 0.366740146540349 
2178	 0.366514131811633 
2179	 0.366307144909102 
2180	 0.366123541379306 
2181	 0.365960211224277 
2182	 0.365840290793119 
2183	 0.36570554324646 
2184	 0.365595240643722 
2185	 0.365455646645832 
2186	 0.365311511619253 
2187	 0.365154962189974 
2188	 0.36499399432973 
2189	 0.364798638626403 
2190	 0.364601145841774 
2191	 0.364354488480967 
2192	 0.364052633770046 
2193	 0.363747515912069 
2194	 0.363423669360215 
2195	 0.363069813246742 
2196	 0.362692760677688 
2197	 0.362294733202857 
2198	 0.361877389717935 
2199	 0.361418855059372 
2200	 0.360945541141984 
2201	 0.360454445126922 
2202	 0.359939357844022 
2203	 0.359387363218843 
2204	 0.358842674558642 
2205	 0.358280975968101 
2206	 0.357718928589576 
2207	 0.357140312786663 
2208	 0.356574617521718 
2209	 0.3559761419512 
2210	 0.355462170954036 
2211	 0.35497098602093 
2212	 0.354538435019985 
2213	 0.354148746362139 
2214	 0.353834018467633 
2215	 0.353564431686428 
2216	 0.353376760869098 
2217	 0.353286592205381 
2218	 0.353240768757946 
2219	 0.353280762632159 
2220	 0.353335575377532 
2221	 0.353431669293739 
2222	 0.353584284726445 
2223	 0.353744821869133 
2224	 0.353912149420692 
2225	 0.354078250857228 
2226	 0.354206497679573 
2227	 0.354233852390081 
2228	 0.354200841162493 
2229	 0.354095621350973 
2230	 0.353918479545405 
2231	 0.353644143748128 
2232	 0.353311274085374 
2233	 0.352857101441575 
2234	 0.352301968306023 
2235	 0.351623232782113 
2236	 0.350824987637422 
2237	 0.349944634348335 
2238	 0.348886991024267 
2239	 0.347857447187771 
2240	 0.346793905092114 
2241	 0.345647342225624 
2242	 0.344470660107278 
2243	 0.343206532173653 
2244	 0.341831272781636 
2245	 0.340432506411424 
2246	 0.338930759803351 
2247	 0.337460913597313 
2248	 0.335962308409113 
2249	 0.334455290793304 
2250	 0.332968765617219 
2251	 0.331477487066968 
2252	 0.329845694072984 
2253	 0.328235369715252 
2254	 0.326573855094406 
2255	 0.324894232207227 
2256	 0.323328299935911 
2257	 0.321736717648912 
2258	 0.320155981969314 
2259	 0.318616022294371 
2260	 0.317007535734737 
2261	 0.315351527576665 
2262	 0.313758343044632 
2263	 0.312104106401584 
2264	 0.310591093609542 
2265	 0.309164632664571 
2266	 0.307754704086133 
2267	 0.306427490955965 
2268	 0.305115481191138 
2269	 0.303825472189122 
2270	 0.302589142642091 
2271	 0.301394527251218 
2272	 0.300241895271564 
2273	 0.299166847023509 
2274	 0.298062709913173 
2275	 0.297040136798149 
2276	 0.29591305287367 
2277	 0.294744334887747 
2278	 0.293538496180447 
2279	 0.292239077787645 
2280	 0.29095052263568 
2281	 0.289685483347102 
2282	 0.288325591635538 
2283	 0.286920894221697 
2284	 0.28550556399426 
2285	 0.283869618960417 
2286	 0.282210369839803 
2287	 0.280503366095372 
2288	 0.278678117203262 
2289	 0.27697415584531 
2290	 0.275190197026751 
2291	 0.273360858153053 
2292	 0.271595288658434 
2293	 0.269733060974749 
2294	 0.267943137507606 
2295	 0.266246806164531 
2296	 0.264603163846305 
2297	 0.263174712381512 
2298	 0.26189226695367 
2299	 0.26079103202861 
2300	 0.259845792064388 
2301	 0.259133717581151 
2302	 0.258599451962343 
2303	 0.258319936651244 
2304	 0.258297738573985 
2305	 0.258480354924629 
2306	 0.258911176378511 
2307	 0.259537203316036 
2308	 0.260370056508088 
2309	 0.261465807591976 
2310	 0.26285903035923 
2311	 0.264357012017838 
2312	 0.266250962663364 
2313	 0.267969812284367 
2314	 0.269798102435339 
2315	 0.271510014463116 
2316	 0.273172348930053 
2317	 0.274720889764213 
2318	 0.276277596419087 
2319	 0.277589341041455 
2320	 0.278749760108946 
2321	 0.279746716351778 
2322	 0.280523769639986 
2323	 0.281190326099113 
2324	 0.281724755933794 
2325	 0.282085626643275 
2326	 0.282268840001599 
2327	 0.282306167039017 
2328	 0.282175005476233 
2329	 0.281889899406228 
2330	 0.28142586692667 
2331	 0.280820047443729 
2332	 0.280152305334764 
2333	 0.279262433223818 
2334	 0.278187497915928 
2335	 0.277069828331852 
2336	 0.275752676553509 
2337	 0.274289112014424 
2338	 0.272916389145755 
2339	 0.271463602093361 
2340	 0.269997700408966 
2341	 0.268616021830294 
2342	 0.267251955341087 
2343	 0.26604205858482 
2344	 0.26504746134977 
2345	 0.264322011467241 
2346	 0.263896178157255 
2347	 0.26380531742319 
2348	 0.263982859698538 
2349	 0.264445510013971 
2350	 0.265156386727671 
2351	 0.266104055701615 
2352	 0.267149743093673 
2353	 0.268265153363111 
2354	 0.269371721006352 
2355	 0.270389263649598 
2356	 0.271366264055581 
2357	 0.272133601292164 
2358	 0.272735844226761 
2359	 0.273157622154212 
2360	 0.273350863069351 
2361	 0.273397363449827 
2362	 0.273352840858307 
2363	 0.273136236020453 
2364	 0.272837944331552 
2365	 0.272573669696711 
2366	 0.272228849230881 
2367	 0.271869030191223 
2368	 0.271472386110744 
2369	 0.27094597491904 
2370	 0.270439087289753 
2371	 0.269930363862514 
2372	 0.269433990543749 
2373	 0.26895564702618 
2374	 0.268378940171478 
2375	 0.267820105270366 
2376	 0.267211383286806 
2377	 0.266543147181194 
2378	 0.265948160322554 
2379	 0.265304655587298 
2380	 0.264635340737726 
2381	 0.263997451981398 
2382	 0.263312955324306 
2383	 0.262591071022641 
2384	 0.261839577541354 
2385	 0.26106365037839 
2386	 0.260265459831335 
2387	 0.259421791720294 
2388	 0.25859383847223 
2389	 0.25774681245953 
2390	 0.256886220035758 
2391	 0.256016823294971 
2392	 0.255154772029792 
2393	 0.254251733725819 
2394	 0.253453516491086 
2395	 0.252763410318949 
2396	 0.251929109877346 
2397	 0.25108349256955 
2398	 0.250219338337388 
2399	 0.249272477511724 
2400	 0.248359947277945 
2401	 0.24741487326759 
2402	 0.246537213860266 
2403	 0.245667018446021 
2404	 0.244742126094788 
2405	 0.244055810930768 
2406	 0.243338782173066 
2407	 0.242498800015294 
2408	 0.241756931322984 
2409	 0.240968996662451 
2410	 0.240199355085735 
2411	 0.239483228332097 
2412	 0.238725694140699 
2413	 0.238053874229837 
2414	 0.237396522703885 
2415	 0.236744160170123 
2416	 0.236134295634554 
2417	 0.235479164301558 
2418	 0.234803697103125 
2419	 0.234140531487969 
2420	 0.233645648129165 
2421	 0.233250101879999 
2422	 0.232766317629223 
2423	 0.232270607128239 
2424	 0.23173854468408 
2425	 0.23122507396841 
2426	 0.230903280128143 
2427	 0.230667391821739 
2428	 0.230309464469699 
2429	 0.229899839952681 
2430	 0.229478763773822 
2431	 0.229026289138385 
2432	 0.22861669242564 
2433	 0.228119067102098 
2434	 0.227569610079427 
2435	 0.227031945989692 
2436	 0.226606892654411 
2437	 0.226349724692382 
2438	 0.225994913220927 
2439	 0.225738217579882 
2440	 0.225428474319195 
2441	 0.225028089813706 
2442	 0.224913856194782 
2443	 0.224615544981616 
2444	 0.224198277896214 
2445	 0.22388939387611 
2446	 0.223343529001614 
2447	 0.222900746071403 
2448	 0.222532654836187 
2449	 0.222012213838262 
2450	 0.221681286921804 
2451	 0.221243530823279 
2452	 0.220771626767083 
2453	 0.22047165033221 
2454	 0.220047466759919 
2455	 0.219643674422296 
2456	 0.219169427392672 
2457	 0.21854108644912 
2458	 0.217814278445509 
2459	 0.217124750854221 
2460	 0.216645707787144 
2461	 0.216187091816924 
2462	 0.215823365072789 
2463	 0.215347569947033 
2464	 0.214683845558014 
2465	 0.214216055226055 
2466	 0.213741777010949 
2467	 0.213288776224415 
2468	 0.21295334169805 
2469	 0.212535471064497 
2470	 0.212180165479037 
2471	 0.211754635878697 
2472	 0.211225460095649 
2473	 0.210781682760718 
2474	 0.210163868237143 
2475	 0.209674192863623 
2476	 0.20959654369607 
2477	 0.209442575732457 
2478	 0.209373526652095 
2479	 0.209501432014895 
2480	 0.209286889161595 
2481	 0.209288384653137 
2482	 0.209491413910534 
2483	 0.209327013650568 
2484	 0.2091307369265 
2485	 0.208867096383293 
2486	 0.208576239435507 
2487	 0.208580907336201 
2488	 0.209026019145463 
2489	 0.209254689443365 
2490	 0.209250027705947 
2491	 0.209350528750091 
2492	 0.209384502304528 
2493	 0.209579523489324 
2494	 0.209809564700935 
2495	 0.209964020907588 
2496	 0.209954783053403 
2497	 0.210122339704805 
2498	 0.210566755470062 
2499	 0.210674354104746 
2500	 0.210754525663218 
