Wavelength	spectrum00022.asd
350	 2.81539043788576E-02 
351	 0.027241642354767 
352	 2.59539223046453E-02 
353	 2.59516522270964E-02 
354	 2.87397132261851E-02 
355	 2.88012231895926E-02 
356	 2.71243886451544E-02 
357	 2.58264734293267E-02 
358	 2.55641083757047E-02 
359	 2.48396963256294E-02 
360	 2.44314103565203E-02 
361	 2.57755899948855E-02 
362	 2.56712647179082E-02 
363	 2.50549874401594E-02 
364	 2.47167535852125E-02 
365	 2.46699884223516E-02 
366	 2.57118507131851E-02 
367	 2.56954705844483E-02 
368	 2.37308822813863E-02 
369	 2.52689760504534E-02 
370	 2.61814261741627E-02 
371	 2.57276540279565E-02 
372	 2.51904351021663E-02 
373	 2.46132955170919E-02 
374	 2.45423929075283E-02 
375	 2.52541068054015E-02 
376	 2.66532157986248E-02 
377	 2.70449460166812E-02 
378	 2.65649341719548E-02 
379	 0.025967117855745 
380	 2.60612892305097E-02 
381	 2.67510762503635E-02 
382	 2.71331611582288E-02 
383	 2.61772309654782E-02 
384	 2.62891207215954E-02 
385	 2.65540060663564E-02 
386	 0.026368600567871 
387	 2.61999536281817E-02 
388	 0.026113894557442 
389	 2.59000411631142E-02 
390	 2.54654813727428E-02 
391	 2.53932988607266E-02 
392	 2.57485170871849E-02 
393	 2.63744926445984E-02 
394	 2.69247812711725E-02 
395	 2.66002995365864E-02 
396	 2.63134653801313E-02 
397	 2.65730449036804E-02 
398	 2.69243972153686E-02 
399	 2.64961392082679E-02 
400	 2.61326150982234E-02 
401	 2.65602335954804E-02 
402	 2.56005669847782E-02 
403	 2.58623103042045E-02 
404	 2.69665503078365E-02 
405	 2.64345512484901E-02 
406	 0.026518766653097 
407	 2.64959663134707E-02 
408	 0.02600791356994 
409	 2.62373288236649E-02 
410	 2.65290907017511E-02 
411	 2.66154984330222E-02 
412	 2.64400156798929E-02 
413	 0.026358338739719 
414	 2.61963256330575E-02 
415	 2.60429643091351E-02 
416	 2.62213222460307E-02 
417	 2.64425030972446E-02 
418	 2.65764296564117E-02 
419	 2.65911280762867E-02 
420	 0.026606240946868 
421	 2.64488266611728E-02 
422	 2.63482798643036E-02 
423	 0.026566949394366 
424	 2.64803094246498E-02 
425	 2.62532275551156E-02 
426	 2.60927136905343E-02 
427	 2.61695634084268E-02 
428	 2.62690413989278E-02 
429	 2.62669618537154E-02 
430	 2.61612370684002E-02 
431	 2.62193422293165E-02 
432	 2.64290303667836E-02 
433	 2.64843981390262E-02 
434	 2.60507101211066E-02 
435	 2.60987430645924E-02 
436	 2.61877291668305E-02 
437	 2.60837369755673E-02 
438	 2.61310158080623E-02 
439	 0.026210375270253 
440	 2.62097667696075E-02 
441	 0.026109819296657 
442	 2.63001106797461E-02 
443	 2.63101133762721E-02 
444	 0.026192218971586 
445	 2.63898241899665E-02 
446	 2.63129869701858E-02 
447	 2.61517551243735E-02 
448	 2.61197176360167E-02 
449	 2.62065546512407E-02 
450	 2.63419477170731E-02 
451	 2.64015249685964E-02 
452	 2.62940794815886E-02 
453	 2.62297374501626E-02 
454	 2.61976672937469E-02 
455	 0.026193659558673 
456	 2.62358706036896E-02 
457	 2.61883370044837E-02 
458	 2.60593463749871E-02 
459	 2.59572731725469E-02 
460	 2.62023182065603E-02 
461	 2.63142241443396E-02 
462	 2.62482161268613E-02 
463	 2.62080971444101E-02 
464	 2.61781842807264E-02 
465	 2.62044348509617E-02 
466	 2.62557192506653E-02 
467	 2.61722294095862E-02 
468	 0.02623408165679 
469	 2.62434639094792E-02 
470	 2.60348745162567E-02 
471	 2.61944631992834E-02 
472	 2.62702087162237E-02 
473	 2.62067700538686E-02 
474	 2.62664294118174E-02 
475	 2.60849789227901E-02 
476	 2.59857615172643E-02 
477	 2.61390339859142E-02 
478	 2.61367441731684E-02 
479	 2.61869712978668E-02 
480	 2.62328869039554E-02 
481	 2.61644129696702E-02 
482	 2.61725949523365E-02 
483	 2.61939542534394E-02 
484	 2.61944965365613E-02 
485	 0.026195800060894 
486	 0.026238509437625 
487	 2.62517831864868E-02 
488	 2.62081964774789E-02 
489	 2.63095892670766E-02 
490	 2.63138330597601E-02 
491	 2.62335248492514E-02 
492	 2.62276210980568E-02 
493	 2.62682346467746E-02 
494	 2.63104654995229E-02 
495	 2.63303731539839E-02 
496	 2.63440110863845E-02 
497	 2.63480469411351E-02 
498	 2.63428564290176E-02 
499	 2.63317514204041E-02 
500	 0.02632770604112 
501	 2.63126679232263E-02 
502	 2.62755806458327E-02 
503	 2.62178105880475E-02 
504	 2.62399087279962E-02 
505	 2.62963948721423E-02 
506	 0.026323479066958 
507	 2.62715789789983E-02 
508	 2.62807953051822E-02 
509	 0.026321423681301 
510	 2.63044515183052E-02 
511	 2.63162061102098E-02 
512	 2.63568059099884E-02 
513	 2.64000879084515E-02 
514	 2.63980012717522E-02 
515	 2.63473960731677E-02 
516	 2.62851472621825E-02 
517	 2.62542041052287E-02 
518	 2.62761708994469E-02 
519	 2.63255262800916E-02 
520	 2.63601368467961E-02 
521	 2.63348250074018E-02 
522	 2.62932501673039E-02 
523	 0.026262047267732 
524	 2.62573196007616E-02 
525	 2.62913100930704E-02 
526	 0.026249890801277 
527	 2.62157589458835E-02 
528	 2.62993191888787E-02 
529	 2.63400311139861E-02 
530	 0.026316536934044 
531	 2.62679276772887E-02 
532	 2.62834567251891E-02 
533	 2.62968506493607E-02 
534	 2.63119715794499E-02 
535	 2.63311961203571E-02 
536	 2.63081933381666E-02 
537	 2.62787287766908E-02 
538	 2.62593909009945E-02 
539	 2.62514582051389E-02 
540	 2.62207714756394E-02 
541	 2.62230303434423E-02 
542	 2.62522245669418E-02 
543	 2.61824804916306E-02 
544	 2.61768112317494E-02 
545	 2.61851427246754E-02 
546	 2.61285834230008E-02 
547	 2.61106567766184E-02 
548	 2.61071649291954E-02 
549	 2.61212501596034E-02 
550	 2.61797436943486E-02 
551	 2.61919795913352E-02 
552	 2.61928346846313E-02 
553	 2.62229143592087E-02 
554	 2.62748989429966E-02 
555	 2.63289687041314E-02 
556	 2.63889326257761E-02 
557	 2.64668641048156E-02 
558	 2.65439723396974E-02 
559	 2.66109383708225E-02 
560	 2.66612623800237E-02 
561	 2.66909902114216E-02 
562	 2.66920092035641E-02 
563	 2.66897058318222E-02 
564	 2.66944703938745E-02 
565	 2.66218391369137E-02 
566	 2.65460218600031E-02 
567	 2.64971759637067E-02 
568	 2.64690537476247E-02 
569	 2.64761469265319E-02 
570	 2.64701232578544E-02 
571	 0.026434872263148 
572	 2.64423787338859E-02 
573	 2.64605593388008E-02 
574	 2.64829184485964E-02 
575	 0.02650604569928 
576	 2.65051438635704E-02 
577	 2.64391099479461E-02 
578	 2.63399952054705E-02 
579	 2.63190715751488E-02 
580	 2.62976498788832E-02 
581	 2.62867575523092E-02 
582	 2.63021312088304E-02 
583	 2.63112577528241E-02 
584	 2.63385587528929E-02 
585	 2.63791847941524E-02 
586	 2.64083521678307E-02 
587	 2.63914204602069E-02 
588	 2.63800239412935E-02 
589	 2.64029685068495E-02 
590	 0.026437720005698 
591	 2.64334258241575E-02 
592	 2.64140802632786E-02 
593	 2.64177793777483E-02 
594	 0.026425436085631 
595	 2.64348699486141E-02 
596	 2.64503963601695E-02 
597	 2.64778538597264E-02 
598	 2.64467665692783E-02 
599	 2.64143087265344E-02 
600	 0.026425780917028 
601	 2.64416269647989E-02 
602	 2.64663985547968E-02 
603	 2.64927785359651E-02 
604	 2.65084851149025E-02 
605	 2.64952386074191E-02 
606	 2.65042304351615E-02 
607	 2.65462947778458E-02 
608	 2.65761485765007E-02 
609	 2.65502363062853E-02 
610	 2.65257173992739E-02 
611	 2.65556639687334E-02 
612	 0.026591742311149 
613	 2.66045635662777E-02 
614	 2.65938033156545E-02 
615	 2.65799812666161E-02 
616	 2.65727688291017E-02 
617	 0.026567740214548 
618	 2.65677325853019E-02 
619	 2.65954768109074E-02 
620	 0.026598419146638 
621	 2.65898290391962E-02 
622	 2.65961355602606E-02 
623	 2.65856564086866E-02 
624	 2.65992356505602E-02 
625	 2.66269074750511E-02 
626	 2.66129908462183E-02 
627	 2.66133369534359E-02 
628	 2.66200829249323E-02 
629	 2.66192371235115E-02 
630	 2.66104033301504E-02 
631	 2.66077727235252E-02 
632	 2.66260058588828E-02 
633	 2.66668960951718E-02 
634	 2.66518371088934E-02 
635	 2.66394515917449E-02 
636	 2.66547956741166E-02 
637	 0.026666297127719 
638	 2.66602658666994E-02 
639	 2.66507512100768E-02 
640	 2.66539865654168E-02 
641	 2.66669481607701E-02 
642	 2.66802133759799E-02 
643	 2.66879562429853E-02 
644	 2.66880829433597E-02 
645	 2.66857478366405E-02 
646	 2.66879758615837E-02 
647	 2.67025453743602E-02 
648	 2.67405844607213E-02 
649	 2.67483012614262E-02 
650	 2.67325681117899E-02 
651	 2.67205106230153E-02 
652	 2.67332278020909E-02 
653	 2.67370167495894E-02 
654	 2.67292266741657E-02 
655	 2.67329706290416E-02 
656	 2.67396187381768E-02 
657	 2.67525560425324E-02 
658	 2.67680448904842E-02 
659	 2.67602337902225E-02 
660	 2.67860572743129E-02 
661	 2.68098911660859E-02 
662	 0.026785446552839 
663	 0.026815729332145 
664	 2.68234315913487E-02 
665	 2.68005745138136E-02 
666	 2.68160048613334E-02 
667	 2.68089827668121E-02 
668	 0.026805989200685 
669	 2.68251783924793E-02 
670	 2.68187192869449E-02 
671	 2.68129138172377E-02 
672	 2.68213200920727E-02 
673	 2.68472705788462E-02 
674	 0.026868464795997 
675	 2.68738950977946E-02 
676	 2.68699480001279E-02 
677	 2.68814621781579E-02 
678	 2.68765656261023E-02 
679	 2.68740794879715E-02 
680	 0.026889727366181 
681	 2.68914417134632E-02 
682	 2.69134272855312E-02 
683	 2.69362369375721E-02 
684	 2.69202493413579E-02 
685	 2.69175300385846E-02 
686	 2.69289916465415E-02 
687	 2.69461717159125E-02 
688	 2.69559563454591E-02 
689	 2.69643772629987E-02 
690	 2.69595631971914E-02 
691	 2.69438590389491E-02 
692	 2.69884683136453E-02 
693	 2.69894471157254E-02 
694	 2.69632516667949E-02 
695	 2.69922874772071E-02 
696	 2.69911737941247E-02 
697	 2.69904976425798E-02 
698	 2.70061654271734E-02 
699	 2.70097284103549E-02 
700	 2.70105043202897E-02 
701	 2.70123145007039E-02 
702	 2.70158808108105E-02 
703	 2.70130578802971E-02 
704	 2.70220413417972E-02 
705	 2.70358895515372E-02 
706	 2.70329906153645E-02 
707	 2.70335793935085E-02 
708	 2.70491047325758E-02 
709	 2.70648518182404E-02 
710	 0.027022240739913 
711	 2.70331848857315E-02 
712	 2.70585282475055E-02 
713	 2.70434320039081E-02 
714	 2.70662163986191E-02 
715	 2.70974894566014E-02 
716	 2.71024844196603E-02 
717	 2.70558594825229E-02 
718	 2.70470346530533E-02 
719	 2.70753372589016E-02 
720	 2.71083945375399E-02 
721	 2.70830670513211E-02 
722	 2.70739715227464E-02 
723	 0.027090332367009 
724	 2.71141240620483E-02 
725	 2.71067841373789E-02 
726	 2.70973964108899E-02 
727	 2.70959298099821E-02 
728	 2.70963569041618E-02 
729	 0.02709063919257 
730	 2.70831214174016E-02 
731	 2.70795073159192E-02 
732	 2.70846214399295E-02 
733	 2.70935695753492E-02 
734	 2.71008305092992E-02 
735	 0.027101652273166 
736	 2.70910139762882E-02 
737	 2.71061506865338E-02 
738	 2.71342992099474E-02 
739	 2.71348542157315E-02 
740	 2.71479926151292E-02 
741	 2.71497812370405E-02 
742	 2.71351926600973E-02 
743	 2.71379769328065E-02 
744	 2.71389007488384E-02 
745	 2.71377915485492E-02 
746	 2.71380422963032E-02 
747	 2.71376188308776E-02 
748	 2.71463440740847E-02 
749	 2.71515250022271E-02 
750	 2.71341433218264E-02 
751	 2.71325894643559E-02 
752	 2.71480984089961E-02 
753	 2.71607757737964E-02 
754	 2.71310516365006E-02 
755	 2.71423172025906E-02 
756	 2.71463461620468E-02 
757	 2.71027168612156E-02 
758	 2.70813460598794E-02 
759	 2.70884284186632E-02 
760	 2.70985143993341E-02 
761	 2.70799857746733E-02 
762	 2.70783150431633E-02 
763	 2.70689961210867E-02 
764	 0.027052590666083 
765	 2.70595287150085E-02 
766	 2.70621484778064E-02 
767	 2.70615370790999E-02 
768	 2.70603365656626E-02 
769	 2.70514727950454E-02 
770	 2.70387059806793E-02 
771	 2.70335051879333E-02 
772	 2.70415115209567E-02 
773	 2.70282102097742E-02 
774	 0.02700400727803 
775	 2.69878666656427E-02 
776	 2.69990763160114E-02 
777	 2.70004552200079E-02 
778	 2.69978671302703E-02 
779	 2.69957349707938E-02 
780	 2.69847552287225E-02 
781	 2.69729450238234E-02 
782	 2.69677126102773E-02 
783	 2.69713659062396E-02 
784	 0.026971635272546 
785	 2.69603802543258E-02 
786	 0.026949017001229 
787	 2.69550692009713E-02 
788	 2.69519523281682E-02 
789	 2.69394785608856E-02 
790	 2.69265447428664E-02 
791	 0.026928232381668 
792	 0.026923967383388 
793	 0.026917835796288 
794	 2.69152538478957E-02 
795	 2.69125427633485E-02 
796	 2.69041863007512E-02 
797	 2.68966386862797E-02 
798	 2.68949553890277E-02 
799	 2.68737483663782E-02 
800	 2.68535199786947E-02 
801	 2.68395220287029E-02 
802	 2.68248353262384E-02 
803	 2.68238534198302E-02 
804	 2.68173611955949E-02 
805	 2.68021495587251E-02 
806	 0.026805002327053 
807	 2.67818256492094E-02 
808	 0.026749276058293 
809	 2.67348230643338E-02 
810	 2.67509718689757E-02 
811	 2.67647770171575E-02 
812	 0.02675573431058 
813	 0.026722489918258 
814	 2.67244255739725E-02 
815	 0.026735206112483 
816	 2.67349195215006E-02 
817	 0.026717697334592 
818	 2.67123709609745E-02 
819	 2.66977638703355E-02 
820	 0.026671405990858 
821	 2.66731271115451E-02 
822	 2.66750758810424E-02 
823	 2.66723449345073E-02 
824	 2.66681949453966E-02 
825	 0.026674351654367 
826	 2.66553038773451E-02 
827	 2.66304242540814E-02 
828	 2.66335365788831E-02 
829	 2.66164620978529E-02 
830	 2.66322965569761E-02 
831	 2.66651210101478E-02 
832	 2.66420881300774E-02 
833	 2.66111891128459E-02 
834	 2.65891105838679E-02 
835	 2.65903454755785E-02 
836	 2.66315793402193E-02 
837	 2.66387472735138E-02 
838	 2.66290283886371E-02 
839	 2.66292282766004E-02 
840	 0.026623878507061 
841	 0.026591331996198 
842	 2.65541067878094E-02 
843	 2.65460155079132E-02 
844	 2.65572549677994E-02 
845	 2.65567549108255E-02 
846	 2.65415059465915E-02 
847	 2.65306807492585E-02 
848	 2.65333524380949E-02 
849	 2.65161851134099E-02 
850	 2.64762420611048E-02 
851	 2.64539926082592E-02 
852	 2.64649689461988E-02 
853	 2.64737811988612E-02 
854	 2.64577423372331E-02 
855	 2.64454248905777E-02 
856	 2.64291882586327E-02 
857	 2.64209215641294E-02 
858	 2.64259189541482E-02 
859	 2.64067702337701E-02 
860	 2.63886435523047E-02 
861	 2.63872594399812E-02 
862	 2.64021569678511E-02 
863	 2.63777857638282E-02 
864	 2.63499524441607E-02 
865	 2.63419727254799E-02 
866	 2.63532629750015E-02 
867	 2.63209050666515E-02 
868	 2.62818399345838E-02 
869	 2.62670909358566E-02 
870	 2.62774604025888E-02 
871	 2.62940272433061E-02 
872	 0.026286517080943 
873	 2.62550503595702E-02 
874	 2.62691480641497E-02 
875	 2.62679162758849E-02 
876	 2.62649982427635E-02 
877	 2.62806093063411E-02 
878	 2.62734018235065E-02 
879	 2.62626536763349E-02 
880	 2.62463870214762E-02 
881	 2.62206395236924E-02 
882	 2.62276477650758E-02 
883	 2.62384223431801E-02 
884	 2.62295635212149E-02 
885	 0.026194325174252 
886	 2.61882746721501E-02 
887	 2.61978964744596E-02 
888	 2.62117728443729E-02 
889	 2.62288941069435E-02 
890	 2.62066602756644E-02 
891	 2.61774541788352E-02 
892	 2.61686524134366E-02 
893	 2.61735448125755E-02 
894	 2.61906187507418E-02 
895	 2.61978482802852E-02 
896	 2.61792139947836E-02 
897	 2.61430256711807E-02 
898	 2.61284131892848E-02 
899	 2.61158038302948E-02 
900	 2.60824717626238E-02 
901	 2.60799309453686E-02 
902	 2.60718468121354E-02 
903	 2.60768158630865E-02 
904	 2.61159031357022E-02 
905	 0.026069687673123 
906	 0.026035130952612 
907	 2.60461262607164E-02 
908	 2.60716475210032E-02 
909	 2.60458843754226E-02 
910	 2.59961801068028E-02 
911	 2.59598511636479E-02 
912	 2.59647644919345E-02 
913	 2.59531371459142E-02 
914	 2.59312605142752E-02 
915	 2.59215953562697E-02 
916	 2.59500758274836E-02 
917	 2.59540130191543E-02 
918	 2.59458275704829E-02 
919	 2.59459772886138E-02 
920	 2.59589835631012E-02 
921	 2.59277716758603E-02 
922	 2.58894846310034E-02 
923	 2.58762718214208E-02 
924	 2.58380988080667E-02 
925	 2.58371108040951E-02 
926	 0.02584988163687 
927	 2.58459917563084E-02 
928	 2.58778106162489E-02 
929	 0.025857478515252 
930	 0.025810427155942 
931	 2.58001827216688E-02 
932	 2.58248659808304E-02 
933	 0.025826946893488 
934	 2.58089816666499E-02 
935	 2.57991550580734E-02 
936	 2.57476012497351E-02 
937	 2.57873973023963E-02 
938	 2.58546620976544E-02 
939	 2.57858596151026E-02 
940	 2.57593129258388E-02 
941	 2.57764423598722E-02 
942	 2.58138178770332E-02 
943	 2.58373076505157E-02 
944	 2.58075903750928E-02 
945	 0.025768638794347 
946	 2.57648819610243E-02 
947	 2.58144757831401E-02 
948	 2.57903400471405E-02 
949	 2.57798409569509E-02 
950	 2.58147794370316E-02 
951	 2.58166063282304E-02 
952	 2.57361684599035E-02 
953	 2.57157430266418E-02 
954	 2.57763966264388E-02 
955	 0.025723759055211 
956	 2.57558546486272E-02 
957	 2.57706399352891E-02 
958	 0.025721515446402 
959	 2.57562570099052E-02 
960	 2.57209521630247E-02 
961	 2.56835123184938E-02 
962	 0.025710981717688 
963	 2.57641999339226E-02 
964	 2.57259538510488E-02 
965	 2.56707172899397E-02 
966	 2.56661276708638E-02 
967	 2.56392841812301E-02 
968	 2.56218998050628E-02 
969	 2.56169838974196E-02 
970	 0.025623327525306 
971	 2.56515765222328E-02 
972	 0.025639582823809 
973	 0.025590092625928 
974	 2.55395521884638E-02 
975	 2.55487994999903E-02 
976	 2.55657707951565E-02 
977	 2.56002081773248E-02 
978	 2.56391085330999E-02 
979	 2.55357531528484E-02 
980	 2.55098140642592E-02 
981	 2.55230902643181E-02 
982	 2.54896383428883E-02 
983	 2.54764010997766E-02 
984	 0.025485481241237 
985	 2.54657744989791E-02 
986	 2.54192430875821E-02 
987	 2.55988656612428E-02 
988	 2.55990173844258E-02 
989	 2.54966584811726E-02 
990	 2.54739646852093E-02 
991	 0.02540330571959 
992	 2.53871792156507E-02 
993	 2.54016819372099E-02 
994	 2.54155462752242E-02 
995	 0.025554231934644 
996	 2.55427289948543E-02 
997	 2.54524335164092E-02 
998	 2.54529839385837E-02 
999	 0.02558492339248 
1000	 2.55244392590346E-02 
1001	 2.69354999829067E-02 
1002	 0.026926958186225 
1003	 2.69120541671907E-02 
1004	 0.026900695302206 
1005	 2.68878924678211E-02 
1006	 0.02689164459615 
1007	 2.69019131437679E-02 
1008	 2.69103711960028E-02 
1009	 2.69400372274167E-02 
1010	 2.69465532562564E-02 
1011	 2.69294881685275E-02 
1012	 2.69222730520032E-02 
1013	 2.69277547519669E-02 
1014	 2.69135578236755E-02 
1015	 2.68774752087511E-02 
1016	 2.68524824435684E-02 
1017	 0.026863756191251 
1018	 2.69025794713871E-02 
1019	 0.026947601892138 
1020	 2.69623469326355E-02 
1021	 2.69630273609949E-02 
1022	 2.69131522539617E-02 
1023	 2.68975982120237E-02 
1024	 2.69092059089919E-02 
1025	 0.026893870331336 
1026	 2.68483897147487E-02 
1027	 2.68271083318844E-02 
1028	 2.68120576953043E-02 
1029	 2.67824828320885E-02 
1030	 2.67579108865771E-02 
1031	 2.67838529069567E-02 
1032	 2.67659398508041E-02 
1033	 2.67329395150339E-02 
1034	 2.67325736574164E-02 
1035	 2.67125154637585E-02 
1036	 2.66893671369862E-02 
1037	 2.66583675723773E-02 
1038	 0.026641421979787 
1039	 0.026620411644422 
1040	 2.66065143057641E-02 
1041	 0.026609767653099 
1042	 0.026608007964462 
1043	 2.66116709000183E-02 
1044	 2.65952305143295E-02 
1045	 2.65821734274603E-02 
1046	 2.65679498126381E-02 
1047	 2.65436654834941E-02 
1048	 2.65253695324183E-02 
1049	 0.02652221458367 
1050	 0.026556196665074 
1051	 2.66158732253745E-02 
1052	 0.026647225995259 
1053	 2.66518992442822E-02 
1054	 2.66230143446472E-02 
1055	 2.66171718661351E-02 
1056	 2.65837882842074E-02 
1057	 2.65888609552131E-02 
1058	 2.66347289121348E-02 
1059	 2.66699918488418E-02 
1060	 2.66690343449597E-02 
1061	 2.66399950820876E-02 
1062	 2.66344791189001E-02 
1063	 2.66455135579871E-02 
1064	 0.026661190616929 
1065	 2.67046712213831E-02 
1066	 2.67090707826009E-02 
1067	 2.66801436564016E-02 
1068	 2.67023555978045E-02 
1069	 2.67463240458602E-02 
1070	 2.67827029567193E-02 
1071	 2.68405382677005E-02 
1072	 2.69069921269097E-02 
1073	 2.69148947652113E-02 
1074	 2.69021927303974E-02 
1075	 2.69027089767644E-02 
1076	 2.68829265525094E-02 
1077	 2.68828776543265E-02 
1078	 2.68964039416222E-02 
1079	 2.69141492778956E-02 
1080	 2.69300088624728E-02 
1081	 2.69244209706304E-02 
1082	 2.69239852229005E-02 
1083	 2.69175021749009E-02 
1084	 2.69197739780653E-02 
1085	 2.69304903352505E-02 
1086	 2.69411523283916E-02 
1087	 2.69524952141999E-02 
1088	 2.69745821945701E-02 
1089	 2.69771903914324E-02 
1090	 0.026978831282718 
1091	 2.70058541568504E-02 
1092	 2.70111927098467E-02 
1093	 2.70086514915218E-02 
1094	 2.70278627771651E-02 
1095	 2.70244182400788E-02 
1096	 2.70138079519331E-02 
1097	 2.70228903645448E-02 
1098	 0.027013559488364 
1099	 2.69985443353693E-02 
1100	 2.69980796901316E-02 
1101	 2.69942154165595E-02 
1102	 2.69852716293041E-02 
1103	 2.69841429754781E-02 
1104	 2.69926621648429E-02 
1105	 2.69917516366613E-02 
1106	 2.69801756505412E-02 
1107	 2.69883605039135E-02 
1108	 2.69884219020618E-02 
1109	 2.69792557969147E-02 
1110	 0.026972442064206 
1111	 2.69565373391865E-02 
1112	 2.69572907062161E-02 
1113	 2.69580598508604E-02 
1114	 2.69573248679473E-02 
1115	 2.69600897629306E-02 
1116	 2.69551881478008E-02 
1117	 2.69417982874878E-02 
1118	 2.69323657807248E-02 
1119	 2.69281500975479E-02 
1120	 2.69249287623913E-02 
1121	 2.69195347124641E-02 
1122	 2.69150418564674E-02 
1123	 2.69241266555794E-02 
1124	 2.69150098719782E-02 
1125	 0.026908269386029 
1126	 2.69087362979184E-02 
1127	 2.68949343183518E-02 
1128	 2.68790707471294E-02 
1129	 2.68579652014503E-02 
1130	 2.68359017082264E-02 
1131	 2.68180935560556E-02 
1132	 2.67990305605297E-02 
1133	 2.67920675062449E-02 
1134	 2.67838264895784E-02 
1135	 2.67679733339762E-02 
1136	 2.67435590612154E-02 
1137	 2.67313876546872E-02 
1138	 2.67216910669616E-02 
1139	 2.67079795863102E-02 
1140	 2.66996041045674E-02 
1141	 2.66892448020933E-02 
1142	 2.66714111915307E-02 
1143	 2.66488629491073E-02 
1144	 2.66363876546069E-02 
1145	 2.66418238858071E-02 
1146	 2.66473961906356E-02 
1147	 2.66442939467003E-02 
1148	 2.66411040726064E-02 
1149	 2.66465058970299E-02 
1150	 2.66458603252682E-02 
1151	 2.66273904392749E-02 
1152	 2.66105352563434E-02 
1153	 2.65836786677041E-02 
1154	 2.65652757953282E-02 
1155	 2.65421337855249E-02 
1156	 0.026534706274395 
1157	 2.65433616247317E-02 
1158	 0.026538962427866 
1159	 2.65304301374347E-02 
1160	 2.65337259772367E-02 
1161	 2.65325056521195E-02 
1162	 2.65241928013808E-02 
1163	 2.65153661765957E-02 
1164	 2.65095512718173E-02 
1165	 2.64869559636172E-02 
1166	 2.64702181344823E-02 
1167	 2.64788623306996E-02 
1168	 2.64736373707985E-02 
1169	 2.64703737568682E-02 
1170	 2.64821357709117E-02 
1171	 2.64763823122025E-02 
1172	 2.64498249470195E-02 
1173	 2.64389510701898E-02 
1174	 2.64230167779775E-02 
1175	 2.64197371059722E-02 
1176	 2.64358615564997E-02 
1177	 2.64417148832884E-02 
1178	 2.64526454735903E-02 
1179	 0.02645468400579 
1180	 2.64489768643072E-02 
1181	 2.64433148902062E-02 
1182	 2.64405200732385E-02 
1183	 2.64411015578956E-02 
1184	 2.64490620066081E-02 
1185	 2.64462208751344E-02 
1186	 2.64478488144973E-02 
1187	 2.64527891201806E-02 
1188	 2.64550364419387E-02 
1189	 2.64552185252107E-02 
1190	 2.64591958758171E-02 
1191	 2.64593190788013E-02 
1192	 2.64640056661075E-02 
1193	 2.64782931540401E-02 
1194	 2.64846387482465E-02 
1195	 2.64889279874945E-02 
1196	 2.64942619951024E-02 
1197	 2.64982043183338E-02 
1198	 2.64981930259259E-02 
1199	 2.64971444606919E-02 
1200	 2.64989524620536E-02 
1201	 2.65000875421812E-02 
1202	 2.64920313793899E-02 
1203	 2.64898631932804E-02 
1204	 2.65029324321171E-02 
1205	 2.65080666490073E-02 
1206	 2.65145588699679E-02 
1207	 0.026521478966978 
1208	 2.65275527641426E-02 
1209	 2.65289079978247E-02 
1210	 2.65320329191645E-02 
1211	 2.65322846360336E-02 
1212	 2.65224015303192E-02 
1213	 2.65233076669785E-02 
1214	 2.65319839506671E-02 
1215	 2.65356615400405E-02 
1216	 0.02653781504738 
1217	 2.65440411499148E-02 
1218	 2.65527517797431E-02 
1219	 2.65588226697448E-02 
1220	 2.65613085251249E-02 
1221	 2.65643811078128E-02 
1222	 2.65655044012448E-02 
1223	 2.65635318263668E-02 
1224	 2.65558205512594E-02 
1225	 2.65464012574895E-02 
1226	 0.026539712174806 
1227	 0.026523039862234 
1228	 2.65161934859501E-02 
1229	 2.65148801759559E-02 
1230	 0.026519081587881 
1231	 2.65291279286493E-02 
1232	 2.65368758827469E-02 
1233	 2.65480328505534E-02 
1234	 2.65645202547065E-02 
1235	 2.65876907264749E-02 
1236	 2.66007528232003E-02 
1237	 2.66187919711866E-02 
1238	 2.66288019363361E-02 
1239	 2.66235991699602E-02 
1240	 2.66193656239959E-02 
1241	 2.66301277031517E-02 
1242	 0.026633182380812 
1243	 2.66351604710841E-02 
1244	 2.66386699112553E-02 
1245	 0.026642262224389 
1246	 2.66413860710569E-02 
1247	 2.66419513600028E-02 
1248	 2.66485397771257E-02 
1249	 2.66449737064892E-02 
1250	 2.66347496929707E-02 
1251	 2.66266209445421E-02 
1252	 2.66171843787892E-02 
1253	 2.66035474183177E-02 
1254	 2.65801430024459E-02 
1255	 2.65681059653446E-02 
1256	 2.65595931256466E-02 
1257	 2.65512965493999E-02 
1258	 2.65588279201762E-02 
1259	 2.65525420177118E-02 
1260	 2.65323430833884E-02 
1261	 2.65171919635015E-02 
1262	 2.65012344445704E-02 
1263	 2.64791988619012E-02 
1264	 2.64657935082833E-02 
1265	 2.64557719556536E-02 
1266	 2.64513441533624E-02 
1267	 2.64503159538376E-02 
1268	 2.64528871784828E-02 
1269	 2.64652010178155E-02 
1270	 2.64700117120508E-02 
1271	 2.64700974178674E-02 
1272	 2.64795050005747E-02 
1273	 2.64930936690119E-02 
1274	 2.65033027949974E-02 
1275	 2.65157031529993E-02 
1276	 2.65323119183791E-02 
1277	 2.65454632249972E-02 
1278	 2.65640846978986E-02 
1279	 2.65939526085462E-02 
1280	 2.66190644689741E-02 
1281	 2.66439751412643E-02 
1282	 2.66669050525504E-02 
1283	 2.66870645276557E-02 
1284	 2.67093485645047E-02 
1285	 2.67316935590461E-02 
1286	 2.67514993038248E-02 
1287	 2.67761435658916E-02 
1288	 2.68057796792897E-02 
1289	 2.68293184271443E-02 
1290	 2.68516791827442E-02 
1291	 2.68748673952045E-02 
1292	 2.68967654737914E-02 
1293	 0.026916611250818 
1294	 2.69340315032159E-02 
1295	 2.69567352225925E-02 
1296	 2.69869490216098E-02 
1297	 2.70010403739612E-02 
1298	 2.70022172744819E-02 
1299	 2.70207145616597E-02 
1300	 2.70380321649294E-02 
1301	 2.70543359955594E-02 
1302	 2.70932960691355E-02 
1303	 2.71129076260315E-02 
1304	 2.71035718439909E-02 
1305	 2.71142088062674E-02 
1306	 2.71404958881408E-02 
1307	 2.71521586978935E-02 
1308	 2.71621692394972E-02 
1309	 2.71746834103245E-02 
1310	 2.71809478223096E-02 
1311	 0.027172741778043 
1312	 0.027174983885174 
1313	 2.71799540572867E-02 
1314	 2.71919885665018E-02 
1315	 2.72106587745821E-02 
1316	 2.72173948708665E-02 
1317	 2.72305790695403E-02 
1318	 2.72318369174141E-02 
1319	 2.72154683002786E-02 
1320	 2.72081403257553E-02 
1321	 2.71992483026761E-02 
1322	 2.71964731606805E-02 
1323	 2.71991002606879E-02 
1324	 0.02719675586133 
1325	 2.72007023648924E-02 
1326	 2.71960970584007E-02 
1327	 2.71753665213374E-02 
1328	 2.71688415647152E-02 
1329	 2.71727366052975E-02 
1330	 2.71671593036003E-02 
1331	 2.71637867115503E-02 
1332	 0.027158847471355 
1333	 0.027141994469707 
1334	 2.71326903638821E-02 
1335	 0.027122337451946 
1336	 2.71153328618166E-02 
1337	 2.71088941906282E-02 
1338	 0.027101278783335 
1339	 0.027095537172828 
1340	 2.70968243043799E-02 
1341	 2.70881309885118E-02 
1342	 2.70745598774188E-02 
1343	 2.70617578275722E-02 
1344	 2.70430742235645E-02 
1345	 2.70297281982028E-02 
1346	 2.70206039116128E-02 
1347	 2.70071558740403E-02 
1348	 2.69931266218596E-02 
1349	 2.69789658995783E-02 
1350	 2.69621484149828E-02 
1351	 2.69464825727045E-02 
1352	 2.69294501763142E-02 
1353	 2.69163432117292E-02 
1354	 2.69020835396827E-02 
1355	 2.68930652513131E-02 
1356	 2.68901857744396E-02 
1357	 2.68882168698546E-02 
1358	 2.68993818937592E-02 
1359	 2.68948866235662E-02 
1360	 2.68872474703705E-02 
1361	 2.68682494838445E-02 
1362	 2.68430582377721E-02 
1363	 2.68172746792578E-02 
1364	 2.68053779769115E-02 
1365	 2.68016025200076E-02 
1366	 2.67975867299961E-02 
1367	 2.68081379768816E-02 
1368	 2.67955498511151E-02 
1369	 2.67711095063536E-02 
1370	 2.67568694621854E-02 
1371	 2.67288631310302E-02 
1372	 2.67213169224492E-02 
1373	 2.67355723796871E-02 
1374	 2.67329648386129E-02 
1375	 2.67281949216923E-02 
1376	 2.67258252428305E-02 
1377	 2.67263487406484E-02 
1378	 2.67127160109771E-02 
1379	 2.66864945255393E-02 
1380	 2.66752454568431E-02 
1381	 0.026662035485342 
1382	 2.66469056315981E-02 
1383	 2.66432025229277E-02 
1384	 0.026636976675847 
1385	 0.026622060218304 
1386	 2.66081921622539E-02 
1387	 2.65968142617848E-02 
1388	 0.026590867219497 
1389	 2.65835921714995E-02 
1390	 0.026577575910676 
1391	 2.65819112534301E-02 
1392	 2.65836638812939E-02 
1393	 2.65733304415089E-02 
1394	 2.65618900513389E-02 
1395	 2.65559286335672E-02 
1396	 2.65481061726472E-02 
1397	 0.02654750278294 
1398	 2.65567049286654E-02 
1399	 2.65532325721575E-02 
1400	 2.65488431453138E-02 
1401	 2.65399146512133E-02 
1402	 2.65175917715649E-02 
1403	 2.65133466694069E-02 
1404	 2.65160655197209E-02 
1405	 2.65158196086644E-02 
1406	 2.65284456903162E-02 
1407	 0.026526116435143 
1408	 2.65128589834163E-02 
1409	 2.65044820858851E-02 
1410	 2.64836821165707E-02 
1411	 0.026482218448572 
1412	 2.64978271042091E-02 
1413	 2.65017251981865E-02 
1414	 2.65113171344583E-02 
1415	 2.65174807940534E-02 
1416	 2.65175011952949E-02 
1417	 2.65141622461725E-02 
1418	 2.65079130647398E-02 
1419	 2.65054576004547E-02 
1420	 2.64962640033413E-02 
1421	 2.64923803482442E-02 
1422	 2.64938712124417E-02 
1423	 2.65000003836769E-02 
1424	 0.026514768969081 
1425	 2.65227255745729E-02 
1426	 2.65210432197687E-02 
1427	 2.65264221606814E-02 
1428	 2.65290490026195E-02 
1429	 2.65188344554889E-02 
1430	 2.65179942454846E-02 
1431	 2.65235005560338E-02 
1432	 2.65291792828488E-02 
1433	 2.65361503797339E-02 
1434	 2.65384903116478E-02 
1435	 2.65441224763737E-02 
1436	 2.65457633823045E-02 
1437	 2.65359698765496E-02 
1438	 2.65388253100087E-02 
1439	 0.026554194531103 
1440	 2.65526969290621E-02 
1441	 2.65445900899887E-02 
1442	 2.65433142882143E-02 
1443	 2.65326768531557E-02 
1444	 2.65338959665518E-02 
1445	 2.65523320026558E-02 
1446	 0.026556271738864 
1447	 2.65531767997174E-02 
1448	 2.65541074696041E-02 
1449	 2.65517349675689E-02 
1450	 2.65519702784452E-02 
1451	 2.65561867251259E-02 
1452	 2.65596578682889E-02 
1453	 2.65629760814489E-02 
1454	 2.65645819660495E-02 
1455	 2.65682340384657E-02 
1456	 2.65686377386685E-02 
1457	 2.65611250206886E-02 
1458	 2.65620210023892E-02 
1459	 2.65679363028078E-02 
1460	 2.65702346426059E-02 
1461	 2.65824536564014E-02 
1462	 2.65823461534552E-02 
1463	 2.65630797010437E-02 
1464	 2.65577633164046E-02 
1465	 0.026552097517626 
1466	 2.65525963694464E-02 
1467	 2.65584113334715E-02 
1468	 2.65643389729305E-02 
1469	 0.026574852526457 
1470	 2.65755722393672E-02 
1471	 2.65725656944127E-02 
1472	 2.65692727011097E-02 
1473	 2.65637688797182E-02 
1474	 2.65458972982116E-02 
1475	 2.65418323874225E-02 
1476	 2.65449117869637E-02 
1477	 2.65474747244715E-02 
1478	 2.65550357719658E-02 
1479	 2.65561576267709E-02 
1480	 0.026556436207617 
1481	 2.65582030702631E-02 
1482	 2.65552492068928E-02 
1483	 2.65575620400348E-02 
1484	 2.65704378317724E-02 
1485	 2.65670484906676E-02 
1486	 2.65532489431163E-02 
1487	 2.65493325404393E-02 
1488	 2.65397416419466E-02 
1489	 0.02653560244191 
1490	 2.65434385231569E-02 
1491	 2.65432617783391E-02 
1492	 2.65337232224903E-02 
1493	 2.65354401027814E-02 
1494	 2.65450435230909E-02 
1495	 2.65481516265542E-02 
1496	 2.65538149799859E-02 
1497	 2.65576751295053E-02 
1498	 2.65563782407744E-02 
1499	 2.65565063981036E-02 
1500	 2.65616219442638E-02 
1501	 2.65605071470714E-02 
1502	 2.65537185499585E-02 
1503	 0.02654805101326 
1504	 2.65321907421343E-02 
1505	 2.65310885312139E-02 
1506	 0.026542030801428 
1507	 2.65465933209324E-02 
1508	 2.65606915252172E-02 
1509	 2.65672904250427E-02 
1510	 2.65663953756291E-02 
1511	 2.65632201580776E-02 
1512	 2.65471420982386E-02 
1513	 2.65474220994469E-02 
1514	 2.65615657367025E-02 
1515	 2.65632139625202E-02 
1516	 2.65703762764088E-02 
1517	 2.65746322261928E-02 
1518	 2.65644189091782E-02 
1519	 2.65564443756376E-02 
1520	 2.65528930413335E-02 
1521	 2.65488895900496E-02 
1522	 2.65355198315933E-02 
1523	 2.65321252590482E-02 
1524	 2.65296015739976E-02 
1525	 2.65315815711005E-02 
1526	 2.65325474477661E-02 
1527	 2.65388267795371E-02 
1528	 2.65324166773198E-02 
1529	 2.65187953254119E-02 
1530	 0.026515141856796 
1531	 2.65069117692184E-02 
1532	 2.65070304088263E-02 
1533	 2.65196479790842E-02 
1534	 2.65220314363403E-02 
1535	 2.65189908309949E-02 
1536	 2.65222259317481E-02 
1537	 2.65288953568987E-02 
1538	 2.65305852701749E-02 
1539	 2.65329690358105E-02 
1540	 0.026533577533289 
1541	 2.65310159862649E-02 
1542	 2.65260278321107E-02 
1543	 0.026518907220456 
1544	 2.65155178066081E-02 
1545	 2.65084366307919E-02 
1546	 0.026506689863592 
1547	 2.65127878459941E-02 
1548	 2.65129716387524E-02 
1549	 2.65099456465594E-02 
1550	 2.65104287740873E-02 
1551	 2.65091106028442E-02 
1552	 2.65139922579725E-02 
1553	 2.65281462289011E-02 
1554	 2.65311600926954E-02 
1555	 2.65346157627738E-02 
1556	 2.65318224692234E-02 
1557	 2.65160380874088E-02 
1558	 2.65097939774978E-02 
1559	 2.65052021502822E-02 
1560	 2.65019776563374E-02 
1561	 2.65032167289079E-02 
1562	 2.65016544274551E-02 
1563	 2.64970919847668E-02 
1564	 2.64980732397876E-02 
1565	 0.026503597636969 
1566	 2.65044051518962E-02 
1567	 2.65075442975706E-02 
1568	 2.65075430723476E-02 
1569	 2.65012031792165E-02 
1570	 2.64982312916372E-02 
1571	 2.64952344740189E-02 
1572	 0.026494998567703 
1573	 0.026497763908385 
1574	 2.64980427459985E-02 
1575	 2.65001511052244E-02 
1576	 2.65001910483628E-02 
1577	 2.64995926724773E-02 
1578	 0.026494387578945 
1579	 2.64828541747709E-02 
1580	 2.64784449557068E-02 
1581	 2.64725943837237E-02 
1582	 2.64697602974009E-02 
1583	 2.64767529333341E-02 
1584	 2.64769508040485E-02 
1585	 2.64703049256061E-02 
1586	 2.64695410903521E-02 
1587	 2.64748269805863E-02 
1588	 2.64717660324535E-02 
1589	 2.64682950912841E-02 
1590	 2.64622313176679E-02 
1591	 2.64429124206544E-02 
1592	 2.64348914632108E-02 
1593	 2.64282636236776E-02 
1594	 2.64305204564044E-02 
1595	 0.026455923056429 
1596	 2.64561879562659E-02 
1597	 0.026443105443616 
1598	 2.64397756704308E-02 
1599	 2.64212120776454E-02 
1600	 2.64143035002937E-02 
1601	 2.64263611376983E-02 
1602	 0.026431045573931 
1603	 2.64359455123309E-02 
1604	 0.026435318164732 
1605	 2.64302754166219E-02 
1606	 2.64283104967835E-02 
1607	 2.64211687326597E-02 
1608	 2.64167758775873E-02 
1609	 2.64188360552717E-02 
1610	 2.64179750546178E-02 
1611	 2.64169691016282E-02 
1612	 2.64121593231293E-02 
1613	 2.64003174177707E-02 
1614	 2.63958829279283E-02 
1615	 2.63953147898531E-02 
1616	 2.63913176776512E-02 
1617	 2.63851653282237E-02 
1618	 2.63885119160547E-02 
1619	 2.63986935574989E-02 
1620	 2.64000013281458E-02 
1621	 2.64035537389934E-02 
1622	 2.64086560804528E-02 
1623	 2.64075071526539E-02 
1624	 2.64044668227802E-02 
1625	 2.64075788672403E-02 
1626	 2.64082840567253E-02 
1627	 2.63969375909744E-02 
1628	 2.63936517094501E-02 
1629	 2.64013458328842E-02 
1630	 2.64002600819916E-02 
1631	 2.63932411630351E-02 
1632	 2.63923747188329E-02 
1633	 2.63906159331247E-02 
1634	 2.63885890585305E-02 
1635	 2.63943248366995E-02 
1636	 2.63938180111206E-02 
1637	 2.63859301851369E-02 
1638	 2.63823926355943E-02 
1639	 2.63776184814044E-02 
1640	 2.63758228255377E-02 
1641	 2.63795462310493E-02 
1642	 2.63798808396785E-02 
1643	 0.026384433201154 
1644	 2.63791018093141E-02 
1645	 2.63619209780699E-02 
1646	 2.63523373680136E-02 
1647	 2.63408108068242E-02 
1648	 2.63302285517215E-02 
1649	 2.63209973358034E-02 
1650	 2.63179914944877E-02 
1651	 2.63230227381301E-02 
1652	 2.63190203004952E-02 
1653	 2.63102182307672E-02 
1654	 2.63112493991169E-02 
1655	 2.63089433020899E-02 
1656	 2.63122646252694E-02 
1657	 2.63343149295578E-02 
1658	 2.63437706132306E-02 
1659	 2.63451230709466E-02 
1660	 2.63454245172481E-02 
1661	 2.63413142507043E-02 
1662	 2.63413266085502E-02 
1663	 2.63414736666309E-02 
1664	 2.63393646545437E-02 
1665	 2.63377025215732E-02 
1666	 2.63373064983191E-02 
1667	 2.63350957243312E-02 
1668	 2.63330947001247E-02 
1669	 2.63342881968276E-02 
1670	 0.026331543258567 
1671	 2.63281995620729E-02 
1672	 2.63238670197248E-02 
1673	 2.63089245499619E-02 
1674	 2.63090616489538E-02 
1675	 2.63208885980714E-02 
1676	 0.026319804919085 
1677	 2.63264473676561E-02 
1678	 2.63252645773608E-02 
1679	 2.63023760471975E-02 
1680	 2.62986659484693E-02 
1681	 0.026305571702094 
1682	 2.63079133932849E-02 
1683	 2.63241398352243E-02 
1684	 2.63197590506448E-02 
1685	 2.62980591894441E-02 
1686	 2.62889691395684E-02 
1687	 0.026277057618567 
1688	 2.62600020217528E-02 
1689	 2.62437646044386E-02 
1690	 2.62356755402851E-02 
1691	 2.62174292524372E-02 
1692	 2.62196020601588E-02 
1693	 2.62474090815937E-02 
1694	 0.026257453097427 
1695	 2.62721283679459E-02 
1696	 2.62708903607423E-02 
1697	 2.62526242935999E-02 
1698	 2.62478923873482E-02 
1699	 2.62417479295713E-02 
1700	 2.62342429479734E-02 
1701	 2.62318235067493E-02 
1702	 2.62267407901658E-02 
1703	 2.62176492855344E-02 
1704	 2.62062028761511E-02 
1705	 2.61959081258771E-02 
1706	 2.62035353071165E-02 
1707	 2.61875982928102E-02 
1708	 0.026187483369176 
1709	 2.61870222881256E-02 
1710	 2.61693398931357E-02 
1711	 0.026165472964552 
1712	 2.61665913920525E-02 
1713	 2.61624944720278E-02 
1714	 2.61609782575346E-02 
1715	 2.61520411128737E-02 
1716	 0.026131776288569 
1717	 2.61169328796557E-02 
1718	 2.61013655371837E-02 
1719	 2.60915822440618E-02 
1720	 2.60990246423863E-02 
1721	 2.61080970042703E-02 
1722	 2.61221268039639E-02 
1723	 2.61345197776114E-02 
1724	 2.61313818974817E-02 
1725	 2.61127315609376E-02 
1726	 2.60981435358191E-02 
1727	 2.60935179424045E-02 
1728	 2.60813888603596E-02 
1729	 2.60820991820978E-02 
1730	 2.60911775812161E-02 
1731	 2.60861149768366E-02 
1732	 2.60747154082458E-02 
1733	 2.60692456630453E-02 
1734	 2.60661450873794E-02 
1735	 2.60660339071292E-02 
1736	 2.60897691570706E-02 
1737	 2.61124830028962E-02 
1738	 2.60795504726752E-02 
1739	 2.60590980486143E-02 
1740	 2.60165936057138E-02 
1741	 2.60011843621462E-02 
1742	 2.60081149710049E-02 
1743	 2.60114655473521E-02 
1744	 2.60393123519205E-02 
1745	 2.60336565441846E-02 
1746	 2.60023595743754E-02 
1747	 2.59960736949155E-02 
1748	 2.59793464906199E-02 
1749	 2.59705237455802E-02 
1750	 2.59854583115236E-02 
1751	 0.025993201285 
1752	 2.59976154506967E-02 
1753	 2.59933216402165E-02 
1754	 2.59896087362844E-02 
1755	 2.59885325073865E-02 
1756	 2.59710109494227E-02 
1757	 2.59766203688141E-02 
1758	 2.59847351253463E-02 
1759	 2.59786652557216E-02 
1760	 2.59788843844027E-02 
1761	 2.59640390061643E-02 
1762	 2.59481632638936E-02 
1763	 2.59415932771992E-02 
1764	 2.59338491452029E-02 
1765	 2.59283374205787E-02 
1766	 0.025935892857024 
1767	 2.59688783622576E-02 
1768	 2.59834181296016E-02 
1769	 2.59740347868275E-02 
1770	 2.59683877860102E-02 
1771	 2.59487546029695E-02 
1772	 2.59474227273892E-02 
1773	 2.59572037905719E-02 
1774	 0.025948850511088 
1775	 2.59432648045291E-02 
1776	 2.59083273559127E-02 
1777	 2.58869139944893E-02 
1778	 2.59064019142934E-02 
1779	 2.59106881125467E-02 
1780	 0.025916636739368 
1781	 2.59234510000648E-02 
1782	 2.59247932639795E-02 
1783	 2.59216477175985E-02 
1784	 2.59158760367685E-02 
1785	 2.59235692029128E-02 
1786	 2.59211096791539E-02 
1787	 2.59062649378864E-02 
1788	 2.58987425048496E-02 
1789	 2.58969311948316E-02 
1790	 0.02590255895396 
1791	 2.59060077701613E-02 
1792	 2.59126688720891E-02 
1793	 2.59305032262887E-02 
1794	 2.59296903054661E-02 
1795	 2.59405209759489E-02 
1796	 2.59200177741759E-02 
1797	 2.58952338625109E-02 
1798	 2.58978027508002E-02 
1799	 2.58998966781074E-02 
1800	 2.59281114384798E-02 
1801	 2.70398233108706E-02 
1802	 2.70507298117054E-02 
1803	 2.70600012620403E-02 
1804	 0.027072169492647 
1805	 2.70768376666906E-02 
1806	 2.70849588925454E-02 
1807	 2.70993457957371E-02 
1808	 2.70968353886949E-02 
1809	 0.02707552522607 
1810	 2.70798829980479E-02 
1811	 2.70900359520858E-02 
1812	 2.70946932291071E-02 
1813	 2.71089503838342E-02 
1814	 0.027130241756252 
1815	 2.71359007681596E-02 
1816	 2.71320006790311E-02 
1817	 2.71332892302469E-02 
1818	 2.71341561810416E-02 
1819	 2.71387479402435E-02 
1820	 2.71476571304611E-02 
1821	 2.71534780649663E-02 
1822	 2.71655662856852E-02 
1823	 2.71696864840399E-02 
1824	 0.027167644492213 
1825	 2.71554735123174E-02 
1826	 2.71554569330786E-02 
1827	 2.71568924461809E-02 
1828	 2.71647847903409E-02 
1829	 2.71833352540869E-02 
1830	 2.71922654160875E-02 
1831	 2.71985803632618E-02 
1832	 2.72126591632353E-02 
1833	 2.72039402495181E-02 
1834	 2.72035956421612E-02 
1835	 2.72184896634223E-02 
1836	 2.72116073923404E-02 
1837	 2.72132285095182E-02 
1838	 2.72239874430357E-02 
1839	 2.72298638276845E-02 
1840	 2.72311550703469E-02 
1841	 2.72332898138869E-02 
1842	 2.72405227185989E-02 
1843	 2.72391031662965E-02 
1844	 2.72265557908722E-02 
1845	 2.72292708482709E-02 
1846	 2.72347998253915E-02 
1847	 2.72343946087862E-02 
1848	 2.72348550141098E-02 
1849	 2.72336534759377E-02 
1850	 2.72337307181301E-02 
1851	 0.027229284802317 
1852	 2.72384543159552E-02 
1853	 2.72422473317289E-02 
1854	 2.72456511873637E-02 
1855	 2.72516390538502E-02 
1856	 2.72551485771394E-02 
1857	 0.027250586261325 
1858	 2.72609700307578E-02 
1859	 2.72702821792326E-02 
1860	 2.72761316888498E-02 
1861	 2.72809063916654E-02 
1862	 2.72912346889312E-02 
1863	 2.72981126632992E-02 
1864	 2.73050784155672E-02 
1865	 2.73224945536657E-02 
1866	 2.73238949049392E-02 
1867	 2.73311750887014E-02 
1868	 2.73416183766044E-02 
1869	 2.73214532704445E-02 
1870	 2.73074534669854E-02 
1871	 2.72940162128267E-02 
1872	 2.72866818750696E-02 
1873	 2.72667484113739E-02 
1874	 0.027269717906959 
1875	 2.72952523556266E-02 
1876	 2.73027251156294E-02 
1877	 2.73004376963771E-02 
1878	 2.73001808958319E-02 
1879	 2.72891528328915E-02 
1880	 2.72697386661063E-02 
1881	 2.72625930683877E-02 
1882	 2.72603902718835E-02 
1883	 2.72656476268872E-02 
1884	 2.72738868089939E-02 
1885	 2.72794155836188E-02 
1886	 2.72733435637864E-02 
1887	 2.72644890766496E-02 
1888	 2.72527124714232E-02 
1889	 2.72455848763363E-02 
1890	 2.72525572567137E-02 
1891	 2.72583319442337E-02 
1892	 2.72642745579626E-02 
1893	 2.72623669519039E-02 
1894	 2.72595004394888E-02 
1895	 2.72462126276229E-02 
1896	 0.027230314201723 
1897	 2.72201353096864E-02 
1898	 2.72200925851505E-02 
1899	 2.72142169921059E-02 
1900	 2.72086983378359E-02 
1901	 2.71978404900352E-02 
1902	 2.71790564256361E-02 
1903	 2.71706486750578E-02 
1904	 2.71647650913541E-02 
1905	 2.71650441932213E-02 
1906	 2.71657978148541E-02 
1907	 2.71573986188598E-02 
1908	 2.71436217047721E-02 
1909	 2.71372308117543E-02 
1910	 2.71292778526881E-02 
1911	 2.71238562837155E-02 
1912	 2.71304779617356E-02 
1913	 2.71332832719132E-02 
1914	 2.71245251414976E-02 
1915	 2.71230629770445E-02 
1916	 2.71259557187739E-02 
1917	 2.71274588554274E-02 
1918	 2.71187043000602E-02 
1919	 2.71083397446954E-02 
1920	 0.027096504550653 
1921	 2.70881577790092E-02 
1922	 2.70818432716739E-02 
1923	 2.70805024626039E-02 
1924	 2.70743773980085E-02 
1925	 2.70684595588674E-02 
1926	 2.70745807364114E-02 
1927	 2.71034556992473E-02 
1928	 2.71046435805353E-02 
1929	 2.70993437486624E-02 
1930	 2.70955619286983E-02 
1931	 2.70808255938883E-02 
1932	 2.70726012683805E-02 
1933	 2.70880669360012E-02 
1934	 2.70990802370993E-02 
1935	 2.71071684609788E-02 
1936	 2.71125747630462E-02 
1937	 2.71116768947616E-02 
1938	 2.71013928882711E-02 
1939	 2.71035254539116E-02 
1940	 2.71066508316778E-02 
1941	 2.71070294707639E-02 
1942	 2.71151955242975E-02 
1943	 2.71336538629798E-02 
1944	 0.027139223678045 
1945	 2.71378761929035E-02 
1946	 2.71412951195871E-02 
1947	 2.71348830515778E-02 
1948	 2.71409573728769E-02 
1949	 2.71522352237143E-02 
1950	 0.027154933936594 
1951	 2.71541107149691E-02 
1952	 2.71667557838031E-02 
1953	 2.71826480533501E-02 
1954	 2.71893621133206E-02 
1955	 0.027204354689516 
1956	 0.027210424607814 
1957	 2.72097014525857E-02 
1958	 2.72181993939214E-02 
1959	 2.72298766212626E-02 
1960	 2.72445306012869E-02 
1961	 2.72553885067726E-02 
1962	 0.027253413138101 
1963	 0.027262147600133 
1964	 2.72898425389372E-02 
1965	 2.72968441303055E-02 
1966	 0.027294779281479 
1967	 2.72887541710291E-02 
1968	 2.72903214758263E-02 
1969	 2.72934785124816E-02 
1970	 2.73120658328984E-02 
1971	 2.73464645083262E-02 
1972	 2.73657891435829E-02 
1973	 2.73780139500077E-02 
1974	 2.73932204064254E-02 
1975	 2.74086536096113E-02 
1976	 2.74179009096996E-02 
1977	 2.74215503302908E-02 
1978	 2.74296903332366E-02 
1979	 2.74322878578404E-02 
1980	 2.74433092539614E-02 
1981	 2.74588327272129E-02 
1982	 2.74687812936625E-02 
1983	 2.74758059117805E-02 
1984	 2.74791271670236E-02 
1985	 2.74830322140616E-02 
1986	 2.74938146068032E-02 
1987	 2.75066110776482E-02 
1988	 2.75252694953994E-02 
1989	 2.75406550960669E-02 
1990	 2.75598582649364E-02 
1991	 2.75754387232453E-02 
1992	 2.75920219557403E-02 
1993	 2.75979989552502E-02 
1994	 2.76016427569583E-02 
1995	 2.76163563110064E-02 
1996	 2.76444626919355E-02 
1997	 2.76669551321576E-02 
1998	 2.76863039643237E-02 
1999	 2.77138456286374E-02 
2000	 0.0277290613586 
2001	 2.77324344932881E-02 
2002	 2.77406973503842E-02 
2003	 2.77416341070752E-02 
2004	 2.77534498592138E-02 
2005	 2.77710723224858E-02 
2006	 2.77850650624955E-02 
2007	 2.78050406243062E-02 
2008	 2.78213992392274E-02 
2009	 2.78466741632893E-02 
2010	 2.78712397331284E-02 
2011	 2.78799811403883E-02 
2012	 0.02789937323471 
2013	 2.79058490623746E-02 
2014	 2.78835488494899E-02 
2015	 2.78858694363558E-02 
2016	 2.79007060866806E-02 
2017	 2.79106118086298E-02 
2018	 2.79240290849961E-02 
2019	 2.79409720920779E-02 
2020	 2.79628422322201E-02 
2021	 2.79794476556536E-02 
2022	 2.79884934554202E-02 
2023	 2.80009508739539E-02 
2024	 2.80107368132183E-02 
2025	 2.80227112429846E-02 
2026	 0.028037771224709 
2027	 2.80668476632102E-02 
2028	 2.80792625838667E-02 
2029	 2.80773480534638E-02 
2030	 2.80902592260845E-02 
2031	 2.81115466732624E-02 
2032	 2.81220754098212E-02 
2033	 2.81315673420575E-02 
2034	 2.81420638674666E-02 
2035	 2.81433929355843E-02 
2036	 2.81486467647311E-02 
2037	 2.81553340806847E-02 
2038	 2.81693172287995E-02 
2039	 2.81821115573919E-02 
2040	 2.81942603626775E-02 
2041	 2.82009067786464E-02 
2042	 0.028210965796218 
2043	 2.82155756172376E-02 
2044	 2.82021647134478E-02 
2045	 2.82096012381658E-02 
2046	 2.82331740200398E-02 
2047	 2.82463444503119E-02 
2048	 2.82661015115821E-02 
2049	 0.02827912954523 
2050	 0.028285702960355 
2051	 2.82839594427222E-02 
2052	 2.82911208493111E-02 
2053	 2.83012260483715E-02 
2054	 2.83059455976276E-02 
2055	 2.83077197030003E-02 
2056	 2.83149078809679E-02 
2057	 2.83223358009426E-02 
2058	 2.83287065865342E-02 
2059	 0.028337343761718 
2060	 2.83447446996477E-02 
2061	 2.83505916191874E-02 
2062	 2.83552561311676E-02 
2063	 2.83595532792259E-02 
2064	 2.83668623414812E-02 
2065	 2.83738760304126E-02 
2066	 2.83779050043609E-02 
2067	 2.83926401169782E-02 
2068	 2.84106330239044E-02 
2069	 2.84214962669968E-02 
2070	 2.84365595937553E-02 
2071	 2.84377339879995E-02 
2072	 2.84234575007139E-02 
2073	 2.84218547479494E-02 
2074	 2.84113863990731E-02 
2075	 2.84173042960462E-02 
2076	 2.84475125278118E-02 
2077	 2.84561959189854E-02 
2078	 2.84627731492119E-02 
2079	 2.84661007053676E-02 
2080	 0.028447954568093 
2081	 2.84451394094107E-02 
2082	 2.84511567374262E-02 
2083	 2.84554320248904E-02 
2084	 2.84713464618966E-02 
2085	 2.84981036573034E-02 
2086	 2.85129693373533E-02 
2087	 2.85306365278225E-02 
2088	 2.85409174674847E-02 
2089	 2.85395423222146E-02 
2090	 2.85448107582044E-02 
2091	 2.85435395878582E-02 
2092	 2.85572710458001E-02 
2093	 2.85873143643823E-02 
2094	 2.86024251223863E-02 
2095	 2.86178905379009E-02 
2096	 2.86352266125694E-02 
2097	 2.86469902980616E-02 
2098	 2.86538253785131E-02 
2099	 2.86680964242682E-02 
2100	 2.86851162199952E-02 
2101	 2.86918758926166E-02 
2102	 2.86847294104915E-02 
2103	 2.86918567935511E-02 
2104	 2.87037666114539E-02 
2105	 2.87104329651129E-02 
2106	 2.87234381395485E-02 
2107	 2.87286787720219E-02 
2108	 2.87184394186041E-02 
2109	 2.87236881292703E-02 
2110	 2.87315378850592E-02 
2111	 2.87461174618533E-02 
2112	 2.87764918267105E-02 
2113	 2.87992201986944E-02 
2114	 2.88208533116955E-02 
2115	 2.88426725028385E-02 
2116	 2.88568652105926E-02 
2117	 2.88876134749282E-02 
2118	 2.89020184042306E-02 
2119	 2.89115191317919E-02 
2120	 2.89256484022459E-02 
2121	 2.89355342070951E-02 
2122	 2.89430087430633E-02 
2123	 2.89511796613518E-02 
2124	 2.89642870557948E-02 
2125	 2.89736774362971E-02 
2126	 0.028984421983315 
2127	 2.90062137932895E-02 
2128	 2.90206349551943E-02 
2129	 2.90336836327261E-02 
2130	 2.90365712523674E-02 
2131	 2.90238709786329E-02 
2132	 2.90251151996869E-02 
2133	 2.90234391451215E-02 
2134	 2.90277018739841E-02 
2135	 2.90386489681932E-02 
2136	 2.90535902993828E-02 
2137	 2.90575395139891E-02 
2138	 2.90479493334964E-02 
2139	 2.90517107752671E-02 
2140	 0.029064798740198 
2141	 2.90612985832952E-02 
2142	 0.029052200772954 
2143	 2.90467413015217E-02 
2144	 2.90344689877282E-02 
2145	 2.90194518163843E-02 
2146	 2.90084690444947E-02 
2147	 2.89946368504416E-02 
2148	 2.89641458006757E-02 
2149	 2.89494929540652E-02 
2150	 2.89468771565322E-02 
2151	 2.89410851223932E-02 
2152	 2.89427981839604E-02 
2153	 2.89390865571084E-02 
2154	 2.89288588326432E-02 
2155	 2.89233917474501E-02 
2156	 2.89123376635074E-02 
2157	 2.88949036295379E-02 
2158	 2.88844402591186E-02 
2159	 2.88770484013705E-02 
2160	 2.88635890479008E-02 
2161	 2.88529496062063E-02 
2162	 2.88345513619086E-02 
2163	 2.88097584097157E-02 
2164	 2.87827945773535E-02 
2165	 2.87441288278395E-02 
2166	 2.87198777352824E-02 
2167	 2.86974990582079E-02 
2168	 2.86798568539764E-02 
2169	 0.028678120226606 
2170	 2.86652067461314E-02 
2171	 2.86530610400498E-02 
2172	 2.86332681243295E-02 
2173	 2.85964367106198E-02 
2174	 0.028574779972603 
2175	 2.85639892792151E-02 
2176	 2.85331630038149E-02 
2177	 2.85159238350049E-02 
2178	 2.85059438306067E-02 
2179	 2.85014767570582E-02 
2180	 2.85059659699598E-02 
2181	 2.84919410547584E-02 
2182	 2.84789350545966E-02 
2183	 2.84648825251666E-02 
2184	 2.84307261345494E-02 
2185	 2.84114704915561E-02 
2186	 2.84082294612568E-02 
2187	 2.83935644046843E-02 
2188	 2.83712094572577E-02 
2189	 2.83548949877979E-02 
2190	 2.83397237100975E-02 
2191	 2.83263362776538E-02 
2192	 2.83165897901658E-02 
2193	 2.83055466413147E-02 
2194	 2.82946224312114E-02 
2195	 2.82841838319731E-02 
2196	 2.82748772396467E-02 
2197	 2.82615378795967E-02 
2198	 2.82655110296286E-02 
2199	 2.82458202984048E-02 
2200	 2.82315831694748E-02 
2201	 2.82156764518648E-02 
2202	 2.82044568306276E-02 
2203	 2.81920354949711E-02 
2204	 2.81806438623895E-02 
2205	 2.81685840077078E-02 
2206	 2.81648763415426E-02 
2207	 2.81634291857248E-02 
2208	 2.81609209862532E-02 
2209	 2.81731432243631E-02 
2210	 2.81681830066328E-02 
2211	 2.81490597367859E-02 
2212	 2.81365813731006E-02 
2213	 2.81155880940878E-02 
2214	 2.81074702695269E-02 
2215	 2.81087355008042E-02 
2216	 2.81085585488201E-02 
2217	 2.81135588725177E-02 
2218	 2.81180901631388E-02 
2219	 0.028124357599885 
2220	 2.81294309279727E-02 
2221	 2.81395425002109E-02 
2222	 2.81413074911584E-02 
2223	 2.81539568194552E-02 
2224	 2.81431511281994E-02 
2225	 2.81263860252645E-02 
2226	 2.81372560497272E-02 
2227	 2.81457399502368E-02 
2228	 2.81627949651256E-02 
2229	 2.81604548655526E-02 
2230	 2.81569013309667E-02 
2231	 2.81536513026107E-02 
2232	 2.81253141824192E-02 
2233	 2.81343674089886E-02 
2234	 2.81787614461923E-02 
2235	 2.81892505950527E-02 
2236	 2.82017705436072E-02 
2237	 2.82033094458844E-02 
2238	 2.81755391465995E-02 
2239	 2.81677542546993E-02 
2240	 2.81683627193747E-02 
2241	 2.81666882932463E-02 
2242	 2.81669028986088E-02 
2243	 2.81716019174836E-02 
2244	 2.81862698855027E-02 
2245	 2.81878170817959E-02 
2246	 2.81805490042214E-02 
2247	 2.81775594617934E-02 
2248	 2.81634234761494E-02 
2249	 2.81619546061055E-02 
2250	 2.81695099518032E-02 
2251	 2.81915796103164E-02 
2252	 2.81913322559606E-02 
2253	 2.81777561651122E-02 
2254	 2.81744062223986E-02 
2255	 2.81668866577688E-02 
2256	 2.81897435895596E-02 
2257	 2.82334338126646E-02 
2258	 2.82385662074349E-02 
2259	 2.82308399317841E-02 
2260	 2.82243191051581E-02 
2261	 2.81864622835396E-02 
2262	 2.81812848567255E-02 
2263	 2.81988077317574E-02 
2264	 2.82014073128293E-02 
2265	 2.82099283320027E-02 
2266	 2.82091039939401E-02 
2267	 2.81944626053247E-02 
2268	 2.81917100650922E-02 
2269	 2.81939301866784E-02 
2270	 2.81918880327747E-02 
2271	 2.81915677810517E-02 
2272	 2.81935687607108E-02 
2273	 2.81894616989516E-02 
2274	 0.028195077164848 
2275	 2.82149800156855E-02 
2276	 2.82197074949006E-02 
2277	 2.82233634548577E-02 
2278	 0.02822499454683 
2279	 2.82079892792382E-02 
2280	 2.82071312699034E-02 
2281	 2.82174920551529E-02 
2282	 2.82229297725971E-02 
2283	 2.82173588219561E-02 
2284	 2.82526555891344E-02 
2285	 2.82667573865664E-02 
2286	 2.82579273063412E-02 
2287	 2.82725468386614E-02 
2288	 2.82708428748423E-02 
2289	 2.82696582590177E-02 
2290	 2.82664489083935E-02 
2291	 2.82538878178491E-02 
2292	 2.82330355312746E-02 
2293	 2.82022085678006E-02 
2294	 2.82002775711362E-02 
2295	 2.81868529209061E-02 
2296	 0.028179387672526 
2297	 2.82003963494063E-02 
2298	 2.82584508751645E-02 
2299	 2.82680774443301E-02 
2300	 2.82730350740595E-02 
2301	 2.82779155664756E-02 
2302	 2.82464074555501E-02 
2303	 2.82534802422861E-02 
2304	 2.83053738437984E-02 
2305	 2.83151150667006E-02 
2306	 2.82937811148776E-02 
2307	 2.83050236960617E-02 
2308	 2.83200140276538E-02 
2309	 2.83337616980858E-02 
2310	 2.83790777432935E-02 
2311	 2.84026879366014E-02 
2312	 2.83912270590985E-02 
2313	 2.84133796857623E-02 
2314	 2.84564509510181E-02 
2315	 2.84851036270582E-02 
2316	 2.85300528848996E-02 
2317	 2.85481822231082E-02 
2318	 2.85326413502835E-02 
2319	 2.85416989453274E-02 
2320	 2.85609676291017E-02 
2321	 2.85765954311502E-02 
2322	 2.86000558499425E-02 
2323	 2.86224958778825E-02 
2324	 2.86338336856652E-02 
2325	 2.86401752214766E-02 
2326	 2.86403994224869E-02 
2327	 0.028661565952738 
2328	 2.87091899636373E-02 
2329	 2.87248410660758E-02 
2330	 2.87404407638043E-02 
2331	 2.87442823465851E-02 
2332	 2.87325409262024E-02 
2333	 2.87033836500366E-02 
2334	 2.86932969721672E-02 
2335	 2.86966661295086E-02 
2336	 2.86803993933658E-02 
2337	 2.86724650576052E-02 
2338	 2.86896420732415E-02 
2339	 2.87351927622204E-02 
2340	 2.87817983547022E-02 
2341	 2.87925528845657E-02 
2342	 2.87774046206391E-02 
2343	 2.87493058153675E-02 
2344	 2.87512124799384E-02 
2345	 2.87761485241306E-02 
2346	 2.87914289622026E-02 
2347	 2.88020797750876E-02 
2348	 2.87783242898409E-02 
2349	 2.87396016875722E-02 
2350	 2.87254467055777E-02 
2351	 2.87474550053016E-02 
2352	 2.87808241288706E-02 
2353	 2.87854891253887E-02 
2354	 2.88169872868881E-02 
2355	 0.028835195658833 
2356	 2.88111140090035E-02 
2357	 2.88321441712212E-02 
2358	 2.88418755708213E-02 
2359	 2.88515980951668E-02 
2360	 2.89031646480051E-02 
2361	 0.028925803180971 
2362	 2.88965309365893E-02 
2363	 2.88677619979573E-02 
2364	 2.88576870023161E-02 
2365	 2.88482935754445E-02 
2366	 2.89084865395238E-02 
2367	 2.89794806679821E-02 
2368	 2.89696018514072E-02 
2369	 2.89324722795196E-02 
2370	 2.88440999765114E-02 
2371	 2.87621315672879E-02 
2372	 2.87885983578369E-02 
2373	 2.88228047412361E-02 
2374	 2.88888976823202E-02 
2375	 2.89543764380923E-02 
2376	 2.89190273529356E-02 
2377	 2.89055763565763E-02 
2378	 2.88726657061204E-02 
2379	 2.88308312971143E-02 
2380	 2.88580267568703E-02 
2381	 2.88454475167091E-02 
2382	 2.88433508253211E-02 
2383	 2.88700367908091E-02 
2384	 2.88897495405322E-02 
2385	 2.89061451834174E-02 
2386	 2.88943157801567E-02 
2387	 2.88511248124749E-02 
2388	 0.028862922897012 
2389	 2.88601553251842E-02 
2390	 2.88789663851184E-02 
2391	 2.89901375224295E-02 
2392	 2.90000043791919E-02 
2393	 2.89566709854619E-02 
2394	 2.89360808086195E-02 
2395	 2.88803852510329E-02 
2396	 2.88456161856988E-02 
2397	 2.88041889457172E-02 
2398	 0.028795402347437 
2399	 2.88125261224634E-02 
2400	 2.88223085106977E-02 
2401	 2.88797089614705E-02 
2402	 2.88486166986492E-02 
2403	 0.028820453951609 
2404	 2.88278803314406E-02 
2405	 2.87758784157141E-02 
2406	 2.87373698597758E-02 
2407	 2.86966794178305E-02 
2408	 2.86883249806027E-02 
2409	 2.87255653815601E-02 
2410	 2.87157067746051E-02 
2411	 2.87120670090731E-02 
2412	 2.87287725594522E-02 
2413	 2.87067301598127E-02 
2414	 2.86820913541246E-02 
2415	 2.86708125143023E-02 
2416	 0.028642384758576 
2417	 2.86605875075296E-02 
2418	 2.86497669725597E-02 
2419	 2.86215397032763E-02 
2420	 2.86841613145511E-02 
2421	 0.028659499976438 
2422	 2.86215750245213E-02 
2423	 2.86697232897889E-02 
2424	 2.86585981133416E-02 
2425	 2.86585284044149E-02 
2426	 2.87587865608069E-02 
2427	 2.87563213583312E-02 
2428	 2.87012937198843E-02 
2429	 2.86940122083876E-02 
2430	 2.85785828854088E-02 
2431	 2.86245744248134E-02 
2432	 2.87439198656466E-02 
2433	 2.86545645183495E-02 
2434	 2.86519191779619E-02 
2435	 2.86556964399164E-02 
2436	 2.85890491347548E-02 
2437	 2.86792131534695E-02 
2438	 0.028669740228518 
2439	 2.86272916006639E-02 
2440	 2.86816815114405E-02 
2441	 2.85863954714114E-02 
2442	 2.86164455279963E-02 
2443	 2.86281180740943E-02 
2444	 2.84537205679765E-02 
2445	 2.84603047308029E-02 
2446	 2.84780436547046E-02 
2447	 2.84869769002425E-02 
2448	 2.86091742839497E-02 
2449	 2.86059899606609E-02 
2450	 2.85362902473452E-02 
2451	 2.84662773924061E-02 
2452	 2.84518858714041E-02 
2453	 2.85669668955957E-02 
2454	 2.85690022343663E-02 
2455	 2.86046720047964E-02 
2456	 0.02855541540924 
2457	 2.83418418796266E-02 
2458	 2.84245133180515E-02 
2459	 2.84025605587356E-02 
2460	 2.82425488002851E-02 
2461	 0.028294952182221 
2462	 2.82323484757826E-02 
2463	 0.028145969564522 
2464	 2.82313886341183E-02 
2465	 0.028256434056913 
2466	 0.02820173118362 
2467	 0.028255551998046 
2468	 2.83079925840195E-02 
2469	 2.83481553605423E-02 
2470	 2.83967356392122E-02 
2471	 2.84072725406088E-02 
2472	 2.85000449142633E-02 
2473	 2.85153171901846E-02 
2474	 2.84832305398728E-02 
2475	 0.028482709498998 
2476	 2.83809848666733E-02 
2477	 2.82939022378847E-02 
2478	 2.81236358285698E-02 
2479	 2.79972499991638E-02 
2480	 2.80113549582309E-02 
2481	 2.80302818898873E-02 
2482	 2.82894561659199E-02 
2483	 2.82716295321785E-02 
2484	 2.83996520152976E-02 
2485	 2.86074269153007E-02 
2486	 2.85582316591155E-02 
2487	 2.83946914722075E-02 
2488	 2.82623793625489E-02 
2489	 2.81322908681249E-02 
2490	 2.81253175511431E-02 
2491	 2.83059290242349E-02 
2492	 2.85272496896241E-02 
2493	 2.87024345267466E-02 
2494	 2.87542595263382E-02 
2495	 2.86873039186886E-02 
2496	 2.84257409758475E-02 
2497	 2.82530419771914E-02 
2498	 2.84235930373238E-02 
2499	 2.84882844391966E-02 
2500	 0.028508735645689 
