Wavelength	spectrum00008.asd
350	 4.91308773849774E-02 
351	 4.77027406258342E-02 
352	 4.69914586486514E-02 
353	 4.74359298709793E-02 
354	 4.65825464251628E-02 
355	 4.60641412118337E-02 
356	 4.64913769818279E-02 
357	 4.73871042903966E-02 
358	 4.57173546208545E-02 
359	 4.46366717402337E-02 
360	 4.47985494554291E-02 
361	 4.53966951330471E-02 
362	 4.58475662310861E-02 
363	 4.63071214392188E-02 
364	 4.67085412637892E-02 
365	 0.046568683105519 
366	 4.73107479818604E-02 
367	 4.77031754093065E-02 
368	 4.70385062709617E-02 
369	 4.84211787873048E-02 
370	 4.96928275394794E-02 
371	 5.01899832117029E-02 
372	 5.02418073553476E-02 
373	 5.03925010063989E-02 
374	 5.09817357147981E-02 
375	 5.18715482559318E-02 
376	 5.23031217209813E-02 
377	 5.39043037409529E-02 
378	 0.055098647637469 
379	 5.46236501046152E-02 
380	 5.50570740266035E-02 
381	 5.65784892098213E-02 
382	 5.77442471918235E-02 
383	 5.67347129069188E-02 
384	 5.77740387091203E-02 
385	 5.95662933257016E-02 
386	 6.06705553725463E-02 
387	 6.04056893811118E-02 
388	 6.11170823364596E-02 
389	 6.23056315682844E-02 
390	 6.30489020178006E-02 
391	 6.40113972418466E-02 
392	 0.065461744498806 
393	 6.67939843084498E-02 
394	 6.70576076221229E-02 
395	 6.78889859924599E-02 
396	 6.92453279433831E-02 
397	 7.06958087480594E-02 
398	 7.15856726300871E-02 
399	 7.23639602483687E-02 
400	 7.31471136811305E-02 
401	 7.40010527194686E-02 
402	 7.51892589162421E-02 
403	 7.63348634409621E-02 
404	 7.74203966280828E-02 
405	 7.86950792394788E-02 
406	 7.99504180657412E-02 
407	 8.09406300196367E-02 
408	 8.16683955963214E-02 
409	 8.25902777723748E-02 
410	 8.35100357821419E-02 
411	 8.45541509101621E-02 
412	 8.58718389574985E-02 
413	 8.73507385147866E-02 
414	 8.82868105518851E-02 
415	 8.88439767724391E-02 
416	 8.99258301076906E-02 
417	 0.090946409820504 
418	 9.19979797712193E-02 
419	 9.31477461445208E-02 
420	 9.41287722151638E-02 
421	 9.52074122545742E-02 
422	 9.62931548438325E-02 
423	 0.097206505152774 
424	 0.098199858990614 
425	 9.91427294778042E-02 
426	 0.100055989262917 
427	 0.101160775996095 
428	 0.102072534139876 
429	 0.103032989115443 
430	 0.104182791305598 
431	 0.104871825179466 
432	 0.105975539188229 
433	 0.107291336694691 
434	 0.108108597336016 
435	 0.109129839689009 
436	 0.110184967606726 
437	 0.11116869097126 
438	 0.112227462792647 
439	 0.11326659091373 
440	 0.114342709522354 
441	 0.115502993627916 
442	 0.116575920096427 
443	 0.117682503784952 
444	 0.118804661672254 
445	 0.119823599151348 
446	 0.120907924668358 
447	 0.122034648322749 
448	 0.123190918422604 
449	 0.124465714802207 
450	 0.125744957559262 
451	 0.126969386288483 
452	 0.12813700741256 
453	 0.129426620774643 
454	 0.130745485623327 
455	 0.132020430901746 
456	 0.133233190197639 
457	 0.134500309589885 
458	 0.135762237279588 
459	 0.136994823080384 
460	 0.138399782527628 
461	 0.139825053079203 
462	 0.141183232936629 
463	 0.14243875866082 
464	 0.143594516841296 
465	 0.145013177256186 
466	 0.146674952524647 
467	 0.147920381475957 
468	 0.149221867094903 
469	 0.150662420266217 
470	 0.152198852502544 
471	 0.153761683148459 
472	 0.155216265399096 
473	 0.156613835885388 
474	 0.158135491187968 
475	 0.159544867972683 
476	 0.160983276249093 
477	 0.162518067111246 
478	 0.163917677277407 
479	 0.165295900465612 
480	 0.166787563528779 
481	 0.168463513180344 
482	 0.169936060646001 
483	 0.171417817995352 
484	 0.173009201297378 
485	 0.174626012303464 
486	 0.176205902323187 
487	 0.177715496973917 
488	 0.179147863065412 
489	 0.180511716070379 
490	 0.182019495416436 
491	 0.183638180513565 
492	 0.185198528768809 
493	 0.186792719170674 
494	 0.188324984792456 
495	 0.189782714202388 
496	 0.191319215156117 
497	 0.192851272100322 
498	 0.194355138107718 
499	 0.195833400639415 
500	 0.197336346669786 
501	 0.198851011623517 
502	 0.200342484951021 
503	 0.201770874560678 
504	 0.203297439665079 
505	 0.204850803569793 
506	 0.206355066086564 
507	 0.207822520458741 
508	 0.209323959168365 
509	 0.210826721413576 
510	 0.212264874581748 
511	 0.213715408473577 
512	 0.215177744437426 
513	 0.216655255174598 
514	 0.218173766378675 
515	 0.219517224993607 
516	 0.220842566355521 
517	 0.222297674670217 
518	 0.223622784911863 
519	 0.225004527149167 
520	 0.226433081402204 
521	 0.227762384298414 
522	 0.229024032420779 
523	 0.230301085293878 
524	 0.231615744150608 
525	 0.232860827355455 
526	 0.234090557090236 
527	 0.235300386125059 
528	 0.23647517818323 
529	 0.237656862218732 
530	 0.238778092191005 
531	 0.239851388870772 
532	 0.24097529610762 
533	 0.242005827228239 
534	 0.243016122571688 
535	 0.244054292028945 
536	 0.244957793927691 
537	 0.245833648444542 
538	 0.246680829521678 
539	 0.247445224849463 
540	 0.248169535820634 
541	 0.248851131084622 
542	 0.249481695284435 
543	 0.250050509692408 
544	 0.250575732322418 
545	 0.251036605949842 
546	 0.251404899649165 
547	 0.251680400139274 
548	 0.251845562088311 
549	 0.251952690528351 
550	 0.252108581037992 
551	 0.25222312268736 
552	 0.252271936582699 
553	 0.252248864177365 
554	 0.252165105734934 
555	 0.25197583063232 
556	 0.25171214050698 
557	 0.251435220744078 
558	 0.251124520466613 
559	 0.250736638084665 
560	 0.250247177682622 
561	 0.249658710482464 
562	 0.249073370275032 
563	 0.248503075526906 
564	 0.24789571265569 
565	 0.24708265327898 
566	 0.246185126875255 
567	 0.245201410893592 
568	 0.24404628076951 
569	 0.242832240354359 
570	 0.24156195336195 
571	 0.240272873301361 
572	 0.239110546481948 
573	 0.23804823617513 
574	 0.237002161296884 
575	 0.2358845679642 
576	 0.234798194845746 
577	 0.233601800508708 
578	 0.232279489784958 
579	 0.230970577447409 
580	 0.229489508616253 
581	 0.22791538654814 
582	 0.226334691739408 
583	 0.22466541231011 
584	 0.222929245246734 
585	 0.221186274296828 
586	 0.219504233049265 
587	 0.21779038773038 
588	 0.216092976913813 
589	 0.214397472101151 
590	 0.212562730150025 
591	 0.210727605059617 
592	 0.208908291266632 
593	 0.207080088716147 
594	 0.205217682059758 
595	 0.203362579016401 
596	 0.201527195857914 
597	 0.199695644585896 
598	 0.197868067225369 
599	 0.196007646645049 
600	 0.194102302234347 
601	 0.192215952748758 
602	 0.190329242061407 
603	 0.18843636273692 
604	 0.186538799562125 
605	 0.184632477630908 
606	 0.182775246104239 
607	 0.180975465915765 
608	 0.179176384982754 
609	 0.177352705260272 
610	 0.175560706686845 
611	 0.173839914515581 
612	 0.172124280311209 
613	 0.17039697691113 
614	 0.168666284533692 
615	 0.166955990323441 
616	 0.165299888742566 
617	 0.163647208535707 
618	 0.161991273862998 
619	 0.160420140098188 
620	 0.158849069181118 
621	 0.157286516226481 
622	 0.155760366855313 
623	 0.154236797384298 
624	 0.152739534190091 
625	 0.151279898522277 
626	 0.149853398994783 
627	 0.148445920143687 
628	 0.147071586384449 
629	 0.145727431102251 
630	 0.144349602310595 
631	 0.143013705927876 
632	 0.14174820546901 
633	 0.140540564040599 
634	 0.139249149084927 
635	 0.137993227392436 
636	 0.136817163088656 
637	 0.135649915220222 
638	 0.134516880408596 
639	 0.133384053666468 
640	 0.132235826285608 
641	 0.131151907970241 
642	 0.130104642730433 
643	 0.129077680363766 
644	 0.128062368504762 
645	 0.127064442448176 
646	 0.126081591083981 
647	 0.125121244987689 
648	 0.124208972191847 
649	 0.123308219183685 
650	 0.122402506686216 
651	 0.121494257337632 
652	 0.120631656818743 
653	 0.119792432271584 
654	 0.118970781183001 
655	 0.118173551900746 
656	 0.117375592820684 
657	 0.116597366045679 
658	 0.11585144736253 
659	 0.115119274208331 
660	 0.114392293993893 
661	 0.11367746978408 
662	 0.112986477074256 
663	 0.112317086900437 
664	 0.111621877420292 
665	 0.110919905905014 
666	 0.110293294250497 
667	 0.109669711757596 
668	 0.109057502191418 
669	 0.108470465873076 
670	 0.107895126024754 
671	 0.107312390888756 
672	 0.106721955467482 
673	 0.106138869362362 
674	 0.105610252318577 
675	 0.105096144973322 
676	 0.10457318118409 
677	 0.104047602197671 
678	 0.103524720006436 
679	 0.103015442708142 
680	 0.102526832405789 
681	 0.102052430684885 
682	 0.101588430610604 
683	 0.101134793467344 
684	 0.100690952144534 
685	 0.100242699063968 
686	 9.97884747485012E-02 
687	 9.93417758585558E-02 
688	 9.89338130681165E-02 
689	 9.85193449012268E-02 
690	 9.80921289397172E-02 
691	 9.76655060269186E-02 
692	 9.72828980241331E-02 
693	 9.69058988530718E-02 
694	 0.096528042199164 
695	 9.61598943337634E-02 
696	 9.57612482028407E-02 
697	 0.095372379599489 
698	 9.50116109427138E-02 
699	 9.46481871908708E-02 
700	 9.42955182648037E-02 
701	 9.39360048175953E-02 
702	 9.35618652194039E-02 
703	 9.32339091904351E-02 
704	 9.29174868339081E-02 
705	 9.25924148815071E-02 
706	 9.22532600437246E-02 
707	 9.19214875257052E-02 
708	 9.16073548009962E-02 
709	 9.13117696081055E-02 
710	 9.10250339771357E-02 
711	 9.07237967197692E-02 
712	 9.04344442213624E-02 
713	 9.01765946830295E-02 
714	 0.089879855863008 
715	 8.95730827849498E-02 
716	 8.92801602976722E-02 
717	 8.90152773151476E-02 
718	 8.87410556351279E-02 
719	 8.84786889848787E-02 
720	 8.82325327967464E-02 
721	 8.79650609904211E-02 
722	 8.77142179471391E-02 
723	 8.74741627501654E-02 
724	 8.72261023800468E-02 
725	 8.69530187079645E-02 
726	 8.66943109067971E-02 
727	 8.64656744364936E-02 
728	 8.62590509438337E-02 
729	 8.60265899662528E-02 
730	 8.57757965251935E-02 
731	 8.55315796411735E-02 
732	 8.53325234486312E-02 
733	 8.51362853318096E-02 
734	 8.49300675287348E-02 
735	 8.47133772023825E-02 
736	 8.44951588595236E-02 
737	 8.42967749542012E-02 
738	 8.41101679123904E-02 
739	 8.39117507154574E-02 
740	 8.37283152329617E-02 
741	 8.35549069273208E-02 
742	 8.33888518403869E-02 
743	 8.32369656923147E-02 
744	 8.30716582193722E-02 
745	 8.28948389244222E-02 
746	 8.27225713909781E-02 
747	 8.25899982914203E-02 
748	 0.082444739809747 
749	 0.082281208282837 
750	 0.082122526181067 
751	 8.19760512316228E-02 
752	 0.081837695607982 
753	 8.16968210052913E-02 
754	 8.15375636719603E-02 
755	 0.081406525565153 
756	 8.12889425460275E-02 
757	 0.081159706735083 
758	 8.10074836162654E-02 
759	 8.08702634286035E-02 
760	 8.07464010059604E-02 
761	 8.06195202037581E-02 
762	 8.05160154004238E-02 
763	 8.04094066681254E-02 
764	 0.080292898381206 
765	 8.01836651677074E-02 
766	 8.00661184683383E-02 
767	 7.99483965467461E-02 
768	 7.98443572858188E-02 
769	 7.97729785841114E-02 
770	 7.97000115391349E-02 
771	 7.96111349543873E-02 
772	 7.95073325476348E-02 
773	 7.94188272613037E-02 
774	 7.93360671623565E-02 
775	 7.92573701612928E-02 
776	 7.91874883068246E-02 
777	 7.91126640455624E-02 
778	 7.90419786248488E-02 
779	 7.89807029582881E-02 
780	 7.89225011291459E-02 
781	 7.88592572565287E-02 
782	 7.87916931433865E-02 
783	 7.87223400733224E-02 
784	 7.86447045167983E-02 
785	 0.078598545873866 
786	 7.85741242370904E-02 
787	 7.85319548916635E-02 
788	 0.078448811574615 
789	 7.83835180464339E-02 
790	 7.83468622641404E-02 
791	 7.82857786591325E-02 
792	 7.82448730188275E-02 
793	 7.82218179298413E-02 
794	 7.81988565764399E-02 
795	 7.81429133946876E-02 
796	 7.81011737386153E-02 
797	 7.80704556317314E-02 
798	 7.80329339372887E-02 
799	 7.80007054930694E-02 
800	 7.79630201870428E-02 
801	 7.79233254375282E-02 
802	 7.78937702640815E-02 
803	 7.78496462631917E-02 
804	 0.077809439490642 
805	 7.77883298020778E-02 
806	 7.77875408238036E-02 
807	 7.77578460640178E-02 
808	 7.77204770823598E-02 
809	 7.77037077970018E-02 
810	 7.76984357657243E-02 
811	 7.76990456670501E-02 
812	 7.76940198894473E-02 
813	 0.077674281904594 
814	 7.76517140860733E-02 
815	 7.76647768835274E-02 
816	 7.76912856174846E-02 
817	 7.76644164766105E-02 
818	 7.76692012702554E-02 
819	 7.76796080633392E-02 
820	 7.76787799233018E-02 
821	 7.76927278549154E-02 
822	 7.76950292179827E-02 
823	 7.77033760541553E-02 
824	 0.077729821726576 
825	 7.77308334016157E-02 
826	 7.77442122543023E-02 
827	 7.77757695454332E-02 
828	 0.07781633703442 
829	 7.78688390917539E-02 
830	 7.79152935974378E-02 
831	 7.79395286183882E-02 
832	 7.79367708267052E-02 
833	 7.79925736904188E-02 
834	 7.80400950545692E-02 
835	 7.80544122259784E-02 
836	 7.81091849707906E-02 
837	 7.81602804591441E-02 
838	 7.82146136347706E-02 
839	 7.82827944319216E-02 
840	 7.83527784101153E-02 
841	 7.84173883171167E-02 
842	 7.84693845046939E-02 
843	 7.85124878881587E-02 
844	 7.85934812798914E-02 
845	 0.078694784646608 
846	 7.87930809304005E-02 
847	 7.88685138063124E-02 
848	 7.89488784459325E-02 
849	 7.90125520330671E-02 
850	 0.079074858184284 
851	 7.91976536232826E-02 
852	 7.92914852817446E-02 
853	 7.93826066359347E-02 
854	 7.94974975445176E-02 
855	 0.079611852820474 
856	 7.97140245862796E-02 
857	 7.98239480392956E-02 
858	 7.99588514646673E-02 
859	 8.00875768808198E-02 
860	 8.02080058785145E-02 
861	 8.03450323395879E-02 
862	 8.05226132900723E-02 
863	 8.06791592423408E-02 
864	 8.08113745148391E-02 
865	 8.09426654237586E-02 
866	 8.11100243150761E-02 
867	 8.12787229874382E-02 
868	 8.14605315771151E-02 
869	 8.16480567612818E-02 
870	 8.18026662367691E-02 
871	 0.081975567686129 
872	 8.21648764870362E-02 
873	 8.23621353526763E-02 
874	 8.25720478429018E-02 
875	 8.28014210416527E-02 
876	 8.30154474126677E-02 
877	 8.31976141575138E-02 
878	 8.34372229099544E-02 
879	 8.36878980312554E-02 
880	 8.39299993288562E-02 
881	 8.41616627171256E-02 
882	 8.43930258551755E-02 
883	 8.46564466478014E-02 
884	 8.49344973509801E-02 
885	 0.085179797565641 
886	 8.54366028082209E-02 
887	 8.56858346347821E-02 
888	 8.59490619962669E-02 
889	 8.62902212695443E-02 
890	 8.65799937465048E-02 
891	 8.68400946100939E-02 
892	 0.087111135360343 
893	 8.74133977071489E-02 
894	 8.77179361864837E-02 
895	 8.80284013549814E-02 
896	 8.83527669205995E-02 
897	 0.088688257453027 
898	 8.90203379221152E-02 
899	 8.93422974015503E-02 
900	 8.96563134239348E-02 
901	 8.99797497924405E-02 
902	 9.03076110293007E-02 
903	 9.06551020392317E-02 
904	 9.10338278404682E-02 
905	 9.13849307778709E-02 
906	 9.17531826696285E-02 
907	 9.21386207905076E-02 
908	 9.25063947450012E-02 
909	 9.28431362088426E-02 
910	 9.32138433300507E-02 
911	 9.36229891974562E-02 
912	 9.40140155807137E-02 
913	 9.44644904355422E-02 
914	 9.48675798796227E-02 
915	 9.52013527165355E-02 
916	 9.55930316253628E-02 
917	 9.60705139131531E-02 
918	 9.65532024567277E-02 
919	 9.69861572016536E-02 
920	 9.74093370791378E-02 
921	 9.78319745567554E-02 
922	 0.098277017152993 
923	 9.87471062612541E-02 
924	 9.91909610973191E-02 
925	 0.099647635130439 
926	 0.100112178360645 
927	 0.100585412057091 
928	 0.101142219782643 
929	 0.101644073369075 
930	 0.102091865934223 
931	 0.102548530089764 
932	 0.103047595844258 
933	 0.103552954820905 
934	 0.104065742430201 
935	 0.10459856655364 
936	 0.105099363205225 
937	 0.10563270124459 
938	 0.10617891640722 
939	 0.106672949858782 
940	 0.107189390628458 
941	 0.107717275775866 
942	 0.108246625442427 
943	 0.108781305688011 
944	 0.109385843083052 
945	 0.109923672618329 
946	 0.110403402330572 
947	 0.110987779478467 
948	 0.111545638386569 
949	 0.112078734634481 
950	 0.112606767088816 
951	 0.11314866937597 
952	 0.113746410383427 
953	 0.11435316147847 
954	 0.114922347278504 
955	 0.115438919943044 
956	 0.115964078371594 
957	 0.116540547281947 
958	 0.117156414263942 
959	 0.117721766837339 
960	 0.118263021224286 
961	 0.118809584170234 
962	 0.119380944049677 
963	 0.119972843438099 
964	 0.120463110599603 
965	 0.120962122800997 
966	 0.121554501642905 
967	 0.122123347277067 
968	 0.122707828017537 
969	 0.123282360900992 
970	 0.123853260438167 
971	 0.124550532351259 
972	 0.125165715085737 
973	 0.125697126274922 
974	 0.126210916572366 
975	 0.126751904818251 
976	 0.12735090587298 
977	 0.127980350752902 
978	 0.128588113578845 
979	 0.129119051027147 
980	 0.12965243715621 
981	 0.13021765079718 
982	 0.130807170545428 
983	 0.131357974534538 
984	 0.131998959434572 
985	 0.13261791573016 
986	 0.133121289042759 
987	 0.133772907435015 
988	 0.134377260971606 
989	 0.134960075325184 
990	 0.135579287389697 
991	 0.136117132592453 
992	 0.136676960434276 
993	 0.137234878423836 
994	 0.137761198864805 
995	 0.138372843153205 
996	 0.138966599049206 
997	 0.139505542755194 
998	 0.14002617554213 
999	 0.140719413396001 
1000	 0.141283889055509 
1001	 0.147304228152411 
1002	 0.147944030979909 
1003	 0.148548882367439 
1004	 0.149132424698559 
1005	 0.149702587296137 
1006	 0.150250964247499 
1007	 0.150743098278378 
1008	 0.151305726647892 
1009	 0.151887086690994 
1010	 0.152436389708172 
1011	 0.153014707739001 
1012	 0.153573231046581 
1013	 0.154095695803678 
1014	 0.154631413074862 
1015	 0.155189294252354 
1016	 0.155702380143123 
1017	 0.156257995510252 
1018	 0.156807705082564 
1019	 0.157332960163245 
1020	 0.157883362390048 
1021	 0.158394588388492 
1022	 0.158863372993154 
1023	 0.159333441781536 
1024	 0.159784052557427 
1025	 0.160257878574291 
1026	 0.160731210038008 
1027	 0.161206780286676 
1028	 0.161708313272495 
1029	 0.16219419241514 
1030	 0.162634691259627 
1031	 0.163060462829818 
1032	 0.163481319518648 
1033	 0.163907083645881 
1034	 0.164344375641228 
1035	 0.164761812310915 
1036	 0.165181541767585 
1037	 0.165599410242304 
1038	 0.166010223288274 
1039	 0.166432082228221 
1040	 0.16682364606895 
1041	 0.167180944991994 
1042	 0.167554183119705 
1043	 0.16792360346537 
1044	 0.168277489942737 
1045	 0.168655645255037 
1046	 0.169048122151555 
1047	 0.16940998237284 
1048	 0.169799720840154 
1049	 0.170185272167669 
1050	 0.170530482709958 
1051	 0.17089251259276 
1052	 0.171264102690101 
1053	 0.171624358888116 
1054	 0.17200319931573 
1055	 0.172340234499688 
1056	 0.172638687022802 
1057	 0.172945020601433 
1058	 0.173225140278062 
1059	 0.173531332966973 
1060	 0.173838631136851 
1061	 0.174127941134415 
1062	 0.17442235930307 
1063	 0.174700307942085 
1064	 0.174976616183329 
1065	 0.175281017292041 
1066	 0.17558046710505 
1067	 0.175847394451228 
1068	 0.176113605969063 
1069	 0.176367843919373 
1070	 0.176627453034514 
1071	 0.176878263230427 
1072	 0.177157756319857 
1073	 0.177415346348599 
1074	 0.177652356611593 
1075	 0.17787283343993 
1076	 0.178079797994032 
1077	 0.178312521713635 
1078	 0.178554221700436 
1079	 0.178794195211918 
1080	 0.178978423260722 
1081	 0.179126014370304 
1082	 0.179318766122622 
1083	 0.179504845607118 
1084	 0.179702139940034 
1085	 0.179910901195517 
1086	 0.180097154101401 
1087	 0.180248315463208 
1088	 0.180421182343579 
1089	 0.180619097144358 
1090	 0.180797372213385 
1091	 0.180962504098386 
1092	 0.18110621138746 
1093	 0.181212944050038 
1094	 0.181325221231792 
1095	 0.18146121820864 
1096	 0.18159230950754 
1097	 0.181716748503911 
1098	 0.18182521801062 
1099	 0.181922439346833 
1100	 0.182016045883376 
1101	 0.182099445333422 
1102	 0.182201064034816 
1103	 0.182301430493906 
1104	 0.18240587754533 
1105	 0.182493925984402 
1106	 0.1825933113211 
1107	 0.182674280357568 
1108	 0.182721275630088 
1109	 0.182775939606394 
1110	 0.182847700874991 
1111	 0.182906356482175 
1112	 0.18298067673253 
1113	 0.1830749525744 
1114	 0.183133980895511 
1115	 0.183181062632877 
1116	 0.183235924016326 
1117	 0.183272485836565 
1118	 0.183314116406539 
1119	 0.18335843896174 
1120	 0.183402405356778 
1121	 0.183445699850853 
1122	 0.183490455636846 
1123	 0.183517343166699 
1124	 0.183543792364829 
1125	 0.183589378499995 
1126	 0.183629040224497 
1127	 0.183677437767118 
1128	 0.183707373643957 
1129	 0.18372119462268 
1130	 0.183746725535463 
1131	 0.183760578356255 
1132	 0.183774785973183 
1133	 0.183798317952912 
1134	 0.183800937437773 
1135	 0.18380744305313 
1136	 0.183814538922801 
1137	 0.183834553442963 
1138	 0.183859620584968 
1139	 0.183874212372901 
1140	 0.183896923289906 
1141	 0.183899293742143 
1142	 0.183904266345412 
1143	 0.183922041087933 
1144	 0.18393960465465 
1145	 0.183964109916857 
1146	 0.183974245521262 
1147	 0.18396689696893 
1148	 0.183961488037603 
1149	 0.183956330622858 
1150	 0.183961715141255 
1151	 0.183983228212655 
1152	 0.183980099408096 
1153	 0.183962156490368 
1154	 0.183958504856069 
1155	 0.183949265443881 
1156	 0.183933107100693 
1157	 0.183923967338038 
1158	 0.183913968189297 
1159	 0.183886933127121 
1160	 0.183876172096557 
1161	 0.183870005013171 
1162	 0.183885613661719 
1163	 0.183907980036139 
1164	 0.183907868357127 
1165	 0.183917331428047 
1166	 0.183944396450581 
1167	 0.183973226028202 
1168	 0.183998517709687 
1169	 0.184037671445718 
1170	 0.18409138457918 
1171	 0.18413861216824 
1172	 0.184187843139701 
1173	 0.184246835681778 
1174	 0.184313348841448 
1175	 0.184373571873953 
1176	 0.184436074188381 
1177	 0.184498919055574 
1178	 0.184557962385006 
1179	 0.184616977802831 
1180	 0.184680596353554 
1181	 0.184754958323364 
1182	 0.184831999035016 
1183	 0.184910267618496 
1184	 0.184985258133408 
1185	 0.185050297379025 
1186	 0.185123137911363 
1187	 0.185182813710674 
1188	 0.185269168368469 
1189	 0.185377218478616 
1190	 0.18547820386805 
1191	 0.185594086939104 
1192	 0.185693626926428 
1193	 0.185774586869898 
1194	 0.18587314518771 
1195	 0.185982459918213 
1196	 0.186083852938173 
1197	 0.186175695542847 
1198	 0.186293444443931 
1199	 0.186424191702074 
1200	 0.186534447183758 
1201	 0.186678558563949 
1202	 0.186831414784703 
1203	 0.186964848225098 
1204	 0.187114638380571 
1205	 0.187259656034384 
1206	 0.187401057471171 
1207	 0.187555539569027 
1208	 0.187715170893523 
1209	 0.187879810291506 
1210	 0.188049712888541 
1211	 0.188234851221876 
1212	 0.188425910987964 
1213	 0.188625471886604 
1214	 0.188842773916802 
1215	 0.189065518090916 
1216	 0.189298541450216 
1217	 0.189527391303594 
1218	 0.189770635379409 
1219	 0.189996532580691 
1220	 0.190215935261125 
1221	 0.190462080796833 
1222	 0.190708125204006 
1223	 0.190953952430658 
1224	 0.191197217706349 
1225	 0.19143958184134 
1226	 0.191682572778966 
1227	 0.191927661172747 
1228	 0.192164548216316 
1229	 0.192397818916935 
1230	 0.192635519134065 
1231	 0.192861697117743 
1232	 0.193105108588233 
1233	 0.193363131102736 
1234	 0.193614113812801 
1235	 0.193869187053639 
1236	 0.194122511912069 
1237	 0.194382849320189 
1238	 0.194630229726562 
1239	 0.194862522147101 
1240	 0.195105217878994 
1241	 0.195360267083516 
1242	 0.195601052481141 
1243	 0.195846855426303 
1244	 0.196103230969484 
1245	 0.196357068612216 
1246	 0.196600375353121 
1247	 0.196855658046845 
1248	 0.197135080959633 
1249	 0.197385725510133 
1250	 0.197614222120735 
1251	 0.197862170743796 
1252	 0.198109233275739 
1253	 0.198356757405175 
1254	 0.198616496167702 
1255	 0.198873525479757 
1256	 0.199126423345876 
1257	 0.19937759416097 
1258	 0.199635775794433 
1259	 0.199887368396233 
1260	 0.200120339684643 
1261	 0.200369520873743 
1262	 0.200622774793835 
1263	 0.200889872573024 
1264	 0.201146632576724 
1265	 0.201407194724139 
1266	 0.20167230599439 
1267	 0.201929784609679 
1268	 0.202200067298092 
1269	 0.202485120267065 
1270	 0.202764343909535 
1271	 0.203041195394179 
1272	 0.203326613380863 
1273	 0.203614526405449 
1274	 0.203909534020566 
1275	 0.204206827858128 
1276	 0.204514105228083 
1277	 0.204834326370038 
1278	 0.205149242626759 
1279	 0.205462359278216 
1280	 0.205787538984876 
1281	 0.206106010955696 
1282	 0.206443779825392 
1283	 0.206825270274295 
1284	 0.207171263612471 
1285	 0.207506158649011 
1286	 0.20782869813665 
1287	 0.208174065175006 
1288	 0.208507631271028 
1289	 0.208848973490508 
1290	 0.209212048669777 
1291	 0.209568761414738 
1292	 0.20990723449024 
1293	 0.210264595005301 
1294	 0.210640104753146 
1295	 0.211014006680451 
1296	 0.211395542291113 
1297	 0.21176318587765 
1298	 0.212131948111898 
1299	 0.212497302110908 
1300	 0.212847221826989 
1301	 0.213202635026324 
1302	 0.213563832804979 
1303	 0.213922123976135 
1304	 0.214281014552638 
1305	 0.214631235494881 
1306	 0.21496586509347 
1307	 0.215317675957605 
1308	 0.215662892612602 
1309	 0.216030200857247 
1310	 0.216382588621485 
1311	 0.216747349258152 
1312	 0.217099711645776 
1313	 0.217438860088166 
1314	 0.217781222715158 
1315	 0.21812382261143 
1316	 0.218470172648669 
1317	 0.218816245378656 
1318	 0.219155827320851 
1319	 0.219496735275139 
1320	 0.219837855195445 
1321	 0.220171578583516 
1322	 0.220505860295074 
1323	 0.220850426045322 
1324	 0.221180865939649 
1325	 0.221502789492849 
1326	 0.221818886383159 
1327	 0.222120543632601 
1328	 0.222432239091722 
1329	 0.222751539312537 
1330	 0.223055495238848 
1331	 0.223358563973479 
1332	 0.223655913523016 
1333	 0.223933749837898 
1334	 0.224213689142663 
1335	 0.224507385517358 
1336	 0.224807588844545 
1337	 0.225110652347944 
1338	 0.225426281682246 
1339	 0.225726119238241 
1340	 0.226018183989156 
1341	 0.226320688869161 
1342	 0.22662111684031 
1343	 0.226926318448468 
1344	 0.227240542430837 
1345	 0.227552944575251 
1346	 0.227869610490613 
1347	 0.22817367792316 
1348	 0.228464172574329 
1349	 0.22877715444375 
1350	 0.229096777613076 
1351	 0.229411343890633 
1352	 0.229740143250036 
1353	 0.230065656095378 
1354	 0.230390246806965 
1355	 0.230699961534296 
1356	 0.230998637854989 
1357	 0.231312491835719 
1358	 0.231612596510534 
1359	 0.231926764334595 
1360	 0.232255813136003 
1361	 0.232601281802374 
1362	 0.232953547382172 
1363	 0.233288094382676 
1364	 0.233620084779152 
1365	 0.233953971991947 
1366	 0.234281383662804 
1367	 0.234598842120071 
1368	 0.234912221808794 
1369	 0.235221458006005 
1370	 0.235537792890938 
1371	 0.23584969226077 
1372	 0.236157204582903 
1373	 0.236478432029866 
1374	 0.23677888961234 
1375	 0.23706637767876 
1376	 0.237347141913506 
1377	 0.237618916398052 
1378	 0.237890038241439 
1379	 0.238153866409987 
1380	 0.238413058714872 
1381	 0.238673286840712 
1382	 0.238924447207723 
1383	 0.239169506821248 
1384	 0.239403801521775 
1385	 0.239623430697669 
1386	 0.239845929218555 
1387	 0.240048985990247 
1388	 0.240269110023983 
1389	 0.240493038871914 
1390	 0.240730280575869 
1391	 0.240977844212379 
1392	 0.241238260376803 
1393	 0.241506482454524 
1394	 0.241798195943115 
1395	 0.242082530303572 
1396	 0.242385299002684 
1397	 0.242654593426664 
1398	 0.242920693749153 
1399	 0.243158181440005 
1400	 0.243380837049098 
1401	 0.243570955625918 
1402	 0.243742357825786 
1403	 0.243880623861407 
1404	 0.243988389913304 
1405	 0.244066533301282 
1406	 0.244112312381882 
1407	 0.244141960769291 
1408	 0.244135057721101 
1409	 0.244128764493033 
1410	 0.244106424770549 
1411	 0.244079762724509 
1412	 0.244043062136324 
1413	 0.244001047831728 
1414	 0.243943836517526 
1415	 0.243895839786595 
1416	 0.243838844590174 
1417	 0.243795458321798 
1418	 0.24375684502212 
1419	 0.243732054849747 
1420	 0.24370979671289 
1421	 0.243710273761793 
1422	 0.243721871674155 
1423	 0.243757754937756 
1424	 0.243820998839794 
1425	 0.243894017014539 
1426	 0.243979999913338 
1427	 0.244094459371953 
1428	 0.244219896452811 
1429	 0.24433704055137 
1430	 0.244447266451276 
1431	 0.244568466809221 
1432	 0.244655140368907 
1433	 0.244732392658296 
1434	 0.244772139241951 
1435	 0.244789703355528 
1436	 0.24477646430461 
1437	 0.244718300530089 
1438	 0.244671250226358 
1439	 0.24457753693366 
1440	 0.244553041678314 
1441	 0.244514036991915 
1442	 0.244576040147268 
1443	 0.244663420782634 
1444	 0.244886540018207 
1445	 0.245181666882293 
1446	 0.245604961425075 
1447	 0.246151552904954 
1448	 0.246788937603804 
1449	 0.247567495789646 
1450	 0.248378526688405 
1451	 0.249303168220162 
1452	 0.250231754466157 
1453	 0.251245334878505 
1454	 0.252202184969679 
1455	 0.253183434419771 
1456	 0.254120745630609 
1457	 0.255043587047528 
1458	 0.255908518724948 
1459	 0.256730884641696 
1460	 0.25752693660218 
1461	 0.258273610264091 
1462	 0.258981509764374 
1463	 0.259650720764001 
1464	 0.260306094216323 
1465	 0.260903840848576 
1466	 0.261518799976159 
1467	 0.262101346387579 
1468	 0.262671460303861 
1469	 0.263237202507802 
1470	 0.263746746610967 
1471	 0.264269873251395 
1472	 0.264783529704637 
1473	 0.265304915888835 
1474	 0.265814967442573 
1475	 0.266336794636565 
1476	 0.266870254510145 
1477	 0.267398766208511 
1478	 0.267931608952517 
1479	 0.2684427330497 
1480	 0.268957978503941 
1481	 0.269442567321348 
1482	 0.26990875551662 
1483	 0.27034943950447 
1484	 0.270755153667125 
1485	 0.271178738517587 
1486	 0.271567061460891 
1487	 0.272001236744703 
1488	 0.272443445131704 
1489	 0.272931950208515 
1490	 0.27344609331187 
1491	 0.274000531517044 
1492	 0.274593253838341 
1493	 0.275225662037345 
1494	 0.27590092335931 
1495	 0.276594580481388 
1496	 0.277333574523036 
1497	 0.278080576662591 
1498	 0.278859118004133 
1499	 0.279630854174068 
1500	 0.280422060541688 
1501	 0.281206357434718 
1502	 0.282003698368041 
1503	 0.282764963035393 
1504	 0.283516927579127 
1505	 0.284249496275675 
1506	 0.284961427423457 
1507	 0.285645716844483 
1508	 0.286316416836333 
1509	 0.286958936781231 
1510	 0.287558133989479 
1511	 0.288146952099448 
1512	 0.288709702089689 
1513	 0.289270279324491 
1514	 0.289819906835774 
1515	 0.2903578922428 
1516	 0.290888310329901 
1517	 0.291409018570385 
1518	 0.291915257101831 
1519	 0.292410800618172 
1520	 0.292896345245583 
1521	 0.293374206313264 
1522	 0.293835316505805 
1523	 0.294305972204829 
1524	 0.294755945576591 
1525	 0.295196549378715 
1526	 0.295637451883077 
1527	 0.296061667066105 
1528	 0.296503763792227 
1529	 0.296947473664808 
1530	 0.297409375336616 
1531	 0.29788548953168 
1532	 0.298355962751657 
1533	 0.298830179923712 
1534	 0.299325693092034 
1535	 0.299818578366265 
1536	 0.300340246829377 
1537	 0.300885383222438 
1538	 0.301454298585412 
1539	 0.302036599033239 
1540	 0.30265021718604 
1541	 0.303292270122265 
1542	 0.303965064025987 
1543	 0.304665001492716 
1544	 0.305385321607715 
1545	 0.306142521775915 
1546	 0.306907675804336 
1547	 0.307691467997144 
1548	 0.308485221932395 
1549	 0.309297659766654 
1550	 0.310121041659214 
1551	 0.310972430025647 
1552	 0.311791956618953 
1553	 0.312614627675756 
1554	 0.313425493632377 
1555	 0.314216322881353 
1556	 0.315001909272827 
1557	 0.315781980624734 
1558	 0.316565080580248 
1559	 0.317336673327275 
1560	 0.318107548387147 
1561	 0.318888005445022 
1562	 0.319657289927987 
1563	 0.320425298762898 
1564	 0.321165876933657 
1565	 0.321891327991149 
1566	 0.322613963592092 
1567	 0.323312513712864 
1568	 0.324011852093025 
1569	 0.32471968788519 
1570	 0.325408064986544 
1571	 0.326076233819546 
1572	 0.326742653124194 
1573	 0.327390626440499 
1574	 0.328056599927267 
1575	 0.328724290513974 
1576	 0.329395190837062 
1577	 0.330085901017671 
1578	 0.330759893745477 
1579	 0.331429575391118 
1580	 0.332087308325591 
1581	 0.332724157558909 
1582	 0.333377802039895 
1583	 0.334033865526221 
1584	 0.334686593063178 
1585	 0.335342173090064 
1586	 0.336006024334044 
1587	 0.336664778327609 
1588	 0.337330094395831 
1589	 0.338006811137231 
1590	 0.338688911794883 
1591	 0.339376151826461 
1592	 0.340063915902063 
1593	 0.340765971147306 
1594	 0.341457905643795 
1595	 0.34214261860344 
1596	 0.342823911631993 
1597	 0.343485335545608 
1598	 0.344176637592826 
1599	 0.344894279248485 
1600	 0.345591249201766 
1601	 0.346290914881994 
1602	 0.346998628935538 
1603	 0.347692647471737 
1604	 0.348389282452796 
1605	 0.349112315868155 
1606	 0.349813597465555 
1607	 0.350493076968571 
1608	 0.351179394720732 
1609	 0.351871224866599 
1610	 0.352549347809244 
1611	 0.353217353219784 
1612	 0.353881268918394 
1613	 0.354532772337544 
1614	 0.355184198280452 
1615	 0.355842147445335 
1616	 0.356487200441611 
1617	 0.357119294616963 
1618	 0.357753034159125 
1619	 0.358382418584455 
1620	 0.359000129572715 
1621	 0.359613763111177 
1622	 0.360220988302897 
1623	 0.360810795972042 
1624	 0.361410184726443 
1625	 0.362013713293252 
1626	 0.362614352694667 
1627	 0.363228635665641 
1628	 0.363811963612654 
1629	 0.364372553579572 
1630	 0.364937459913761 
1631	 0.365473358042409 
1632	 0.366034935510069 
1633	 0.366624219489437 
1634	 0.367195036554064 
1635	 0.36775679373811 
1636	 0.368327818637434 
1637	 0.368896661039393 
1638	 0.369462905904677 
1639	 0.370053202004076 
1640	 0.370617327292552 
1641	 0.371160996612044 
1642	 0.3717014888223 
1643	 0.372225481149221 
1644	 0.372747016232273 
1645	 0.37326751276457 
1646	 0.373776715458319 
1647	 0.374293473883905 
1648	 0.374774633731607 
1649	 0.375221453059018 
1650	 0.375675795683861 
1651	 0.376118376646974 
1652	 0.376537977101999 
1653	 0.376949582909444 
1654	 0.377354214942965 
1655	 0.377731020173304 
1656	 0.378113855157926 
1657	 0.378531494013321 
1658	 0.37888180710788 
1659	 0.37920434137124 
1660	 0.37948551499663 
1661	 0.379693513821085 
1662	 0.379918448721949 
1663	 0.380132916088778 
1664	 0.380325433880227 
1665	 0.380514245464312 
1666	 0.380675640170212 
1667	 0.380811924761844 
1668	 0.380917653576205 
1669	 0.38100830096376 
1670	 0.381059861510008 
1671	 0.381070342249701 
1672	 0.381060487461446 
1673	 0.381034622282312 
1674	 0.380951938856483 
1675	 0.380825164739115 
1676	 0.380671503834538 
1677	 0.380471237065722 
1678	 0.380245331068663 
1679	 0.379996695139816 
1680	 0.379707746154521 
1681	 0.379375137603827 
1682	 0.379009836682319 
1683	 0.378605746684298 
1684	 0.378194920734146 
1685	 0.377747741184825 
1686	 0.377296634800059 
1687	 0.376834939018853 
1688	 0.376345707018021 
1689	 0.375830539236409 
1690	 0.375314647937309 
1691	 0.374797986039156 
1692	 0.374252459529838 
1693	 0.373697662457377 
1694	 0.373101248789321 
1695	 0.372467590632465 
1696	 0.371806659849504 
1697	 0.371112026238729 
1698	 0.370396369207579 
1699	 0.369650872439095 
1700	 0.368903831168603 
1701	 0.368126632721011 
1702	 0.367376897869621 
1703	 0.366609414737759 
1704	 0.365884832802148 
1705	 0.365174002969273 
1706	 0.364491751575931 
1707	 0.363882707117257 
1708	 0.363253224809797 
1709	 0.362659042509681 
1710	 0.36207737313292 
1711	 0.361439804607827 
1712	 0.360856656688326 
1713	 0.36027602868685 
1714	 0.35966727402919 
1715	 0.359121658784431 
1716	 0.358557261661186 
1717	 0.357966566868223 
1718	 0.357393302851236 
1719	 0.356810448587105 
1720	 0.356247499174377 
1721	 0.355725751893795 
1722	 0.355256154953438 
1723	 0.354882218320034 
1724	 0.354565104340823 
1725	 0.354305589502698 
1726	 0.354170507088955 
1727	 0.354111769964533 
1728	 0.354139729591456 
1729	 0.354312264904882 
1730	 0.354587349048214 
1731	 0.354904001138063 
1732	 0.355300434210236 
1733	 0.355717926253714 
1734	 0.356122464688374 
1735	 0.356539871189422 
1736	 0.356936734743217 
1737	 0.35731338403127 
1738	 0.357619736361269 
1739	 0.357857456324861 
1740	 0.358018365593573 
1741	 0.358152423765501 
1742	 0.358224136992703 
1743	 0.358299364028453 
1744	 0.358328202566061 
1745	 0.358366299880295 
1746	 0.358381337495609 
1747	 0.358432806180592 
1748	 0.358483260214507 
1749	 0.35859292707873 
1750	 0.358734683827237 
1751	 0.358927213547222 
1752	 0.35915774021957 
1753	 0.359452120615415 
1754	 0.359791143242311 
1755	 0.360196081204951 
1756	 0.360665271726275 
1757	 0.361179396660484 
1758	 0.36178817311848 
1759	 0.362416371523642 
1760	 0.363136649272376 
1761	 0.363963546904202 
1762	 0.364786815673631 
1763	 0.3656839161616 
1764	 0.36660726028235 
1765	 0.367529309628665 
1766	 0.368516577193445 
1767	 0.369481104811621 
1768	 0.370470963876961 
1769	 0.371445417628331 
1770	 0.372329650950295 
1771	 0.373232431111761 
1772	 0.374064199253936 
1773	 0.374849788317838 
1774	 0.375682681148705 
1775	 0.376451223970677 
1776	 0.377245405542504 
1777	 0.378051455478557 
1778	 0.378788049716712 
1779	 0.379536817924527 
1780	 0.380244871519934 
1781	 0.380914215279208 
1782	 0.381582151111575 
1783	 0.382201585445117 
1784	 0.382832462549731 
1785	 0.383485164402357 
1786	 0.384117545326896 
1787	 0.384776748848916 
1788	 0.385408311814496 
1789	 0.386000868091451 
1790	 0.386616796367468 
1791	 0.387255046000071 
1792	 0.387871354199024 
1793	 0.388462345486776 
1794	 0.389052800039386 
1795	 0.38963291776339 
1796	 0.390203868111391 
1797	 0.39080036516258 
1798	 0.391345268393645 
1799	 0.391883520990699 
1800	 0.39242380053929 
1801	 0.385444288942749 
1802	 0.385996076450978 
1803	 0.386522808559703 
1804	 0.386992368879457 
1805	 0.387494894102754 
1806	 0.387974661416739 
1807	 0.388463718878022 
1808	 0.388909838214587 
1809	 0.389329109573346 
1810	 0.389743476912483 
1811	 0.390128542092038 
1812	 0.390523637803905 
1813	 0.390910888410254 
1814	 0.391326295606831 
1815	 0.391701207773284 
1816	 0.392070713962434 
1817	 0.392457992199705 
1818	 0.392838373526558 
1819	 0.393223736708697 
1820	 0.393654929067282 
1821	 0.394032600844241 
1822	 0.394381141848074 
1823	 0.394739761966452 
1824	 0.395051110617745 
1825	 0.395344642868129 
1826	 0.395640632829267 
1827	 0.3959298069563 
1828	 0.396196211393813 
1829	 0.396459922634544 
1830	 0.396695017383717 
1831	 0.396904100314771 
1832	 0.397104462409799 
1833	 0.397286508518293 
1834	 0.397460816759966 
1835	 0.397601285149092 
1836	 0.397726322509503 
1837	 0.397859035014316 
1838	 0.397980503866692 
1839	 0.398092651958028 
1840	 0.398216742508506 
1841	 0.39832051298825 
1842	 0.398401680469654 
1843	 0.398476851652841 
1844	 0.398560912935286 
1845	 0.398609127805143 
1846	 0.398667955622491 
1847	 0.398737702538798 
1848	 0.398788748295444 
1849	 0.398859646523575 
1850	 0.398875642339315 
1851	 0.398869029832861 
1852	 0.398827886425411 
1853	 0.398763338745523 
1854	 0.398658104112031 
1855	 0.398510497202838 
1856	 0.398333831344665 
1857	 0.398089845429812 
1858	 0.397787144178448 
1859	 0.397452273336436 
1860	 0.397094644852286 
1861	 0.396645055338513 
1862	 0.39613012063449 
1863	 0.395590445760446 
1864	 0.394955504381138 
1865	 0.394273119025944 
1866	 0.393531411897863 
1867	 0.392653363763717 
1868	 0.391733225693368 
1869	 0.390711034861481 
1870	 0.389606229874868 
1871	 0.388429485291656 
1872	 0.38720108428732 
1873	 0.385887007473033 
1874	 0.384542583811062 
1875	 0.383132231491219 
1876	 0.381546684492933 
1877	 0.379966353842116 
1878	 0.378232100905398 
1879	 0.376367804005824 
1880	 0.374574390106403 
1881	 0.372642707939511 
1882	 0.370586503837275 
1883	 0.368487284502099 
1884	 0.366317260529503 
1885	 0.363900381828443 
1886	 0.361470372687396 
1887	 0.358882753027083 
1888	 0.356140798109091 
1889	 0.353518666687662 
1890	 0.350759575788925 
1891	 0.347983473303959 
1892	 0.345203709105308 
1893	 0.342276632678332 
1894	 0.339187051098561 
1895	 0.33617448354768 
1896	 0.333045999916037 
1897	 0.329835279100496 
1898	 0.326851239711993 
1899	 0.323717923755773 
1900	 0.320605479227273 
1901	 0.317572811845407 
1902	 0.314305437458252 
1903	 0.311158570892407 
1904	 0.308004512655389 
1905	 0.304810197947386 
1906	 0.301608130261751 
1907	 0.298671437545237 
1908	 0.295623196852387 
1909	 0.292632694061121 
1910	 0.289737582841026 
1911	 0.286672079142943 
1912	 0.283726672797963 
1913	 0.280775938884295 
1914	 0.277780367134186 
1915	 0.274941326812088 
1916	 0.27224422594328 
1917	 0.269488331523751 
1918	 0.266818262147455 
1919	 0.264244583509507 
1920	 0.261509558109048 
1921	 0.25889167975008 
1922	 0.25626206159153 
1923	 0.253597359577746 
1924	 0.251144482667504 
1925	 0.24865467932335 
1926	 0.246209982127402 
1927	 0.243870048796563 
1928	 0.24146721076573 
1929	 0.238997250945971 
1930	 0.236654697209521 
1931	 0.234339629055104 
1932	 0.232099850444162 
1933	 0.230184701058014 
1934	 0.228371413053315 
1935	 0.226706176903907 
1936	 0.225303367614249 
1937	 0.224061933213004 
1938	 0.22293752012351 
1939	 0.222121021377739 
1940	 0.221533205659607 
1941	 0.221179107681227 
1942	 0.221088230985527 
1943	 0.221184703580265 
1944	 0.221477035149227 
1945	 0.221999797481986 
1946	 0.222781659557369 
1947	 0.223763647741738 
1948	 0.22505684068158 
1949	 0.226662556908398 
1950	 0.228434063287711 
1951	 0.230491796110704 
1952	 0.232705231749305 
1953	 0.235101038900386 
1954	 0.237688539529773 
1955	 0.240562161698235 
1956	 0.243375938163436 
1957	 0.246231389544776 
1958	 0.249060557133317 
1959	 0.251548081674106 
1960	 0.253889137644156 
1961	 0.255996753888174 
1962	 0.257867181996616 
1963	 0.25952648223678 
1964	 0.260955853926643 
1965	 0.262207785869681 
1966	 0.263240917302345 
1967	 0.264120477992533 
1968	 0.264822321221536 
1969	 0.265503724950627 
1970	 0.266125789997599 
1971	 0.266740419079886 
1972	 0.267422490319783 
1973	 0.268129287934476 
1974	 0.26890945606704 
1975	 0.269762024149641 
1976	 0.270656960054363 
1977	 0.271594044700104 
1978	 0.272603771337251 
1979	 0.273667335130679 
1980	 0.274775014098362 
1981	 0.276018079007299 
1982	 0.277263995861666 
1983	 0.27862057227149 
1984	 0.280044115373171 
1985	 0.281439304140424 
1986	 0.28299726166793 
1987	 0.284678164509764 
1988	 0.286373170092784 
1989	 0.288364521903562 
1990	 0.290583230948405 
1991	 0.292904117468652 
1992	 0.295426809395125 
1993	 0.298141781628862 
1994	 0.300754536520618 
1995	 0.303553611544778 
1996	 0.306387872648999 
1997	 0.309187998844544 
1998	 0.312077895313322 
1999	 0.315128333134212 
2000	 0.317968891645298 
2001	 0.320895292789475 
2002	 0.323540839804342 
2003	 0.326004655864717 
2004	 0.328384126271252 
2005	 0.330571803172011 
2006	 0.332694138950582 
2007	 0.334784436738237 
2008	 0.336653458688682 
2009	 0.33840419158733 
2010	 0.340078257695269 
2011	 0.341504139850766 
2012	 0.342876743258343 
2013	 0.344152456718168 
2014	 0.345288470866092 
2015	 0.346381442495764 
2016	 0.347411822210102 
2017	 0.348338820728195 
2018	 0.349201642559807 
2019	 0.349952535851889 
2020	 0.350575834736392 
2021	 0.351149750494758 
2022	 0.351638329883687 
2023	 0.352003662520335 
2024	 0.352338928161427 
2025	 0.352616299110242 
2026	 0.352850331604804 
2027	 0.353020684240798 
2028	 0.353175630687559 
2029	 0.353283269578562 
2030	 0.353364417591513 
2031	 0.353406357725716 
2032	 0.353435313411777 
2033	 0.353411207302957 
2034	 0.353405790284481 
2035	 0.353388831525624 
2036	 0.353378457494623 
2037	 0.353362998478392 
2038	 0.353371426492096 
2039	 0.353384973496733 
2040	 0.353403586862909 
2041	 0.353433416332401 
2042	 0.353483446892357 
2043	 0.353524826958565 
2044	 0.35356198471773 
2045	 0.353616852449479 
2046	 0.353678489239105 
2047	 0.353746796415995 
2048	 0.353836749789087 
2049	 0.353919564051461 
2050	 0.353999451753981 
2051	 0.354078247302979 
2052	 0.354170878646681 
2053	 0.354276876806386 
2054	 0.354392496115506 
2055	 0.354521927189345 
2056	 0.354657186896672 
2057	 0.354790881150285 
2058	 0.354957642732038 
2059	 0.35513434653933 
2060	 0.355345101314907 
2061	 0.355586105899861 
2062	 0.355846649855653 
2063	 0.356140767754517 
2064	 0.356445370164258 
2065	 0.356761354156284 
2066	 0.357105357000298 
2067	 0.357492888565072 
2068	 0.357873865955992 
2069	 0.358254190411906 
2070	 0.358662397502422 
2071	 0.359044064944057 
2072	 0.359419382671389 
2073	 0.359771805573665 
2074	 0.360118428295447 
2075	 0.360446432824611 
2076	 0.360764341548663 
2077	 0.361036034107893 
2078	 0.361293017487562 
2079	 0.361510286941998 
2080	 0.36168282139403 
2081	 0.36182128062747 
2082	 0.3619171036048 
2083	 0.362009114608362 
2084	 0.362048433586222 
2085	 0.362051190917629 
2086	 0.362026449942812 
2087	 0.361969374283271 
2088	 0.361887829874249 
2089	 0.361772975063637 
2090	 0.36163402562212 
2091	 0.361478814162922 
2092	 0.361279322672355 
2093	 0.361029213397941 
2094	 0.360775623066553 
2095	 0.36047215478511 
2096	 0.360188528290482 
2097	 0.359914534477836 
2098	 0.359622183087915 
2099	 0.35931591581593 
2100	 0.358992945064336 
2101	 0.358639957985802 
2102	 0.358235974852471 
2103	 0.357874558038573 
2104	 0.357509074604742 
2105	 0.357150995211936 
2106	 0.356821975483439 
2107	 0.356455341644631 
2108	 0.356075785698623 
2109	 0.355682155287281 
2110	 0.355266698718477 
2111	 0.354853848611316 
2112	 0.354423860692137 
2113	 0.354000059314537 
2114	 0.353572750958219 
2115	 0.353147760197486 
2116	 0.352722248518364 
2117	 0.352311770962841 
2118	 0.351878607113702 
2119	 0.351446052695578 
2120	 0.350998723174361 
2121	 0.350520773920619 
2122	 0.350074600339253 
2123	 0.34963958466582 
2124	 0.34919010563351 
2125	 0.348764350027201 
2126	 0.348301473498022 
2127	 0.347801364635742 
2128	 0.347319566661457 
2129	 0.346819118724065 
2130	 0.34633636877921 
2131	 0.345878388551728 
2132	 0.345403518318004 
2133	 0.344937978101899 
2134	 0.344466166754041 
2135	 0.343930901588367 
2136	 0.343376075562287 
2137	 0.342797696559811 
2138	 0.342159841200599 
2139	 0.34155933209577 
2140	 0.340963227269958 
2141	 0.340356915002922 
2142	 0.339780599006855 
2143	 0.339126385489851 
2144	 0.338416323206757 
2145	 0.337732488429637 
2146	 0.337005881530809 
2147	 0.336298265279749 
2148	 0.335624521685742 
2149	 0.334920681639628 
2150	 0.334206143007895 
2151	 0.333473391184555 
2152	 0.332718999276441 
2153	 0.331981080967443 
2154	 0.33118416261409 
2155	 0.330349088009812 
2156	 0.329555989626246 
2157	 0.328759019349538 
2158	 0.327951988791552 
2159	 0.327172499548648 
2160	 0.326357390023476 
2161	 0.325497559311432 
2162	 0.32467525285464 
2163	 0.323828960139506 
2164	 0.323050730225806 
2165	 0.322307489691469 
2166	 0.321580838760256 
2167	 0.320907060202139 
2168	 0.320238187701663 
2169	 0.319560466435317 
2170	 0.31893380585191 
2171	 0.31832180516066 
2172	 0.317771388647052 
2173	 0.317290428482009 
2174	 0.316820617996697 
2175	 0.316375920241809 
2176	 0.315969841430206 
2177	 0.315558748031093 
2178	 0.315145938540035 
2179	 0.31476988854438 
2180	 0.314423650831893 
2181	 0.314075867138853 
2182	 0.313767612581263 
2183	 0.313405210651679 
2184	 0.313040577061469 
2185	 0.31264203838916 
2186	 0.312201525338687 
2187	 0.311761157411665 
2188	 0.31130378588176 
2189	 0.310838584493252 
2190	 0.310378175851515 
2191	 0.30986984567934 
2192	 0.30937346683251 
2193	 0.308787777703481 
2194	 0.308137187140136 
2195	 0.307446081046873 
2196	 0.306695949596158 
2197	 0.305873169502935 
2198	 0.305067605001499 
2199	 0.304193280161076 
2200	 0.303280201028135 
2201	 0.3023514502452 
2202	 0.301307068754332 
2203	 0.300177087456458 
2204	 0.299014891489142 
2205	 0.297719498858457 
2206	 0.296522613050512 
2207	 0.295318136293029 
2208	 0.294133016956479 
2209	 0.292968509652176 
2210	 0.291841831177727 
2211	 0.290663214357206 
2212	 0.289655173470786 
2213	 0.288686795042848 
2214	 0.287896623387575 
2215	 0.287258741978211 
2216	 0.286727397355524 
2217	 0.286330344631097 
2218	 0.286064266723274 
2219	 0.28594875075357 
2220	 0.285913983077582 
2221	 0.286023250071223 
2222	 0.286221988209766 
2223	 0.286471628333128 
2224	 0.286728681253358 
2225	 0.286972918340067 
2226	 0.28718860657485 
2227	 0.28730946119181 
2228	 0.287389559511386 
2229	 0.287342240092255 
2230	 0.287213981517593 
2231	 0.286973973400545 
2232	 0.286612888454818 
2233	 0.286180087203228 
2234	 0.28567566603074 
2235	 0.285021978032094 
2236	 0.284239384329146 
2237	 0.283397271590415 
2238	 0.282396241266057 
2239	 0.281390436341446 
2240	 0.280364179850731 
2241	 0.279217498043382 
2242	 0.278036844061916 
2243	 0.276690948082046 
2244	 0.275192823687209 
2245	 0.273630351051709 
2246	 0.271883811758311 
2247	 0.270144487201167 
2248	 0.268402342849879 
2249	 0.266530527061885 
2250	 0.264579248718731 
2251	 0.262587966533929 
2252	 0.260369601976311 
2253	 0.258127017209345 
2254	 0.255794377985715 
2255	 0.253393311728321 
2256	 0.251144150900681 
2257	 0.248844151698029 
2258	 0.24663587936204 
2259	 0.244528610560352 
2260	 0.242389486291294 
2261	 0.240200436920582 
2262	 0.238216341469226 
2263	 0.236227575399096 
2264	 0.234518062813954 
2265	 0.233020148127554 
2266	 0.231643084202241 
2267	 0.2304623217678 
2268	 0.22940442272918 
2269	 0.228474593840677 
2270	 0.227727576168914 
2271	 0.22717970096841 
2272	 0.226715798451605 
2273	 0.226471587897482 
2274	 0.226211686841357 
2275	 0.226043277377617 
2276	 0.225902063780757 
2277	 0.225832128637517 
2278	 0.225747438377941 
2279	 0.225731518349398 
2280	 0.225659350754096 
2281	 0.225583296496086 
2282	 0.225454893315555 
2283	 0.225309870140139 
2284	 0.225089044440735 
2285	 0.224795054229759 
2286	 0.224512832071596 
2287	 0.224178472860585 
2288	 0.223788482931848 
2289	 0.223381372060468 
2290	 0.222883908694181 
2291	 0.222350755070275 
2292	 0.221768112645346 
2293	 0.221106051472669 
2294	 0.220447519423352 
2295	 0.219792144158396 
2296	 0.219182661508294 
2297	 0.218695270212802 
2298	 0.218288208571849 
2299	 0.217991710187024 
2300	 0.217779562038956 
2301	 0.217727255146418 
2302	 0.217771105991271 
2303	 0.218021694467672 
2304	 0.218447643933442 
2305	 0.219036714326733 
2306	 0.219812520854268 
2307	 0.220753683184172 
2308	 0.221840191087766 
2309	 0.22316705605186 
2310	 0.224761740446689 
2311	 0.226416587917894 
2312	 0.22840300871022 
2313	 0.230217202257259 
2314	 0.232114385085424 
2315	 0.233877726547885 
2316	 0.235592073924366 
2317	 0.237159443285067 
2318	 0.238697740144844 
2319	 0.239947136784561 
2320	 0.241020960618044 
2321	 0.241884262977308 
2322	 0.242471336118371 
2323	 0.242931599236948 
2324	 0.243209727215201 
2325	 0.243321640583458 
2326	 0.243246015435641 
2327	 0.242994247017205 
2328	 0.242507703835258 
2329	 0.241922548997986 
2330	 0.241184798455699 
2331	 0.240290340262918 
2332	 0.239240735454529 
2333	 0.238035017217389 
2334	 0.23664119871605 
2335	 0.235159850436585 
2336	 0.233527677187417 
2337	 0.231796605513344 
2338	 0.230031699059159 
2339	 0.228105333554466 
2340	 0.226288558511562 
2341	 0.224492491590699 
2342	 0.222594796583549 
2343	 0.220915388023398 
2344	 0.219317017593039 
2345	 0.217852239810493 
2346	 0.216723659548346 
2347	 0.215828904865255 
2348	 0.215176920852819 
2349	 0.214847046326023 
2350	 0.214769328742415 
2351	 0.214913374256043 
2352	 0.215146681290393 
2353	 0.21553276535281 
2354	 0.216018518797425 
2355	 0.216468521507425 
2356	 0.216974629916091 
2357	 0.217457025609017 
2358	 0.217893783440445 
2359	 0.218255196143652 
2360	 0.218506821722367 
2361	 0.218738078845581 
2362	 0.218905234713336 
2363	 0.218972267617191 
2364	 0.219026791608274 
2365	 0.219064131316502 
2366	 0.219029181690648 
2367	 0.218960427808335 
2368	 0.218871003468671 
2369	 0.218707059673511 
2370	 0.218488911480115 
2371	 0.21822974057354 
2372	 0.217983995389487 
2373	 0.217683351405644 
2374	 0.217269283342756 
2375	 0.216848188754632 
2376	 0.216334497786319 
2377	 0.215763140362756 
2378	 0.215301314750482 
2379	 0.214758573145484 
2380	 0.214130024035101 
2381	 0.213514728839098 
2382	 0.212901088896294 
2383	 0.212255767756454 
2384	 0.211630143210046 
2385	 0.211035222845638 
2386	 0.210378050590025 
2387	 0.209652508473398 
2388	 0.208898999391738 
2389	 0.208184772521534 
2390	 0.207387571897302 
2391	 0.20649495844578 
2392	 0.205624450698107 
2393	 0.20468959982385 
2394	 0.203785969676332 
2395	 0.202861151470086 
2396	 0.202011989895098 
2397	 0.201230722755316 
2398	 0.200423180928613 
2399	 0.19965514589768 
2400	 0.198876240397919 
2401	 0.19805844959451 
2402	 0.197276936409128 
2403	 0.196520954940445 
2404	 0.195802641366755 
2405	 0.195100833448411 
2406	 0.194432486574176 
2407	 0.193872199859993 
2408	 0.193342978182481 
2409	 0.192822462877089 
2410	 0.192315259498574 
2411	 0.191814277394717 
2412	 0.191306279138607 
2413	 0.190818472686499 
2414	 0.190347313766906 
2415	 0.189891390604715 
2416	 0.189506065364293 
2417	 0.189091992571389 
2418	 0.188716113666519 
2419	 0.188331986220146 
2420	 0.187851611780285 
2421	 0.187391416585956 
2422	 0.187002940757555 
2423	 0.186750731143503 
2424	 0.186610669894404 
2425	 0.18651103576305 
2426	 0.186403907801405 
2427	 0.186303937606177 
2428	 0.186168025880987 
2429	 0.186052605708285 
2430	 0.185966822640317 
2431	 0.185772994633598 
2432	 0.18556957794896 
2433	 0.185395687641481 
2434	 0.185131465499432 
2435	 0.184897191124247 
2436	 0.184776805202763 
2437	 0.184628752548118 
2438	 0.184599376405995 
2439	 0.184650398033325 
2440	 0.184592018775949 
2441	 0.184522033685427 
2442	 0.184410749861969 
2443	 0.184335381807159 
2444	 0.184386558121846 
2445	 0.184431539576097 
2446	 0.184557069482313 
2447	 0.184683801405576 
2448	 0.184611638078745 
2449	 0.184595991003811 
2450	 0.18463977757918 
2451	 0.184610999892666 
2452	 0.184608341590168 
2453	 0.184608827337218 
2454	 0.184497514423571 
2455	 0.18431501514178 
2456	 0.184123134422556 
2457	 0.1838539085117 
2458	 0.183684073676708 
2459	 0.183481065892528 
2460	 0.183242205978394 
2461	 0.183099391324135 
2462	 0.182864305690795 
2463	 0.182719192930169 
2464	 0.182555242304086 
2465	 0.182333528720914 
2466	 0.182100699470542 
2467	 0.1817806834727 
2468	 0.181565626809428 
2469	 0.181341495186173 
2470	 0.181129398604052 
2471	 0.180931883061714 
2472	 0.18060617854196 
2473	 0.180357198374691 
2474	 0.180175797722285 
2475	 0.179974786484265 
2476	 0.179968694929234 
2477	 0.180057057047554 
2478	 0.180032244683267 
2479	 0.180044540309527 
2480	 0.180056128577776 
2481	 0.180030670984363 
2482	 0.180112572708526 
2483	 0.179986873670891 
2484	 0.180127185566192 
2485	 0.180400598458461 
2486	 0.180518060852942 
2487	 0.180742158091232 
2488	 0.180767785976713 
2489	 0.180797456354226 
2490	 0.180895283575693 
2491	 0.181017769904008 
2492	 0.181403971916552 
2493	 0.181549612521857 
2494	 0.181680297733322 
2495	 0.182167604098549 
2496	 0.182396736871015 
2497	 0.182483518649847 
2498	 0.182569409046324 
2499	 0.182404914827565 
2500	 0.182487556800615 
