Wavelength	spectrum00023.asd
350	 3.66320460260162E-02 
351	 0.037644308660702 
352	 3.66784592662796E-02 
353	 3.53392621582605E-02 
354	 3.71598159132065E-02 
355	 3.88275742310516E-02 
356	 3.86946819965148E-02 
357	 3.65403794474854E-02 
358	 0.034468777804624 
359	 3.45436873138133E-02 
360	 3.60556938720403E-02 
361	 0.036873968255698 
362	 3.66469862612595E-02 
363	 3.52795523542772E-02 
364	 3.39400776850384E-02 
365	 3.53075783105426E-02 
366	 3.57873807285513E-02 
367	 3.57312786399814E-02 
368	 3.60114512003515E-02 
369	 3.58385297148849E-02 
370	 3.55368494743745E-02 
371	 3.53902680680983E-02 
372	 0.035519361288455 
373	 3.47619784772834E-02 
374	 3.50316137314779E-02 
375	 3.66077135629491E-02 
376	 3.70575606115172E-02 
377	 3.71406666442633E-02 
378	 3.70976780558269E-02 
379	 3.68624612801733E-02 
380	 3.53588115625186E-02 
381	 0.03585785046194 
382	 3.71614848327878E-02 
383	 3.59192719127649E-02 
384	 0.036350866577993 
385	 3.72662281109593E-02 
386	 3.75096232674854E-02 
387	 3.69412666496943E-02 
388	 3.63428907583361E-02 
389	 3.64412059628466E-02 
390	 3.72994781237135E-02 
391	 3.68717140536511E-02 
392	 3.63352587632774E-02 
393	 3.63070703394276E-02 
394	 3.68244701559765E-02 
395	 3.65683983839658E-02 
396	 3.66078154835056E-02 
397	 3.73432218662077E-02 
398	 3.76195261907989E-02 
399	 3.72871434240016E-02 
400	 3.70614059898338E-02 
401	 3.74316499555519E-02 
402	 3.66052950190862E-02 
403	 3.70805400118921E-02 
404	 3.83062475729765E-02 
405	 3.76243529935459E-02 
406	 3.73569170615633E-02 
407	 3.72066969605558E-02 
408	 3.70312189369279E-02 
409	 3.78980238696406E-02 
410	 0.037797688674296 
411	 3.72719585933678E-02 
412	 3.74434070699907E-02 
413	 3.77801231623105E-02 
414	 3.76101853951592E-02 
415	 3.72781796056489E-02 
416	 3.79286548465198E-02 
417	 0.037768084592729 
418	 3.76108072732044E-02 
419	 3.80097088965824E-02 
420	 3.77871606107186E-02 
421	 3.77517385219135E-02 
422	 3.79387120494997E-02 
423	 3.80726104566619E-02 
424	 3.80929629573424E-02 
425	 3.80989687574257E-02 
426	 3.81006176464603E-02 
427	 3.79906941677307E-02 
428	 3.80302016843903E-02 
429	 3.81410572382649E-02 
430	 3.82199703921662E-02 
431	 0.038365897989588 
432	 3.83129888767517E-02 
433	 3.82171809509359E-02 
434	 3.84112746980907E-02 
435	 3.85025352119338E-02 
436	 3.84568360018278E-02 
437	 3.83876541015292E-02 
438	 3.85798263921698E-02 
439	 3.85647768785493E-02 
440	 3.85514830763181E-02 
441	 3.87737228175244E-02 
442	 3.86713104299317E-02 
443	 3.87308281012614E-02 
444	 3.89513419689557E-02 
445	 0.038940140084014 
446	 3.89232954888369E-02 
447	 3.89679058779183E-02 
448	 3.90527152345171E-02 
449	 0.039002677688285 
450	 3.90613989753941E-02 
451	 3.91616647058216E-02 
452	 3.91567808631257E-02 
453	 3.92206130601265E-02 
454	 0.039248257776361 
455	 3.92353201479357E-02 
456	 3.93049830140654E-02 
457	 3.93117986141407E-02 
458	 3.93406456580221E-02 
459	 0.039455379149092 
460	 3.95100200986371E-02 
461	 3.95160520219618E-02 
462	 3.95164727264924E-02 
463	 3.95620725660455E-02 
464	 3.95717482646672E-02 
465	 3.96622694701576E-02 
466	 3.97774030107717E-02 
467	 3.95490754174445E-02 
468	 0.039578430875147 
469	 3.97474010352874E-02 
470	 3.98012735283719E-02 
471	 3.98925360348044E-02 
472	 3.99513176864175E-02 
473	 3.99658788916833E-02 
474	 3.99766104753809E-02 
475	 4.00110548581606E-02 
476	 4.00386850823282E-02 
477	 4.00483024243826E-02 
478	 4.01012957646717E-02 
479	 4.00970048521198E-02 
480	 4.01091319313966E-02 
481	 4.02299067193147E-02 
482	 4.02070963266309E-02 
483	 4.02096687368275E-02 
484	 4.02901450548211E-02 
485	 4.03346755641638E-02 
486	 4.04434382069885E-02 
487	 4.04962052798613E-02 
488	 4.04187828211299E-02 
489	 4.04162453153113E-02 
490	 4.04970261623835E-02 
491	 4.06018964360794E-02 
492	 4.06366439687268E-02 
493	 4.06038376299895E-02 
494	 0.040640539970724 
495	 4.07568291729023E-02 
496	 4.07237307857781E-02 
497	 4.07510388725834E-02 
498	 4.07830540035363E-02 
499	 4.07438900920785E-02 
500	 4.08690612999874E-02 
501	 4.08915383835506E-02 
502	 4.08086037931765E-02 
503	 4.08563656370392E-02 
504	 4.09127367159247E-02 
505	 4.09420040361729E-02 
506	 4.09543819741295E-02 
507	 0.041045671038533 
508	 4.10563051908424E-02 
509	 4.10634533059775E-02 
510	 4.11970570920173E-02 
511	 4.11418906447228E-02 
512	 4.11492281277597E-02 
513	 4.12783387301573E-02 
514	 4.12815266079747E-02 
515	 4.12195611817348E-02 
516	 4.12145970571493E-02 
517	 4.13250090833961E-02 
518	 4.13144113224696E-02 
519	 4.13683741996977E-02 
520	 4.14671865986806E-02 
521	 4.14595112931301E-02 
522	 0.041483707685869 
523	 4.15271283988346E-02 
524	 4.15577907331688E-02 
525	 4.15425655416292E-02 
526	 4.15696223609562E-02 
527	 4.16091579340436E-02 
528	 4.16068181607859E-02 
529	 4.16304009553055E-02 
530	 4.16706277307969E-02 
531	 4.17218467672531E-02 
532	 4.17861541926199E-02 
533	 4.17713471966432E-02 
534	 4.17743764788775E-02 
535	 4.18479499406795E-02 
536	 4.17800273825982E-02 
537	 4.17996713908285E-02 
538	 4.18836472440582E-02 
539	 4.18778815290886E-02 
540	 4.18318565797596E-02 
541	 4.18470410498523E-02 
542	 4.19223625130599E-02 
543	 4.18805330735393E-02 
544	 4.18869436303356E-02 
545	 0.041896292674893 
546	 4.18467053887854E-02 
547	 4.19025719389109E-02 
548	 4.19671589806229E-02 
549	 4.20012143801409E-02 
550	 4.20291771606195E-02 
551	 4.21084549275659E-02 
552	 4.21891123657256E-02 
553	 4.22444356783933E-02 
554	 4.23670082022002E-02 
555	 4.24570363874131E-02 
556	 4.25258992548406E-02 
557	 4.26271776152199E-02 
558	 4.26920736191223E-02 
559	 4.27941290599765E-02 
560	 4.29327269738913E-02 
561	 4.29893848467538E-02 
562	 4.29636910233073E-02 
563	 4.29461602275817E-02 
564	 4.29978094214761E-02 
565	 4.29573644292642E-02 
566	 4.29355783750766E-02 
567	 4.29316790677481E-02 
568	 0.04287147655351 
569	 0.04292663094676 
570	 4.30062265672277E-02 
571	 4.30360024126502E-02 
572	 4.30627039822628E-02 
573	 0.043122008970267 
574	 4.31716357591445E-02 
575	 4.31571130214157E-02 
576	 4.31682629950232E-02 
577	 4.31190888191091E-02 
578	 4.30170002327142E-02 
579	 4.29846606659604E-02 
580	 4.29780042364916E-02 
581	 4.29719318514777E-02 
582	 4.29649586753615E-02 
583	 4.30238706519196E-02 
584	 4.30792595768286E-02 
585	 4.31225038773092E-02 
586	 4.31761262741667E-02 
587	 4.31822567219666E-02 
588	 4.31927398110393E-02 
589	 4.32372751358135E-02 
590	 4.32905631319961E-02 
591	 4.33160339973689E-02 
592	 4.33369415090225E-02 
593	 4.33843360467329E-02 
594	 4.34310581321996E-02 
595	 4.34686803363274E-02 
596	 4.34904269838316E-02 
597	 4.34940840700547E-02 
598	 4.35388549737302E-02 
599	 4.35825938674104E-02 
600	 4.35933165384371E-02 
601	 4.36062718539314E-02 
602	 4.36395517572033E-02 
603	 4.36740773077067E-02 
604	 4.36848941507667E-02 
605	 4.37413431926578E-02 
606	 4.37726107476485E-02 
607	 4.37762930042291E-02 
608	 4.38472722072283E-02 
609	 4.38573965427136E-02 
610	 4.38589183768774E-02 
611	 4.39123957980996E-02 
612	 4.39519512992055E-02 
613	 4.39773696464602E-02 
614	 4.39872735057023E-02 
615	 4.39838727492892E-02 
616	 4.40004609528914E-02 
617	 0.044037869559992 
618	 4.40821881908631E-02 
619	 4.41023541602909E-02 
620	 4.41251978427524E-02 
621	 4.41458138536387E-02 
622	 4.41547023279885E-02 
623	 4.41692215570329E-02 
624	 4.41984818701331E-02 
625	 4.42381958769808E-02 
626	 4.42726704426542E-02 
627	 4.43101744915163E-02 
628	 4.43362514560041E-02 
629	 4.43476047348468E-02 
630	 4.43806713667808E-02 
631	 4.43873047199106E-02 
632	 4.43941535674108E-02 
633	 4.44472622101571E-02 
634	 4.44780911340773E-02 
635	 4.44977084902183E-02 
636	 4.45220638621792E-02 
637	 0.044563916325644 
638	 4.45837673193729E-02 
639	 4.45911893441498E-02 
640	 4.46034004857898E-02 
641	 4.46153638691542E-02 
642	 4.46548650810076E-02 
643	 0.044697912898876 
644	 4.46982847379251E-02 
645	 4.47290399375668E-02 
646	 4.47496934970602E-02 
647	 4.47544399741998E-02 
648	 4.48181724268357E-02 
649	 4.48677915900607E-02 
650	 0.044897992934257 
651	 4.49224676343291E-02 
652	 4.49407890726941E-02 
653	 4.49498942468271E-02 
654	 4.49602086261426E-02 
655	 4.49904547530609E-02 
656	 4.50184060307353E-02 
657	 4.50369249660009E-02 
658	 4.50466593874665E-02 
659	 4.50537871507115E-02 
660	 4.51138782058386E-02 
661	 4.51616072205042E-02 
662	 4.51277327061475E-02 
663	 4.51963896844273E-02 
664	 4.52345618432235E-02 
665	 4.52206891245882E-02 
666	 4.52598023308658E-02 
667	 4.52813930390004E-02 
668	 4.53008457215484E-02 
669	 0.045336137763707 
670	 4.53716757067417E-02 
671	 4.53919896266748E-02 
672	 4.54047028325259E-02 
673	 4.54283821389521E-02 
674	 0.045469749588301 
675	 4.55077856250295E-02 
676	 4.55365473767418E-02 
677	 4.55708463949024E-02 
678	 4.55760580495411E-02 
679	 4.55990778758743E-02 
680	 4.56654173068543E-02 
681	 4.56775337349682E-02 
682	 4.56957849585992E-02 
683	 4.57212849308399E-02 
684	 4.57274308484553E-02 
685	 0.04574258706533 
686	 4.57712517098761E-02 
687	 4.58059850152299E-02 
688	 0.045826864829085 
689	 4.58549403791807E-02 
690	 4.58787031097429E-02 
691	 4.58918188690426E-02 
692	 4.59385768238412E-02 
693	 4.59606172657837E-02 
694	 4.59794705833957E-02 
695	 4.60526347168264E-02 
696	 4.60611288592004E-02 
697	 0.046061364826582 
698	 4.60894223549803E-02 
699	 4.61155740481544E-02 
700	 4.61431423726172E-02 
701	 4.61682987078841E-02 
702	 4.61867728267659E-02 
703	 4.61931768424426E-02 
704	 0.046233151666967 
705	 4.62795446145479E-02 
706	 0.046266650350869 
707	 4.62881011165582E-02 
708	 4.63342855014074E-02 
709	 4.63759244481009E-02 
710	 4.63735388985781E-02 
711	 4.64036847758822E-02 
712	 4.64387748309392E-02 
713	 4.64427919191646E-02 
714	 4.64804565914349E-02 
715	 4.65191846179545E-02 
716	 4.65360778409703E-02 
717	 4.65254796232813E-02 
718	 4.65656686622259E-02 
719	 4.66134989349739E-02 
720	 4.66384037443074E-02 
721	 4.66614025106671E-02 
722	 4.66596152512374E-02 
723	 4.66743494217579E-02 
724	 4.67349976528157E-02 
725	 4.67467824506768E-02 
726	 4.67645353571503E-02 
727	 4.67952847555368E-02 
728	 4.68119337161724E-02 
729	 4.68285731838316E-02 
730	 4.68665285617198E-02 
731	 4.69170109952292E-02 
732	 4.69204151878467E-02 
733	 4.69480034255893E-02 
734	 4.69885435698265E-02 
735	 4.70153213786521E-02 
736	 4.70409210203798E-02 
737	 4.70605640481541E-02 
738	 4.70789680107697E-02 
739	 4.71068635396385E-02 
740	 4.71511559652055E-02 
741	 0.047180200845203 
742	 4.71886281407969E-02 
743	 4.72165782500525E-02 
744	 4.72322153533776E-02 
745	 4.72488757456929E-02 
746	 0.047281502483662 
747	 4.73093517637648E-02 
748	 4.73469671786445E-02 
749	 4.73752976428206E-02 
750	 0.04736495683038 
751	 4.73602644978918E-02 
752	 4.73943359086635E-02 
753	 4.74515918780638E-02 
754	 4.74587768705313E-02 
755	 4.74672310562419E-02 
756	 4.74820153805891E-02 
757	 4.74996405210132E-02 
758	 4.75244251589995E-02 
759	 0.047540189710344 
760	 4.75536849120086E-02 
761	 4.75773244004095E-02 
762	 4.75820396017366E-02 
763	 4.75912328928231E-02 
764	 4.76188155028549E-02 
765	 4.76617980965206E-02 
766	 0.047669766130977 
767	 4.76728563634785E-02 
768	 4.76960995215234E-02 
769	 4.77136106728608E-02 
770	 4.77433544742269E-02 
771	 4.77659652834578E-02 
772	 4.77626432451469E-02 
773	 4.77858565876649E-02 
774	 4.77998802759498E-02 
775	 4.77993170936629E-02 
776	 4.78070729999525E-02 
777	 4.78355524569821E-02 
778	 4.78644036940238E-02 
779	 4.78847146863347E-02 
780	 4.79164217402259E-02 
781	 4.79217746832945E-02 
782	 4.79200383848507E-02 
783	 4.79391107850279E-02 
784	 4.79774651330646E-02 
785	 4.80020430201841E-02 
786	 0.048012577512041 
787	 4.80252602560351E-02 
788	 4.80139117020438E-02 
789	 4.80316076360015E-02 
790	 4.80816138364393E-02 
791	 4.81027598898312E-02 
792	 4.81268798176966E-02 
793	 4.81399303932858E-02 
794	 4.81372555666692E-02 
795	 4.81574545772462E-02 
796	 4.81794132244744E-02 
797	 4.81993248954662E-02 
798	 4.82142245908404E-02 
799	 4.81944777440828E-02 
800	 4.81892586940921E-02 
801	 4.82130808356292E-02 
802	 4.82455325480419E-02 
803	 4.82345025564417E-02 
804	 4.82385051588338E-02 
805	 4.82787993612513E-02 
806	 4.82989383034358E-02 
807	 4.83073227660245E-02 
808	 0.048314247188759 
809	 4.83267571070028E-02 
810	 4.83365347734802E-02 
811	 4.83525416331092E-02 
812	 4.83669004813974E-02 
813	 4.83709771200138E-02 
814	 4.83970986755714E-02 
815	 4.84201918960213E-02 
816	 4.84317392522804E-02 
817	 4.84412115294249E-02 
818	 4.84493875004142E-02 
819	 0.048450854791963 
820	 4.84493177162286E-02 
821	 4.84646642507785E-02 
822	 4.84673655344515E-02 
823	 4.84738840872186E-02 
824	 4.84999124272165E-02 
825	 4.85195521465182E-02 
826	 4.85460157243677E-02 
827	 4.85596676575598E-02 
828	 4.85425464800306E-02 
829	 4.85698331788436E-02 
830	 4.86119624408934E-02 
831	 4.86318641934919E-02 
832	 4.86034029328297E-02 
833	 0.048623834804796 
834	 4.86440297199443E-02 
835	 4.86444429436889E-02 
836	 4.86842119706322E-02 
837	 4.86948820636785E-02 
838	 4.86946374193592E-02 
839	 4.87041795811722E-02 
840	 4.86845636050776E-02 
841	 0.048684142715187 
842	 4.87066043689151E-02 
843	 4.87329679140936E-02 
844	 4.87369649352796E-02 
845	 4.87432999731365E-02 
846	 4.87572282210975E-02 
847	 4.87680734636066E-02 
848	 4.87777970584267E-02 
849	 4.87802837856625E-02 
850	 4.87791235288845E-02 
851	 4.87893011584718E-02 
852	 0.048778958184369 
853	 0.048797581333687 
854	 4.88559895764591E-02 
855	 4.88516411984715E-02 
856	 4.88062424267194E-02 
857	 4.87851599039857E-02 
858	 4.88293860934104E-02 
859	 4.88374940692502E-02 
860	 4.88536933062172E-02 
861	 4.88664161755725E-02 
862	 4.88498083859625E-02 
863	 0.048872364353587 
864	 4.88955943657078E-02 
865	 4.89038705945729E-02 
866	 4.89083742476865E-02 
867	 4.89153030261404E-02 
868	 4.89006269021248E-02 
869	 4.88696174408531E-02 
870	 0.048870255031227 
871	 4.88670536293414E-02 
872	 4.88771879093039E-02 
873	 4.89130301197874E-02 
874	 4.89538968975203E-02 
875	 4.89869423169489E-02 
876	 4.90015088326145E-02 
877	 4.89956386829871E-02 
878	 4.89850338530352E-02 
879	 4.89946384697312E-02 
880	 4.90064299307274E-02 
881	 4.89924409173138E-02 
882	 4.89992502968874E-02 
883	 4.89838438257086E-02 
884	 4.89623784975513E-02 
885	 4.89898837778405E-02 
886	 4.90220802366569E-02 
887	 4.90297932262114E-02 
888	 4.90229089408975E-02 
889	 4.90476155914779E-02 
890	 4.90221484225027E-02 
891	 4.90233305760061E-02 
892	 4.90661796513229E-02 
893	 4.90162111750804E-02 
894	 4.90453239721136E-02 
895	 4.90849310160245E-02 
896	 4.90674458659032E-02 
897	 4.90931824140067E-02 
898	 4.90974744614257E-02 
899	 4.90669208125339E-02 
900	 4.90281751312589E-02 
901	 0.049089429849834 
902	 4.90953970313862E-02 
903	 0.049085980955493 
904	 4.91495797153545E-02 
905	 4.90447929394589E-02 
906	 4.90579969259397E-02 
907	 4.91589362876612E-02 
908	 4.91084936606806E-02 
909	 4.90961063903568E-02 
910	 4.90847129469285E-02 
911	 4.90645201694776E-02 
912	 4.90719653453644E-02 
913	 0.049112385813601 
914	 4.91216043078621E-02 
915	 4.90932935782168E-02 
916	 4.91082338079495E-02 
917	 4.90683105758222E-02 
918	 4.90885012169256E-02 
919	 0.049195395883674 
920	 4.91828926962856E-02 
921	 4.91243672761652E-02 
922	 4.90815842348611E-02 
923	 4.90855452025997E-02 
924	 4.90901419558672E-02 
925	 0.04913600553363 
926	 0.049163626954255 
927	 4.91331035334062E-02 
928	 4.91803510817803E-02 
929	 4.91972798722717E-02 
930	 4.91852171981712E-02 
931	 4.91798273901164E-02 
932	 4.91407827231002E-02 
933	 4.91351205088585E-02 
934	 0.049188130455564 
935	 4.92664748152318E-02 
936	 4.91815445942776E-02 
937	 4.91753945557133E-02 
938	 4.92321054287959E-02 
939	 4.91808288805424E-02 
940	 4.92260276208778E-02 
941	 4.92378081127033E-02 
942	 4.92115697375543E-02 
943	 4.92582318552618E-02 
944	 4.93071861457713E-02 
945	 4.92764452588578E-02 
946	 4.92184283125523E-02 
947	 4.92953422011595E-02 
948	 4.92831180164115E-02 
949	 4.92312721323534E-02 
950	 4.92166790651711E-02 
951	 4.92838245772501E-02 
952	 4.93055803896406E-02 
953	 4.92926261068481E-02 
954	 4.92668313631351E-02 
955	 4.92285797915944E-02 
956	 4.92471572884942E-02 
957	 4.92534829059798E-02 
958	 4.92339982827946E-02 
959	 4.93142809767726E-02 
960	 4.93402952527961E-02 
961	 4.93245633988082E-02 
962	 4.93111832684507E-02 
963	 4.93225595022347E-02 
964	 4.92340011472413E-02 
965	 4.92100103009888E-02 
966	 4.93233646642163E-02 
967	 4.92745267785455E-02 
968	 4.92996747935073E-02 
969	 4.93015946556869E-02 
970	 4.92109946892996E-02 
971	 4.92639566657403E-02 
972	 4.92975782769237E-02 
973	 4.93004932570046E-02 
974	 4.92945581090081E-02 
975	 4.92590802986624E-02 
976	 4.92310033743988E-02 
977	 4.92647306691518E-02 
978	 4.93385437383148E-02 
979	 4.91851751784056E-02 
980	 4.92096300634584E-02 
981	 4.92635859564228E-02 
982	 4.91520636041132E-02 
983	 0.049165964245153 
984	 4.92341345010452E-02 
985	 4.93259773810385E-02 
986	 4.94013010128948E-02 
987	 4.93684927571853E-02 
988	 4.92586463880102E-02 
989	 4.92433077666823E-02 
990	 4.93775238227475E-02 
991	 4.91624890091415E-02 
992	 0.049122886445896 
993	 4.92226079170606E-02 
994	 4.92722463864547E-02 
995	 4.93362829380233E-02 
996	 4.94065316990041E-02 
997	 4.94014673985653E-02 
998	 0.049311408020984 
999	 4.94459021109132E-02 
1000	 0.04944740137009 
1001	 4.99511941466172E-02 
1002	 4.99268391878028E-02 
1003	 4.98940298008723E-02 
1004	 4.98838043412276E-02 
1005	 4.98739592664717E-02 
1006	 4.98872172117556E-02 
1007	 4.99254033588577E-02 
1008	 4.99442825741638E-02 
1009	 4.99900333664393E-02 
1010	 4.99929816794901E-02 
1011	 4.99494376384002E-02 
1012	 4.99412688580897E-02 
1013	 4.99208638777379E-02 
1014	 4.99141553770562E-02 
1015	 4.99360599502866E-02 
1016	 4.99596852727454E-02 
1017	 4.99499253796639E-02 
1018	 0.049942462675375 
1019	 4.99439913373621E-02 
1020	 4.99666717664649E-02 
1021	 4.99790515259762E-02 
1022	 5.00159896019761E-02 
1023	 5.00099113340583E-02 
1024	 4.99719703306301E-02 
1025	 4.99593439088981E-02 
1026	 4.99408616219811E-02 
1027	 4.99296762420057E-02 
1028	 4.99378166748032E-02 
1029	 4.99206443783892E-02 
1030	 0.049910042120484 
1031	 4.99059848306913E-02 
1032	 0.049888313328671 
1033	 0.04986942288657 
1034	 4.98665933859912E-02 
1035	 4.98716702754104E-02 
1036	 4.98633890034218E-02 
1037	 4.98637696761394E-02 
1038	 4.98621203855261E-02 
1039	 4.98360781889668E-02 
1040	 0.049832746063541 
1041	 0.049847152280541 
1042	 4.98540088166371E-02 
1043	 4.98646257042869E-02 
1044	 4.98793078695225E-02 
1045	 4.98676842057255E-02 
1046	 4.98904783095227E-02 
1047	 4.99046065119788E-02 
1048	 4.98754511693124E-02 
1049	 4.98505530751364E-02 
1050	 4.98519250621176E-02 
1051	 4.98570597366542E-02 
1052	 4.98498696359479E-02 
1053	 4.98512288591146E-02 
1054	 4.98672278222802E-02 
1055	 0.049872624156185 
1056	 0.049865569973294 
1057	 4.98781662081088E-02 
1058	 4.99091539872617E-02 
1059	 4.99213088625457E-02 
1060	 4.99193065436901E-02 
1061	 4.99277314398821E-02 
1062	 4.99538286002264E-02 
1063	 4.99755624619198E-02 
1064	 5.00038558511591E-02 
1065	 5.00290212920598E-02 
1066	 5.00056070569488E-02 
1067	 0.049992319893942 
1068	 5.00085608293022E-02 
1069	 5.00006415259568E-02 
1070	 5.00080601913434E-02 
1071	 0.050036546700004 
1072	 5.00630239004605E-02 
1073	 5.00618136580117E-02 
1074	 5.00958343092259E-02 
1075	 5.01297698459101E-02 
1076	 5.01317217159357E-02 
1077	 5.01470406610647E-02 
1078	 5.01617611116354E-02 
1079	 5.01724027497477E-02 
1080	 5.01983392067671E-02 
1081	 5.02164514089234E-02 
1082	 0.0502159552493 
1083	 5.02150751437758E-02 
1084	 5.02253190574462E-02 
1085	 5.02375371012114E-02 
1086	 0.050245048265127 
1087	 5.02571040777659E-02 
1088	 5.02677830831932E-02 
1089	 5.02743382153284E-02 
1090	 5.02804489667385E-02 
1091	 5.02766474488883E-02 
1092	 5.02862842303006E-02 
1093	 5.03025182880427E-02 
1094	 5.02954432321092E-02 
1095	 5.02881841425806E-02 
1096	 5.02826366409353E-02 
1097	 5.02633492269434E-02 
1098	 5.02591538063299E-02 
1099	 5.02814808011161E-02 
1100	 5.02980865801393E-02 
1101	 5.03085031539995E-02 
1102	 5.03203381886934E-02 
1103	 5.03217784682623E-02 
1104	 5.03123819600622E-02 
1105	 5.02973591980788E-02 
1106	 5.02942490003796E-02 
1107	 5.02925135402253E-02 
1108	 5.02824647326111E-02 
1109	 5.02964080475194E-02 
1110	 5.03175496580838E-02 
1111	 5.03129677788776E-02 
1112	 5.03095083024509E-02 
1113	 5.03010387475021E-02 
1114	 5.02723252999033E-02 
1115	 5.02664417470154E-02 
1116	 5.02737609820558E-02 
1117	 5.02566477071669E-02 
1118	 5.02534727869639E-02 
1119	 5.02668542234371E-02 
1120	 5.02624756059786E-02 
1121	 5.02481836304434E-02 
1122	 5.02444581121444E-02 
1123	 0.050230890229388 
1124	 5.02048892737534E-02 
1125	 0.050192065335678 
1126	 5.01997354663548E-02 
1127	 5.02124024698203E-02 
1128	 5.02067535100742E-02 
1129	 5.01974278517955E-02 
1130	 5.01817141855455E-02 
1131	 5.01688002632635E-02 
1132	 5.01691482994991E-02 
1133	 5.01522776577289E-02 
1134	 5.01329839986505E-02 
1135	 5.01220883820193E-02 
1136	 5.01128872160264E-02 
1137	 5.00942758418691E-02 
1138	 0.050070136266701 
1139	 5.00615043503883E-02 
1140	 5.00557076991055E-02 
1141	 5.00470070842735E-02 
1142	 0.050035710406599 
1143	 0.050032552181683 
1144	 5.00106276230272E-02 
1145	 4.99830397651091E-02 
1146	 4.99846038775961E-02 
1147	 4.99840759045176E-02 
1148	 4.99692961052075E-02 
1149	 4.99512251242737E-02 
1150	 4.99244274015774E-02 
1151	 4.99086576744349E-02 
1152	 4.98957491925897E-02 
1153	 4.98947288602812E-02 
1154	 0.049882871629053 
1155	 4.98690997642812E-02 
1156	 4.98496592700275E-02 
1157	 4.98247444724542E-02 
1158	 4.98055641394887E-02 
1159	 4.97812446566588E-02 
1160	 4.97634642944403E-02 
1161	 4.97625636499765E-02 
1162	 4.97596203874772E-02 
1163	 4.97609598227512E-02 
1164	 4.97541514275727E-02 
1165	 4.97400024332088E-02 
1166	 4.97221876229679E-02 
1167	 4.97058620599416E-02 
1168	 4.96967560379375E-02 
1169	 0.049687640013687 
1170	 4.96833676611197E-02 
1171	 4.96764697870733E-02 
1172	 4.96714600190541E-02 
1173	 4.96634337514608E-02 
1174	 4.96524322656156E-02 
1175	 4.96406861024813E-02 
1176	 4.96236002349422E-02 
1177	 4.96134427536259E-02 
1178	 4.96056199348191E-02 
1179	 4.96033233566919E-02 
1180	 4.96011618018405E-02 
1181	 4.95913819818724E-02 
1182	 4.95731906372288E-02 
1183	 4.95603289535834E-02 
1184	 4.95627680266446E-02 
1185	 4.95769615029439E-02 
1186	 4.95898853401491E-02 
1187	 4.96227190225149E-02 
1188	 4.96320908800514E-02 
1189	 0.049629259843333 
1190	 4.96275325714657E-02 
1191	 0.049618338120028 
1192	 4.96135341366372E-02 
1193	 4.96067367118782E-02 
1194	 4.96036687750603E-02 
1195	 4.96007109419071E-02 
1196	 4.96015566914728E-02 
1197	 4.96044299191123E-02 
1198	 4.96132380462599E-02 
1199	 4.96238995793792E-02 
1200	 4.96261496268422E-02 
1201	 4.96348586440562E-02 
1202	 0.049650546825922 
1203	 0.049655197051755 
1204	 4.96614445110298E-02 
1205	 4.96663724346004E-02 
1206	 4.96656609519981E-02 
1207	 4.96641556643018E-02 
1208	 4.96624571319416E-02 
1209	 4.96633139007994E-02 
1210	 4.96563270101862E-02 
1211	 4.96633993928592E-02 
1212	 4.96840214908925E-02 
1213	 4.96982537214126E-02 
1214	 4.97167631676527E-02 
1215	 4.97317333157675E-02 
1216	 4.97425064743636E-02 
1217	 4.97546263481755E-02 
1218	 4.97684451451114E-02 
1219	 4.97805455436337E-02 
1220	 0.049794078326383 
1221	 4.97996620137961E-02 
1222	 4.98010479744246E-02 
1223	 4.98147724204638E-02 
1224	 4.98228892468151E-02 
1225	 4.98305620232168E-02 
1226	 4.98365613119623E-02 
1227	 4.98404454449593E-02 
1228	 4.98482659698135E-02 
1229	 4.98548361942574E-02 
1230	 4.98649341852798E-02 
1231	 4.98782449070568E-02 
1232	 4.98918223889204E-02 
1233	 4.99074312922573E-02 
1234	 4.99246577709852E-02 
1235	 4.99484276163814E-02 
1236	 0.049965719387447 
1237	 4.99779194341059E-02 
1238	 4.99922627080873E-02 
1239	 5.00084813193201E-02 
1240	 5.00193681156824E-02 
1241	 5.00275418348317E-02 
1242	 5.00265747383849E-02 
1243	 5.00301271682457E-02 
1244	 5.00271882194586E-02 
1245	 5.00285174513238E-02 
1246	 5.00331199593492E-02 
1247	 0.050041381200322 
1248	 5.00505407577776E-02 
1249	 5.00546935340677E-02 
1250	 0.050065143747559 
1251	 5.00663311829034E-02 
1252	 5.00549929037776E-02 
1253	 5.00517514918066E-02 
1254	 0.050051745991161 
1255	 5.00491349159615E-02 
1256	 5.00397023369144E-02 
1257	 5.00408995725127E-02 
1258	 5.00503073076199E-02 
1259	 5.00550503706166E-02 
1260	 0.05007569517292 
1261	 5.00787309649361E-02 
1262	 5.00677572138939E-02 
1263	 5.00466208021528E-02 
1264	 5.00430118846822E-02 
1265	 5.00384339976354E-02 
1266	 5.00349055058785E-02 
1267	 5.00429385314848E-02 
1268	 5.00451742511449E-02 
1269	 5.00395536176945E-02 
1270	 5.00397382437444E-02 
1271	 5.00472640078233E-02 
1272	 5.00508401608008E-02 
1273	 5.00482537675716E-02 
1274	 5.00528159333776E-02 
1275	 5.00589022128147E-02 
1276	 5.00713156585986E-02 
1277	 5.00930341238553E-02 
1278	 5.01087303288033E-02 
1279	 5.01315064589934E-02 
1280	 5.01450527759727E-02 
1281	 5.01437151414085E-02 
1282	 5.01530553225021E-02 
1283	 5.01621275112444E-02 
1284	 5.01747929072945E-02 
1285	 5.01917056544042E-02 
1286	 5.02148103490743E-02 
1287	 5.02415719559623E-02 
1288	 5.02744828530985E-02 
1289	 5.02990236976841E-02 
1290	 5.03301357988206E-02 
1291	 5.03477013362877E-02 
1292	 5.03474264944413E-02 
1293	 5.03647282157976E-02 
1294	 5.03903165005598E-02 
1295	 5.04040738999916E-02 
1296	 5.04139644476656E-02 
1297	 5.04332936817878E-02 
1298	 5.04481879612134E-02 
1299	 5.04664750631052E-02 
1300	 5.05052705590026E-02 
1301	 5.05248417140938E-02 
1302	 5.05269936829772E-02 
1303	 5.05369258401338E-02 
1304	 5.05467624148506E-02 
1305	 5.05529820643416E-02 
1306	 5.05578035850575E-02 
1307	 5.05646544496653E-02 
1308	 5.05679553284186E-02 
1309	 5.05742798684228E-02 
1310	 0.050575321130279 
1311	 5.05753517943538E-02 
1312	 5.05818294508695E-02 
1313	 5.05863161542436E-02 
1314	 5.05927645698313E-02 
1315	 5.06139533601995E-02 
1316	 0.050612870933551 
1317	 5.05939163098671E-02 
1318	 5.05903407388113E-02 
1319	 5.05850410119089E-02 
1320	 5.05803240943962E-02 
1321	 5.05859209080355E-02 
1322	 5.05828469523939E-02 
1323	 0.050571216025861 
1324	 5.05633738826803E-02 
1325	 5.05545396100608E-02 
1326	 5.05488030851811E-02 
1327	 5.05416006315935E-02 
1328	 5.05391636340714E-02 
1329	 5.05506743699448E-02 
1330	 5.05475905931337E-02 
1331	 5.05388770237676E-02 
1332	 5.05292500022664E-02 
1333	 5.05134308408632E-02 
1334	 5.04895557080341E-02 
1335	 0.050473396585358 
1336	 5.04630333892036E-02 
1337	 5.04422722696064E-02 
1338	 5.04138636497381E-02 
1339	 5.03982102101471E-02 
1340	 5.03854950111309E-02 
1341	 5.03678681700872E-02 
1342	 5.03607604744081E-02 
1343	 5.03377625118318E-02 
1344	 5.02943838746754E-02 
1345	 5.02711178517366E-02 
1346	 5.02570113928155E-02 
1347	 5.02334199503742E-02 
1348	 5.02109696186706E-02 
1349	 5.01907128600671E-02 
1350	 5.01566076737495E-02 
1351	 5.01407588402532E-02 
1352	 5.01530683446543E-02 
1353	 0.050140423511405 
1354	 5.01180094974645E-02 
1355	 5.01005440569232E-02 
1356	 5.00717951035601E-02 
1357	 5.00461150794876E-02 
1358	 0.050028574070964 
1359	 5.00089321125201E-02 
1360	 4.99827153801345E-02 
1361	 4.99587828125191E-02 
1362	 4.99472432551727E-02 
1363	 4.99316939260735E-02 
1364	 4.99166683384665E-02 
1365	 4.99036313471233E-02 
1366	 4.98906375655213E-02 
1367	 4.98798075852144E-02 
1368	 4.98593072504904E-02 
1369	 4.98306409451104E-02 
1370	 4.98160986087778E-02 
1371	 4.98031340994851E-02 
1372	 4.97859278183296E-02 
1373	 4.97792041584137E-02 
1374	 4.97649329947995E-02 
1375	 4.97381717955011E-02 
1376	 4.97174476203848E-02 
1377	 4.97035498509355E-02 
1378	 4.96836925076458E-02 
1379	 4.96566418256193E-02 
1380	 4.96344106001308E-02 
1381	 4.96090340261136E-02 
1382	 4.95936196301919E-02 
1383	 4.95891626841277E-02 
1384	 4.95776355788703E-02 
1385	 4.95693247971228E-02 
1386	 4.95582959803157E-02 
1387	 4.95387704565667E-02 
1388	 4.95240877733786E-02 
1389	 4.95143576183183E-02 
1390	 4.95037568867492E-02 
1391	 4.94938323130204E-02 
1392	 4.94837527280879E-02 
1393	 4.94728057594628E-02 
1394	 4.94568547300609E-02 
1395	 4.94418060053383E-02 
1396	 4.94228421168548E-02 
1397	 4.94094554867378E-02 
1398	 0.04940436361017 
1399	 4.93809474277561E-02 
1400	 4.93516035935076E-02 
1401	 4.93216779282639E-02 
1402	 4.92766641316091E-02 
1403	 4.92437016811324E-02 
1404	 4.92183328839495E-02 
1405	 4.91896819856272E-02 
1406	 4.91651730023003E-02 
1407	 4.91304624515827E-02 
1408	 4.90895981415336E-02 
1409	 0.049052480136835 
1410	 4.90102052595387E-02 
1411	 4.89697423749994E-02 
1412	 4.89345283900643E-02 
1413	 4.88951145170318E-02 
1414	 4.88565117258545E-02 
1415	 4.88087591029056E-02 
1416	 4.87468128860474E-02 
1417	 4.87005197150446E-02 
1418	 4.86529949790939E-02 
1419	 4.86097988548462E-02 
1420	 0.04858884095813 
1421	 4.85531889900857E-02 
1422	 4.85035116861283E-02 
1423	 4.84621203534836E-02 
1424	 4.84279114983852E-02 
1425	 4.83792772047135E-02 
1426	 4.83309645866998E-02 
1427	 4.82914386999145E-02 
1428	 4.82440349461261E-02 
1429	 4.81916812246926E-02 
1430	 4.81445323174069E-02 
1431	 4.81048847515417E-02 
1432	 4.80530379738686E-02 
1433	 4.79979818824956E-02 
1434	 4.79362672529205E-02 
1435	 4.78657098775572E-02 
1436	 4.77971969352856E-02 
1437	 0.047722955327791 
1438	 4.76553815189844E-02 
1439	 4.75876345537778E-02 
1440	 4.75243480749167E-02 
1441	 4.74642488147877E-02 
1442	 4.74077809510716E-02 
1443	 4.73501529431378E-02 
1444	 4.73048550661218E-02 
1445	 4.72572839907046E-02 
1446	 4.72359029395381E-02 
1447	 4.72278572267801E-02 
1448	 4.72387669625823E-02 
1449	 4.72781318793885E-02 
1450	 4.73165516101565E-02 
1451	 0.047376135098278 
1452	 0.047424257506373 
1453	 0.047470436800732 
1454	 0.047519475617979 
1455	 4.75671752324533E-02 
1456	 4.76147095101269E-02 
1457	 4.76695351071291E-02 
1458	 4.77173273066553E-02 
1459	 4.77606934353412E-02 
1460	 4.78011453674132E-02 
1461	 4.78417065438654E-02 
1462	 4.78727076634353E-02 
1463	 4.78922683412123E-02 
1464	 4.79152757805108E-02 
1465	 4.79311286904709E-02 
1466	 4.79507489180975E-02 
1467	 4.79733557698108E-02 
1468	 4.79993430255098E-02 
1469	 4.80198002952135E-02 
1470	 4.80332227899653E-02 
1471	 0.04805253966603 
1472	 4.80705764155145E-02 
1473	 0.048090217428221 
1474	 4.81170666279111E-02 
1475	 4.81303873596646E-02 
1476	 4.81380913792382E-02 
1477	 4.81427824946845E-02 
1478	 4.81385074266972E-02 
1479	 0.048139875002679 
1480	 4.81407840988106E-02 
1481	 4.81424252026697E-02 
1482	 4.81460011904362E-02 
1483	 4.81457057058118E-02 
1484	 4.81447090543483E-02 
1485	 4.81411559612561E-02 
1486	 4.81347257659243E-02 
1487	 4.81286442348229E-02 
1488	 0.048114626092083 
1489	 4.81156183602753E-02 
1490	 0.048122026696678 
1491	 4.81309754339223E-02 
1492	 4.81477176605295E-02 
1493	 4.81693458824466E-02 
1494	 4.81960415003899E-02 
1495	 4.82221776249881E-02 
1496	 4.82536408083634E-02 
1497	 4.82868566235551E-02 
1498	 4.83205746570622E-02 
1499	 4.83541344238499E-02 
1500	 4.83924466246248E-02 
1501	 4.84299283050269E-02 
1502	 4.84709545637595E-02 
1503	 4.85016356358586E-02 
1504	 4.85318410826055E-02 
1505	 0.048554430434994 
1506	 4.85533431074328E-02 
1507	 4.85714775053566E-02 
1508	 4.86010285337717E-02 
1509	 4.86248323834499E-02 
1510	 4.86620031355587E-02 
1511	 4.86859824792598E-02 
1512	 4.86954824830881E-02 
1513	 0.048707182393132 
1514	 4.87163495054549E-02 
1515	 4.87235068312305E-02 
1516	 0.048726667247561 
1517	 4.87326575339588E-02 
1518	 4.87369312877095E-02 
1519	 4.87424181582303E-02 
1520	 4.87508410636671E-02 
1521	 4.87587143707484E-02 
1522	 0.048768578615447 
1523	 0.0487791532287 
1524	 4.87898549023351E-02 
1525	 4.88072705480415E-02 
1526	 4.88054277955303E-02 
1527	 4.87921913911847E-02 
1528	 0.048791532745968 
1529	 4.87840386443543E-02 
1530	 4.87838938911433E-02 
1531	 4.87947325207999E-02 
1532	 4.88019867781802E-02 
1533	 4.88045296866076E-02 
1534	 4.88131459773956E-02 
1535	 4.88297159870189E-02 
1536	 0.048842236175251 
1537	 4.88535646040067E-02 
1538	 4.88642043433783E-02 
1539	 4.88771080667135E-02 
1540	 4.88850823074235E-02 
1541	 4.88863037353265E-02 
1542	 4.88964522179026E-02 
1543	 4.89055273859947E-02 
1544	 4.89233024226037E-02 
1545	 0.048949510450699 
1546	 4.89748845720633E-02 
1547	 0.049008536014397 
1548	 4.90317983991124E-02 
1549	 4.90484391943633E-02 
1550	 0.049073763389606 
1551	 4.90985238124824E-02 
1552	 0.049123532595039 
1553	 4.91556886216323E-02 
1554	 4.91839267824638E-02 
1555	 4.92071938349182E-02 
1556	 4.92326215505894E-02 
1557	 0.049261407300153 
1558	 4.92875581482576E-02 
1559	 4.93105489380758E-02 
1560	 4.93351092667157E-02 
1561	 4.93616559607826E-02 
1562	 4.93853315712513E-02 
1563	 4.94080840648568E-02 
1564	 0.049429155875785 
1565	 4.94488080064256E-02 
1566	 4.94666568315071E-02 
1567	 4.94789488868116E-02 
1568	 4.94982288192157E-02 
1569	 4.95221848294597E-02 
1570	 4.95407750211371E-02 
1571	 4.95594990642522E-02 
1572	 4.95800235434321E-02 
1573	 4.95949016984788E-02 
1574	 4.96157116925599E-02 
1575	 4.96489380585812E-02 
1576	 4.96691324788776E-02 
1577	 4.96848640254086E-02 
1578	 4.96979144969482E-02 
1579	 4.96950179473984E-02 
1580	 4.97091611715495E-02 
1581	 4.97347708138175E-02 
1582	 4.97526179341667E-02 
1583	 4.97773062586887E-02 
1584	 4.97960422266906E-02 
1585	 4.98080556037419E-02 
1586	 4.98171765043058E-02 
1587	 4.98204908408252E-02 
1588	 4.98312829820204E-02 
1589	 4.98392836152098E-02 
1590	 4.98511376561045E-02 
1591	 4.98737876400438E-02 
1592	 4.98907878715925E-02 
1593	 4.99027826205554E-02 
1594	 4.99189705297677E-02 
1595	 4.99387436139971E-02 
1596	 4.99544993271207E-02 
1597	 4.99656921688945E-02 
1598	 4.99846322684489E-02 
1599	 0.050015260421433 
1600	 5.00287812026545E-02 
1601	 0.050030705839794 
1602	 5.00445073631828E-02 
1603	 5.00430398928202E-02 
1604	 5.00608092936741E-02 
1605	 5.01195391042371E-02 
1606	 5.01432995626596E-02 
1607	 5.01465807393502E-02 
1608	 5.01616161216614E-02 
1609	 5.01628131203367E-02 
1610	 5.01708185921206E-02 
1611	 5.01946097567048E-02 
1612	 5.02118195558073E-02 
1613	 5.02224906800229E-02 
1614	 0.050234359527709 
1615	 0.050250297124822 
1616	 5.02620689755993E-02 
1617	 5.02704268110477E-02 
1618	 5.02763505478978E-02 
1619	 5.02746742831181E-02 
1620	 5.02814177257531E-02 
1621	 5.02889958847058E-02 
1622	 5.02998606730007E-02 
1623	 5.03204307796353E-02 
1624	 5.03378990851294E-02 
1625	 0.05035903526702 
1626	 5.03716400399482E-02 
1627	 5.03816430543354E-02 
1628	 5.03860880708656E-02 
1629	 5.03670763853102E-02 
1630	 5.03743984334618E-02 
1631	 5.04003219944606E-02 
1632	 5.04152769913967E-02 
1633	 0.050445962675841 
1634	 5.04638621244401E-02 
1635	 0.050463386180531 
1636	 5.04687621972442E-02 
1637	 5.04717938299225E-02 
1638	 5.04782248322612E-02 
1639	 5.04834244988882E-02 
1640	 5.04942035032608E-02 
1641	 5.05182318369144E-02 
1642	 5.05318637503614E-02 
1643	 5.05358822379307E-02 
1644	 5.05491231523508E-02 
1645	 5.05655778665201E-02 
1646	 5.05747202090229E-02 
1647	 5.05865827052567E-02 
1648	 5.06000540315147E-02 
1649	 5.06077595604212E-02 
1650	 5.06143962205132E-02 
1651	 5.06321370783581E-02 
1652	 5.06353877917502E-02 
1653	 5.06175819399337E-02 
1654	 0.050616481218229 
1655	 5.06151752968743E-02 
1656	 5.06193284797627E-02 
1657	 5.06487685544487E-02 
1658	 5.06480283167787E-02 
1659	 5.06210859936061E-02 
1660	 5.06183073949081E-02 
1661	 5.06123534288223E-02 
1662	 5.06087969391438E-02 
1663	 0.050626964401842 
1664	 5.06323533957103E-02 
1665	 5.06266528409977E-02 
1666	 5.06237881241254E-02 
1667	 5.06262051751501E-02 
1668	 5.06187720463651E-02 
1669	 5.05983824380433E-02 
1670	 5.05840169950886E-02 
1671	 5.05630776495066E-02 
1672	 5.05569874395419E-02 
1673	 5.05690498505057E-02 
1674	 5.05637203451351E-02 
1675	 5.05600852073526E-02 
1676	 5.05472320399003E-02 
1677	 5.05167129227764E-02 
1678	 5.04966495834758E-02 
1679	 5.04773925040615E-02 
1680	 5.04586419155604E-02 
1681	 5.04429407356978E-02 
1682	 5.04253082385896E-02 
1683	 5.04109721008539E-02 
1684	 5.03926089896703E-02 
1685	 5.03692484962818E-02 
1686	 5.03455642406147E-02 
1687	 5.03115581188966E-02 
1688	 0.050294326552253 
1689	 5.02959032505838E-02 
1690	 5.02766542595493E-02 
1691	 5.02511686952419E-02 
1692	 5.02366123648827E-02 
1693	 5.02180858287192E-02 
1694	 5.01926767544239E-02 
1695	 5.01794584560306E-02 
1696	 5.01512929176792E-02 
1697	 5.00977628145679E-02 
1698	 5.00662186073699E-02 
1699	 5.00496375012141E-02 
1700	 5.00131385766187E-02 
1701	 4.99642255542829E-02 
1702	 4.99353259669219E-02 
1703	 4.99072384152295E-02 
1704	 4.98842173459576E-02 
1705	 4.98798324323408E-02 
1706	 0.049846744613369 
1707	 4.98236828528703E-02 
1708	 4.97842534540192E-02 
1709	 4.97496327942996E-02 
1710	 0.049703473331932 
1711	 4.96406256326062E-02 
1712	 0.049606574338748 
1713	 0.049584743743522 
1714	 4.95707747829963E-02 
1715	 4.95426455228825E-02 
1716	 4.94838198561689E-02 
1717	 4.94255510036177E-02 
1718	 4.93700793939647E-02 
1719	 4.93290179409937E-02 
1720	 4.93024887566589E-02 
1721	 4.92810286045313E-02 
1722	 4.92625657113931E-02 
1723	 4.92404925936917E-02 
1724	 4.92267544948856E-02 
1725	 4.91984933200529E-02 
1726	 4.91463720615284E-02 
1727	 4.91029997600208E-02 
1728	 0.049074812563082 
1729	 4.90461474432027E-02 
1730	 4.90318853119482E-02 
1731	 4.90298023112446E-02 
1732	 4.90006965917492E-02 
1733	 4.89782871307631E-02 
1734	 4.89813185439318E-02 
1735	 4.89755747292061E-02 
1736	 0.048967436766962 
1737	 4.89558895835856E-02 
1738	 4.89341514921174E-02 
1739	 4.89180967440603E-02 
1740	 4.89116329758915E-02 
1741	 4.88968280316976E-02 
1742	 4.88713208605776E-02 
1743	 4.88528294490716E-02 
1744	 4.88376814261184E-02 
1745	 4.88248426998722E-02 
1746	 4.88122508224101E-02 
1747	 4.88095118227453E-02 
1748	 4.88099420892112E-02 
1749	 4.88084796144019E-02 
1750	 4.88221653916399E-02 
1751	 4.88203929937546E-02 
1752	 4.87996052871684E-02 
1753	 4.88017886512309E-02 
1754	 4.88080302964685E-02 
1755	 4.88188545552167E-02 
1756	 4.88472303626717E-02 
1757	 4.88644449714818E-02 
1758	 4.88918103364002E-02 
1759	 4.89112440385768E-02 
1760	 4.89264086781502E-02 
1761	 4.89400357571394E-02 
1762	 4.89451384020583E-02 
1763	 4.89905947622308E-02 
1764	 4.90346958483011E-02 
1765	 4.90726891682275E-02 
1766	 4.91195453218972E-02 
1767	 4.91188743536662E-02 
1768	 4.91213249899621E-02 
1769	 4.91505938561889E-02 
1770	 4.91579687597906E-02 
1771	 4.91734168898342E-02 
1772	 4.92082504579416E-02 
1773	 4.92242423349391E-02 
1774	 4.92444267400398E-02 
1775	 4.92898170058836E-02 
1776	 4.93160847432993E-02 
1777	 4.93279741383102E-02 
1778	 0.049353691259047 
1779	 4.93503974566233E-02 
1780	 4.93387925215799E-02 
1781	 4.93527316239233E-02 
1782	 4.93665486638187E-02 
1783	 4.94059654969304E-02 
1784	 4.94361473094512E-02 
1785	 4.94299497823828E-02 
1786	 4.94561245472695E-02 
1787	 0.049484338965065 
1788	 4.95147363109428E-02 
1789	 4.95828604502092E-02 
1790	 4.96163546767915E-02 
1791	 0.049612757925034 
1792	 4.96277550607978E-02 
1793	 4.96467667988409E-02 
1794	 4.96491803686273E-02 
1795	 4.96627610346062E-02 
1796	 4.96880783683608E-02 
1797	 4.97103332684618E-02 
1798	 4.97452107667426E-02 
1799	 4.97875630706213E-02 
1800	 0.049816169798338 
1801	 5.19428666139884E-02 
1802	 5.19900897729045E-02 
1803	 5.20263567061189E-02 
1804	 5.20514915560944E-02 
1805	 5.20852644915576E-02 
1806	 5.21114199765611E-02 
1807	 5.21347494947889E-02 
1808	 5.21563565899247E-02 
1809	 5.21784519895735E-02 
1810	 5.21927843740141E-02 
1811	 5.21966878700973E-02 
1812	 0.052208948795235 
1813	 5.22274131620257E-02 
1814	 5.22277573910802E-02 
1815	 0.052229968988663 
1816	 5.22614980978097E-02 
1817	 5.22868488586633E-02 
1818	 5.23251172294216E-02 
1819	 5.23402983361395E-02 
1820	 5.23518136075007E-02 
1821	 5.23592484995087E-02 
1822	 5.23443299592682E-02 
1823	 5.23399138759923E-02 
1824	 5.23563905319008E-02 
1825	 5.23631298136543E-02 
1826	 5.23728109696192E-02 
1827	 5.23864246927267E-02 
1828	 5.23994756821877E-02 
1829	 5.24156937272311E-02 
1830	 5.24233985929175E-02 
1831	 5.24259181232481E-02 
1832	 5.24309323388665E-02 
1833	 5.24358137625765E-02 
1834	 5.24469887194766E-02 
1835	 5.24779374476422E-02 
1836	 5.25043253028758E-02 
1837	 5.25172413538354E-02 
1838	 5.25246701822827E-02 
1839	 0.052530748843873 
1840	 0.052522896635262 
1841	 5.25210957868281E-02 
1842	 0.052517578532885 
1843	 5.25203462219703E-02 
1844	 5.25332876962562E-02 
1845	 5.25411419898452E-02 
1846	 5.25483793686438E-02 
1847	 5.25469482268224E-02 
1848	 5.25478364669554E-02 
1849	 5.25411930472223E-02 
1850	 5.25389771273991E-02 
1851	 5.25393946805843E-02 
1852	 5.25472422268542E-02 
1853	 5.25366329975977E-02 
1854	 0.052514336644449 
1855	 5.24976407265594E-02 
1856	 5.24752851204773E-02 
1857	 5.24555201056181E-02 
1858	 5.24383466610264E-02 
1859	 5.24220322644277E-02 
1860	 5.24095012247438E-02 
1861	 5.23840170714793E-02 
1862	 5.23558971918695E-02 
1863	 5.23294970053421E-02 
1864	 5.22780027263636E-02 
1865	 5.22369410603071E-02 
1866	 5.21895788381298E-02 
1867	 5.21253942885552E-02 
1868	 5.20732755916577E-02 
1869	 5.20182546315753E-02 
1870	 5.19588185967096E-02 
1871	 0.051906048035451 
1872	 5.18425251482364E-02 
1873	 5.17732955803318E-02 
1874	 5.16896425718878E-02 
1875	 5.16041363364894E-02 
1876	 5.15192534854803E-02 
1877	 5.14506069752489E-02 
1878	 5.13793610152955E-02 
1879	 5.13095508782625E-02 
1880	 0.051252177971627 
1881	 5.11714905975394E-02 
1882	 0.051073637949088 
1883	 5.09722364721741E-02 
1884	 5.08701607433694E-02 
1885	 5.07519485825427E-02 
1886	 5.06429076000404E-02 
1887	 5.05378125650359E-02 
1888	 5.04309835571336E-02 
1889	 5.03176538731435E-02 
1890	 5.01984469391423E-02 
1891	 5.00853124940181E-02 
1892	 4.99589367280434E-02 
1893	 4.98326535631317E-02 
1894	 4.97004433516579E-02 
1895	 4.95849149696986E-02 
1896	 4.94609815677941E-02 
1897	 4.93299923103464E-02 
1898	 4.92146111820512E-02 
1899	 4.90697471339653E-02 
1900	 4.89143321981334E-02 
1901	 4.87864607687884E-02 
1902	 4.86368153486785E-02 
1903	 4.84883171366627E-02 
1904	 4.83487929412037E-02 
1905	 4.82178020809842E-02 
1906	 4.80652519223705E-02 
1907	 4.79274544897627E-02 
1908	 4.78060392347571E-02 
1909	 4.76784038694286E-02 
1910	 4.75503063171154E-02 
1911	 4.74081784313867E-02 
1912	 0.047259613644912 
1913	 4.71136505171164E-02 
1914	 4.69620947927554E-02 
1915	 4.68137246221935E-02 
1916	 4.66782986856135E-02 
1917	 0.046530815020503 
1918	 4.63621497856908E-02 
1919	 0.04619996651506 
1920	 4.60366008274196E-02 
1921	 4.58838704084722E-02 
1922	 4.57316101192558E-02 
1923	 0.045563076594076 
1924	 4.53930200952097E-02 
1925	 4.52144933372497E-02 
1926	 4.50415673744041E-02 
1927	 4.48698602154061E-02 
1928	 4.46980113366564E-02 
1929	 4.45241197313894E-02 
1930	 4.43606973892927E-02 
1931	 4.41925772400733E-02 
1932	 4.40324296286569E-02 
1933	 0.043893845129208 
1934	 4.37646653176733E-02 
1935	 4.36557488362643E-02 
1936	 4.35626615184036E-02 
1937	 0.043480085059119 
1938	 4.34096031894739E-02 
1939	 4.33549890653426E-02 
1940	 4.33084462591575E-02 
1941	 4.32921735866122E-02 
1942	 4.32827129807582E-02 
1943	 4.32766573648618E-02 
1944	 4.32905199411397E-02 
1945	 4.33155358382082E-02 
1946	 4.33532993384757E-02 
1947	 4.34183978667166E-02 
1948	 4.34943715884592E-02 
1949	 4.35690289333322E-02 
1950	 4.36650774730006E-02 
1951	 4.37774584474135E-02 
1952	 4.39054618859744E-02 
1953	 4.40452412185203E-02 
1954	 4.42110386410353E-02 
1955	 4.43949904472789E-02 
1956	 4.45752090132916E-02 
1957	 4.47653456064076E-02 
1958	 4.49493569014284E-02 
1959	 4.51033029656464E-02 
1960	 4.52494370508962E-02 
1961	 0.045383557640474 
1962	 4.54958980673521E-02 
1963	 4.56067626654205E-02 
1964	 4.57226376453362E-02 
1965	 4.58061853115756E-02 
1966	 4.58671608878565E-02 
1967	 4.59220363711302E-02 
1968	 4.59595878059149E-02 
1969	 4.60024537708761E-02 
1970	 4.60616116617176E-02 
1971	 4.61016180893565E-02 
1972	 4.61505319179593E-02 
1973	 0.046208637062507 
1974	 4.62626165685832E-02 
1975	 4.63216275977816E-02 
1976	 4.63808895769763E-02 
1977	 4.64320288359752E-02 
1978	 4.64934653426081E-02 
1979	 4.65565866182025E-02 
1980	 4.66305341142207E-02 
1981	 0.046716626081663 
1982	 4.67985682178009E-02 
1983	 4.68863490512683E-02 
1984	 4.69880479861958E-02 
1985	 4.70783188952778E-02 
1986	 4.71660922635536E-02 
1987	 4.72701683350776E-02 
1988	 4.73734758701121E-02 
1989	 4.74932098440547E-02 
1990	 4.76293906932703E-02 
1991	 4.77762381411115E-02 
1992	 4.79375330878756E-02 
1993	 4.81043407234866E-02 
1994	 4.82660344709149E-02 
1995	 4.84593487185157E-02 
1996	 4.86417702673784E-02 
1997	 4.88152412657567E-02 
1998	 4.89967977758276E-02 
1999	 4.91872513928631E-02 
2000	 4.93584042867563E-02 
2001	 4.95284160958171E-02 
2002	 4.96895185407683E-02 
2003	 4.98368826288598E-02 
2004	 4.99853537173132E-02 
2005	 0.050130961155895 
2006	 5.02721292507302E-02 
2007	 5.04125578337344E-02 
2008	 5.05410446408815E-02 
2009	 5.06665874371215E-02 
2010	 5.07888102330111E-02 
2011	 5.08912241182801E-02 
2012	 5.09823701258281E-02 
2013	 5.10725188811337E-02 
2014	 0.051147281043958 
2015	 5.12281144445076E-02 
2016	 5.13105907651686E-02 
2017	 5.13918532490941E-02 
2018	 5.14862756372726E-02 
2019	 5.15530234850766E-02 
2020	 5.16015094097383E-02 
2021	 5.16488700543999E-02 
2022	 5.16991363059934E-02 
2023	 5.17347483663246E-02 
2024	 0.051792371189098 
2025	 5.18547212924513E-02 
2026	 5.19083814188775E-02 
2027	 5.19604218884892E-02 
2028	 5.20024162487897E-02 
2029	 5.20366383560538E-02 
2030	 5.20727023902221E-02 
2031	 5.20965894089523E-02 
2032	 5.21254749518211E-02 
2033	 5.21587689711511E-02 
2034	 5.21931097618355E-02 
2035	 5.22254695270183E-02 
2036	 5.22624214346778E-02 
2037	 0.052297598316946 
2038	 5.23302856740873E-02 
2039	 5.23579058087526E-02 
2040	 5.23702231982306E-02 
2041	 0.052403868503307 
2042	 5.24498661187101E-02 
2043	 5.24837798314637E-02 
2044	 5.25257544972366E-02 
2045	 5.25615965569697E-02 
2046	 5.25850574312852E-02 
2047	 5.26105719281329E-02 
2048	 5.26380067018887E-02 
2049	 5.26647848394706E-02 
2050	 5.26834376094457E-02 
2051	 5.27090258351366E-02 
2052	 5.27514225448496E-02 
2053	 5.27829839043061E-02 
2054	 5.28092201988401E-02 
2055	 5.28308998064571E-02 
2056	 5.28627932418804E-02 
2057	 5.28948358841555E-02 
2058	 5.29214608365141E-02 
2059	 5.29583936425738E-02 
2060	 5.29807905918781E-02 
2061	 0.052979735484775 
2062	 5.29949821279303E-02 
2063	 5.30105418780951E-02 
2064	 5.30376295990571E-02 
2065	 0.053082697336159 
2066	 5.31169677338125E-02 
2067	 5.31474319262318E-02 
2068	 5.31695148933293E-02 
2069	 5.31986285418863E-02 
2070	 5.32223065592919E-02 
2071	 5.32433159988596E-02 
2072	 5.32705966661326E-02 
2073	 5.32957447481701E-02 
2074	 5.33014960612648E-02 
2075	 5.33288373865252E-02 
2076	 5.33774987587004E-02 
2077	 5.34132344549422E-02 
2078	 5.34575732024821E-02 
2079	 5.34878406034076E-02 
2080	 5.35050931004748E-02 
2081	 5.35237180011063E-02 
2082	 5.35346528512153E-02 
2083	 5.35450208943757E-02 
2084	 5.35596219538849E-02 
2085	 5.35763146047216E-02 
2086	 5.35865008765561E-02 
2087	 5.35904152787258E-02 
2088	 5.36013244030638E-02 
2089	 5.36133751826184E-02 
2090	 5.36221584882418E-02 
2091	 5.36358297820744E-02 
2092	 5.36451809661313E-02 
2093	 5.36428317104579E-02 
2094	 5.36504783926688E-02 
2095	 5.36677381658644E-02 
2096	 5.36766474968031E-02 
2097	 5.36811492084025E-02 
2098	 0.053695591699909 
2099	 5.36903907227658E-02 
2100	 5.36954954089678E-02 
2101	 5.36996087287923E-02 
2102	 5.37039722578146E-02 
2103	 5.37039000074447E-02 
2104	 5.37047042686478E-02 
2105	 0.053704249590751 
2106	 5.37000101580691E-02 
2107	 5.37007221640587E-02 
2108	 5.36956470569682E-02 
2109	 5.37070850065215E-02 
2110	 5.37446490062841E-02 
2111	 0.053750161175892 
2112	 5.37425036744404E-02 
2113	 5.37449148286764E-02 
2114	 0.053719071608218 
2115	 5.37171257482655E-02 
2116	 5.37406186645539E-02 
2117	 5.37788982526483E-02 
2118	 5.37858200176548E-02 
2119	 5.37833113059412E-02 
2120	 0.053783502075498 
2121	 5.37626115593565E-02 
2122	 5.37625132451836E-02 
2123	 5.37815536621598E-02 
2124	 5.37831211619758E-02 
2125	 0.053779219542843 
2126	 5.37795018098651E-02 
2127	 5.37693292250928E-02 
2128	 5.37716429242065E-02 
2129	 5.37978496125112E-02 
2130	 5.37972136354758E-02 
2131	 5.37809792768637E-02 
2132	 5.37734727425035E-02 
2133	 5.37525375557738E-02 
2134	 0.053741469409531 
2135	 5.37259215477471E-02 
2136	 5.37128971108759E-02 
2137	 5.36957378527233E-02 
2138	 5.36641479983489E-02 
2139	 0.053642938903538 
2140	 5.36325054029411E-02 
2141	 5.36118154156092E-02 
2142	 5.35896892851389E-02 
2143	 5.35605952216668E-02 
2144	 5.35253971106603E-02 
2145	 5.34918919181526E-02 
2146	 5.34506364688303E-02 
2147	 5.34124169670352E-02 
2148	 5.33757504526276E-02 
2149	 5.33396961293534E-02 
2150	 5.33043102828991E-02 
2151	 5.32686904026327E-02 
2152	 5.32432210269279E-02 
2153	 5.32013300323953E-02 
2154	 5.31507594255136E-02 
2155	 5.31041637470893E-02 
2156	 5.30597292854889E-02 
2157	 5.30137942343334E-02 
2158	 5.29677596164803E-02 
2159	 5.29262115231683E-02 
2160	 5.28786870403675E-02 
2161	 5.28244126726836E-02 
2162	 5.27716529216042E-02 
2163	 5.27231753702539E-02 
2164	 5.26658378871759E-02 
2165	 5.25971781337173E-02 
2166	 5.25402729200901E-02 
2167	 5.24753360435219E-02 
2168	 0.052427795108605 
2169	 5.24049966546785E-02 
2170	 5.23665459241446E-02 
2171	 5.23332390129778E-02 
2172	 5.22925245431803E-02 
2173	 5.22399114942072E-02 
2174	 5.21822758159646E-02 
2175	 5.21474277658577E-02 
2176	 5.21129030341344E-02 
2177	 5.20757244050191E-02 
2178	 5.20450954559308E-02 
2179	 5.20187677234214E-02 
2180	 5.19871927765767E-02 
2181	 5.19614382550557E-02 
2182	 5.19496489254215E-02 
2183	 5.19309275053774E-02 
2184	 5.19124016273508E-02 
2185	 0.0518855671433 
2186	 5.18545956432649E-02 
2187	 5.18265833691611E-02 
2188	 5.17874757269156E-02 
2189	 5.17566827277411E-02 
2190	 5.17374490256432E-02 
2191	 5.17145494239085E-02 
2192	 5.16841461938614E-02 
2193	 5.16628882468393E-02 
2194	 5.16529794477653E-02 
2195	 5.16341675280592E-02 
2196	 5.16134021839798E-02 
2197	 5.15993096436398E-02 
2198	 5.15713360462153E-02 
2199	 5.15406060235776E-02 
2200	 5.15104102581794E-02 
2201	 5.14769030877809E-02 
2202	 5.14526207430878E-02 
2203	 5.14324410324696E-02 
2204	 5.14073223564103E-02 
2205	 5.13818729826198E-02 
2206	 5.13595423301083E-02 
2207	 5.13318489773402E-02 
2208	 5.13155985954591E-02 
2209	 5.13174320937427E-02 
2210	 5.13037418094917E-02 
2211	 5.12863952754344E-02 
2212	 5.12667822712407E-02 
2213	 0.051232190676009 
2214	 5.12139453598413E-02 
2215	 5.12033799345734E-02 
2216	 5.11929230044075E-02 
2217	 0.05117817605854 
2218	 5.11841428007072E-02 
2219	 5.12058605012148E-02 
2220	 5.12266923298364E-02 
2221	 5.12684339467315E-02 
2222	 5.13028189541554E-02 
2223	 5.13184533385654E-02 
2224	 5.13533342502535E-02 
2225	 5.13769230487307E-02 
2226	 5.14034817764862E-02 
2227	 5.14389457386076E-02 
2228	 5.14794995860526E-02 
2229	 5.15105410212946E-02 
2230	 5.15493753367401E-02 
2231	 5.15801067544544E-02 
2232	 5.15986812783293E-02 
2233	 5.16265288529793E-02 
2234	 5.16612497230276E-02 
2235	 5.16873090403207E-02 
2236	 5.17156888404899E-02 
2237	 5.17294647866446E-02 
2238	 5.17337723051673E-02 
2239	 5.17340279530931E-02 
2240	 5.17223688169967E-02 
2241	 0.051710984943337 
2242	 0.051683958789832 
2243	 0.051677074480863 
2244	 0.051697542869139 
2245	 0.05168460045966 
2246	 5.16748666809234E-02 
2247	 5.16457616799616E-02 
2248	 5.15693776924761E-02 
2249	 5.15112063035217E-02 
2250	 5.14488831480874E-02 
2251	 5.14019275632844E-02 
2252	 5.13628922665114E-02 
2253	 5.13149354753338E-02 
2254	 5.12808761724609E-02 
2255	 5.12313303919665E-02 
2256	 5.11735665270307E-02 
2257	 5.11324526369546E-02 
2258	 5.10966927559227E-02 
2259	 5.10788941396417E-02 
2260	 5.10301691195448E-02 
2261	 5.09748095533605E-02 
2262	 5.09224499633541E-02 
2263	 5.08328732063657E-02 
2264	 5.07940906850048E-02 
2265	 5.08008555094053E-02 
2266	 5.07663173003595E-02 
2267	 5.07286986070356E-02 
2268	 5.06990694369238E-02 
2269	 5.06432674920613E-02 
2270	 5.06225299543132E-02 
2271	 5.06296595944733E-02 
2272	 5.06352184628605E-02 
2273	 5.06586069624759E-02 
2274	 5.06697476732645E-02 
2275	 0.050689931373567 
2276	 5.06946395242205E-02 
2277	 5.06767370614124E-02 
2278	 5.06742336393703E-02 
2279	 5.06810686738896E-02 
2280	 5.06756643310472E-02 
2281	 5.06769814252119E-02 
2282	 5.06627708881122E-02 
2283	 5.06249028419558E-02 
2284	 5.05882441032297E-02 
2285	 5.05702430806459E-02 
2286	 5.05622943694819E-02 
2287	 5.05501084104979E-02 
2288	 5.05339592378409E-02 
2289	 5.04970078646502E-02 
2290	 5.04445761897458E-02 
2291	 5.04220134836729E-02 
2292	 5.03855163487335E-02 
2293	 5.03602547222477E-02 
2294	 5.03445943306003E-02 
2295	 5.02940244591961E-02 
2296	 5.02714892290023E-02 
2297	 5.02623776095878E-02 
2298	 5.02677821366988E-02 
2299	 5.02643890118708E-02 
2300	 5.02816702362143E-02 
2301	 5.02793744447727E-02 
2302	 5.02448319186378E-02 
2303	 5.02522996430921E-02 
2304	 5.02789337859298E-02 
2305	 5.03079853516832E-02 
2306	 5.03584412056328E-02 
2307	 5.04183866622295E-02 
2308	 5.04676129520874E-02 
2309	 0.050547908250846 
2310	 5.06841677651965E-02 
2311	 5.07577843224831E-02 
2312	 0.050820920746188 
2313	 0.05089046026418 
2314	 5.09120483471847E-02 
2315	 5.09701938090797E-02 
2316	 5.10673845135302E-02 
2317	 5.11375300646058E-02 
2318	 5.12026323238508E-02 
2319	 5.12717005548602E-02 
2320	 5.13433629430857E-02 
2321	 5.13936569637599E-02 
2322	 5.14446283960353E-02 
2323	 5.14713596326099E-02 
2324	 5.14415670952559E-02 
2325	 5.14633682286178E-02 
2326	 5.15101179224546E-02 
2327	 5.15352710537952E-02 
2328	 5.15966459309276E-02 
2329	 5.16217171749196E-02 
2330	 5.16021350121115E-02 
2331	 5.15944897527366E-02 
2332	 5.15839985635831E-02 
2333	 5.15498661199101E-02 
2334	 5.15539241145862E-02 
2335	 5.15605703343358E-02 
2336	 5.15308651683159E-02 
2337	 5.15082348247772E-02 
2338	 5.15094187628845E-02 
2339	 5.14820325189408E-02 
2340	 5.14427980720838E-02 
2341	 5.14090964875666E-02 
2342	 5.13397773520972E-02 
2343	 5.12430414452075E-02 
2344	 5.11675486865464E-02 
2345	 5.11641788894218E-02 
2346	 5.11877001989844E-02 
2347	 5.12127572125095E-02 
2348	 5.12445020392572E-02 
2349	 0.05126829882762 
2350	 5.12892449376293E-02 
2351	 5.13010083317095E-02 
2352	 5.13382607613845E-02 
2353	 5.13581184530937E-02 
2354	 5.13567341685572E-02 
2355	 5.13583051722154E-02 
2356	 5.13588099440404E-02 
2357	 0.051382107768572 
2358	 5.13710503352895E-02 
2359	 0.051351148578585 
2360	 5.13559806640505E-02 
2361	 5.13592223428618E-02 
2362	 5.13542294345949E-02 
2363	 5.13185456386117E-02 
2364	 5.12957818447787E-02 
2365	 5.12813673535757E-02 
2366	 5.12649834471415E-02 
2367	 5.13073764089412E-02 
2368	 5.12967865370707E-02 
2369	 5.12152436397238E-02 
2370	 5.11422358799208E-02 
2371	 0.051044732738953 
2372	 5.10027063949145E-02 
2373	 5.09946307852306E-02 
2374	 5.09645071386525E-02 
2375	 5.09873695895908E-02 
2376	 5.09744788162507E-02 
2377	 5.09248344008859E-02 
2378	 5.09148280457784E-02 
2379	 5.08413583071043E-02 
2380	 5.07714793534136E-02 
2381	 5.07059504455821E-02 
2382	 5.06249970471632E-02 
2383	 5.05279933662907E-02 
2384	 5.04757420343089E-02 
2385	 5.04388126281281E-02 
2386	 5.03901457860107E-02 
2387	 5.03632218744077E-02 
2388	 5.03123006064788E-02 
2389	 0.050231365653644 
2390	 5.01730098850308E-02 
2391	 5.01457978770426E-02 
2392	 5.00904500607814E-02 
2393	 0.050003451482888 
2394	 4.99114449140896E-02 
2395	 4.98118338116512E-02 
2396	 4.97199894535816E-02 
2397	 4.96422701051336E-02 
2398	 4.95430594426385E-02 
2399	 4.94235205756714E-02 
2400	 0.04929501519837 
2401	 4.91282498869285E-02 
2402	 4.90532350935214E-02 
2403	 4.89962753621533E-02 
2404	 4.89566901299624E-02 
2405	 4.89139062570017E-02 
2406	 4.87836588688552E-02 
2407	 4.86412851928308E-02 
2408	 0.048654551524943 
2409	 4.86627403221637E-02 
2410	 0.048645478706545 
2411	 4.86638398799473E-02 
2412	 4.85387164663667E-02 
2413	 4.83791540189201E-02 
2414	 4.83059249015744E-02 
2415	 4.82356966217844E-02 
2416	 4.81743771517773E-02 
2417	 4.80691953177148E-02 
2418	 4.79294222184745E-02 
2419	 4.78742007191564E-02 
2420	 4.79074936609737E-02 
2421	 4.79753954522744E-02 
2422	 4.80200560996979E-02 
2423	 4.80011578936628E-02 
2424	 4.79446523846498E-02 
2425	 4.78955895315726E-02 
2426	 4.78865825511902E-02 
2427	 4.78719740758363E-02 
2428	 4.77805178096658E-02 
2429	 4.77028816761335E-02 
2430	 4.76560846866573E-02 
2431	 4.75432619661166E-02 
2432	 4.74737805448879E-02 
2433	 4.74713050770516E-02 
2434	 4.74090119633951E-02 
2435	 4.74042554243718E-02 
2436	 0.047427809842431 
2437	 4.72914574571115E-02 
2438	 4.71759203799358E-02 
2439	 4.71701092561849E-02 
2440	 4.72341201432258E-02 
2441	 4.73720548791067E-02 
2442	 4.74094144346966E-02 
2443	 4.74821654311508E-02 
2444	 4.75036989932076E-02 
2445	 4.72934615180149E-02 
2446	 4.72678452189738E-02 
2447	 4.73355584713276E-02 
2448	 4.72913770629218E-02 
2449	 4.73027666564182E-02 
2450	 4.72207909108409E-02 
2451	 4.70393604357301E-02 
2452	 4.69494706820726E-02 
2453	 4.69298043279673E-02 
2454	 0.046998697674318 
2455	 0.047055870276919 
2456	 4.70417643669205E-02 
2457	 0.047082186528088 
2458	 4.71237770231168E-02 
2459	 0.047106457152933 
2460	 4.70149162023261E-02 
2461	 4.69310653304501E-02 
2462	 4.69573147949463E-02 
2463	 4.70054992492162E-02 
2464	 4.70223348206585E-02 
2465	 4.70949087853891E-02 
2466	 4.71993671724547E-02 
2467	 4.71641851650839E-02 
2468	 4.70220444991699E-02 
2469	 4.68648337946489E-02 
2470	 4.65483153272363E-02 
2471	 4.63070080326292E-02 
2472	 4.63061938016743E-02 
2473	 4.63601246420625E-02 
2474	 0.046431152518165 
2475	 4.63743105143821E-02 
2476	 4.63681344949168E-02 
2477	 4.64149108587138E-02 
2478	 4.63397962381609E-02 
2479	 4.63895410211843E-02 
2480	 4.64143118275374E-02 
2481	 4.64221195168093E-02 
2482	 4.64689178612649E-02 
2483	 4.65893991386013E-02 
2484	 4.65290374180772E-02 
2485	 4.61686368741031E-02 
2486	 4.60845855976687E-02 
2487	 4.60467624971107E-02 
2488	 4.60855835698297E-02 
2489	 4.65591287516467E-02 
2490	 0.046786730655322 
2491	 4.66876890451373E-02 
2492	 4.65910341350665E-02 
2493	 4.63941058340315E-02 
2494	 4.62130281745712E-02 
2495	 4.62691148709341E-02 
2496	 4.64900250144441E-02 
2497	 4.67082528350349E-02 
2498	 4.67448502038625E-02 
2499	 4.65978679988809E-02 
2500	 4.65306284694002E-02 
