Wavelength	spectrum00013.asd
350	 8.29990955434704E-02 
351	 7.76318922522275E-02 
352	 7.31605894861875E-02 
353	 7.25503738608762E-02 
354	 7.21941210606359E-02 
355	 7.15375459404909E-02 
356	 0.070625131819971 
357	 6.94378353955422E-02 
358	 6.69347916029608E-02 
359	 6.43262173398001E-02 
360	 6.27529646795999E-02 
361	 6.28818158683758E-02 
362	 6.28150521993164E-02 
363	 6.23726698484371E-02 
364	 6.14858160476126E-02 
365	 5.99296139977608E-02 
366	 6.04324203280273E-02 
367	 0.061226980629938 
368	 6.05847038405162E-02 
369	 6.05955786166047E-02 
370	 6.12198903351679E-02 
371	 6.16080336821094E-02 
372	 6.08222585990739E-02 
373	 6.14643209708931E-02 
374	 6.22034629044976E-02 
375	 6.23184145062023E-02 
376	 6.25665623605894E-02 
377	 6.32025567183255E-02 
378	 6.36312031515274E-02 
379	 6.34470053878262E-02 
380	 6.36872826312172E-02 
381	 6.42076819414937E-02 
382	 6.44092313803199E-02 
383	 6.37545757281003E-02 
384	 6.48099137954376E-02 
385	 0.06606735023844 
386	 6.63507902428058E-02 
387	 6.56569226706271E-02 
388	 6.61757076407596E-02 
389	 6.73637360921444E-02 
390	 6.80876529573204E-02 
391	 6.81378310528184E-02 
392	 6.88804760936643E-02 
393	 6.98736466693172E-02 
394	 6.97079094736599E-02 
395	 0.070386721779439 
396	 7.11561198737709E-02 
397	 7.17514216801035E-02 
398	 0.073401831025261 
399	 7.39992099448666E-02 
400	 7.40555254290641E-02 
401	 7.45971564406339E-02 
402	 0.075137667339647 
403	 7.67566139277269E-02 
404	 7.88908608509023E-02 
405	 7.98758716566594E-02 
406	 8.07005883910259E-02 
407	 8.14538142307555E-02 
408	 0.082272584875734 
409	 8.37334589302581E-02 
410	 8.45286616965884E-02 
411	 8.54276960262035E-02 
412	 8.73823732991127E-02 
413	 8.86896700536723E-02 
414	 8.95995675299335E-02 
415	 9.06235604436074E-02 
416	 9.23302852727122E-02 
417	 9.37400351149706E-02 
418	 9.52032656987905E-02 
419	 9.69262535302627E-02 
420	 9.82193808008658E-02 
421	 9.94554983425251E-02 
422	 0.10075898207127 
423	 0.102156081949589 
424	 0.103715537095001 
425	 0.105303255237965 
426	 0.106841465496106 
427	 0.108337583039655 
428	 0.109742228843538 
429	 0.1112944509916 
430	 0.113070661387824 
431	 0.114468858538723 
432	 0.116067716849398 
433	 0.117810985729261 
434	 0.119342106707971 
435	 0.121084588007538 
436	 0.122813431947455 
437	 0.124388062880963 
438	 0.12589233592065 
439	 0.127509220147614 
440	 0.129158166464687 
441	 0.130739602977681 
442	 0.132457723397245 
443	 0.134130070377988 
444	 0.135749539450437 
445	 0.137450547060707 
446	 0.139114217458792 
447	 0.140648393258453 
448	 0.142098051720067 
449	 0.143815080529573 
450	 0.145387948762031 
451	 0.146872900449174 
452	 0.148471211377661 
453	 0.15007395313423 
454	 0.15163327314473 
455	 0.153174936009067 
456	 0.154801081832994 
457	 0.156152180988825 
458	 0.15741903127689 
459	 0.158818365922152 
460	 0.160251352604834 
461	 0.161635345877818 
462	 0.162871605926668 
463	 0.163894682546548 
464	 0.164928552835711 
465	 0.166026816511364 
466	 0.16710287347504 
467	 0.167891338359584 
468	 0.168651640462099 
469	 0.169400061292571 
470	 0.170097370648788 
471	 0.170803202426686 
472	 0.17129705267019 
473	 0.17163606971867 
474	 0.17207920562718 
475	 0.172332931508838 
476	 0.172506140120607 
477	 0.172692674485785 
478	 0.172812430598732 
479	 0.172862642336782 
480	 0.172839459428752 
481	 0.172747974141626 
482	 0.172626941805417 
483	 0.172463203183465 
484	 0.172214777768877 
485	 0.171816815969447 
486	 0.171603256311257 
487	 0.171392305996174 
488	 0.1709952640688 
489	 0.170582339161785 
490	 0.170239326740673 
491	 0.169930978218472 
492	 0.169558885448662 
493	 0.169203616040341 
494	 0.168854632821999 
495	 0.168507346107698 
496	 0.168189213370498 
497	 0.167823492826233 
498	 0.167467138103603 
499	 0.167187594883382 
500	 0.166920103108142 
501	 0.166483657021142 
502	 0.165893140734681 
503	 0.165332499350571 
504	 0.164747420239002 
505	 0.164073253731446 
506	 0.163283184715402 
507	 0.162431486279278 
508	 0.161634415080125 
509	 0.160876217124537 
510	 0.160091290634758 
511	 0.159340995737872 
512	 0.158668481158101 
513	 0.158033557116595 
514	 0.157294648464633 
515	 0.156438484158064 
516	 0.155610935698336 
517	 0.154893253510788 
518	 0.153990975540527 
519	 0.153037185132162 
520	 0.152105311681705 
521	 0.151213807508184 
522	 0.150314755125889 
523	 0.149379427073505 
524	 0.148424390942854 
525	 0.147549089734292 
526	 0.146649870237218 
527	 0.145775787403675 
528	 0.145009352683492 
529	 0.144297145828853 
530	 0.143639916302328 
531	 0.143036836642067 
532	 0.142483708068722 
533	 0.141963252172553 
534	 0.141546927957573 
535	 0.141268825497802 
536	 0.140999106745111 
537	 0.140816119947177 
538	 0.140712279602294 
539	 0.14064011947096 
540	 0.140649827372109 
541	 0.140780656300322 
542	 0.141022658279518 
543	 0.141289907168022 
544	 0.141660014889742 
545	 0.142077565068346 
546	 0.142502028319832 
547	 0.143142260155711 
548	 0.143892993635847 
549	 0.144692637763054 
550	 0.14553400401626 
551	 0.146474769092323 
552	 0.147476007774041 
553	 0.14848764912409 
554	 0.149477246019724 
555	 0.150460553602793 
556	 0.151409085959443 
557	 0.152265342763261 
558	 0.152936545966178 
559	 0.153557573359627 
560	 0.154134089755923 
561	 0.154465301494394 
562	 0.154643607672826 
563	 0.154704010264555 
564	 0.154659650036234 
565	 0.154492030403457 
566	 0.154200708997026 
567	 0.153775055270056 
568	 0.153200400960689 
569	 0.152518275690691 
570	 0.15168906378909 
571	 0.150718000598624 
572	 0.149735967828447 
573	 0.14864696078486 
574	 0.147473850812031 
575	 0.14626874497082 
576	 0.144994847878852 
577	 0.143600066067961 
578	 0.142122394855243 
579	 0.140701849942833 
580	 0.139227344499167 
581	 0.137742838696626 
582	 0.136318721995469 
583	 0.134999782712527 
584	 0.133742343866149 
585	 0.13252603990214 
586	 0.131359939881228 
587	 0.130392323376964 
588	 0.129570252122862 
589	 0.128880240302325 
590	 0.128422098126346 
591	 0.128021117130066 
592	 0.127714555746641 
593	 0.127572950875517 
594	 0.127500194126786 
595	 0.127497376934402 
596	 0.127570687312504 
597	 0.127724278930198 
598	 0.12789216734545 
599	 0.12811038815026 
600	 0.128380572454796 
601	 0.12856949053885 
602	 0.128776254142761 
603	 0.129004037966907 
604	 0.129219002537079 
605	 0.129436217311773 
606	 0.129649223052667 
607	 0.129855836836696 
608	 0.130060746268693 
609	 0.130208072732575 
610	 0.13036822481091 
611	 0.130595407468259 
612	 0.130781087554671 
613	 0.130961331136365 
614	 0.131135194037059 
615	 0.131279305632379 
616	 0.131395835877671 
617	 0.13150608749621 
618	 0.131624513368378 
619	 0.131754183555196 
620	 0.131823808596353 
621	 0.131834617741959 
622	 0.131810149901008 
623	 0.131735642412306 
624	 0.131664340020365 
625	 0.131577569885896 
626	 0.131394661196888 
627	 0.131223936173839 
628	 0.131023297448638 
629	 0.130759784060985 
630	 0.130490256751303 
631	 0.130237190486791 
632	 0.129966761247947 
633	 0.129639254497015 
634	 0.12937544479002 
635	 0.1290899794774 
636	 0.128784607981234 
637	 0.128589199920058 
638	 0.12836848299433 
639	 0.128172951690135 
640	 0.128053151015003 
641	 0.127899166361353 
642	 0.127834912320818 
643	 0.127854836504401 
644	 0.127879781317594 
645	 0.127963114520247 
646	 0.128116236327385 
647	 0.128338432105717 
648	 0.128618319919433 
649	 0.12895224837592 
650	 0.129332557196891 
651	 0.129762044995401 
652	 0.130291255366971 
653	 0.130860702213206 
654	 0.131495616508595 
655	 0.132282005455043 
656	 0.133120744527615 
657	 0.134027194681673 
658	 0.135027469710957 
659	 0.13613222714297 
660	 0.137340750760606 
661	 0.138642451375702 
662	 0.14003434135751 
663	 0.141582168592517 
664	 0.143219580115307 
665	 0.144965394725976 
666	 0.146922928399673 
667	 0.148993323354445 
668	 0.151181081271463 
669	 0.153533301131877 
670	 0.156167098507368 
671	 0.158946381960857 
672	 0.1618636541669 
673	 0.164985986010091 
674	 0.168405974390279 
675	 0.172042811809781 
676	 0.175881370988682 
677	 0.180003691672781 
678	 0.184360086602665 
679	 0.188977393072462 
680	 0.193897177027147 
681	 0.199146614102412 
682	 0.204700259047684 
683	 0.210563744954784 
684	 0.216758492791644 
685	 0.223234325556215 
686	 0.230031103864052 
687	 0.237176641093037 
688	 0.244672705190835 
689	 0.252419070608401 
690	 0.26042965930416 
691	 0.268748241019209 
692	 0.277380852742652 
693	 0.286213083235735 
694	 0.295236137451195 
695	 0.30448811261961 
696	 0.313966861256174 
697	 0.323577294331301 
698	 0.333246481650121 
699	 0.342958792072539 
700	 0.352754698245484 
701	 0.362597129255562 
702	 0.372426550086906 
703	 0.382187754565776 
704	 0.391835056888899 
705	 0.401364167480317 
706	 0.410789713913313 
707	 0.420054537623319 
708	 0.429081204629285 
709	 0.437835071706089 
710	 0.446344346623627 
711	 0.454604364170868 
712	 0.462664414624269 
713	 0.470519687281835 
714	 0.477927812826239 
715	 0.485070500962232 
716	 0.491921968865152 
717	 0.498329551639494 
718	 0.504631691356133 
719	 0.510684095179926 
720	 0.516375877943847 
721	 0.521762961945565 
722	 0.526863308910443 
723	 0.531701793460619 
724	 0.536298706841996 
725	 0.540684293934019 
726	 0.544792819507417 
727	 0.548611964057434 
728	 0.552179539227841 
729	 0.555586029447351 
730	 0.558800197573077 
731	 0.56179372279042 
732	 0.564569499278218 
733	 0.567278020099483 
734	 0.569827927891823 
735	 0.572141702040431 
736	 0.574492822050743 
737	 0.576569487443 
738	 0.578429898181556 
739	 0.580349122987174 
740	 0.58212859903683 
741	 0.583742306113313 
742	 0.585215559245998 
743	 0.586618324441819 
744	 0.588093355611331 
745	 0.589473379281096 
746	 0.590604522283508 
747	 0.591667410904245 
748	 0.592761005185346 
749	 0.593862490477006 
750	 0.59487517613822 
751	 0.595788363368926 
752	 0.596540934637308 
753	 0.597236455158995 
754	 0.598179678835769 
755	 0.599116222501412 
756	 0.599921146410251 
757	 0.600562241319705 
758	 0.601153480675216 
759	 0.601779730894946 
760	 0.60243887797893 
761	 0.603086474324282 
762	 0.603759513161831 
763	 0.604306500949405 
764	 0.604746569938325 
765	 0.605286573859423 
766	 0.605851205964981 
767	 0.60641210461934 
768	 0.606937638624428 
769	 0.607367189159333 
770	 0.607796332407798 
771	 0.608237767243773 
772	 0.608667012031644 
773	 0.609042698833752 
774	 0.60944638481986 
775	 0.609894948445089 
776	 0.61034053837006 
777	 0.610688632164445 
778	 0.611057514298832 
779	 0.611477843759136 
780	 0.61177539803889 
781	 0.612173094051557 
782	 0.612582705166597 
783	 0.61288545047325 
784	 0.613180643661694 
785	 0.613488838094172 
786	 0.613816928740846 
787	 0.614150031777199 
788	 0.614398866726981 
789	 0.61465884909015 
790	 0.614956558001678 
791	 0.615218935382786 
792	 0.61549371241342 
793	 0.615748356094091 
794	 0.615958939898224 
795	 0.616156183091894 
796	 0.616358712374255 
797	 0.61661204422923 
798	 0.616940779117194 
799	 0.617260267291734 
800	 0.617414856438439 
801	 0.617515675327301 
802	 0.617841051148019 
803	 0.618131093175976 
804	 0.618388938651094 
805	 0.61862244014901 
806	 0.618795772361661 
807	 0.618948785280854 
808	 0.619108045752173 
809	 0.619306865413905 
810	 0.619623942589324 
811	 0.619873316974251 
812	 0.620027801721647 
813	 0.62015032934368 
814	 0.620325497682096 
815	 0.620505497537699 
816	 0.620682194593323 
817	 0.620885770043922 
818	 0.62107585228832 
819	 0.621250714862001 
820	 0.621419943329244 
821	 0.621599382026225 
822	 0.621843118820491 
823	 0.622064363505116 
824	 0.622186375145568 
825	 0.622267752267475 
826	 0.622489302209767 
827	 0.622747949179746 
828	 0.622860059794675 
829	 0.623045793607435 
830	 0.623156323685828 
831	 0.623185536698865 
832	 0.623264242751917 
833	 0.623369105812873 
834	 0.623548904492712 
835	 0.623776400697569 
836	 0.623903009974022 
837	 0.624005638651317 
838	 0.624093703145944 
839	 0.624185556822869 
840	 0.624375981199119 
841	 0.624501011873728 
842	 0.624578249692386 
843	 0.624690401318667 
844	 0.624828608313572 
845	 0.624958455467314 
846	 0.625050339682237 
847	 0.62509448573791 
848	 0.625193021428509 
849	 0.625274188525594 
850	 0.62531944160474 
851	 0.625401268639369 
852	 0.625540077859085 
853	 0.625679886549212 
854	 0.625774519342415 
855	 0.625835456504855 
856	 0.625887662708594 
857	 0.625940735025726 
858	 0.626006400040895 
859	 0.626129074403121 
860	 0.626242797875423 
861	 0.626325792063923 
862	 0.626386889226404 
863	 0.626460509063927 
864	 0.626450652833726 
865	 0.626431014402727 
866	 0.626585475642129 
867	 0.626606157207074 
868	 0.626562414402863 
869	 0.626570026032535 
870	 0.626721964259901 
871	 0.626881242188149 
872	 0.626930643759288 
873	 0.626862536785044 
874	 0.626883226406579 
875	 0.626930136744635 
876	 0.627005395656891 
877	 0.627089400944028 
878	 0.627032057058631 
879	 0.627000981291064 
880	 0.626991555276149 
881	 0.626924539742333 
882	 0.626817407297144 
883	 0.62678901290414 
884	 0.626835004927577 
885	 0.626847755470813 
886	 0.626748326715913 
887	 0.626684032642234 
888	 0.626669666033496 
889	 0.626553904857248 
890	 0.626558325275716 
891	 0.626560645026747 
892	 0.626434986191745 
893	 0.626161143458734 
894	 0.625963576861647 
895	 0.625914491489803 
896	 0.625954777012925 
897	 0.62582394595585 
898	 0.625666825683339 
899	 0.625568428058531 
900	 0.625520220406304 
901	 0.625240976152797 
902	 0.625000768971779 
903	 0.624848992906656 
904	 0.624710924372868 
905	 0.624536763844424 
906	 0.624429431129093 
907	 0.624372311894411 
908	 0.624268439897389 
909	 0.624169031252277 
910	 0.624038106357404 
911	 0.623873523011958 
912	 0.623722257341378 
913	 0.623717437935448 
914	 0.62367077111452 
915	 0.623518459849325 
916	 0.623427210956684 
917	 0.623268899884243 
918	 0.623170207650014 
919	 0.62317756077018 
920	 0.623104140690905 
921	 0.623022703906561 
922	 0.622966730394455 
923	 0.622946734804257 
924	 0.622934726594088 
925	 0.622976765171005 
926	 0.622987530593138 
927	 0.62290646528641 
928	 0.622890354239228 
929	 0.622936624275862 
930	 0.623031495258482 
931	 0.623133745426636 
932	 0.62311389138253 
933	 0.623281093328714 
934	 0.623554833856833 
935	 0.623663352560198 
936	 0.623599623712199 
937	 0.623641619492646 
938	 0.623824573909866 
939	 0.624009575433243 
940	 0.624259362687384 
941	 0.624394232690673 
942	 0.624406367886136 
943	 0.624440726750015 
944	 0.624442885158217 
945	 0.624453799466416 
946	 0.624481942253471 
947	 0.624487410854202 
948	 0.624395503925071 
949	 0.624264873240407 
950	 0.624149139868723 
951	 0.624061072617841 
952	 0.623946579158278 
953	 0.623889827279919 
954	 0.623853530314962 
955	 0.62360765385478 
956	 0.623336341922176 
957	 0.623023055674956 
958	 0.62269522984259 
959	 0.6225124024112 
960	 0.622398902378691 
961	 0.622207983437705 
962	 0.621902755534429 
963	 0.621690521288874 
964	 0.621288632010547 
965	 0.620972526343563 
966	 0.620916862219433 
967	 0.620758526870849 
968	 0.620331608152523 
969	 0.61995580596243 
970	 0.619848973655294 
971	 0.619594331818029 
972	 0.619321742514202 
973	 0.619093552482727 
974	 0.618936572778271 
975	 0.618831214921237 
976	 0.618634579861641 
977	 0.618410304053269 
978	 0.618219088069491 
979	 0.617878856597563 
980	 0.617610270718051 
981	 0.617391368347873 
982	 0.61713932963668 
983	 0.616862133987229 
984	 0.616626208193175 
985	 0.616430016446658 
986	 0.616233480527039 
987	 0.615972961486051 
988	 0.615683085688111 
989	 0.615374134413005 
990	 0.615038743904125 
991	 0.614630117892928 
992	 0.614301154813722 
993	 0.614059455621219 
994	 0.613831082372349 
995	 0.613498208943252 
996	 0.613092424191617 
997	 0.612631423752336 
998	 0.612171440174046 
999	 0.611892257433904 
1000	 0.611629006097156 
1001	 0.616227942829227 
1002	 0.61586173626947 
1003	 0.615456598873189 
1004	 0.615042268988872 
1005	 0.614578517321494 
1006	 0.614140552232326 
1007	 0.613725503259902 
1008	 0.613260371289194 
1009	 0.612772717309409 
1010	 0.612292082957439 
1011	 0.611770057937277 
1012	 0.611272649528114 
1013	 0.610794242212919 
1014	 0.610312121386387 
1015	 0.609835399809943 
1016	 0.609366093747877 
1017	 0.608869330146594 
1018	 0.608331767001032 
1019	 0.607742767064861 
1020	 0.607130413555326 
1021	 0.606547599860805 
1022	 0.60594399067833 
1023	 0.605385957784659 
1024	 0.604904892060781 
1025	 0.604336416171829 
1026	 0.603749904288698 
1027	 0.603148917513207 
1028	 0.602511451717673 
1029	 0.601824136560456 
1030	 0.601193432205255 
1031	 0.600578768499662 
1032	 0.599932365281407 
1033	 0.599301099659446 
1034	 0.598643462765341 
1035	 0.597974401983405 
1036	 0.597276214461656 
1037	 0.59653560020421 
1038	 0.595821398065574 
1039	 0.595083223671309 
1040	 0.594366591730759 
1041	 0.59367677244259 
1042	 0.59297178395218 
1043	 0.592254556467316 
1044	 0.591582444246164 
1045	 0.590831794597081 
1046	 0.59008277842699 
1047	 0.589384650892901 
1048	 0.588602819754155 
1049	 0.587851924398064 
1050	 0.587128873357874 
1051	 0.586327759437154 
1052	 0.585531723119145 
1053	 0.584737554239799 
1054	 0.58393820991787 
1055	 0.583138387172284 
1056	 0.582342461639983 
1057	 0.581527125544389 
1058	 0.580725803965993 
1059	 0.579875843237411 
1060	 0.578956006001103 
1061	 0.57811962148898 
1062	 0.577200171124641 
1063	 0.576233128904557 
1064	 0.575362880528284 
1065	 0.574417630903848 
1066	 0.573449865856634 
1067	 0.572486052002574 
1068	 0.571455277842471 
1069	 0.570453867362007 
1070	 0.569417341656017 
1071	 0.568355069622258 
1072	 0.567299886102395 
1073	 0.566285109670617 
1074	 0.565221421720713 
1075	 0.564222838263781 
1076	 0.563223573930676 
1077	 0.562137201742791 
1078	 0.561078184505562 
1079	 0.559925271640079 
1080	 0.558733254416827 
1081	 0.557656458270356 
1082	 0.556502378555313 
1083	 0.555354374375475 
1084	 0.554264867588914 
1085	 0.553073227963022 
1086	 0.551882973308956 
1087	 0.550689743388281 
1088	 0.549461233941659 
1089	 0.548166363164265 
1090	 0.546933741400051 
1091	 0.545675037818947 
1092	 0.544429943811281 
1093	 0.543239236563829 
1094	 0.541934623320475 
1095	 0.540615479691238 
1096	 0.53928213606085 
1097	 0.537872327367629 
1098	 0.536543252272197 
1099	 0.535211409138509 
1100	 0.533858616350549 
1101	 0.532497919551769 
1102	 0.531057665127268 
1103	 0.529632252398889 
1104	 0.528196602894358 
1105	 0.526702086591867 
1106	 0.525200192308963 
1107	 0.523788948500306 
1108	 0.522303526320525 
1109	 0.520856164228591 
1110	 0.519424518606722 
1111	 0.517865270101544 
1112	 0.516375922129952 
1113	 0.514830141420906 
1114	 0.513212278413571 
1115	 0.511719480383726 
1116	 0.510155336330761 
1117	 0.50857910164202 
1118	 0.506996153715886 
1119	 0.50540124578893 
1120	 0.503787516065758 
1121	 0.502167340096827 
1122	 0.500509284557189 
1123	 0.498848262712465 
1124	 0.4972574392994 
1125	 0.495571366917492 
1126	 0.493913800040683 
1127	 0.492229044619989 
1128	 0.490416823667464 
1129	 0.488660765885837 
1130	 0.486817243955181 
1131	 0.484927119663387 
1132	 0.483154187530443 
1133	 0.481315446167921 
1134	 0.479481976713246 
1135	 0.477620824482092 
1136	 0.475733687608733 
1137	 0.47382371089015 
1138	 0.471879777800262 
1139	 0.469940157241704 
1140	 0.467969716008497 
1141	 0.466088347773926 
1142	 0.464142724951864 
1143	 0.462216507201789 
1144	 0.460298134672716 
1145	 0.458264392316973 
1146	 0.456294265755386 
1147	 0.454270002254119 
1148	 0.452182292192471 
1149	 0.450234691590293 
1150	 0.448259728268327 
1151	 0.446297259783707 
1152	 0.444330888388264 
1153	 0.442376220718804 
1154	 0.440408069942744 
1155	 0.438433261559216 
1156	 0.436440708380688 
1157	 0.434460763111018 
1158	 0.432494763840158 
1159	 0.430496365154184 
1160	 0.428529430776988 
1161	 0.426587752032802 
1162	 0.424551182257096 
1163	 0.422610790414448 
1164	 0.420619224551052 
1165	 0.418598275747299 
1166	 0.416733253400927 
1167	 0.414816336323622 
1168	 0.412950102350117 
1169	 0.411078728415434 
1170	 0.409240351222617 
1171	 0.407375846109652 
1172	 0.405493863497541 
1173	 0.40361140115532 
1174	 0.401754490247304 
1175	 0.399906884597058 
1176	 0.398050125369572 
1177	 0.39619781930169 
1178	 0.394390001934722 
1179	 0.392470452150645 
1180	 0.390645392503118 
1181	 0.388798445144795 
1182	 0.386917614056028 
1183	 0.385181291952297 
1184	 0.38338668719522 
1185	 0.381635126902325 
1186	 0.379913339992066 
1187	 0.378218064817232 
1188	 0.376552214409761 
1189	 0.374906109468455 
1190	 0.373296600760157 
1191	 0.371725911456175 
1192	 0.370216921555505 
1193	 0.368758801949933 
1194	 0.367312422417876 
1195	 0.365905174530096 
1196	 0.364511007545909 
1197	 0.363138926598667 
1198	 0.36176606251595 
1199	 0.360396258096012 
1200	 0.359139067310683 
1201	 0.357863380307757 
1202	 0.356611005635566 
1203	 0.355407574431583 
1204	 0.354174993535301 
1205	 0.353022782035407 
1206	 0.351891295771777 
1207	 0.35082269771467 
1208	 0.349815700103254 
1209	 0.348861495459042 
1210	 0.347936411968264 
1211	 0.347091307802465 
1212	 0.346306150185555 
1213	 0.345585574002477 
1214	 0.344935946139355 
1215	 0.344339122450243 
1216	 0.343819113625556 
1217	 0.343338598770699 
1218	 0.342922688898493 
1219	 0.342536344709567 
1220	 0.34217194031417 
1221	 0.341800104505121 
1222	 0.341437938807172 
1223	 0.341050503361324 
1224	 0.340656085136145 
1225	 0.340268870723273 
1226	 0.339845024498682 
1227	 0.339401499480676 
1228	 0.338936838888301 
1229	 0.338447251932367 
1230	 0.337939034841704 
1231	 0.337405995969512 
1232	 0.336856568406075 
1233	 0.336288684548612 
1234	 0.335710825753645 
1235	 0.335113599043416 
1236	 0.334506817943691 
1237	 0.333876788480133 
1238	 0.333250511053692 
1239	 0.332623076603691 
1240	 0.331980473356042 
1241	 0.331331506175415 
1242	 0.330715749686982 
1243	 0.330081333429832 
1244	 0.329448024689098 
1245	 0.328799143274677 
1246	 0.328135554652873 
1247	 0.327485526522017 
1248	 0.326824147087541 
1249	 0.326176562571531 
1250	 0.325545150507148 
1251	 0.324911443331068 
1252	 0.324278480407936 
1253	 0.323645261493439 
1254	 0.32300421809487 
1255	 0.322383030073959 
1256	 0.321780678301598 
1257	 0.32115787334621 
1258	 0.320523654744172 
1259	 0.319916086517749 
1260	 0.319307383506358 
1261	 0.318703156516457 
1262	 0.31813800128776 
1263	 0.317545256334219 
1264	 0.31697015664232 
1265	 0.316379995318581 
1266	 0.315820649568116 
1267	 0.315277801088797 
1268	 0.31475845256741 
1269	 0.314251499319997 
1270	 0.313768885310487 
1271	 0.313317692820902 
1272	 0.312872115816322 
1273	 0.312447655905146 
1274	 0.31202426157216 
1275	 0.311605613840711 
1276	 0.31121133857248 
1277	 0.310829543236105 
1278	 0.310462276511011 
1279	 0.31012320327982 
1280	 0.309787036874441 
1281	 0.309457780958143 
1282	 0.30914083174661 
1283	 0.308836122392105 
1284	 0.308542561086453 
1285	 0.308260263668575 
1286	 0.307984409924613 
1287	 0.307735653747111 
1288	 0.307503875566144 
1289	 0.307287076106811 
1290	 0.307096528935285 
1291	 0.306904101480519 
1292	 0.306724761340748 
1293	 0.30654456088308 
1294	 0.306362150157993 
1295	 0.306201947065379 
1296	 0.306045895578444 
1297	 0.30591146115876 
1298	 0.305806833078253 
1299	 0.305696037369371 
1300	 0.305600308418526 
1301	 0.305496745990415 
1302	 0.30537469769236 
1303	 0.305284303020852 
1304	 0.305203835212129 
1305	 0.30513604727639 
1306	 0.305111433479717 
1307	 0.305063476841044 
1308	 0.305004458108501 
1309	 0.304949662801662 
1310	 0.304900941871215 
1311	 0.304841775492444 
1312	 0.304806486074752 
1313	 0.304793234884252 
1314	 0.304765143706768 
1315	 0.304737508304332 
1316	 0.304714710822324 
1317	 0.304678372918856 
1318	 0.304674769369188 
1319	 0.304691097738511 
1320	 0.304707800110765 
1321	 0.304744076179246 
1322	 0.304774578659624 
1323	 0.304808999252044 
1324	 0.304837893942053 
1325	 0.304867196663 
1326	 0.304895678058261 
1327	 0.30491460861843 
1328	 0.304942665274328 
1329	 0.30498553047757 
1330	 0.305013743803363 
1331	 0.305027628050937 
1332	 0.305056469493595 
1333	 0.305083361499313 
1334	 0.305116372951664 
1335	 0.305149741245092 
1336	 0.305197677623935 
1337	 0.305232807085078 
1338	 0.305261295972771 
1339	 0.305287688500177 
1340	 0.305314733697341 
1341	 0.305337511875698 
1342	 0.305355744268807 
1343	 0.305368027187292 
1344	 0.305385671716335 
1345	 0.305381036555 
1346	 0.305360974624821 
1347	 0.30533726148083 
1348	 0.305301589866747 
1349	 0.305261785311444 
1350	 0.305219061403641 
1351	 0.305165548324838 
1352	 0.30510022462598 
1353	 0.305032256920072 
1354	 0.304949456441354 
1355	 0.304877130789436 
1356	 0.304805112267632 
1357	 0.304736655432566 
1358	 0.304673084266625 
1359	 0.304611377550877 
1360	 0.304564648019348 
1361	 0.304495037934832 
1362	 0.304427726351932 
1363	 0.30436488316076 
1364	 0.304278007621839 
1365	 0.304178244023623 
1366	 0.304067672428248 
1367	 0.303949316543916 
1368	 0.303806296156634 
1369	 0.303655477775152 
1370	 0.303469246668506 
1371	 0.30324690394268 
1372	 0.303029537519986 
1373	 0.302797380623674 
1374	 0.302550136984489 
1375	 0.302296496550997 
1376	 0.302024372392165 
1377	 0.301734817430277 
1378	 0.301422154050561 
1379	 0.301090248707865 
1380	 0.300749835826182 
1381	 0.300386509404136 
1382	 0.300013557427086 
1383	 0.299630450037279 
1384	 0.299241090275407 
1385	 0.298835435847602 
1386	 0.298429464687471 
1387	 0.298001590685485 
1388	 0.297606071328638 
1389	 0.297213976530844 
1390	 0.296840147877244 
1391	 0.296498025808275 
1392	 0.296157800126392 
1393	 0.295844209293331 
1394	 0.295513886611327 
1395	 0.295170478271633 
1396	 0.294844951899553 
1397	 0.29445660083512 
1398	 0.29405214976069 
1399	 0.293571756869338 
1400	 0.293048775057558 
1401	 0.292463315251382 
1402	 0.291814357951519 
1403	 0.2911179449727 
1404	 0.29036454286127 
1405	 0.289582387864405 
1406	 0.288733780216475 
1407	 0.287889954767521 
1408	 0.286982827336649 
1409	 0.286139453727939 
1410	 0.285277125792277 
1411	 0.28449066837568 
1412	 0.283736563310684 
1413	 0.283063407322247 
1414	 0.282446746409008 
1415	 0.281888035472928 
1416	 0.281412886721934 
1417	 0.280963316389191 
1418	 0.280597950504592 
1419	 0.280203105888571 
1420	 0.279827549058545 
1421	 0.279457679296691 
1422	 0.279077074176919 
1423	 0.27870589657779 
1424	 0.278363214325227 
1425	 0.278000706160327 
1426	 0.277643217944036 
1427	 0.277290764408146 
1428	 0.276946362287165 
1429	 0.276641434107008 
1430	 0.276336953803239 
1431	 0.27605064272212 
1432	 0.275761747996094 
1433	 0.275479732231353 
1434	 0.275205356361722 
1435	 0.274926835796708 
1436	 0.274680193067436 
1437	 0.274449389489707 
1438	 0.274236948639914 
1439	 0.274063844984194 
1440	 0.273860221863679 
1441	 0.273655110849064 
1442	 0.273453769108058 
1443	 0.273237099457233 
1444	 0.273036502176985 
1445	 0.272860228881126 
1446	 0.272662705949343 
1447	 0.272450505722631 
1448	 0.272253192432179 
1449	 0.272047476096868 
1450	 0.271857879782046 
1451	 0.271691516692611 
1452	 0.271513962175808 
1453	 0.271343030042658 
1454	 0.271163354210905 
1455	 0.27097727679064 
1456	 0.270787485163563 
1457	 0.270591481171692 
1458	 0.27039362869618 
1459	 0.270184923368418 
1460	 0.269986427638836 
1461	 0.269788091555012 
1462	 0.269596505372852 
1463	 0.269420608833998 
1464	 0.269237062888391 
1465	 0.269053653044599 
1466	 0.268864106102122 
1467	 0.268691803853549 
1468	 0.268505419856169 
1469	 0.268318454377443 
1470	 0.268157201808916 
1471	 0.267984519211534 
1472	 0.267808604653946 
1473	 0.267632664850522 
1474	 0.267462810169262 
1475	 0.2672790983238 
1476	 0.267091235741712 
1477	 0.266890386689739 
1478	 0.26668210791678 
1479	 0.266464633228293 
1480	 0.26622832988033 
1481	 0.266003543148072 
1482	 0.26577505755808 
1483	 0.265550756742188 
1484	 0.265344803155257 
1485	 0.265101486258925 
1486	 0.264842717323957 
1487	 0.264581369759135 
1488	 0.264288414223046 
1489	 0.264018889328749 
1490	 0.263751425543239 
1491	 0.263497481772077 
1492	 0.263245204822911 
1493	 0.263014955980137 
1494	 0.262802987165002 
1495	 0.262602150732672 
1496	 0.262426137394895 
1497	 0.262242960574005 
1498	 0.262063448131828 
1499	 0.26189222165716 
1500	 0.261711065786447 
1501	 0.261559062169035 
1502	 0.261428220443596 
1503	 0.261306334468187 
1504	 0.261203523471342 
1505	 0.261110255787057 
1506	 0.26103636690328 
1507	 0.260955953062668 
1508	 0.260876809133868 
1509	 0.260809493962862 
1510	 0.260745042831949 
1511	 0.260685009096 
1512	 0.260631711010473 
1513	 0.260592810459802 
1514	 0.260564243740303 
1515	 0.260535443166517 
1516	 0.260514024532786 
1517	 0.260505821013054 
1518	 0.260496573381643 
1519	 0.260500616080387 
1520	 0.260525109645766 
1521	 0.260557357540319 
1522	 0.260586019585164 
1523	 0.260626635356321 
1524	 0.260681856045308 
1525	 0.260749763237103 
1526	 0.260819129460748 
1527	 0.260903153088914 
1528	 0.260981544873922 
1529	 0.261053115673102 
1530	 0.261149422472517 
1531	 0.261260448810809 
1532	 0.261366490777913 
1533	 0.26148338664414 
1534	 0.261602359869009 
1535	 0.261711261238309 
1536	 0.261849519259582 
1537	 0.262013119849436 
1538	 0.262162794334359 
1539	 0.262324397894134 
1540	 0.262473477333879 
1541	 0.26260686749994 
1542	 0.262760292191345 
1543	 0.26291889046173 
1544	 0.263082621911852 
1545	 0.263258771034229 
1546	 0.26343040295798 
1547	 0.263607609991783 
1548	 0.263773623357183 
1549	 0.26392221532267 
1550	 0.264105064858232 
1551	 0.264304097717579 
1552	 0.264488351680156 
1553	 0.264695668897456 
1554	 0.264879901372324 
1555	 0.265035672912878 
1556	 0.265204099529453 
1557	 0.265384912882736 
1558	 0.265545195364592 
1559	 0.265694200771023 
1560	 0.26583888188387 
1561	 0.265965656236105 
1562	 0.266105803300387 
1563	 0.266243551565204 
1564	 0.266390718092944 
1565	 0.266543050787104 
1566	 0.266704979627688 
1567	 0.26688119248847 
1568	 0.267048678084856 
1569	 0.267215930274435 
1570	 0.267391631585376 
1571	 0.267562728223546 
1572	 0.267745046672549 
1573	 0.267931574263633 
1574	 0.26813990702729 
1575	 0.268381305133574 
1576	 0.268589336082307 
1577	 0.2687951518891 
1578	 0.269004594704103 
1579	 0.269181902823149 
1580	 0.269386700366548 
1581	 0.269620909824369 
1582	 0.269846449810228 
1583	 0.270075844704797 
1584	 0.270301260789496 
1585	 0.270519146851843 
1586	 0.270752893932271 
1587	 0.270989782558577 
1588	 0.271232596902752 
1589	 0.271493598188904 
1590	 0.271748668307651 
1591	 0.272002985735601 
1592	 0.272256846276226 
1593	 0.272511090986849 
1594	 0.272767134147132 
1595	 0.273023958317339 
1596	 0.273278873097788 
1597	 0.273532583081247 
1598	 0.273789461110869 
1599	 0.274051261492527 
1600	 0.274304317261433 
1601	 0.27456218339546 
1602	 0.274807444447096 
1603	 0.275029813991717 
1604	 0.275266198500169 
1605	 0.275499977287196 
1606	 0.275741847726217 
1607	 0.275999245462668 
1608	 0.276249728180538 
1609	 0.276515563269269 
1610	 0.276752133016899 
1611	 0.276970181099441 
1612	 0.277184344274981 
1613	 0.27737782606597 
1614	 0.277568674873487 
1615	 0.277754004063633 
1616	 0.277941301762936 
1617	 0.278129306155575 
1618	 0.27830252951024 
1619	 0.278466144686396 
1620	 0.278632374518566 
1621	 0.278779993498634 
1622	 0.278939862735858 
1623	 0.279130763012337 
1624	 0.279287267542123 
1625	 0.279420628966022 
1626	 0.27956173283849 
1627	 0.279692131994037 
1628	 0.279812922618057 
1629	 0.279945120971143 
1630	 0.280053487340237 
1631	 0.280123697746383 
1632	 0.280210896762564 
1633	 0.280298553716579 
1634	 0.280384870872855 
1635	 0.280486779417126 
1636	 0.280567073544286 
1637	 0.280636912558334 
1638	 0.280692633210943 
1639	 0.280728246204482 
1640	 0.280764653217172 
1641	 0.280792125283873 
1642	 0.280815055216656 
1643	 0.280834824237467 
1644	 0.280845762430873 
1645	 0.280849221023132 
1646	 0.280848013967018 
1647	 0.280858405435907 
1648	 0.280829656550488 
1649	 0.280776440133469 
1650	 0.280711123271487 
1651	 0.280621495632486 
1652	 0.280510564819411 
1653	 0.280399746895011 
1654	 0.280247815451869 
1655	 0.280051145548995 
1656	 0.279839419939578 
1657	 0.279604458867245 
1658	 0.279342766293964 
1659	 0.279055389038477 
1660	 0.278753648129741 
1661	 0.278430054556012 
1662	 0.278081822759617 
1663	 0.277715688591107 
1664	 0.277313381255894 
1665	 0.276888842108612 
1666	 0.276415835218515 
1667	 0.275912788076696 
1668	 0.275370760288602 
1669	 0.274774459588654 
1670	 0.274160172119856 
1671	 0.273516096173035 
1672	 0.272826806598341 
1673	 0.27212294974159 
1674	 0.27134719528538 
1675	 0.270501127652729 
1676	 0.269651495619066 
1677	 0.268751937562905 
1678	 0.267839738583652 
1679	 0.266921095414392 
1680	 0.265946510006613 
1681	 0.264937349923704 
1682	 0.263876139415105 
1683	 0.262754163269877 
1684	 0.261645867452244 
1685	 0.260505197456456 
1686	 0.259351470177312 
1687	 0.258176955690644 
1688	 0.257001760953031 
1689	 0.255801473272546 
1690	 0.254605282884789 
1691	 0.253419789620011 
1692	 0.252246981439639 
1693	 0.251081719742539 
1694	 0.249890759552881 
1695	 0.248704489990576 
1696	 0.24748511537603 
1697	 0.24622978335317 
1698	 0.244954436918308 
1699	 0.243655285753089 
1700	 0.242402272487714 
1701	 0.241123293778604 
1702	 0.23991497570347 
1703	 0.238738235051282 
1704	 0.237618046408446 
1705	 0.236531094852214 
1706	 0.235467980460456 
1707	 0.234536993872559 
1708	 0.233628625387948 
1709	 0.232776793591421 
1710	 0.232006105396233 
1711	 0.231220789233203 
1712	 0.230471582166705 
1713	 0.229711877415883 
1714	 0.228930586435242 
1715	 0.228223271951598 
1716	 0.227517239142209 
1717	 0.226843247176818 
1718	 0.22622462401743 
1719	 0.225601759405973 
1720	 0.225022210475823 
1721	 0.224501346826754 
1722	 0.224037877006084 
1723	 0.223684181431582 
1724	 0.223436185406274 
1725	 0.223299728052885 
1726	 0.223318553256674 
1727	 0.223469311752146 
1728	 0.223717518139239 
1729	 0.224101460255674 
1730	 0.224626817441818 
1731	 0.225221435168236 
1732	 0.225949583230588 
1733	 0.226704101550323 
1734	 0.227443056260128 
1735	 0.228238490324763 
1736	 0.22898536832847 
1737	 0.229703167101829 
1738	 0.230365742108058 
1739	 0.230897181233488 
1740	 0.23133765761878 
1741	 0.231667939649309 
1742	 0.23186030415603 
1743	 0.232022622914955 
1744	 0.232080781092738 
1745	 0.23211568962239 
1746	 0.232101800859501 
1747	 0.232065011921905 
1748	 0.231952129939827 
1749	 0.231880991940015 
1750	 0.23179767095288 
1751	 0.231745311051178 
1752	 0.231706779473362 
1753	 0.231699110149293 
1754	 0.231693243632709 
1755	 0.231764057084967 
1756	 0.23187322432374 
1757	 0.232046274638376 
1758	 0.232305826930609 
1759	 0.232616908999589 
1760	 0.233015604347757 
1761	 0.233523108867561 
1762	 0.234057546075629 
1763	 0.234703032243268 
1764	 0.235433743796802 
1765	 0.236227769235348 
1766	 0.237112813718877 
1767	 0.237978477140362 
1768	 0.238869233007482 
1769	 0.239748118550588 
1770	 0.240555684906091 
1771	 0.241409534509707 
1772	 0.242210958278039 
1773	 0.242930900332947 
1774	 0.243673182685645 
1775	 0.244331958413446 
1776	 0.244941651544125 
1777	 0.245560515996723 
1778	 0.246115796494258 
1779	 0.246608871851343 
1780	 0.247053185672396 
1781	 0.247465046976633 
1782	 0.247852163289324 
1783	 0.248219778401064 
1784	 0.248564295630494 
1785	 0.248828452743548 
1786	 0.249085972142177 
1787	 0.249312003257876 
1788	 0.249535939641331 
1789	 0.249742953707286 
1790	 0.249944544275001 
1791	 0.250137342345805 
1792	 0.250315977136937 
1793	 0.250473064018813 
1794	 0.250647775060257 
1795	 0.25082563504792 
1796	 0.251046041022111 
1797	 0.251262907374206 
1798	 0.2514489981021 
1799	 0.251670050862438 
1800	 0.251897863564704 
1801	 0.252252556967371 
1802	 0.252501350448839 
1803	 0.252752563253108 
1804	 0.25299029124403 
1805	 0.253260313942212 
1806	 0.253514938439292 
1807	 0.253777244788706 
1808	 0.254035250699586 
1809	 0.254283543505799 
1810	 0.254540677638496 
1811	 0.254800309312716 
1812	 0.255072699066557 
1813	 0.255336479453936 
1814	 0.25563157888327 
1815	 0.255955042262349 
1816	 0.256296376808203 
1817	 0.256635591936085 
1818	 0.256995614827279 
1819	 0.257348482771365 
1820	 0.257683940911566 
1821	 0.258045114530702 
1822	 0.258416844956554 
1823	 0.25882040615976 
1824	 0.259188467318014 
1825	 0.259595186087341 
1826	 0.259996558267122 
1827	 0.260401827328851 
1828	 0.260787114379987 
1829	 0.261171503644539 
1830	 0.261558258279264 
1831	 0.26191200902968 
1832	 0.262316786656023 
1833	 0.262735476579166 
1834	 0.263160601062792 
1835	 0.263612717991993 
1836	 0.264026850032712 
1837	 0.264453940578072 
1838	 0.264879917168816 
1839	 0.265317266347328 
1840	 0.26576257743627 
1841	 0.266206465446048 
1842	 0.266653112698995 
1843	 0.26710981024906 
1844	 0.267560395905066 
1845	 0.267967432279371 
1846	 0.268391895743759 
1847	 0.268807879962654 
1848	 0.269224536484461 
1849	 0.269653926487826 
1850	 0.270067136355558 
1851	 0.270473682907646 
1852	 0.270873499630394 
1853	 0.271263045668793 
1854	 0.271602388125354 
1855	 0.271948860845091 
1856	 0.272273273180982 
1857	 0.272583774301941 
1858	 0.272938569298798 
1859	 0.273258076778532 
1860	 0.27357264790549 
1861	 0.273863104820849 
1862	 0.274157182738366 
1863	 0.274380324914124 
1864	 0.274580355736143 
1865	 0.274780085925603 
1866	 0.274927752661879 
1867	 0.275062971487909 
1868	 0.275192085362984 
1869	 0.275282262107112 
1870	 0.275339330887278 
1871	 0.275369678532943 
1872	 0.275367889308297 
1873	 0.275330419323208 
1874	 0.275269323738977 
1875	 0.275180542499137 
1876	 0.275031221893466 
1877	 0.274830344467748 
1878	 0.274551768283247 
1879	 0.274214962399561 
1880	 0.273831641670122 
1881	 0.273350536525013 
1882	 0.27279201631191 
1883	 0.272172891853714 
1884	 0.271427561309609 
1885	 0.270546863841085 
1886	 0.26960848478441 
1887	 0.268526044125447 
1888	 0.267321146248189 
1889	 0.266111671727814 
1890	 0.264777833359594 
1891	 0.263430161825222 
1892	 0.262054947986279 
1893	 0.260609072245575 
1894	 0.259066155390908 
1895	 0.257581308373859 
1896	 0.256051652758941 
1897	 0.254507382366441 
1898	 0.253107650628023 
1899	 0.251709879677925 
1900	 0.250366135709926 
1901	 0.249107597740526 
1902	 0.247814434651439 
1903	 0.246613707711573 
1904	 0.245481948313272 
1905	 0.244392178333023 
1906	 0.243374181032048 
1907	 0.242497964292063 
1908	 0.241648396005436 
1909	 0.240848536180877 
1910	 0.24013858523128 
1911	 0.239463221620887 
1912	 0.238861707640247 
1913	 0.238303177926265 
1914	 0.237781299204198 
1915	 0.237323167728233 
1916	 0.236934330318354 
1917	 0.236559780282144 
1918	 0.236222856653795 
1919	 0.235946805483774 
1920	 0.235678595466776 
1921	 0.235441062579466 
1922	 0.235261631570536 
1923	 0.235102443112593 
1924	 0.234974718072706 
1925	 0.234888028938076 
1926	 0.234833888272273 
1927	 0.234810286741527 
1928	 0.234826818747403 
1929	 0.234889078720722 
1930	 0.234961038852756 
1931	 0.235074733180833 
1932	 0.235226113859197 
1933	 0.235365808110613 
1934	 0.235550222340092 
1935	 0.235769304311039 
1936	 0.23601370580026 
1937	 0.236310960685581 
1938	 0.236670911581543 
1939	 0.237039599112139 
1940	 0.237449326496106 
1941	 0.237870835841924 
1942	 0.238290323888114 
1943	 0.238754669348295 
1944	 0.239193667657257 
1945	 0.239647626272998 
1946	 0.240184730271907 
1947	 0.240699584795047 
1948	 0.241259017780419 
1949	 0.241865607697393 
1950	 0.242417767680707 
1951	 0.242921531855875 
1952	 0.24346855628659 
1953	 0.244021484050578 
1954	 0.244555369708856 
1955	 0.245134841938611 
1956	 0.245707035117719 
1957	 0.246265384877682 
1958	 0.246811822095028 
1959	 0.247322676048436 
1960	 0.247836627795237 
1961	 0.248335089971019 
1962	 0.248813706346269 
1963	 0.249286559343102 
1964	 0.249742497552185 
1965	 0.250202590834271 
1966	 0.250660445688101 
1967	 0.251111699373358 
1968	 0.251545934485784 
1969	 0.251992121178951 
1970	 0.252420362895965 
1971	 0.252839556196049 
1972	 0.253294176560999 
1973	 0.253744658802392 
1974	 0.254202599622273 
1975	 0.254680486982481 
1976	 0.255143150818946 
1977	 0.255588015646679 
1978	 0.256068309164709 
1979	 0.256557627382167 
1980	 0.257046735807164 
1981	 0.257594358422089 
1982	 0.258113256980252 
1983	 0.258633574014298 
1984	 0.259190556592595 
1985	 0.259709953477872 
1986	 0.260244066594772 
1987	 0.260773923490217 
1988	 0.26128801284262 
1989	 0.261820321733393 
1990	 0.262379229688104 
1991	 0.262908044406815 
1992	 0.26344018440686 
1993	 0.26395842593537 
1994	 0.264431715088572 
1995	 0.264899601762619 
1996	 0.265351569093636 
1997	 0.265788942834523 
1998	 0.266236946236789 
1999	 0.266695607929087 
2000	 0.267115650881708 
2001	 0.267536306934724 
2002	 0.267927436310382 
2003	 0.268269605559516 
2004	 0.268626503505173 
2005	 0.268991688855634 
2006	 0.269321667190755 
2007	 0.269632736814031 
2008	 0.269936422618478 
2009	 0.270218306755325 
2010	 0.270471754791812 
2011	 0.270712649895124 
2012	 0.270953827320191 
2013	 0.271150682491629 
2014	 0.271313853218897 
2015	 0.271460024316379 
2016	 0.271590657153028 
2017	 0.271671848288372 
2018	 0.27173386973018 
2019	 0.271740386449624 
2020	 0.271699023352619 
2021	 0.271610801060789 
2022	 0.271489565101499 
2023	 0.271323719334182 
2024	 0.271088135540832 
2025	 0.270834206021526 
2026	 0.270537277567034 
2027	 0.270173074383632 
2028	 0.269815647037882 
2029	 0.269441981864969 
2030	 0.269033484227238 
2031	 0.268613957188482 
2032	 0.268148272677944 
2033	 0.267635775265256 
2034	 0.267109198917216 
2035	 0.266538574092083 
2036	 0.265949492762099 
2037	 0.265398084123791 
2038	 0.264823254042901 
2039	 0.26425269556276 
2040	 0.263693069100416 
2041	 0.263124489358123 
2042	 0.262529376730003 
2043	 0.261972775865458 
2044	 0.261401526522982 
2045	 0.260898708643168 
2046	 0.260429469970739 
2047	 0.259992348179428 
2048	 0.259603747954089 
2049	 0.259251348254748 
2050	 0.258910131985639 
2051	 0.258625559338646 
2052	 0.258421165114585 
2053	 0.258287890396859 
2054	 0.258244705185379 
2055	 0.258293158477402 
2056	 0.2584076717475 
2057	 0.258586561554991 
2058	 0.258873427505418 
2059	 0.259254955557407 
2060	 0.259708312460287 
2061	 0.260298294786042 
2062	 0.260891883414998 
2063	 0.261542646907116 
2064	 0.262234200612189 
2065	 0.262990744587571 
2066	 0.263740498137516 
2067	 0.264551876755064 
2068	 0.265353082545815 
2069	 0.266142683484541 
2070	 0.266942129513218 
2071	 0.267714521479744 
2072	 0.268479650897985 
2073	 0.26922049588212 
2074	 0.269936506167993 
2075	 0.270640675015444 
2076	 0.271350213424659 
2077	 0.271997835350718 
2078	 0.27262481095092 
2079	 0.273204981768772 
2080	 0.273717144360284 
2081	 0.274218234849525 
2082	 0.274690736665574 
2083	 0.275127772156786 
2084	 0.275574999473295 
2085	 0.275985909684897 
2086	 0.276365155002562 
2087	 0.276733414630618 
2088	 0.277052388579611 
2089	 0.277314576889086 
2090	 0.27757006652876 
2091	 0.277802766574902 
2092	 0.278007753148602 
2093	 0.278182825144588 
2094	 0.278338605347174 
2095	 0.278476225159477 
2096	 0.278579303427331 
2097	 0.278651408506733 
2098	 0.278707985966268 
2099	 0.27871366281279 
2100	 0.278693194570128 
2101	 0.278682686215078 
2102	 0.278670603585576 
2103	 0.278608393209113 
2104	 0.2785299768773 
2105	 0.278424873793242 
2106	 0.278265355244393 
2107	 0.278114825128316 
2108	 0.277983241727283 
2109	 0.277792876479479 
2110	 0.277556201909663 
2111	 0.277312092034407 
2112	 0.277034714865028 
2113	 0.276742856564595 
2114	 0.276435273490293 
2115	 0.27611517780452 
2116	 0.275777091012019 
2117	 0.275419411004277 
2118	 0.275043759532142 
2119	 0.27465155649721 
2120	 0.27426016304385 
2121	 0.273842301670565 
2122	 0.273437152213525 
2123	 0.273044013350505 
2124	 0.272628475783666 
2125	 0.272183600957582 
2126	 0.271772746111625 
2127	 0.271378205081694 
2128	 0.270969418379661 
2129	 0.270580800955197 
2130	 0.270170487367769 
2131	 0.269727592811573 
2132	 0.269299440218397 
2133	 0.268890044224686 
2134	 0.268458644286762 
2135	 0.267994396751915 
2136	 0.26752919315053 
2137	 0.267049424214496 
2138	 0.266532449242901 
2139	 0.266034937155232 
2140	 0.265541033857691 
2141	 0.265048038621839 
2142	 0.26455785213195 
2143	 0.264057483858319 
2144	 0.263539689330939 
2145	 0.263059463367216 
2146	 0.262569359564834 
2147	 0.262115466643233 
2148	 0.261718245036245 
2149	 0.261302717254231 
2150	 0.260916162418841 
2151	 0.260497241631344 
2152	 0.260063538359962 
2153	 0.259629633062077 
2154	 0.259151000881654 
2155	 0.258659491580537 
2156	 0.25820228738528 
2157	 0.257740548447346 
2158	 0.257306024684796 
2159	 0.25690667935387 
2160	 0.256489148113338 
2161	 0.256064481560918 
2162	 0.255672709172635 
2163	 0.255272699121221 
2164	 0.254929437119221 
2165	 0.254617350698866 
2166	 0.254339656665137 
2167	 0.254112729510619 
2168	 0.253898564869593 
2169	 0.253704194161419 
2170	 0.253548558089703 
2171	 0.253404093930095 
2172	 0.253313539001334 
2173	 0.25326071911859 
2174	 0.253271476182956 
2175	 0.253315087221805 
2176	 0.253403618894944 
2177	 0.253477276498353 
2178	 0.253571937774498 
2179	 0.253671842407919 
2180	 0.253763175086878 
2181	 0.253895018998558 
2182	 0.254064105315152 
2183	 0.254230795508412 
2184	 0.254423270236294 
2185	 0.2546013400516 
2186	 0.254777992347291 
2187	 0.254960633484492 
2188	 0.255156216325507 
2189	 0.255333336340462 
2190	 0.255509826771653 
2191	 0.255674277939296 
2192	 0.255807880984434 
2193	 0.255962572645435 
2194	 0.256145334428932 
2195	 0.256292343216998 
2196	 0.256432800875033 
2197	 0.256565396301633 
2198	 0.256640006040325 
2199	 0.256708870552078 
2200	 0.256772202608979 
2201	 0.256822811685327 
2202	 0.256855485589701 
2203	 0.256869347290026 
2204	 0.256894189670206 
2205	 0.256902806563273 
2206	 0.256923109758787 
2207	 0.256966401025172 
2208	 0.256977245194752 
2209	 0.256967906143885 
2210	 0.25696718768126 
2211	 0.256952882106339 
2212	 0.256949144433912 
2213	 0.256956487955531 
2214	 0.256952338559639 
2215	 0.256949824671495 
2216	 0.256936368062637 
2217	 0.256918766204676 
2218	 0.256889578448418 
2219	 0.256887071311553 
2220	 0.256811142518819 
2221	 0.256701467834006 
2222	 0.256559618263854 
2223	 0.256348601726277 
2224	 0.256067442411374 
2225	 0.255737366491584 
2226	 0.255356080623119 
2227	 0.254893995970065 
2228	 0.254384440684529 
2229	 0.253736801930956 
2230	 0.252983843351645 
2231	 0.252157643108497 
2232	 0.251212843636238 
2233	 0.25020197360165 
2234	 0.249151138939236 
2235	 0.24795183831799 
2236	 0.246608819807581 
2237	 0.245227156003399 
2238	 0.243702992136575 
2239	 0.242184157672568 
2240	 0.240628040465504 
2241	 0.239015002977677 
2242	 0.237414860357422 
2243	 0.235667742016661 
2244	 0.233792089078668 
2245	 0.231904206090085 
2246	 0.229855580331438 
2247	 0.227864560768143 
2248	 0.225889766494565 
2249	 0.223889437844591 
2250	 0.221888972539828 
2251	 0.219896422862004 
2252	 0.21774187385908 
2253	 0.215690804193414 
2254	 0.213595199594474 
2255	 0.211483689670779 
2256	 0.209601349092279 
2257	 0.207686569852759 
2258	 0.205831847313081 
2259	 0.204091167555331 
2260	 0.202265873828004 
2261	 0.200401857223653 
2262	 0.198628739809762 
2263	 0.19680434791048 
2264	 0.195151476614559 
2265	 0.193643464910142 
2266	 0.192106407479364 
2267	 0.190690092036088 
2268	 0.189204058883237 
2269	 0.18765114174891 
2270	 0.186210297658315 
2271	 0.184761758040147 
2272	 0.183429936464898 
2273	 0.182250565305101 
2274	 0.181017136538594 
2275	 0.179872831094445 
2276	 0.178651375667287 
2277	 0.177391223964708 
2278	 0.1761239694995 
2279	 0.174804933960284 
2280	 0.173492235307312 
2281	 0.172199251734529 
2282	 0.17085315284316 
2283	 0.169489957695707 
2284	 0.168125304056422 
2285	 0.166592226262697 
2286	 0.165042358510704 
2287	 0.163405263342701 
2288	 0.161737771368415 
2289	 0.160196597074952 
2290	 0.15857571022992 
2291	 0.156968861264424 
2292	 0.155333134949239 
2293	 0.153583954079263 
2294	 0.151894529844653 
2295	 0.150239849682049 
2296	 0.148700907910673 
2297	 0.147341380422011 
2298	 0.14613268105543 
2299	 0.145042042688721 
2300	 0.144068954698843 
2301	 0.143328900123036 
2302	 0.142734878383184 
2303	 0.142390344849964 
2304	 0.142298201169343 
2305	 0.142394296050382 
2306	 0.142677653997366 
2307	 0.143226201796979 
2308	 0.144030865297095 
2309	 0.145065059306628 
2310	 0.146393615168377 
2311	 0.147867259825854 
2312	 0.149701762818181 
2313	 0.151437705949401 
2314	 0.153385137501325 
2315	 0.155168616119319 
2316	 0.15692280750831 
2317	 0.158561714940774 
2318	 0.160204225538756 
2319	 0.161582758113425 
2320	 0.162843444421083 
2321	 0.163863062965798 
2322	 0.164596640309614 
2323	 0.16522082048908 
2324	 0.165642771767091 
2325	 0.165934806971109 
2326	 0.16607033292496 
2327	 0.166068532891661 
2328	 0.165855805642272 
2329	 0.165574479476132 
2330	 0.165174685616937 
2331	 0.16465431321413 
2332	 0.164029804289975 
2333	 0.163279503060353 
2334	 0.162353292231013 
2335	 0.161269950301127 
2336	 0.1600018966462 
2337	 0.158693463530489 
2338	 0.157442588167678 
2339	 0.156102517683287 
2340	 0.154813250401226 
2341	 0.153664385730976 
2342	 0.152566516703829 
2343	 0.151609882749705 
2344	 0.150876933086264 
2345	 0.150368785600716 
2346	 0.150091602552627 
2347	 0.15016554656428 
2348	 0.150565346966492 
2349	 0.151299258520101 
2350	 0.152270726997559 
2351	 0.1534504084579 
2352	 0.154833280127848 
2353	 0.156305797236309 
2354	 0.157694215575226 
2355	 0.159090307434764 
2356	 0.160370212312141 
2357	 0.161407847194727 
2358	 0.16249296569471 
2359	 0.163370943360701 
2360	 0.164022169039818 
2361	 0.164587958891006 
2362	 0.164962383441097 
2363	 0.165267362124785 
2364	 0.165566657980958 
2365	 0.16578996924941 
2366	 0.16600252042507 
2367	 0.166153055511846 
2368	 0.166266255933448 
2369	 0.166450853320179 
2370	 0.166605076608202 
2371	 0.166789661271976 
2372	 0.166955058954552 
2373	 0.16709195904254 
2374	 0.167261571082662 
2375	 0.167303378716426 
2376	 0.167431891016642 
2377	 0.16767605212502 
2378	 0.167827776235713 
2379	 0.168083048433158 
2380	 0.168338326950874 
2381	 0.168424903916182 
2382	 0.168564503629327 
2383	 0.16871411555581 
2384	 0.168861295172454 
2385	 0.168975033977761 
2386	 0.169159080563461 
2387	 0.169416312993193 
2388	 0.169554593664652 
2389	 0.169654042334642 
2390	 0.169827368477002 
2391	 0.169950699152779 
2392	 0.170108704310138 
2393	 0.170375032338175 
2394	 0.170525233796561 
2395	 0.170570644755614 
2396	 0.170699000097913 
2397	 0.170856784062584 
2398	 0.170975107851131 
2399	 0.171095363990948 
2400	 0.171265803031902 
2401	 0.171420880308675 
2402	 0.171692928655931 
2403	 0.171934467567635 
2404	 0.172140796726322 
2405	 0.172269867126422 
2406	 0.17244611269198 
2407	 0.17266444520177 
2408	 0.172817915544429 
2409	 0.173021987408935 
2410	 0.173158435155568 
2411	 0.173116624940071 
2412	 0.173120207287819 
2413	 0.173239346051122 
2414	 0.173353764932409 
2415	 0.173373811022634 
2416	 0.173313421906605 
2417	 0.173296890129415 
2418	 0.173274699774729 
2419	 0.173304356465397 
2420	 0.173485617180639 
2421	 0.173569730207264 
2422	 0.173551230289568 
2423	 0.173618146775554 
2424	 0.17374364381378 
2425	 0.173807298100446 
2426	 0.173807037061386 
2427	 0.17370282605179 
2428	 0.173572318565005 
2429	 0.173539570834396 
2430	 0.173457124041778 
2431	 0.173414099840281 
2432	 0.173384207377203 
2433	 0.173286085790315 
2434	 0.173172264985876 
2435	 0.173087068363458 
2436	 0.172998141431199 
2437	 0.172623524351517 
2438	 0.172288561641754 
2439	 0.172162132641595 
2440	 0.171843251886515 
2441	 0.171526408785969 
2442	 0.171352998897494 
2443	 0.171051406787127 
2444	 0.17073972708723 
2445	 0.170448683619215 
2446	 0.169913020692699 
2447	 0.169457027322743 
2448	 0.16914030548132 
2449	 0.168780407993092 
2450	 0.168526445295384 
2451	 0.168128881684483 
2452	 0.167673394033204 
2453	 0.167263745503047 
2454	 0.166793019015304 
2455	 0.166372368945654 
2456	 0.165830380192566 
2457	 0.165289441738797 
2458	 0.16501307045825 
2459	 0.164756123094932 
2460	 0.164459575874011 
2461	 0.164188156294776 
2462	 0.16377647539701 
2463	 0.163464723460695 
2464	 0.163341880958733 
2465	 0.1631807537308 
2466	 0.163112020037774 
2467	 0.163021683277435 
2468	 0.162769959048681 
2469	 0.162598657783657 
2470	 0.162477099055115 
2471	 0.162309259885258 
2472	 0.162211869748066 
2473	 0.162377273601204 
2474	 0.162569641565601 
2475	 0.162627765595532 
2476	 0.162755715714232 
2477	 0.162766923245748 
2478	 0.162763884228843 
2479	 0.16306766732732 
2480	 0.163451138654764 
2481	 0.163577849023736 
2482	 0.163588946505112 
2483	 0.163518277114569 
2484	 0.163679890982501 
2485	 0.164056430067741 
2486	 0.164065917597669 
2487	 0.164043396748926 
2488	 0.164183275128279 
2489	 0.164150598011145 
2490	 0.164284751343695 
2491	 0.164554243061401 
2492	 0.164841903360233 
2493	 0.165110821719525 
2494	 0.165309987598389 
2495	 0.165578791040327 
2496	 0.165893373133081 
2497	 0.166253974837442 
2498	 0.166527585433991 
2499	 0.166750033229892 
2500	 0.166795533946065 
