Wavelength	spectrum00020.asd
350	 5.23310870261444E-02 
351	 5.08757162441865E-02 
352	 4.76473132529301E-02 
353	 4.40923395109199E-02 
354	 0.044917753347535 
355	 4.40559721313435E-02 
356	 4.24960422463314E-02 
357	 4.16730380633587E-02 
358	 3.92350132423891E-02 
359	 3.73692300829532E-02 
360	 3.66074427675481E-02 
361	 3.64709729458664E-02 
362	 0.036680801442212 
363	 0.035558896649791 
364	 0.033279813548694 
365	 3.24716289271755E-02 
366	 3.27639610841319E-02 
367	 3.27781509213361E-02 
368	 3.17937920290248E-02 
369	 3.21098778113612E-02 
370	 3.23657632492433E-02 
371	 3.21721951183129E-02 
372	 3.17791554037726E-02 
373	 3.16145501342846E-02 
374	 3.14081419636432E-02 
375	 3.09881248437036E-02 
376	 3.04125226988001E-02 
377	 3.09568120947733E-02 
378	 3.13956339916171E-02 
379	 3.05923002036215E-02 
380	 2.99054321385544E-02 
381	 0.030625882053711 
382	 3.15422457930755E-02 
383	 0.030391958278108 
384	 3.03061879581482E-02 
385	 3.07689682996166E-02 
386	 3.10700533759034E-02 
387	 3.08858972412134E-02 
388	 3.08517823152684E-02 
389	 3.12555155365402E-02 
390	 3.19857942054964E-02 
391	 3.19338880749992E-02 
392	 3.20982396437523E-02 
393	 3.25230148662574E-02 
394	 3.26899255300434E-02 
395	 3.35983001019989E-02 
396	 3.45116151631705E-02 
397	 3.50044935190251E-02 
398	 3.54996735412942E-02 
399	 3.61676406336828E-02 
400	 0.036984439751687 
401	 3.78164799323025E-02 
402	 3.83515749695266E-02 
403	 3.95089146619065E-02 
404	 4.09195341505405E-02 
405	 4.13871855488875E-02 
406	 4.24201539231986E-02 
407	 4.35641930386259E-02 
408	 4.46258452624381E-02 
409	 0.046581869213027 
410	 4.79832718546509E-02 
411	 4.89939105858343E-02 
412	 5.03270291383369E-02 
413	 5.25871108004133E-02 
414	 5.42102905918688E-02 
415	 5.51986085055918E-02 
416	 5.69809787124667E-02 
417	 5.90718738832119E-02 
418	 6.12728715338745E-02 
419	 6.33756753576144E-02 
420	 6.50226920599354E-02 
421	 6.67644024187733E-02 
422	 6.88799823296818E-02 
423	 7.13986393534931E-02 
424	 0.073664269420221 
425	 0.075842500830387 
426	 7.81376967549932E-02 
427	 8.07110129506307E-02 
428	 0.083093788175652 
429	 8.55369236486328E-02 
430	 8.82218327000382E-02 
431	 0.090611391039929 
432	 9.31701133988103E-02 
433	 9.59695570504208E-02 
434	 9.88233294799896E-02 
435	 0.101322002714262 
436	 0.103976536956082 
437	 0.106923123712771 
438	 0.109540255949328 
439	 0.112236757431266 
440	 0.11501250378456 
441	 0.117772149490869 
442	 0.120535803757453 
443	 0.123277972309425 
444	 0.126017137456985 
445	 0.128809907289451 
446	 0.131664161020239 
447	 0.134452560385173 
448	 0.13712464363217 
449	 0.139829545951321 
450	 0.142583825821195 
451	 0.145311379250338 
452	 0.147937177941284 
453	 0.150667622451606 
454	 0.153351524073487 
455	 0.155897448544288 
456	 0.158323826192391 
457	 0.16085532754303 
458	 0.163325233548833 
459	 0.165618473085471 
460	 0.168037548205612 
461	 0.170380822605254 
462	 0.172648060054775 
463	 0.174931639830427 
464	 0.177076510776851 
465	 0.179145837967018 
466	 0.181150977636803 
467	 0.182982260590629 
468	 0.184881935461697 
469	 0.186724527851838 
470	 0.188358249744043 
471	 0.189988841215765 
472	 0.19151887433478 
473	 0.1929527560027 
474	 0.194364164948069 
475	 0.195527611878479 
476	 0.19666099344574 
477	 0.197858039688757 
478	 0.198787910295256 
479	 0.199544455478067 
480	 0.20024111647388 
481	 0.200949240686487 
482	 0.201370092621875 
483	 0.201719619848276 
484	 0.202064283432597 
485	 0.202257499231288 
486	 0.20237153182033 
487	 0.202368688858994 
488	 0.202215276699713 
489	 0.201961515131815 
490	 0.201591884196386 
491	 0.201109032080743 
492	 0.200521529390116 
493	 0.199778429735236 
494	 0.199002255870901 
495	 0.198195392843056 
496	 0.197128161325547 
497	 0.195986476793066 
498	 0.194782475365139 
499	 0.193500881381706 
500	 0.192269652461574 
501	 0.190788993491999 
502	 0.189107661581911 
503	 0.187574920398294 
504	 0.185984105181158 
505	 0.184261213894623 
506	 0.182431468199794 
507	 0.18071601006186 
508	 0.178858120734906 
509	 0.17688468607001 
510	 0.174941955571375 
511	 0.173024887336957 
512	 0.17106502502672 
513	 0.16902700811209 
514	 0.166919882749532 
515	 0.164839263687331 
516	 0.16281680216795 
517	 0.160831306269826 
518	 0.158762197263611 
519	 0.15669294539562 
520	 0.154646973715984 
521	 0.152602014831012 
522	 0.150554148071845 
523	 0.148514609421053 
524	 0.146499569560308 
525	 0.144529066860654 
526	 0.142541783246852 
527	 0.14060795985378 
528	 0.138791518939701 
529	 0.136849893003782 
530	 0.134941461333275 
531	 0.133117529229283 
532	 0.131293772977032 
533	 0.129467459174668 
534	 0.127681663914424 
535	 0.125954119745004 
536	 0.124179507556039 
537	 0.122479513231857 
538	 0.120846974865952 
539	 0.119209467870759 
540	 0.117644258024136 
541	 0.116102979014824 
542	 0.114571123395482 
543	 0.113111756018371 
544	 0.111707732528883 
545	 0.110319969268191 
546	 0.108930725322175 
547	 0.107640674426409 
548	 0.106416930833691 
549	 0.105225129872666 
550	 0.104038809564188 
551	 0.102908872055259 
552	 0.101839978918467 
553	 0.10080938397821 
554	 9.97477256692479E-02 
555	 9.87501625484431E-02 
556	 9.78149050040246E-02 
557	 9.68965406886386E-02 
558	 9.59931128055792E-02 
559	 0.095141728284229 
560	 9.43490020627219E-02 
561	 9.35758097383994E-02 
562	 9.27808112809692E-02 
563	 9.20292811854485E-02 
564	 9.13700446657564E-02 
565	 9.06624257369385E-02 
566	 9.00260544936457E-02 
567	 8.94560020658282E-02 
568	 8.88568203555354E-02 
569	 8.83046768058442E-02 
570	 8.77573536558836E-02 
571	 8.72082039590373E-02 
572	 8.67651363582296E-02 
573	 8.63708400801254E-02 
574	 8.59975799601891E-02 
575	 8.56280509753894E-02 
576	 8.52664079463972E-02 
577	 0.084852314054155 
578	 8.44251505438184E-02 
579	 8.41371082493942E-02 
580	 8.38583168468803E-02 
581	 8.36055742376096E-02 
582	 8.34019803103076E-02 
583	 8.31871439690487E-02 
584	 8.29784917248101E-02 
585	 8.27861885785326E-02 
586	 8.26180462800536E-02 
587	 8.24997234575886E-02 
588	 8.24011284127371E-02 
589	 8.23024592766464E-02 
590	 8.22112450637519E-02 
591	 8.21379118433854E-02 
592	 8.20952955776297E-02 
593	 8.20832752642279E-02 
594	 0.082042097770364 
595	 8.20475807102038E-02 
596	 0.082092586124171 
597	 8.21006128694579E-02 
598	 8.21771114252604E-02 
599	 8.22905872382304E-02 
600	 8.24036159874137E-02 
601	 8.25196746739793E-02 
602	 8.26977443329103E-02 
603	 8.28998500927878E-02 
604	 0.083062783260257 
605	 8.32714342072027E-02 
606	 8.35344987385204E-02 
607	 0.083837847148471 
608	 8.41481444664014E-02 
609	 8.44361690117906E-02 
610	 0.084746630823096 
611	 8.51154759767633E-02 
612	 8.54776657978091E-02 
613	 0.08586869288505 
614	 0.086285275128481 
615	 8.67012997147645E-02 
616	 8.71225698024465E-02 
617	 8.75932497285892E-02 
618	 8.81240999713345E-02 
619	 8.86624055021603E-02 
620	 8.92080277238252E-02 
621	 8.97781330901672E-02 
622	 9.03826841795188E-02 
623	 9.09534801480406E-02 
624	 0.091590385257607 
625	 9.22870334669823E-02 
626	 9.29404939451366E-02 
627	 9.36776970805098E-02 
628	 9.44410291752678E-02 
629	 9.51866643109961E-02 
630	 9.59923685690868E-02 
631	 9.68233142051023E-02 
632	 9.76670207440326E-02 
633	 9.85262774151252E-02 
634	 9.94570175358759E-02 
635	 0.100374186932542 
636	 0.101283577837403 
637	 0.102313002409534 
638	 0.103309225458096 
639	 0.104339678943891 
640	 0.105469988632868 
641	 0.106576947150219 
642	 0.107696263574608 
643	 0.108871108055995 
644	 0.110135534644331 
645	 0.111384427656675 
646	 0.112670110372746 
647	 0.114017863892474 
648	 0.115376576091003 
649	 0.116816940437874 
650	 0.118285807689696 
651	 0.119731404599118 
652	 0.12128463317013 
653	 0.122852806133729 
654	 0.124444186408649 
655	 0.126144947460362 
656	 0.127874283591081 
657	 0.129630106880132 
658	 0.131428911983606 
659	 0.133303288767939 
660	 0.135237834273685 
661	 0.137228285352817 
662	 0.139271206437978 
663	 0.141359656777053 
664	 0.14348156916575 
665	 0.145650914097319 
666	 0.147902663542182 
667	 0.150207733515273 
668	 0.152555856565126 
669	 0.154952206086464 
670	 0.157443880413847 
671	 0.159977428103743 
672	 0.162546344552609 
673	 0.165176722619225 
674	 0.167927652664385 
675	 0.170711803726639 
676	 0.173515653517324 
677	 0.176427814414686 
678	 0.179374661683042 
679	 0.182349305561969 
680	 0.18537461814062 
681	 0.188509155853276 
682	 0.191711336747166 
683	 0.194958317732935 
684	 0.198241091683775 
685	 0.201538456456511 
686	 0.204918170235074 
687	 0.208400450748829 
688	 0.211930078519102 
689	 0.215432798177362 
690	 0.219005685125074 
691	 0.222719874242766 
692	 0.226371093336203 
693	 0.23008683736919 
694	 0.233884326883545 
695	 0.237700044467403 
696	 0.2415349793025 
697	 0.245345568625719 
698	 0.24915932692883 
699	 0.253122593109781 
700	 0.257088389539396 
701	 0.261052474087797 
702	 0.265036937156341 
703	 0.26898844542832 
704	 0.272971723727597 
705	 0.276998311019916 
706	 0.281032922575608 
707	 0.285005862364558 
708	 0.288975022048159 
709	 0.292954050639308 
710	 0.296844700117102 
711	 0.300822567146725 
712	 0.304816110201208 
713	 0.308713453909024 
714	 0.312581524111428 
715	 0.316390790885884 
716	 0.320137588289979 
717	 0.323844733488168 
718	 0.327647324132483 
719	 0.331392424220724 
720	 0.33499344388585 
721	 0.338538135520439 
722	 0.342053475235705 
723	 0.345546352319897 
724	 0.349000935572907 
725	 0.352377548231652 
726	 0.355673783601997 
727	 0.358900664651882 
728	 0.362076597677324 
729	 0.365191550197951 
730	 0.368225589217054 
731	 0.371168900621883 
732	 0.374027701358041 
733	 0.376886798999899 
734	 0.379694539414639 
735	 0.382398616014256 
736	 0.385116776876826 
737	 0.387660671056167 
738	 0.390062526903556 
739	 0.392489610743072 
740	 0.394884012948059 
741	 0.39716287642529 
742	 0.399330127155242 
743	 0.401527420309489 
744	 0.403678717322687 
745	 0.405722811368878 
746	 0.407635534313593 
747	 0.409501224780135 
748	 0.411319138537917 
749	 0.413121347184982 
750	 0.414934497072722 
751	 0.416619562313411 
752	 0.418187050332552 
753	 0.419729379304264 
754	 0.421412979785557 
755	 0.423029251477717 
756	 0.424518640178591 
757	 0.425899612665101 
758	 0.427290177006059 
759	 0.428615135479124 
760	 0.429894421740796 
761	 0.431184097719364 
762	 0.432475679785382 
763	 0.433686144306988 
764	 0.434810857574584 
765	 0.435938690501066 
766	 0.437099126475384 
767	 0.438218143627907 
768	 0.439238978200609 
769	 0.440179590317103 
770	 0.441181215374554 
771	 0.442156782526346 
772	 0.442995171994854 
773	 0.443921472878917 
774	 0.444894132488037 
775	 0.445826570966512 
776	 0.446624470092909 
777	 0.447419910452266 
778	 0.448253797769281 
779	 0.44909287229383 
780	 0.449801809477933 
781	 0.450571438702455 
782	 0.451383061476245 
783	 0.452168223013653 
784	 0.452920863529186 
785	 0.453613568939662 
786	 0.454261147894146 
787	 0.454901207312575 
788	 0.455540771569238 
789	 0.456159944646965 
790	 0.456768786075021 
791	 0.457413893089236 
792	 0.458057813446583 
793	 0.458676512321622 
794	 0.459262452810576 
795	 0.459837218814732 
796	 0.460409965927711 
797	 0.461006689001988 
798	 0.46163841898884 
799	 0.46222987442918 
800	 0.462797172352083 
801	 0.46334080407733 
802	 0.463855623331589 
803	 0.464425753391747 
804	 0.46504311127242 
805	 0.465652800015112 
806	 0.46615569634015 
807	 0.466695266801266 
808	 0.467254147295831 
809	 0.467787752688288 
810	 0.468297777779276 
811	 0.468814824051078 
812	 0.469369072815702 
813	 0.469964891563413 
814	 0.470486529496374 
815	 0.470954493436497 
816	 0.471405288799081 
817	 0.471876842880673 
818	 0.472350726302745 
819	 0.472844222033628 
820	 0.473357014630355 
821	 0.473852732542735 
822	 0.474408353871464 
823	 0.474945150402181 
824	 0.475389636050806 
825	 0.475805840288218 
826	 0.476302395541518 
827	 0.476862320302628 
828	 0.477397902120024 
829	 0.477834160816485 
830	 0.478246302627686 
831	 0.478660371620448 
832	 0.479050840098752 
833	 0.479411276916708 
834	 0.47986528069121 
835	 0.480402740951176 
836	 0.480789502987689 
837	 0.481265771160411 
838	 0.481737270198077 
839	 0.482121164329065 
840	 0.482612675052618 
841	 0.48303812923124 
842	 0.483426801902424 
843	 0.483869226109434 
844	 0.484307834267732 
845	 0.484809903105383 
846	 0.485307362519725 
847	 0.485663326167734 
848	 0.486075761699428 
849	 0.486480519881438 
850	 0.486864733667551 
851	 0.487311952463889 
852	 0.487772465886149 
853	 0.488214634395644 
854	 0.488634696377185 
855	 0.489080243591922 
856	 0.489505595502147 
857	 0.489912275917863 
858	 0.490316239217252 
859	 0.490724475006143 
860	 0.491174823747992 
861	 0.491619051538573 
862	 0.491983782738295 
863	 0.492339330907983 
864	 0.492659613412221 
865	 0.493013535766993 
866	 0.493516438785523 
867	 0.493852057986009 
868	 0.494168537591428 
869	 0.494547226840159 
870	 0.49489001998626 
871	 0.495326247224215 
872	 0.495713214161002 
873	 0.495976237450863 
874	 0.496317918463516 
875	 0.496639430921572 
876	 0.497005267521876 
877	 0.497451712246961 
878	 0.497753067628531 
879	 0.49801043484887 
880	 0.498255968900164 
881	 0.498494006653823 
882	 0.498769525618909 
883	 0.499068396407749 
884	 0.499373836711104 
885	 0.499669124133569 
886	 0.499931198685112 
887	 0.500159319712937 
888	 0.500360969636583 
889	 0.500553100186128 
890	 0.500850110066677 
891	 0.501120365203824 
892	 0.501277068310851 
893	 0.501387959021372 
894	 0.50157612658043 
895	 0.501847058087808 
896	 0.502114202822806 
897	 0.502140282320409 
898	 0.502297643840192 
899	 0.502570776446482 
900	 0.502812447288341 
901	 0.502940019995921 
902	 0.503154264490482 
903	 0.503422050081607 
904	 0.503600801886284 
905	 0.503668087345582 
906	 0.503831582547113 
907	 0.504102280085169 
908	 0.504349729400791 
909	 0.50462910924448 
910	 0.504942634044238 
911	 0.505254849959175 
912	 0.505510686775673 
913	 0.505816508350739 
914	 0.506087116828212 
915	 0.506301254973219 
916	 0.506560577604407 
917	 0.506838978940804 
918	 0.507170695478329 
919	 0.507548363412473 
920	 0.507874815948166 
921	 0.508201933553892 
922	 0.508531099701277 
923	 0.508866396157095 
924	 0.509251110701264 
925	 0.509618140233421 
926	 0.509956690057127 
927	 0.51027855234824 
928	 0.510582396810189 
929	 0.511034493512975 
930	 0.51154180097922 
931	 0.511936266171746 
932	 0.512246187267915 
933	 0.51269354865224 
934	 0.513232543436596 
935	 0.513679957349169 
936	 0.51401709820691 
937	 0.514406801925063 
938	 0.514849981890285 
939	 0.515252831975761 
940	 0.515773815609255 
941	 0.516259507182623 
942	 0.51664033361787 
943	 0.516953603588768 
944	 0.51723988025017 
945	 0.517570601746077 
946	 0.51794393973383 
947	 0.518280458275342 
948	 0.518555921174631 
949	 0.518778114208175 
950	 0.519015234610973 
951	 0.51937277246883 
952	 0.519510534186331 
953	 0.519697119032101 
954	 0.520051630583897 
955	 0.520315388972086 
956	 0.520479029974975 
957	 0.52057886415634 
958	 0.520691881691173 
959	 0.520923733126076 
960	 0.521095447942187 
961	 0.521247625809147 
962	 0.521398117117686 
963	 0.521416285148265 
964	 0.521513400877538 
965	 0.521688210677467 
966	 0.521876032133649 
967	 0.522013868804196 
968	 0.52215083249388 
969	 0.522333491718022 
970	 0.522579899669195 
971	 0.522853765019253 
972	 0.522937582127685 
973	 0.523013883635096 
974	 0.523256993379495 
975	 0.523448481146605 
976	 0.523629618882566 
977	 0.523893214672949 
978	 0.524226372095094 
979	 0.524232292436706 
980	 0.524419480117698 
981	 0.524710305468207 
982	 0.524898778636726 
983	 0.525069043353961 
984	 0.525195101809072 
985	 0.525390153945356 
986	 0.525704553428352 
987	 0.525826880196866 
988	 0.526078180255183 
989	 0.526341908757423 
990	 0.52643661668652 
991	 0.526515072905752 
992	 0.526716122131815 
993	 0.527001503662247 
994	 0.527268871681309 
995	 0.52748509808503 
996	 0.527620197886189 
997	 0.527683111901602 
998	 0.527715057048471 
999	 0.527772947770553 
1000	 0.528051590705933 
1001	 0.524008718760389 
1002	 0.524174012277983 
1003	 0.524340346770636 
1004	 0.524479778855118 
1005	 0.524627322503989 
1006	 0.524744574430116 
1007	 0.524800257745671 
1008	 0.524918634501174 
1009	 0.525059986490713 
1010	 0.525176073437874 
1011	 0.525316207545834 
1012	 0.525437895926305 
1013	 0.525502617015055 
1014	 0.525628866083588 
1015	 0.525799409679196 
1016	 0.525946514247891 
1017	 0.526098579409795 
1018	 0.526262340804336 
1019	 0.52641821862518 
1020	 0.526561359933007 
1021	 0.526713392861418 
1022	 0.526854341134632 
1023	 0.527051236074419 
1024	 0.527276948677293 
1025	 0.527485920006555 
1026	 0.527742790455094 
1027	 0.527965819853542 
1028	 0.52815224150498 
1029	 0.528349561364408 
1030	 0.528581633181337 
1031	 0.528833035322721 
1032	 0.529019080698699 
1033	 0.529223302727043 
1034	 0.529481202041127 
1035	 0.52968488305605 
1036	 0.529902447651486 
1037	 0.530155686357562 
1038	 0.530397114454393 
1039	 0.530612703263112 
1040	 0.530844094136944 
1041	 0.531094214658595 
1042	 0.53134001732799 
1043	 0.531582005326329 
1044	 0.531816293926662 
1045	 0.532044827341163 
1046	 0.532313007724463 
1047	 0.53255984836216 
1048	 0.532793522650849 
1049	 0.533054476090615 
1050	 0.533273826032838 
1051	 0.53346581844425 
1052	 0.533660615046874 
1053	 0.533870871545648 
1054	 0.534090397066939 
1055	 0.534298477890201 
1056	 0.534524961311778 
1057	 0.534724889889478 
1058	 0.534896711107558 
1059	 0.535069941465093 
1060	 0.535254659738783 
1061	 0.535423976225654 
1062	 0.535594093835648 
1063	 0.535739937154842 
1064	 0.535882210933408 
1065	 0.536069007646738 
1066	 0.536231894446905 
1067	 0.536363706913098 
1068	 0.536494354286079 
1069	 0.536603332820517 
1070	 0.536707227154632 
1071	 0.536799033948334 
1072	 0.536894510648517 
1073	 0.53698178998078 
1074	 0.537073771784121 
1075	 0.537174494505716 
1076	 0.537304318653887 
1077	 0.537439523591688 
1078	 0.53753326351286 
1079	 0.537635132092083 
1080	 0.537746554651155 
1081	 0.537830936297556 
1082	 0.537935723747739 
1083	 0.538057991383953 
1084	 0.538141989549984 
1085	 0.538222666146414 
1086	 0.538295877406809 
1087	 0.538365136107114 
1088	 0.538388544383065 
1089	 0.538440217736365 
1090	 0.538526370567986 
1091	 0.538592775589071 
1092	 0.538662134664906 
1093	 0.538749839532874 
1094	 0.53882562696797 
1095	 0.538906770654648 
1096	 0.53900886620797 
1097	 0.539084261899463 
1098	 0.539127896549514 
1099	 0.539189701140811 
1100	 0.539249304297757 
1101	 0.539274024234534 
1102	 0.539307324428814 
1103	 0.539346187070725 
1104	 0.539381209557329 
1105	 0.539400679889839 
1106	 0.539433246373883 
1107	 0.539461932329043 
1108	 0.539479796671603 
1109	 0.539508710143986 
1110	 0.539543882240811 
1111	 0.53957964934281 
1112	 0.53961288629926 
1113	 0.539613360633813 
1114	 0.539598016683743 
1115	 0.539579305421646 
1116	 0.539554403354667 
1117	 0.539540936266414 
1118	 0.539520332847468 
1119	 0.539527885196142 
1120	 0.539490721759269 
1121	 0.539444284459225 
1122	 0.539339904623539 
1123	 0.539227326582234 
1124	 0.539077335206379 
1125	 0.538877272211708 
1126	 0.538696275190629 
1127	 0.538474637840131 
1128	 0.538178945055441 
1129	 0.537871918660271 
1130	 0.537507981047961 
1131	 0.5370891559426 
1132	 0.536671288592849 
1133	 0.536227929108268 
1134	 0.53576106912081 
1135	 0.535240701715327 
1136	 0.534680320251822 
1137	 0.534092822384932 
1138	 0.533452390018694 
1139	 0.532783265292976 
1140	 0.532076564810722 
1141	 0.531387360835964 
1142	 0.530653410575073 
1143	 0.529929032552741 
1144	 0.529194800594285 
1145	 0.528392883568915 
1146	 0.527609354419516 
1147	 0.526823559546348 
1148	 0.526016043957776 
1149	 0.525242941693938 
1150	 0.52443561653685 
1151	 0.523625955715712 
1152	 0.522802997726362 
1153	 0.52198686778771 
1154	 0.521135100063782 
1155	 0.520268157296023 
1156	 0.51934867356962 
1157	 0.5184234606639 
1158	 0.51744726056407 
1159	 0.51640208281706 
1160	 0.515371100409242 
1161	 0.514296881270793 
1162	 0.51310057496141 
1163	 0.511967759825759 
1164	 0.510795980645464 
1165	 0.509577086329576 
1166	 0.508437967302485 
1167	 0.507240202155672 
1168	 0.506050979681844 
1169	 0.504845553899944 
1170	 0.503643642832446 
1171	 0.502408009580827 
1172	 0.501148841086114 
1173	 0.499860131712602 
1174	 0.498542154787975 
1175	 0.497260289812185 
1176	 0.495954356297082 
1177	 0.494676302185918 
1178	 0.493446118780022 
1179	 0.492146229393073 
1180	 0.490919709846832 
1181	 0.489717148353662 
1182	 0.488519403437784 
1183	 0.487470879388578 
1184	 0.486441698252877 
1185	 0.485461271335322 
1186	 0.484614777174489 
1187	 0.483860160884533 
1188	 0.483203583357528 
1189	 0.482662983478295 
1190	 0.482194618045444 
1191	 0.481834341751259 
1192	 0.481527842966593 
1193	 0.481303385814053 
1194	 0.481121463926261 
1195	 0.481017522567962 
1196	 0.480932397883309 
1197	 0.480878442313988 
1198	 0.480888011121081 
1199	 0.480935907923517 
1200	 0.481012857933259 
1201	 0.481139548334653 
1202	 0.481308054626889 
1203	 0.48150178741905 
1204	 0.481759287461548 
1205	 0.482087493365361 
1206	 0.482450947599182 
1207	 0.482947054019479 
1208	 0.483513445594674 
1209	 0.484202312747533 
1210	 0.484992574994109 
1211	 0.485907698860219 
1212	 0.486933252718567 
1213	 0.48809047628947 
1214	 0.489377976642343 
1215	 0.490780981604 
1216	 0.492349471533552 
1217	 0.493939477523838 
1218	 0.495637755341555 
1219	 0.497392249352577 
1220	 0.499149716699184 
1221	 0.501021002826178 
1222	 0.502834441268688 
1223	 0.504659048957411 
1224	 0.506420777856255 
1225	 0.508158570020198 
1226	 0.509793398292192 
1227	 0.511393360621923 
1228	 0.512894897512687 
1229	 0.514308845918348 
1230	 0.515652305569759 
1231	 0.516923087184593 
1232	 0.518125258554588 
1233	 0.519231765791194 
1234	 0.52028161170031 
1235	 0.521267795220637 
1236	 0.52219618059966 
1237	 0.523052714843522 
1238	 0.523862631905559 
1239	 0.524610666412082 
1240	 0.525306953197549 
1241	 0.525989404474274 
1242	 0.526606747408425 
1243	 0.52720994029208 
1244	 0.527788112755059 
1245	 0.528337687841622 
1246	 0.52884424863644 
1247	 0.529349299609723 
1248	 0.529836624187426 
1249	 0.530311267763182 
1250	 0.530777374859947 
1251	 0.531206127524859 
1252	 0.531610390813851 
1253	 0.53200279443482 
1254	 0.532370506668284 
1255	 0.532719539980065 
1256	 0.533048982549948 
1257	 0.533371019692273 
1258	 0.533664107621347 
1259	 0.533957627043528 
1260	 0.534256661710573 
1261	 0.534538349225034 
1262	 0.53480546432183 
1263	 0.53506918158008 
1264	 0.535302172502421 
1265	 0.53551173873414 
1266	 0.535720760819249 
1267	 0.535902565769933 
1268	 0.536101158153501 
1269	 0.536297298897769 
1270	 0.536505421057405 
1271	 0.536726026141748 
1272	 0.536930449262632 
1273	 0.537143153225229 
1274	 0.537338075971288 
1275	 0.537520113928614 
1276	 0.537687930088106 
1277	 0.537842290164936 
1278	 0.537992323795716 
1279	 0.538116397551142 
1280	 0.538254482743919 
1281	 0.538405417227945 
1282	 0.538540397488906 
1283	 0.538681873568443 
1284	 0.538801606258826 
1285	 0.538905816466854 
1286	 0.538988034686704 
1287	 0.539078026997358 
1288	 0.53915828817331 
1289	 0.539235374045509 
1290	 0.539323650066274 
1291	 0.539372156278323 
1292	 0.539391313114959 
1293	 0.53942196578869 
1294	 0.539433619178466 
1295	 0.539452408669688 
1296	 0.53948129793974 
1297	 0.539499002687748 
1298	 0.539508314144071 
1299	 0.539514258720818 
1300	 0.53952468141908 
1301	 0.539518038523499 
1302	 0.539495836653705 
1303	 0.539473949984913 
1304	 0.53945087777209 
1305	 0.539411950567682 
1306	 0.539371355145504 
1307	 0.539313747601788 
1308	 0.539232847393685 
1309	 0.539144885561349 
1310	 0.539066255816355 
1311	 0.538985320515256 
1312	 0.538898089864347 
1313	 0.538811200440295 
1314	 0.538726076848658 
1315	 0.538631389970138 
1316	 0.538545549596486 
1317	 0.538476583909519 
1318	 0.538385797400298 
1319	 0.538285886449802 
1320	 0.538184010031842 
1321	 0.538080850075595 
1322	 0.537961014782753 
1323	 0.537848033738625 
1324	 0.537697811314517 
1325	 0.537517875280096 
1326	 0.537331165925803 
1327	 0.537143512829442 
1328	 0.536909392550805 
1329	 0.536647237894269 
1330	 0.536369039972823 
1331	 0.53606530952833 
1332	 0.535726141932106 
1333	 0.535378934211419 
1334	 0.534985165231367 
1335	 0.534569477388668 
1336	 0.534120834455294 
1337	 0.533623156541459 
1338	 0.533105118905486 
1339	 0.532529982267392 
1340	 0.531912657896683 
1341	 0.5312237112117 
1342	 0.530492985489037 
1343	 0.529691682458638 
1344	 0.528819904523533 
1345	 0.527890225124198 
1346	 0.526900997101583 
1347	 0.525871623498399 
1348	 0.52477613172688 
1349	 0.523645995200814 
1350	 0.522441344907749 
1351	 0.521262520826736 
1352	 0.520037662815309 
1353	 0.518840295915617 
1354	 0.517650733515316 
1355	 0.516486379983186 
1356	 0.515332911605918 
1357	 0.514186565435433 
1358	 0.513055793927563 
1359	 0.511941333823127 
1360	 0.510858794121808 
1361	 0.509750776429973 
1362	 0.508622510548624 
1363	 0.507550042520031 
1364	 0.506383174345779 
1365	 0.505193558710008 
1366	 0.503914875478869 
1367	 0.502573819120609 
1368	 0.501203517232316 
1369	 0.499774934492469 
1370	 0.498300516711442 
1371	 0.496777118310058 
1372	 0.495261271517633 
1373	 0.493675109110982 
1374	 0.492132591723713 
1375	 0.490575323781504 
1376	 0.489073155643033 
1377	 0.487572124912843 
1378	 0.486111734294167 
1379	 0.484708820001392 
1380	 0.483314102443088 
1381	 0.481946445859888 
1382	 0.480574945659272 
1383	 0.479216434906776 
1384	 0.477873816994021 
1385	 0.476523837905422 
1386	 0.475216444669062 
1387	 0.473911321235867 
1388	 0.47269365840881 
1389	 0.471527775638978 
1390	 0.470408528158632 
1391	 0.469398698283824 
1392	 0.46835910587333 
1393	 0.467391441633166 
1394	 0.466380878895843 
1395	 0.465292538265248 
1396	 0.464216251340135 
1397	 0.462972629399465 
1398	 0.461674945082967 
1399	 0.460147107081826 
1400	 0.458486537974574 
1401	 0.456645637984724 
1402	 0.454623022099877 
1403	 0.452430610747682 
1404	 0.450059213199742 
1405	 0.447602974861695 
1406	 0.444925953830252 
1407	 0.44227123231672 
1408	 0.439439493605571 
1409	 0.436789453489083 
1410	 0.434062595564907 
1411	 0.431580628808307 
1412	 0.429205652568412 
1413	 0.427071100425926 
1414	 0.425130495189689 
1415	 0.423329955683402 
1416	 0.421778490502031 
1417	 0.420270382184376 
1418	 0.418919836272109 
1419	 0.417575339517593 
1420	 0.416311034501745 
1421	 0.41508608387304 
1422	 0.413896370522922 
1423	 0.412742484138685 
1424	 0.411648679098046 
1425	 0.410556887230171 
1426	 0.40955498437796 
1427	 0.408601683133652 
1428	 0.407697696801837 
1429	 0.406924901963887 
1430	 0.406209267282615 
1431	 0.405550074782356 
1432	 0.404980179908931 
1433	 0.404509647892742 
1434	 0.404090903498264 
1435	 0.403731410773083 
1436	 0.403452328812681 
1437	 0.403251479964685 
1438	 0.403121252509191 
1439	 0.403062845603546 
1440	 0.403070730727983 
1441	 0.403172514154752 
1442	 0.403294067399952 
1443	 0.403467248668447 
1444	 0.403688636683353 
1445	 0.403957175686066 
1446	 0.404260645177653 
1447	 0.404621277684128 
1448	 0.405006470666635 
1449	 0.405432909396171 
1450	 0.405874536287677 
1451	 0.406352495569618 
1452	 0.406843992952462 
1453	 0.407366130362006 
1454	 0.407878242872867 
1455	 0.408402863584094 
1456	 0.408933683724492 
1457	 0.409467125631247 
1458	 0.41000099542603 
1459	 0.410538759789339 
1460	 0.411089672265309 
1461	 0.411627397133845 
1462	 0.412193003185865 
1463	 0.412778778957055 
1464	 0.413386789956672 
1465	 0.4140105840218 
1466	 0.414675475676973 
1467	 0.415311716272228 
1468	 0.415976538088129 
1469	 0.416669617722121 
1470	 0.417309935562707 
1471	 0.417972359358671 
1472	 0.418653848889598 
1473	 0.419315856004164 
1474	 0.419970568478438 
1475	 0.420604593946321 
1476	 0.421240768185407 
1477	 0.42184031777071 
1478	 0.422402425361821 
1479	 0.422962661620905 
1480	 0.423505372584242 
1481	 0.424044062694065 
1482	 0.424579202592052 
1483	 0.425088025966192 
1484	 0.425583242529218 
1485	 0.426063009152215 
1486	 0.426517117876855 
1487	 0.426963869140349 
1488	 0.4273912328079 
1489	 0.427827228175711 
1490	 0.42824372120365 
1491	 0.428684248442548 
1492	 0.429142220965783 
1493	 0.429597142863593 
1494	 0.430061770886679 
1495	 0.430519102425394 
1496	 0.430968618892695 
1497	 0.431430792446872 
1498	 0.431898122516259 
1499	 0.432367947934609 
1500	 0.432845351351403 
1501	 0.433325250445693 
1502	 0.433807411656161 
1503	 0.434287741972234 
1504	 0.434772751794411 
1505	 0.435256740285877 
1506	 0.435749231189755 
1507	 0.436223415952487 
1508	 0.436697196635202 
1509	 0.437154331293819 
1510	 0.437588626367124 
1511	 0.43801801434293 
1512	 0.438438926814256 
1513	 0.438851112218584 
1514	 0.439260350960494 
1515	 0.43965114899129 
1516	 0.440020539956531 
1517	 0.440391176385695 
1518	 0.440750188450757 
1519	 0.441102542621528 
1520	 0.441459314419763 
1521	 0.441801643639621 
1522	 0.442116517017588 
1523	 0.442437699002682 
1524	 0.442751174662244 
1525	 0.443053848318801 
1526	 0.443360348291526 
1527	 0.443666696530466 
1528	 0.443969976575121 
1529	 0.444272426263528 
1530	 0.44456394346489 
1531	 0.444848300443721 
1532	 0.445140177665494 
1533	 0.445425458519452 
1534	 0.445717698275464 
1535	 0.446025136821956 
1536	 0.446307475780712 
1537	 0.446581230926851 
1538	 0.446847426577261 
1539	 0.447104099766999 
1540	 0.44734908308621 
1541	 0.447586010292978 
1542	 0.447812316131933 
1543	 0.448028485148989 
1544	 0.448227510293301 
1545	 0.448424443825259 
1546	 0.448585497300722 
1547	 0.448715185257043 
1548	 0.448842149749087 
1549	 0.448943693375439 
1550	 0.44904763882581 
1551	 0.449154400858306 
1552	 0.449234338075182 
1553	 0.449292399390137 
1554	 0.449353757216024 
1555	 0.449391230912381 
1556	 0.449448594411195 
1557	 0.449509562200445 
1558	 0.449582128894599 
1559	 0.449656983685087 
1560	 0.449752029746258 
1561	 0.449858223986144 
1562	 0.449983932406158 
1563	 0.450129349216927 
1564	 0.450285368128445 
1565	 0.450459901064451 
1566	 0.450641482446417 
1567	 0.450831517524233 
1568	 0.451037774345955 
1569	 0.451255643787814 
1570	 0.451488917743405 
1571	 0.451753030405128 
1572	 0.451998669633064 
1573	 0.452252983412345 
1574	 0.452495438988692 
1575	 0.45273170612056 
1576	 0.452954079169893 
1577	 0.453165707795304 
1578	 0.453375118171194 
1579	 0.45356523033507 
1580	 0.453764933066574 
1581	 0.45397294934716 
1582	 0.454171775860304 
1583	 0.454368114165585 
1584	 0.454560368724764 
1585	 0.454738764337605 
1586	 0.454930767724144 
1587	 0.455131721020609 
1588	 0.455324260885241 
1589	 0.455518327144895 
1590	 0.455713243292816 
1591	 0.455904715926289 
1592	 0.456093692586776 
1593	 0.456284275423511 
1594	 0.456475319786858 
1595	 0.456671088590753 
1596	 0.456848043353067 
1597	 0.457015185031117 
1598	 0.457184626636127 
1599	 0.457345179298182 
1600	 0.457496081860649 
1601	 0.457664240082307 
1602	 0.457796107155609 
1603	 0.457893749502883 
1604	 0.457989182785692 
1605	 0.458065759526909 
1606	 0.458135048340595 
1607	 0.458200192125824 
1608	 0.458250309540606 
1609	 0.458303533145512 
1610	 0.458313323933391 
1611	 0.45828494896559 
1612	 0.45825587961022 
1613	 0.458196522528769 
1614	 0.458131511277979 
1615	 0.4580717369854 
1616	 0.457986469936139 
1617	 0.457894259843683 
1618	 0.457758795759951 
1619	 0.457584344691042 
1620	 0.457406817580414 
1621	 0.457190067652714 
1622	 0.456972669651499 
1623	 0.456766141356118 
1624	 0.456525242630281 
1625	 0.456255072528975 
1626	 0.455979247712852 
1627	 0.455665977140928 
1628	 0.455378863439588 
1629	 0.455089994153631 
1630	 0.454812400903807 
1631	 0.454550388774349 
1632	 0.454291739771481 
1633	 0.454041233762206 
1634	 0.453795002965651 
1635	 0.453548468215429 
1636	 0.453323359274905 
1637	 0.453124828068648 
1638	 0.452905891090684 
1639	 0.452708729404368 
1640	 0.452476466782794 
1641	 0.452226133742493 
1642	 0.451947415846128 
1643	 0.451658781651603 
1644	 0.451322684420717 
1645	 0.450957474406179 
1646	 0.450539838425902 
1647	 0.450085911037947 
1648	 0.449568979411202 
1649	 0.449017721292003 
1650	 0.44837026277322 
1651	 0.447647611609822 
1652	 0.446858042667945 
1653	 0.446011395442039 
1654	 0.445050435908494 
1655	 0.44400821039988 
1656	 0.442853410664242 
1657	 0.441593237069041 
1658	 0.440201961794337 
1659	 0.438721372215945 
1660	 0.437100585919884 
1661	 0.435368603272684 
1662	 0.433445181834261 
1663	 0.43137219698544 
1664	 0.429098034978814 
1665	 0.426659468909356 
1666	 0.423964977513782 
1667	 0.421063329460981 
1668	 0.417983711084057 
1669	 0.414661035287099 
1670	 0.411169241614149 
1671	 0.40743687301529 
1672	 0.403602609318273 
1673	 0.399591802701447 
1674	 0.395449162512321 
1675	 0.391147620163156 
1676	 0.386881861238352 
1677	 0.382466751447573 
1678	 0.378094085926329 
1679	 0.373682806897926 
1680	 0.36931909035894 
1681	 0.364936092983009 
1682	 0.360597538995102 
1683	 0.356333287053214 
1684	 0.352150490290318 
1685	 0.34797070367218 
1686	 0.34388849905525 
1687	 0.339854680894104 
1688	 0.335935368247855 
1689	 0.332072829963385 
1690	 0.328347379594345 
1691	 0.324775111926122 
1692	 0.321374188723354 
1693	 0.318125576108048 
1694	 0.314944188064568 
1695	 0.311895606067285 
1696	 0.308902563080797 
1697	 0.305990593221101 
1698	 0.303116795277512 
1699	 0.300362546481289 
1700	 0.297677713868242 
1701	 0.29499982773592 
1702	 0.292471656039246 
1703	 0.290042095328925 
1704	 0.287725920469759 
1705	 0.285488016072203 
1706	 0.283380288385011 
1707	 0.281537795207045 
1708	 0.279802776346097 
1709	 0.278202618023945 
1710	 0.276753369238988 
1711	 0.275312788697501 
1712	 0.27396159132747 
1713	 0.272659523645774 
1714	 0.271378443698722 
1715	 0.270235436285004 
1716	 0.269119787511732 
1717	 0.268056466124574 
1718	 0.267081581712444 
1719	 0.266143312630592 
1720	 0.265333634108741 
1721	 0.264657601355003 
1722	 0.264120740589793 
1723	 0.263780431229266 
1724	 0.263604328311549 
1725	 0.263655920018036 
1726	 0.263995942513622 
1727	 0.264583946472195 
1728	 0.265406862568724 
1729	 0.266498478722779 
1730	 0.267840749920512 
1731	 0.269302400496592 
1732	 0.270975339581383 
1733	 0.272731775069773 
1734	 0.274512003266234 
1735	 0.276370382269062 
1736	 0.278116318957262 
1737	 0.279760485911585 
1738	 0.281226523364548 
1739	 0.28248625593008 
1740	 0.283603407497977 
1741	 0.284516090312493 
1742	 0.28518144360474 
1743	 0.285766370260614 
1744	 0.286138144641617 
1745	 0.286495573023021 
1746	 0.286729924169774 
1747	 0.286974199083801 
1748	 0.287136090865468 
1749	 0.287367100423709 
1750	 0.287580560664723 
1751	 0.287890037076671 
1752	 0.288229967249446 
1753	 0.288703335617369 
1754	 0.289242346371048 
1755	 0.289927460777767 
1756	 0.290703869112206 
1757	 0.291647253638893 
1758	 0.292808840581352 
1759	 0.294065408801556 
1760	 0.295566867137253 
1761	 0.297298006422166 
1762	 0.299085383898573 
1763	 0.301146787835478 
1764	 0.303329587579685 
1765	 0.305601278974158 
1766	 0.308140588650072 
1767	 0.310650246572224 
1768	 0.313250587544523 
1769	 0.31587147002798 
1770	 0.318242296002056 
1771	 0.320637667290645 
1772	 0.322930042709057 
1773	 0.325079294483523 
1774	 0.327234840833749 
1775	 0.329155438296357 
1776	 0.33096395966118 
1777	 0.332661760526786 
1778	 0.334123488688625 
1779	 0.335536774041162 
1780	 0.336814345441241 
1781	 0.337920602628034 
1782	 0.338982069986056 
1783	 0.339913770313884 
1784	 0.340749526913295 
1785	 0.341453401238867 
1786	 0.342089547656404 
1787	 0.34262160620988 
1788	 0.343125764330309 
1789	 0.343565101584103 
1790	 0.343988083519979 
1791	 0.344370207823178 
1792	 0.344724374623873 
1793	 0.34501788652841 
1794	 0.345295665929125 
1795	 0.34558120591713 
1796	 0.34588277411815 
1797	 0.346196516074387 
1798	 0.346477212421856 
1799	 0.346765849510284 
1800	 0.347065947144736 
1801	 0.351146828430952 
1802	 0.351417211216209 
1803	 0.351706859735619 
1804	 0.351993825514773 
1805	 0.352290205790811 
1806	 0.352563105957478 
1807	 0.352838246483766 
1808	 0.353107215253995 
1809	 0.353350660102669 
1810	 0.353609548218185 
1811	 0.353876893743294 
1812	 0.35415130674748 
1813	 0.354412404798285 
1814	 0.354705085922568 
1815	 0.355012942006002 
1816	 0.355319209229195 
1817	 0.355647692084691 
1818	 0.355976164757961 
1819	 0.356342583480315 
1820	 0.356751606789717 
1821	 0.357148794877369 
1822	 0.3575657828329 
1823	 0.357994199264259 
1824	 0.358382050347326 
1825	 0.358785477693687 
1826	 0.35920169136788 
1827	 0.359636004254812 
1828	 0.360038725004087 
1829	 0.360424100752233 
1830	 0.360836946726555 
1831	 0.361240834633539 
1832	 0.361666706012616 
1833	 0.362095142317024 
1834	 0.362542282174548 
1835	 0.36298671133037 
1836	 0.363436509315589 
1837	 0.363898645549926 
1838	 0.364386497669771 
1839	 0.364863007053978 
1840	 0.365337540675219 
1841	 0.365813695121627 
1842	 0.36629340160692 
1843	 0.366783177488581 
1844	 0.367262680933368 
1845	 0.367718789503591 
1846	 0.368155578362186 
1847	 0.368567982152221 
1848	 0.368959428081287 
1849	 0.369351927706984 
1850	 0.369677062850936 
1851	 0.369960694218475 
1852	 0.37022364391982 
1853	 0.370446122295492 
1854	 0.370606529944953 
1855	 0.37075123964781 
1856	 0.370866768662573 
1857	 0.370906232567289 
1858	 0.370919972665424 
1859	 0.370903549023796 
1860	 0.370865686365925 
1861	 0.37075383901798 
1862	 0.37060942357966 
1863	 0.370400380357876 
1864	 0.370111681400067 
1865	 0.369792537790905 
1866	 0.3694050066635 
1867	 0.368932679775435 
1868	 0.368431175049603 
1869	 0.367816774474524 
1870	 0.367119483498249 
1871	 0.36636516544523 
1872	 0.365527226192766 
1873	 0.364595680362687 
1874	 0.363601002522753 
1875	 0.36254179692382 
1876	 0.361300793724175 
1877	 0.360010338998688 
1878	 0.358545014624256 
1879	 0.356879974494903 
1880	 0.355169647591283 
1881	 0.353232742926275 
1882	 0.351091981193125 
1883	 0.348811400883223 
1884	 0.346339611893805 
1885	 0.343511729619312 
1886	 0.340560009465332 
1887	 0.337330180040348 
1888	 0.333809346262317 
1889	 0.330388278938783 
1890	 0.326708425246119 
1891	 0.322983154139236 
1892	 0.319280301015232 
1893	 0.315453629837532 
1894	 0.311423837640642 
1895	 0.307593036411426 
1896	 0.303715902499197 
1897	 0.299844657185867 
1898	 0.296344396349292 
1899	 0.292819160208456 
1900	 0.289430712803652 
1901	 0.286280884728328 
1902	 0.283021022865344 
1903	 0.279981744637638 
1904	 0.277086823593517 
1905	 0.274297150065025 
1906	 0.271628607349087 
1907	 0.269317947504181 
1908	 0.26704898498382 
1909	 0.264915670487731 
1910	 0.262968571062743 
1911	 0.260994439712489 
1912	 0.259189876808706 
1913	 0.257485732501425 
1914	 0.255838974468236 
1915	 0.254347325808556 
1916	 0.253030326411071 
1917	 0.251731655432901 
1918	 0.250519036427637 
1919	 0.249404819835266 
1920	 0.248264782914297 
1921	 0.247243740426672 
1922	 0.24629084671188 
1923	 0.24537062844911 
1924	 0.244606889806672 
1925	 0.243881247313004 
1926	 0.243221961091004 
1927	 0.242650766907247 
1928	 0.242134899301874 
1929	 0.241669409425771 
1930	 0.241273604200972 
1931	 0.240949693960225 
1932	 0.240669887255137 
1933	 0.240470394633758 
1934	 0.240344335511954 
1935	 0.240269713450702 
1936	 0.24027927368442 
1937	 0.240366633030918 
1938	 0.240533740934317 
1939	 0.240749889673067 
1940	 0.24104111070408 
1941	 0.241400195295186 
1942	 0.241788406948043 
1943	 0.242229672426333 
1944	 0.242717518696445 
1945	 0.243241675500981 
1946	 0.243820246176365 
1947	 0.244424320410757 
1948	 0.245069043463704 
1949	 0.245762585138458 
1950	 0.246444681644809 
1951	 0.24713971041825 
1952	 0.247843791953214 
1953	 0.24855294492006 
1954	 0.249264839009794 
1955	 0.25003807932224 
1956	 0.250814640738698 
1957	 0.251604978664987 
1958	 0.252387398221416 
1959	 0.253120612738673 
1960	 0.253875425542075 
1961	 0.254613579615225 
1962	 0.255325043203399 
1963	 0.256070484455851 
1964	 0.256830663608928 
1965	 0.257564846253245 
1966	 0.258305052628163 
1967	 0.259067050409843 
1968	 0.259748091682931 
1969	 0.260451789514711 
1970	 0.261164952528036 
1971	 0.261848010115029 
1972	 0.262583403710177 
1973	 0.263309474287061 
1974	 0.264023315092959 
1975	 0.264750733916084 
1976	 0.265451542424861 
1977	 0.266131002912878 
1978	 0.266807253376362 
1979	 0.26747102125754 
1980	 0.268119141464009 
1981	 0.268797234469518 
1982	 0.26941495327144 
1983	 0.270043168132948 
1984	 0.270681472312976 
1985	 0.271240736063794 
1986	 0.271820644380516 
1987	 0.27238066424382 
1988	 0.272919081803696 
1989	 0.273438777074282 
1990	 0.273958597845001 
1991	 0.274441266288207 
1992	 0.274901018513318 
1993	 0.275332097775629 
1994	 0.275719750872976 
1995	 0.276083757550525 
1996	 0.276397491467769 
1997	 0.276674492161391 
1998	 0.27694823648705 
1999	 0.277214294700131 
2000	 0.277426840446694 
2001	 0.277619027670519 
2002	 0.277766545572833 
2003	 0.277860685303353 
2004	 0.277936250891555 
2005	 0.277992430883822 
2006	 0.277999164700494 
2007	 0.277968917279035 
2008	 0.277901468687935 
2009	 0.277777537818001 
2010	 0.277611402773807 
2011	 0.27742053681406 
2012	 0.277167451950026 
2013	 0.276858610825648 
2014	 0.276510659715684 
2015	 0.276091596473718 
2016	 0.275609101235552 
2017	 0.275067346225036 
2018	 0.274443637747066 
2019	 0.273789659780726 
2020	 0.273102893404178 
2021	 0.2723217516227 
2022	 0.271511919137197 
2023	 0.270669782392682 
2024	 0.269698961764574 
2025	 0.26871987105965 
2026	 0.267693211076613 
2027	 0.266567563842689 
2028	 0.265492073467924 
2029	 0.264406642504418 
2030	 0.26330785491938 
2031	 0.262220515907797 
2032	 0.261113844301883 
2033	 0.259941749482098 
2034	 0.258849135086742 
2035	 0.257771663305455 
2036	 0.256700204573515 
2037	 0.255748894730211 
2038	 0.254839827148631 
2039	 0.253987750446213 
2040	 0.253202013308996 
2041	 0.252462830556802 
2042	 0.251762799412558 
2043	 0.251149621595353 
2044	 0.250607542497317 
2045	 0.250113760959817 
2046	 0.24971194534659 
2047	 0.249320378527802 
2048	 0.248972843795729 
2049	 0.248660410647389 
2050	 0.248385857943271 
2051	 0.248136819300908 
2052	 0.247941042446042 
2053	 0.24777209562764 
2054	 0.24764770311201 
2055	 0.24758253253708 
2056	 0.247512142928381 
2057	 0.247473675004855 
2058	 0.247444789953443 
2059	 0.247419589015242 
2060	 0.247425532077994 
2061	 0.247478404159995 
2062	 0.247512030066159 
2063	 0.247546905531723 
2064	 0.247601298077185 
2065	 0.247676859893065 
2066	 0.247729660383079 
2067	 0.247788396854663 
2068	 0.247862357046839 
2069	 0.247907606811218 
2070	 0.247923161531769 
2071	 0.247955428709407 
2072	 0.247985753252435 
2073	 0.248014899859135 
2074	 0.248045410158233 
2075	 0.248067832921949 
2076	 0.248103907026326 
2077	 0.248106001582798 
2078	 0.24807750303143 
2079	 0.248059315337813 
2080	 0.248016405665806 
2081	 0.247987955324509 
2082	 0.247973687323852 
2083	 0.247963399087894 
2084	 0.247936546728718 
2085	 0.247905802024518 
2086	 0.247848226026521 
2087	 0.247761877963416 
2088	 0.247685282727727 
2089	 0.247595513045081 
2090	 0.247503378641447 
2091	 0.247417756027841 
2092	 0.247317035049158 
2093	 0.247215888425534 
2094	 0.247085159879567 
2095	 0.246935016239019 
2096	 0.246773736011049 
2097	 0.246591801348341 
2098	 0.246392616219144 
2099	 0.246196882384181 
2100	 0.245967208882417 
2101	 0.245695417623391 
2102	 0.24538638849212 
2103	 0.245061162611588 
2104	 0.244687958437192 
2105	 0.244323615767487 
2106	 0.243957461493507 
2107	 0.243560235153361 
2108	 0.243161140073997 
2109	 0.242710369362915 
2110	 0.242207280455088 
2111	 0.241701341394569 
2112	 0.241150015072716 
2113	 0.240608999402162 
2114	 0.240063630482294 
2115	 0.239516611671927 
2116	 0.238969638602937 
2117	 0.238414341996096 
2118	 0.237840590337776 
2119	 0.237250481783842 
2120	 0.236679042622917 
2121	 0.236073002248146 
2122	 0.2355327674865 
2123	 0.235034928561344 
2124	 0.234535024177608 
2125	 0.234070927068893 
2126	 0.233595485035666 
2127	 0.233108209870856 
2128	 0.232654403683384 
2129	 0.232196301112381 
2130	 0.23178630497022 
2131	 0.23143088389067 
2132	 0.231067815955712 
2133	 0.230723018929957 
2134	 0.230409946346381 
2135	 0.230078299670754 
2136	 0.229726702368245 
2137	 0.229395034210604 
2138	 0.229054098260721 
2139	 0.228758431392602 
2140	 0.228482366781339 
2141	 0.228227003437772 
2142	 0.228006923693592 
2143	 0.227790648683548 
2144	 0.227574220942603 
2145	 0.227399963304656 
2146	 0.227252151475068 
2147	 0.227126803132475 
2148	 0.227037728342805 
2149	 0.226960032465439 
2150	 0.226917420928319 
2151	 0.226866085739704 
2152	 0.226822904694156 
2153	 0.226790065957908 
2154	 0.226752753529261 
2155	 0.226725690597836 
2156	 0.226689802307796 
2157	 0.226661312054451 
2158	 0.226619905888518 
2159	 0.226568098613745 
2160	 0.226514342155043 
2161	 0.226453678032778 
2162	 0.226403973388316 
2163	 0.226340117482208 
2164	 0.226303056347972 
2165	 0.226294828719315 
2166	 0.22627079730727 
2167	 0.226236000973821 
2168	 0.226233753639864 
2169	 0.226216320081772 
2170	 0.226249169409105 
2171	 0.226347304902015 
2172	 0.226429450241503 
2173	 0.226514399104017 
2174	 0.226632642540904 
2175	 0.226756906382097 
2176	 0.226885567780034 
2177	 0.227057910163349 
2178	 0.227271777776647 
2179	 0.227492694716493 
2180	 0.22774061146424 
2181	 0.227989389112772 
2182	 0.228267166721685 
2183	 0.228518132113385 
2184	 0.228763488880506 
2185	 0.229016205546086 
2186	 0.229257234898021 
2187	 0.229510865942289 
2188	 0.229782988110747 
2189	 0.230040663424981 
2190	 0.230319741499773 
2191	 0.230553754522619 
2192	 0.230763864496995 
2193	 0.230960805765746 
2194	 0.231112350630784 
2195	 0.231272482662555 
2196	 0.231433668451052 
2197	 0.231589748588454 
2198	 0.231721191557176 
2199	 0.231834134980887 
2200	 0.231917758763979 
2201	 0.23197430029747 
2202	 0.232005068516384 
2203	 0.232017625761074 
2204	 0.231986351413754 
2205	 0.231921279154402 
2206	 0.231823863330863 
2207	 0.231685218221774 
2208	 0.23152392881265 
2209	 0.23134253564984 
2210	 0.231108330340915 
2211	 0.230858448777689 
2212	 0.230527712019321 
2213	 0.230115382241414 
2214	 0.22968828490292 
2215	 0.229211802919828 
2216	 0.228690346087848 
2217	 0.228180501906008 
2218	 0.227553647013125 
2219	 0.226861980345851 
2220	 0.226070619200016 
2221	 0.225176738365037 
2222	 0.224194708457581 
2223	 0.223164924112374 
2224	 0.222000769821173 
2225	 0.22079429540472 
2226	 0.219489880470968 
2227	 0.218022769828454 
2228	 0.216444663120055 
2229	 0.214718418507903 
2230	 0.212799772659547 
2231	 0.210836792893701 
2232	 0.208772728870203 
2233	 0.206578382043809 
2234	 0.204349037906876 
2235	 0.201846776497445 
2236	 0.199140170996984 
2237	 0.196315794875801 
2238	 0.193197655312958 
2239	 0.190124095751998 
2240	 0.187000233372637 
2241	 0.183746192958152 
2242	 0.180477270592566 
2243	 0.17701282197278 
2244	 0.173321511524037 
2245	 0.169642272530452 
2246	 0.165709228439887 
2247	 0.161943531111018 
2248	 0.158240835685608 
2249	 0.154530671291832 
2250	 0.150861943683639 
2251	 0.147299314093793 
2252	 0.143523918978158 
2253	 0.139928269908061 
2254	 0.136328130386311 
2255	 0.132756872224032 
2256	 0.129566693714013 
2257	 0.126425265764189 
2258	 0.123472855214542 
2259	 0.120798404661909 
2260	 0.118072753878919 
2261	 0.11536853133644 
2262	 0.112903186287729 
2263	 0.110506477522142 
2264	 0.108356100571501 
2265	 0.106490613036645 
2266	 0.104635319851648 
2267	 0.102984212538656 
2268	 0.101284786785417 
2269	 9.96158027125541E-02 
2270	 9.80537248906421E-02 
2271	 9.65231185496589E-02 
2272	 9.50929989651367E-02 
2273	 9.38524787301934E-02 
2274	 9.25109376603641E-02 
2275	 9.12289278802988E-02 
2276	 8.98634403336697E-02 
2277	 8.84435459000613E-02 
2278	 0.087012348849355 
2279	 8.54882955792391E-02 
2280	 8.40132988574944E-02 
2281	 8.25818762386399E-02 
2282	 8.10843157364358E-02 
2283	 7.95578630735104E-02 
2284	 7.80813665854628E-02 
2285	 7.64706150558518E-02 
2286	 7.48690920477798E-02 
2287	 7.32536496739068E-02 
2288	 0.071623531626095 
2289	 0.070099155326223 
2290	 6.85349169320945E-02 
2291	 6.70427085369196E-02 
2292	 6.56319260653317E-02 
2293	 6.41474770006954E-02 
2294	 6.27669729003687E-02 
2295	 6.14765753817802E-02 
2296	 6.02446353741573E-02 
2297	 5.92176267348662E-02 
2298	 5.83437255167967E-02 
2299	 5.76353945878531E-02 
2300	 5.70860130667846E-02 
2301	 0.056734076530379 
2302	 5.65761193201734E-02 
2303	 5.65811936337911E-02 
2304	 5.67764441965549E-02 
2305	 0.057145444594228 
2306	 5.77103699108683E-02 
2307	 5.84241461449955E-02 
2308	 5.93169882079741E-02 
2309	 6.03939012848246E-02 
2310	 0.061701821785404 
2311	 6.30554793046819E-02 
2312	 6.46790503442156E-02 
2313	 6.61848434879854E-02 
2314	 6.77377417820965E-02 
2315	 6.92548239134875E-02 
2316	 7.07766982943472E-02 
2317	 7.22195001963686E-02 
2318	 7.37230072464125E-02 
2319	 7.49603602147207E-02 
2320	 7.60852023563615E-02 
2321	 7.70193664607605E-02 
2322	 7.77391579094458E-02 
2323	 7.83092951146468E-02 
2324	 7.86444185028658E-02 
2325	 7.89379220121362E-02 
2326	 7.90923255357925E-02 
2327	 7.91167428725739E-02 
2328	 7.90533110916615E-02 
2329	 7.88665298374419E-02 
2330	 0.078517667392364 
2331	 7.80501968844065E-02 
2332	 7.74965933976883E-02 
2333	 7.68344483051535E-02 
2334	 7.60201360868383E-02 
2335	 7.51926279010432E-02 
2336	 7.43134153290639E-02 
2337	 7.33746476759611E-02 
2338	 7.24654137731339E-02 
2339	 7.14950523527909E-02 
2340	 7.05749371412489E-02 
2341	 0.069734635936665 
2342	 6.89420306618769E-02 
2343	 6.83185177255523E-02 
2344	 6.79096649890887E-02 
2345	 6.76986612930134E-02 
2346	 0.067683984212837 
2347	 6.79147930033059E-02 
2348	 6.82528317562596E-02 
2349	 6.88291576291405E-02 
2350	 6.96929369398858E-02 
2351	 7.06534076749203E-02 
2352	 7.17872551110828E-02 
2353	 7.30369487485985E-02 
2354	 7.41363641559079E-02 
2355	 7.52624144812833E-02 
2356	 7.63484012703443E-02 
2357	 7.71883345323258E-02 
2358	 7.80056617256922E-02 
2359	 0.0786974031082 
2360	 7.92616245528506E-02 
2361	 7.97543548520819E-02 
2362	 8.01236561987502E-02 
2363	 8.04145775762863E-02 
2364	 8.05818509066604E-02 
2365	 8.06786670760293E-02 
2366	 8.08302939498227E-02 
2367	 0.080932111845753 
2368	 8.09858289533635E-02 
2369	 8.10805433551952E-02 
2370	 8.11076268323634E-02 
2371	 8.11711758846799E-02 
2372	 8.12867444735873E-02 
2373	 0.081342363420668 
2374	 8.14094319039078E-02 
2375	 8.14499208524648E-02 
2376	 8.14714997950798E-02 
2377	 8.15085713136202E-02 
2378	 8.15136442950905E-02 
2379	 0.081542730709986 
2380	 8.15466168128859E-02 
2381	 8.15083439916653E-02 
2382	 8.15455074851945E-02 
2383	 8.16247647433873E-02 
2384	 8.16925872611103E-02 
2385	 8.18163941092317E-02 
2386	 8.18934797152514E-02 
2387	 8.19434370170338E-02 
2388	 8.19966816057024E-02 
2389	 8.20553284548813E-02 
2390	 0.082107356134769 
2391	 8.21236024351759E-02 
2392	 8.21517466099106E-02 
2393	 8.21746161127673E-02 
2394	 0.08218251970274 
2395	 8.22011545110585E-02 
2396	 8.22653579052509E-02 
2397	 8.23458909111873E-02 
2398	 8.24056765802369E-02 
2399	 8.24831831709228E-02 
2400	 8.25443237675981E-02 
2401	 8.25473141523679E-02 
2402	 8.26551797145618E-02 
2403	 8.28026266572227E-02 
2404	 8.29285741125641E-02 
2405	 8.30203194743632E-02 
2406	 8.31180088110402E-02 
2407	 8.31873711742554E-02 
2408	 8.32745321371645E-02 
2409	 8.34285739227538E-02 
2410	 8.35092692880067E-02 
2411	 8.35919118383152E-02 
2412	 8.37766720757092E-02 
2413	 8.38891149013418E-02 
2414	 8.40176502876701E-02 
2415	 8.41402598523771E-02 
2416	 8.41937998045837E-02 
2417	 0.084353546813144 
2418	 8.44938443659621E-02 
2419	 8.45936818674657E-02 
2420	 8.46700662493176E-02 
2421	 8.46438917687459E-02 
2422	 8.47288586073716E-02 
2423	 8.49347745502102E-02 
2424	 8.51043765972275E-02 
2425	 0.085241636073331 
2426	 8.52022489995113E-02 
2427	 8.50820012536242E-02 
2428	 8.49781561001088E-02 
2429	 8.48841420562175E-02 
2430	 8.50100302367398E-02 
2431	 8.51069574256414E-02 
2432	 8.50900893973816E-02 
2433	 8.50815614130694E-02 
2434	 8.49192493339758E-02 
2435	 8.47124334949498E-02 
2436	 8.45337203421163E-02 
2437	 8.43925724836871E-02 
2438	 0.084313433985893 
2439	 8.41748376056101E-02 
2440	 8.39966432780039E-02 
2441	 8.37482391889409E-02 
2442	 8.34033404344606E-02 
2443	 0.083189961484676 
2444	 8.30625425373788E-02 
2445	 8.29017939713095E-02 
2446	 8.27268078470002E-02 
2447	 8.24656444078198E-02 
2448	 8.21467582709232E-02 
2449	 8.18191456725209E-02 
2450	 8.15308827500251E-02 
2451	 0.081241924942278 
2452	 8.08746597910775E-02 
2453	 8.05213741295334E-02 
2454	 8.02096807909607E-02 
2455	 7.99266702943011E-02 
2456	 7.96778586419588E-02 
2457	 7.94399880043603E-02 
2458	 7.91995591108961E-02 
2459	 7.88627797963616E-02 
2460	 7.85824072602932E-02 
2461	 7.84066283234366E-02 
2462	 7.81825467346862E-02 
2463	 7.80368653078133E-02 
2464	 7.79812818889143E-02 
2465	 7.77869289188831E-02 
2466	 7.76220652762834E-02 
2467	 7.76635046308214E-02 
2468	 7.75860621062255E-02 
2469	 7.75921567795956E-02 
2470	 7.78468626075939E-02 
2471	 7.79798597348398E-02 
2472	 7.79760149438404E-02 
2473	 7.80456337839811E-02 
2474	 7.80983941934927E-02 
2475	 7.79141689409315E-02 
2476	 7.78360782008782E-02 
2477	 7.80240195645481E-02 
2478	 7.80667348607135E-02 
2479	 7.80527751199814E-02 
2480	 7.80088249617246E-02 
2481	 7.80465156579523E-02 
2482	 7.81101907304709E-02 
2483	 7.82466713411314E-02 
2484	 7.86154427274189E-02 
2485	 7.89428074620996E-02 
2486	 7.90523265565402E-02 
2487	 7.94004698802287E-02 
2488	 7.95620830960499E-02 
2489	 7.95531248414467E-02 
2490	 7.97100007005908E-02 
2491	 7.99640494582152E-02 
2492	 8.01942031622264E-02 
2493	 8.02336546141346E-02 
2494	 8.06482058039808E-02 
2495	 8.09934299302362E-02 
2496	 0.081085196408758 
2497	 8.15723434181236E-02 
2498	 8.20264417332225E-02 
2499	 8.22094259804643E-02 
2500	 8.23264437892445E-02 
