Wavelength	spectrum00011.asd
350	 0.121711557222325 
351	 0.118835906805027 
352	 0.115774792828382 
353	 0.114858838634521 
354	 0.114405533395882 
355	 0.113744436755517 
356	 0.11219356077294 
357	 0.109866952860629 
358	 0.108833513341868 
359	 0.108401446993117 
360	 0.108415526101392 
361	 0.108896882344007 
362	 0.109292341587624 
363	 0.108063636413283 
364	 0.105919120481102 
365	 0.106486644835069 
366	 0.107154273106491 
367	 0.106961412070707 
368	 0.106190267037681 
369	 0.107795622216925 
370	 0.108955227110025 
371	 0.109301468136676 
372	 0.109805604827608 
373	 0.109474494483629 
374	 0.109478462155812 
375	 0.110255933401617 
376	 0.110923043035154 
377	 0.11116268338246 
378	 0.111535269962157 
379	 0.112454304926524 
380	 0.112939929030876 
381	 0.113418736005133 
382	 0.114168075002808 
383	 0.11529345113202 
384	 0.116342866303548 
385	 0.117229215292114 
386	 0.117777600947132 
387	 0.117534273654516 
388	 0.118476602250094 
389	 0.120079474200015 
390	 0.121199779441746 
391	 0.121155603912785 
392	 0.122082843300615 
393	 0.123816997949217 
394	 0.124723520496434 
395	 0.125201884880414 
396	 0.126106110834875 
397	 0.127530067303087 
398	 0.128234738484652 
399	 0.128933334789648 
400	 0.129675210343213 
401	 0.130392930023 
402	 0.131238007194098 
403	 0.132836700160752 
404	 0.13457985148198 
405	 0.13513238209453 
406	 0.136300719443785 
407	 0.137521599926136 
408	 0.138444748078804 
409	 0.139847843637999 
410	 0.141004290946478 
411	 0.142119108026599 
412	 0.143558614960653 
413	 0.144917038273211 
414	 0.146169310613277 
415	 0.147387970349934 
416	 0.148697828724302 
417	 0.14998975633674 
418	 0.1513672323726 
419	 0.152870394202087 
420	 0.15432867648757 
421	 0.155788297249213 
422	 0.157218231886347 
423	 0.158617159099716 
424	 0.160377197263532 
425	 0.161966209465651 
426	 0.163270844505012 
427	 0.164726747545496 
428	 0.166240423624225 
429	 0.167672046617966 
430	 0.168967249485024 
431	 0.17036824480861 
432	 0.171888500199111 
433	 0.173451069880012 
434	 0.174946283451403 
435	 0.176424453902265 
436	 0.177963286876682 
437	 0.179511549929913 
438	 0.180802615044038 
439	 0.182127852238118 
440	 0.183400181706437 
441	 0.18454013920882 
442	 0.185964990904502 
443	 0.187511578438309 
444	 0.188918583746198 
445	 0.189925729565153 
446	 0.191246917893355 
447	 0.19244497526055 
448	 0.1932793216401 
449	 0.194353427305046 
450	 0.195435682232691 
451	 0.196468450271811 
452	 0.197452399821237 
453	 0.198416697964169 
454	 0.199240528337081 
455	 0.199952982680586 
456	 0.200754186046898 
457	 0.201360052761749 
458	 0.201825878702829 
459	 0.202271224070814 
460	 0.202782341916484 
461	 0.203091410012483 
462	 0.203161113007313 
463	 0.203103314642353 
464	 0.203044214047539 
465	 0.20288004317173 
466	 0.202493243127636 
467	 0.201777396550063 
468	 0.201097636223233 
469	 0.200390111777292 
470	 0.199503357762722 
471	 0.198539395943365 
472	 0.197364353949186 
473	 0.196043688691577 
474	 0.194788997997384 
475	 0.193415367947574 
476	 0.191853347853588 
477	 0.190135424405324 
478	 0.188470278785943 
479	 0.186717701578073 
480	 0.184923036829285 
481	 0.183150794058476 
482	 0.181138345686022 
483	 0.179100823662482 
484	 0.177137395098927 
485	 0.175179527957913 
486	 0.173205193360412 
487	 0.171192531545353 
488	 0.169165068576488 
489	 0.16726948153647 
490	 0.165420480180164 
491	 0.163606323353579 
492	 0.161851887011995 
493	 0.160086285036122 
494	 0.15842818595309 
495	 0.156918618794509 
496	 0.155447764244899 
497	 0.153926224756495 
498	 0.152427455692672 
499	 0.151037446941087 
500	 0.149637585042027 
501	 0.148110814195661 
502	 0.146426328732063 
503	 0.144634308483415 
504	 0.142840304600003 
505	 0.141005430778136 
506	 0.139096748659899 
507	 0.137164399639794 
508	 0.135218222609267 
509	 0.133303419074411 
510	 0.131479808674262 
511	 0.12978553513132 
512	 0.128177520775836 
513	 0.126595045241516 
514	 0.12496449905645 
515	 0.123276399213296 
516	 0.121569007346724 
517	 0.119880293957966 
518	 0.118200572254594 
519	 0.116492752358732 
520	 0.114771737518226 
521	 0.113082086952009 
522	 0.11135869804104 
523	 0.109621908994495 
524	 0.107927225417172 
525	 0.106376602534343 
526	 0.104854729786438 
527	 0.10336939664406 
528	 0.101971994609833 
529	 0.100688025934694 
530	 9.95324922250784E-02 
531	 9.84713074331699E-02 
532	 9.74269392062665E-02 
533	 9.64998525484399E-02 
534	 9.57232541333217E-02 
535	 9.50896977225621E-02 
536	 9.45204963692898E-02 
537	 9.40728386893086E-02 
538	 9.37188481667769E-02 
539	 9.33975488279492E-02 
540	 9.32055896732716E-02 
541	 9.31564541468762E-02 
542	 9.32298675269532E-02 
543	 9.33703675036688E-02 
544	 9.35951788161933E-02 
545	 9.39250115153521E-02 
546	 9.43791654768117E-02 
547	 9.49588090306722E-02 
548	 9.56661355583595E-02 
549	 9.64861833182742E-02 
550	 9.73874236932868E-02 
551	 9.83188937797755E-02 
552	 9.93347183242784E-02 
553	 0.100445612648732 
554	 0.101504082832977 
555	 0.102523111300751 
556	 0.103493817365337 
557	 0.104386125282853 
558	 0.105083316344006 
559	 0.105665254408904 
560	 0.106150881935564 
561	 0.10644858606495 
562	 0.106581082309383 
563	 0.106586392423318 
564	 0.106490121073579 
565	 0.106255513690692 
566	 0.105849643191597 
567	 0.105236220001553 
568	 0.104387899284997 
569	 0.103411527652084 
570	 0.102260368763794 
571	 0.100936631011352 
572	 9.96060802471938E-02 
573	 9.81400714810742E-02 
574	 9.65576514979174E-02 
575	 9.49242055737701E-02 
576	 9.32299246611944E-02 
577	 9.15214577412861E-02 
578	 8.98149139428444E-02 
579	 8.80928894252248E-02 
580	 8.63760774999851E-02 
581	 0.084697447019751 
582	 8.30677470321196E-02 
583	 8.14192764928504E-02 
584	 0.079856391395031 
585	 7.84261336111119E-02 
586	 7.71390785682845E-02 
587	 7.60582833875459E-02 
588	 7.51324458014808E-02 
589	 7.43321441469502E-02 
590	 7.36855443506045E-02 
591	 7.32125258141979E-02 
592	 7.28928591561157E-02 
593	 0.072693280184514 
594	 7.25890882473448E-02 
595	 7.25846081975688E-02 
596	 7.26669812271919E-02 
597	 7.28079342376569E-02 
598	 7.30119879497649E-02 
599	 7.32292593449834E-02 
600	 7.34304693108896E-02 
601	 7.36582703970513E-02 
602	 7.38544892803059E-02 
603	 7.40095974015542E-02 
604	 7.41469434491271E-02 
605	 7.43473542734763E-02 
606	 0.074522510576092 
607	 7.46586045751056E-02 
608	 7.48503663574105E-02 
609	 7.49901599348013E-02 
610	 7.51232587183901E-02 
611	 7.53002744160068E-02 
612	 7.54602039785489E-02 
613	 7.55954120470276E-02 
614	 7.57271228619982E-02 
615	 7.58878712449882E-02 
616	 0.076012332229604 
617	 7.61315263027249E-02 
618	 7.62536607486054E-02 
619	 7.63252749937105E-02 
620	 7.63514616423615E-02 
621	 0.076345832427189 
622	 7.63184335223859E-02 
623	 7.62354841951068E-02 
624	 7.61381723481421E-02 
625	 7.60306126406445E-02 
626	 7.58788515557413E-02 
627	 7.56583300831234E-02 
628	 7.54057460372088E-02 
629	 7.51505001892543E-02 
630	 7.48736892156175E-02 
631	 7.45655486632881E-02 
632	 7.42589928292453E-02 
633	 7.39912482405407E-02 
634	 7.36804507854383E-02 
635	 7.33585522961148E-02 
636	 0.073062696006198 
637	 7.28236227070637E-02 
638	 7.26026688704172E-02 
639	 0.072414153818572 
640	 7.22708715797766E-02 
641	 0.072132534116152 
642	 7.20629341147296E-02 
643	 7.20627515433639E-02 
644	 7.20961044876842E-02 
645	 7.21905398012537E-02 
646	 7.23356511532807E-02 
647	 7.25354099618484E-02 
648	 7.28249845620442E-02 
649	 7.31754683706293E-02 
650	 7.35737294117481E-02 
651	 7.40185428903889E-02 
652	 7.45337771380753E-02 
653	 7.51310224761712E-02 
654	 7.58226510194724E-02 
655	 7.66186057013496E-02 
656	 7.74933293581288E-02 
657	 7.84430714365411E-02 
658	 7.94778606011552E-02 
659	 0.08062730199519 
660	 8.19143149845151E-02 
661	 8.33066843523494E-02 
662	 8.47761170176207E-02 
663	 8.64470264483842E-02 
664	 8.82409192381829E-02 
665	 9.01493740307829E-02 
666	 9.22425919997977E-02 
667	 0.094511035393105 
668	 9.69866748981571E-02 
669	 0.099684203398454 
670	 0.102566654298176 
671	 0.105670889377017 
672	 0.109016016899547 
673	 0.11262158175712 
674	 0.116531663008221 
675	 0.120707865145906 
676	 0.125174183405259 
677	 0.130035713798618 
678	 0.135165134472409 
679	 0.140639808475851 
680	 0.146537874115763 
681	 0.152782925929309 
682	 0.159420424961067 
683	 0.166460874495355 
684	 0.173898170270019 
685	 0.181699346953224 
686	 0.189916567410149 
687	 0.198550820634526 
688	 0.20752423550077 
689	 0.216861406869903 
690	 0.226574858956331 
691	 0.236656901265802 
692	 0.247011807580727 
693	 0.257632548434497 
694	 0.2685149305776 
695	 0.279625221739442 
696	 0.290903013653197 
697	 0.30227489502332 
698	 0.313710148731394 
699	 0.325251273870241 
700	 0.336826860183304 
701	 0.348376121301681 
702	 0.359854405015672 
703	 0.371253500131163 
704	 0.382477631108308 
705	 0.393510032034462 
706	 0.40438273242046 
707	 0.415064587846903 
708	 0.425464925918742 
709	 0.435521822029811 
710	 0.445219328880408 
711	 0.454648915612701 
712	 0.463813671053942 
713	 0.47266357255368 
714	 0.481107048911779 
715	 0.489173051127881 
716	 0.496840262869694 
717	 0.504065700576142 
718	 0.511088741193429 
719	 0.517814291083744 
720	 0.524160596799711 
721	 0.530143811604781 
722	 0.535835592131114 
723	 0.541205265889547 
724	 0.546233368925704 
725	 0.551112113693726 
726	 0.555647054924139 
727	 0.559825619989494 
728	 0.563768977566747 
729	 0.567456965743536 
730	 0.57093935848282 
731	 0.574229188598502 
732	 0.577265384936013 
733	 0.580230962433563 
734	 0.582996331118735 
735	 0.585462082368437 
736	 0.588015706815444 
737	 0.590252999865193 
738	 0.59221745084664 
739	 0.594225100147797 
740	 0.59608928763533 
741	 0.597806982155818 
742	 0.599398944678135 
743	 0.600891253858762 
744	 0.602424991591783 
745	 0.603874355211433 
746	 0.605103057426601 
747	 0.606189417761241 
748	 0.607273069585742 
749	 0.608408173027633 
750	 0.609552904474448 
751	 0.610413006213298 
752	 0.611159732071931 
753	 0.611961024322582 
754	 0.612904838896648 
755	 0.61385509216624 
756	 0.614697109204003 
757	 0.615385087074137 
758	 0.616033028524425 
759	 0.616615297973165 
760	 0.61718360205336 
761	 0.617819332727253 
762	 0.618584299226559 
763	 0.619161689051038 
764	 0.619556979427193 
765	 0.620133170959689 
766	 0.620711993838502 
767	 0.621301744719087 
768	 0.621885677719595 
769	 0.622305970155026 
770	 0.622751816770532 
771	 0.623186757541376 
772	 0.623535946344795 
773	 0.623960522599662 
774	 0.624434207993809 
775	 0.624902008155664 
776	 0.625299178219601 
777	 0.625642399115127 
778	 0.626021717454531 
779	 0.626437914678376 
780	 0.626721520935331 
781	 0.627107230610535 
782	 0.627535820314405 
783	 0.627894290784593 
784	 0.628196734883814 
785	 0.628510376880144 
786	 0.628825956676275 
787	 0.629098847963723 
788	 0.629388911716912 
789	 0.629689918282007 
790	 0.629965361771835 
791	 0.630158767627435 
792	 0.6304074134539 
793	 0.630717723958067 
794	 0.631034016285354 
795	 0.631221696700319 
796	 0.631404184706619 
797	 0.631666056291642 
798	 0.632034092559752 
799	 0.632359127678258 
800	 0.632579657223461 
801	 0.632750802696034 
802	 0.633000374555582 
803	 0.633231682312091 
804	 0.6335182838294 
805	 0.633855969253502 
806	 0.634098180524914 
807	 0.634306792842921 
808	 0.634482719883605 
809	 0.63465223705227 
810	 0.634959096539094 
811	 0.635232054829132 
812	 0.635450941803527 
813	 0.635660965642847 
814	 0.635838322041303 
815	 0.636027963112193 
816	 0.636241311795508 
817	 0.636456980027005 
818	 0.636689427805022 
819	 0.636909829883186 
820	 0.637103456939959 
821	 0.637286696900027 
822	 0.63756043393132 
823	 0.637806275930918 
824	 0.637932328925198 
825	 0.638109172784858 
826	 0.638372996581338 
827	 0.638649238095118 
828	 0.638833955005811 
829	 0.639009924792967 
830	 0.639146900491825 
831	 0.639241910736053 
832	 0.639326149503752 
833	 0.639459935445807 
834	 0.639693619461423 
835	 0.639961647907699 
836	 0.640037537704185 
837	 0.640220385250189 
838	 0.640400610110948 
839	 0.640480220103341 
840	 0.640693854950729 
841	 0.640879066965194 
842	 0.641037448491394 
843	 0.641217127805054 
844	 0.641340945604046 
845	 0.641530689786237 
846	 0.641735826764707 
847	 0.641810269904529 
848	 0.641999935401931 
849	 0.642163697567291 
850	 0.642241520751622 
851	 0.642333462545989 
852	 0.642563085450577 
853	 0.642800451350869 
854	 0.642934310378242 
855	 0.643009833171107 
856	 0.643120701427731 
857	 0.643306945444961 
858	 0.643539392963727 
859	 0.643629063356554 
860	 0.64380344415108 
861	 0.644009812964794 
862	 0.64409160933279 
863	 0.644241037490424 
864	 0.644294923337454 
865	 0.644306611291899 
866	 0.644491252581928 
867	 0.644516684485781 
868	 0.644584016350373 
869	 0.644806947526753 
870	 0.645073940434546 
871	 0.645182408523404 
872	 0.645186011310525 
873	 0.645191986606977 
874	 0.645274147659349 
875	 0.645367412361649 
876	 0.645501181545509 
877	 0.645684033285914 
878	 0.645758504314048 
879	 0.645786532447061 
880	 0.645775148502003 
881	 0.645721063315357 
882	 0.645700544875665 
883	 0.645729033633733 
884	 0.645800977598921 
885	 0.645887711828458 
886	 0.645901628812625 
887	 0.645895402677135 
888	 0.645872939736759 
889	 0.645774343109274 
890	 0.645771306511966 
891	 0.645791985051971 
892	 0.645739833858396 
893	 0.645560349305281 
894	 0.645479948034472 
895	 0.645525549755143 
896	 0.645597080468845 
897	 0.645415837789414 
898	 0.645336856518907 
899	 0.645348755198842 
900	 0.645317465459164 
901	 0.645173574829876 
902	 0.645052259740462 
903	 0.644952222629597 
904	 0.644816805203031 
905	 0.644710477505191 
906	 0.644602276073026 
907	 0.64449959138798 
908	 0.644443839376174 
909	 0.644494867502495 
910	 0.644507051467699 
911	 0.64441590714105 
912	 0.644282148376698 
913	 0.644354208034009 
914	 0.644390219791827 
915	 0.644300265530735 
916	 0.644298029545854 
917	 0.644226894373614 
918	 0.644189806123559 
919	 0.644234881433187 
920	 0.64421940247747 
921	 0.644190723149264 
922	 0.644219585290773 
923	 0.644312020732361 
924	 0.644288219251882 
925	 0.644404806903534 
926	 0.644524280051191 
927	 0.644495534863607 
928	 0.644563899404334 
929	 0.644727648624687 
930	 0.644974423456831 
931	 0.645250031943418 
932	 0.645379883391493 
933	 0.645574573948656 
934	 0.645868942556196 
935	 0.646177129226236 
936	 0.646391177555997 
937	 0.646636507145567 
938	 0.646900602368895 
939	 0.647106503931788 
940	 0.647513530229663 
941	 0.647788062444379 
942	 0.647868908760767 
943	 0.647969307943022 
944	 0.64810027611393 
945	 0.648181171515256 
946	 0.648244494427663 
947	 0.648421542980901 
948	 0.648444549995336 
949	 0.648372504270131 
950	 0.648302484820349 
951	 0.648298482358954 
952	 0.648229883377556 
953	 0.648135776482238 
954	 0.648059432747153 
955	 0.647996388012101 
956	 0.647763795821373 
957	 0.647480754652421 
958	 0.647269566033677 
959	 0.647133585853995 
960	 0.646968147734955 
961	 0.646736733666137 
962	 0.6464603812126 
963	 0.646228647345804 
964	 0.645964247533075 
965	 0.645696532790151 
966	 0.645467817412066 
967	 0.645288542061874 
968	 0.645007790705238 
969	 0.644732520489331 
970	 0.644598242175094 
971	 0.644624525120006 
972	 0.644418218557018 
973	 0.644123221954583 
974	 0.643961054447957 
975	 0.643853098586347 
976	 0.643745771410616 
977	 0.643610099191204 
978	 0.643421215638074 
979	 0.643117785893133 
980	 0.642883353023235 
981	 0.642724932960074 
982	 0.642561654069346 
983	 0.642254043185371 
984	 0.642034072711325 
985	 0.641901549626525 
986	 0.641792710551248 
987	 0.641764376976827 
988	 0.641558814968177 
989	 0.641268849798174 
990	 0.641028302683571 
991	 0.640615100902416 
992	 0.640311925658429 
993	 0.640103864703036 
994	 0.639873267446832 
995	 0.63958808248137 
996	 0.639196219724095 
997	 0.638725032695293 
998	 0.638257916780158 
999	 0.637931238221655 
1000	 0.637665971839903 
1001	 0.638987542657412 
1002	 0.638634184258405 
1003	 0.638255805819724 
1004	 0.637880978064439 
1005	 0.637529890939428 
1006	 0.637123336808201 
1007	 0.636686144886741 
1008	 0.636233168578751 
1009	 0.635762505142638 
1010	 0.635283054035284 
1011	 0.634765910955384 
1012	 0.634268645190188 
1013	 0.633776359024801 
1014	 0.633270028429782 
1015	 0.632769041354281 
1016	 0.632257402667725 
1017	 0.631702022147289 
1018	 0.631207378364941 
1019	 0.630691904255452 
1020	 0.630099531555768 
1021	 0.62953372621536 
1022	 0.62894153933468 
1023	 0.628378338907261 
1024	 0.627865745955863 
1025	 0.627286690739034 
1026	 0.626685692114761 
1027	 0.626080043716583 
1028	 0.625454847471052 
1029	 0.62476202625899 
1030	 0.624099470180434 
1031	 0.623445508230579 
1032	 0.622785537697782 
1033	 0.622133602126963 
1034	 0.621446262086249 
1035	 0.620758904979366 
1036	 0.620039998519681 
1037	 0.619237083870925 
1038	 0.618511026776748 
1039	 0.617817554528343 
1040	 0.61709724246472 
1041	 0.616415889147254 
1042	 0.615672114009952 
1043	 0.614886973130417 
1044	 0.614105893079824 
1045	 0.613280819221466 
1046	 0.612446776075915 
1047	 0.61165832945182 
1048	 0.610840516135084 
1049	 0.610017392941133 
1050	 0.6091720454061 
1051	 0.608276963299802 
1052	 0.607430050897839 
1053	 0.606549819432963 
1054	 0.605653049544706 
1055	 0.604757956257261 
1056	 0.603876033092958 
1057	 0.602923758426639 
1058	 0.601944465633793 
1059	 0.600960218893755 
1060	 0.599916064608048 
1061	 0.598886711706743 
1062	 0.597862892116724 
1063	 0.596825810747709 
1064	 0.595830927445798 
1065	 0.594841179895041 
1066	 0.59383673806554 
1067	 0.592816766288741 
1068	 0.591712092457564 
1069	 0.590605277456887 
1070	 0.589476221441937 
1071	 0.588313458661594 
1072	 0.587127729257559 
1073	 0.586008099419661 
1074	 0.584865445433719 
1075	 0.583739408204978 
1076	 0.582611624964796 
1077	 0.581392302208009 
1078	 0.580180560274971 
1079	 0.578922853365256 
1080	 0.577651918508626 
1081	 0.576454100426999 
1082	 0.575198338568821 
1083	 0.573935301313995 
1084	 0.57267534730574 
1085	 0.571324341146151 
1086	 0.569981885883117 
1087	 0.568632383122958 
1088	 0.567235392433161 
1089	 0.565802329767558 
1090	 0.564452945481481 
1091	 0.563059672619405 
1092	 0.561654902593075 
1093	 0.560267711462552 
1094	 0.558780767346799 
1095	 0.557323005055591 
1096	 0.555823407464951 
1097	 0.554258235165764 
1098	 0.552782957012916 
1099	 0.551256002564512 
1100	 0.549721377823442 
1101	 0.54818934547531 
1102	 0.546556791927617 
1103	 0.54494094130761 
1104	 0.543317943060369 
1105	 0.541614919487659 
1106	 0.539899129952774 
1107	 0.538288763633114 
1108	 0.536582928687033 
1109	 0.534922488710942 
1110	 0.533291420017372 
1111	 0.53150531206737 
1112	 0.529781381087405 
1113	 0.528004533571939 
1114	 0.526151605118747 
1115	 0.52443910847533 
1116	 0.522643769427096 
1117	 0.520848276519596 
1118	 0.519042941574214 
1119	 0.51721850563652 
1120	 0.515357848191747 
1121	 0.513499058719742 
1122	 0.511577561478409 
1123	 0.509600626731339 
1124	 0.507744529419846 
1125	 0.50578410761965 
1126	 0.503816134024475 
1127	 0.501846889554461 
1128	 0.499693773055039 
1129	 0.497590147850627 
1130	 0.495432037158858 
1131	 0.493195958467194 
1132	 0.491123887533466 
1133	 0.488980895109746 
1134	 0.48682488021592 
1135	 0.48462201243909 
1136	 0.482369091669237 
1137	 0.480096020434696 
1138	 0.477786477096281 
1139	 0.475453545597441 
1140	 0.473068963441898 
1141	 0.470806638442156 
1142	 0.468448356278068 
1143	 0.466109919449178 
1144	 0.463804989958076 
1145	 0.461355089103359 
1146	 0.458968490313649 
1147	 0.456519026983878 
1148	 0.454005431606598 
1149	 0.451663288294981 
1150	 0.449262952436325 
1151	 0.446888927912037 
1152	 0.444502609030682 
1153	 0.442110067821352 
1154	 0.439712671052605 
1155	 0.437317759300355 
1156	 0.434886555413191 
1157	 0.432458684828557 
1158	 0.430075977348062 
1159	 0.427666306632774 
1160	 0.425282852932964 
1161	 0.42295985595378 
1162	 0.420483395766443 
1163	 0.418114881429452 
1164	 0.415742300249299 
1165	 0.413344437638731 
1166	 0.411137224300509 
1167	 0.408873212144174 
1168	 0.406635538148347 
1169	 0.404402130787936 
1170	 0.402188425563204 
1171	 0.399970787857732 
1172	 0.397756901884372 
1173	 0.39552880765502 
1174	 0.393331005071348 
1175	 0.391147190547541 
1176	 0.388950244175264 
1177	 0.386751728150868 
1178	 0.384607011233621 
1179	 0.382337742995339 
1180	 0.380154018063897 
1181	 0.377932375261259 
1182	 0.37567162352065 
1183	 0.373589175510052 
1184	 0.37145185907721 
1185	 0.369353381575032 
1186	 0.367287953056173 
1187	 0.36523880613282 
1188	 0.363257365500392 
1189	 0.361318318895683 
1190	 0.359407757119564 
1191	 0.357569436338157 
1192	 0.355775448918101 
1193	 0.353996655522575 
1194	 0.352265303509555 
1195	 0.350597310649569 
1196	 0.34893265277124 
1197	 0.347303204489163 
1198	 0.345673065875762 
1199	 0.344001210972474 
1200	 0.34246166329342 
1201	 0.340899879816718 
1202	 0.339367957887376 
1203	 0.337921246540698 
1204	 0.336448717701427 
1205	 0.335068800279377 
1206	 0.333716101277551 
1207	 0.332444150414058 
1208	 0.331236637386176 
1209	 0.3301206814453 
1210	 0.329067762150507 
1211	 0.328096052919203 
1212	 0.327204040909375 
1213	 0.326390579907038 
1214	 0.325649562502057 
1215	 0.324984676039161 
1216	 0.324433334450259 
1217	 0.32391851840217 
1218	 0.323475229150171 
1219	 0.323067739341066 
1220	 0.322708664577302 
1221	 0.322349500989759 
1222	 0.322010584227847 
1223	 0.321659372716125 
1224	 0.321295838951751 
1225	 0.320937841356888 
1226	 0.320543480740549 
1227	 0.320136479307962 
1228	 0.31969766935301 
1229	 0.319230508177092 
1230	 0.31873695624129 
1231	 0.318225812206683 
1232	 0.317669547190168 
1233	 0.317069163504905 
1234	 0.316462982665503 
1235	 0.315820295746283 
1236	 0.315170160615239 
1237	 0.314506383710565 
1238	 0.313830121066349 
1239	 0.313149550684879 
1240	 0.312430348593047 
1241	 0.311683367678388 
1242	 0.310980352299337 
1243	 0.310256638801655 
1244	 0.309518883618253 
1245	 0.308787854003446 
1246	 0.308059084452542 
1247	 0.307331225391025 
1248	 0.306595006785763 
1249	 0.305869257763553 
1250	 0.305147128351337 
1251	 0.304442708567468 
1252	 0.303751835558996 
1253	 0.303052826618744 
1254	 0.302362956595673 
1255	 0.301669010879499 
1256	 0.300962981407455 
1257	 0.300263876709672 
1258	 0.299565516506121 
1259	 0.298880917437429 
1260	 0.298206552694291 
1261	 0.297527893552193 
1262	 0.2968626840354 
1263	 0.296178933218214 
1264	 0.295528164624846 
1265	 0.294877018822003 
1266	 0.294244741710414 
1267	 0.293644674180051 
1268	 0.293037885704705 
1269	 0.292423650426455 
1270	 0.291838100009968 
1271	 0.291267715875943 
1272	 0.290714234975179 
1273	 0.29018556249067 
1274	 0.289658250190166 
1275	 0.289147570716234 
1276	 0.288641973081392 
1277	 0.288127057065465 
1278	 0.287651286403328 
1279	 0.287201400303683 
1280	 0.2867623458482 
1281	 0.286353500255376 
1282	 0.285953236917555 
1283	 0.285561214424714 
1284	 0.28518596326493 
1285	 0.284826547458317 
1286	 0.284481710113573 
1287	 0.284162260819396 
1288	 0.283857644966465 
1289	 0.283581236285766 
1290	 0.283342090430524 
1291	 0.283092517799811 
1292	 0.28285596688678 
1293	 0.28262788839109 
1294	 0.282401436889486 
1295	 0.282191221405258 
1296	 0.28198899819107 
1297	 0.281812366518887 
1298	 0.2816531368178 
1299	 0.28150475145163 
1300	 0.281382205496166 
1301	 0.281262467367552 
1302	 0.281145657565201 
1303	 0.28104365684831 
1304	 0.280952979164922 
1305	 0.280875774893819 
1306	 0.280821048641632 
1307	 0.28076077812122 
1308	 0.280717268596275 
1309	 0.280661041998305 
1310	 0.280603413264711 
1311	 0.280532849142877 
1312	 0.280486162654342 
1313	 0.280438969317944 
1314	 0.280414766770675 
1315	 0.280410933717558 
1316	 0.280408454878486 
1317	 0.280420461855233 
1318	 0.280428773695764 
1319	 0.28044152342918 
1320	 0.280455865735593 
1321	 0.280464577565073 
1322	 0.280490638077416 
1323	 0.280528319957722 
1324	 0.280566442059576 
1325	 0.280630333562634 
1326	 0.280665716135377 
1327	 0.28069022928884 
1328	 0.280708824008888 
1329	 0.280698910338796 
1330	 0.280707740036479 
1331	 0.280730229509589 
1332	 0.280741251190343 
1333	 0.280744696596044 
1334	 0.280763460512326 
1335	 0.280775377572976 
1336	 0.28077527723251 
1337	 0.280793963746203 
1338	 0.280833707248285 
1339	 0.280842462649019 
1340	 0.28084869251628 
1341	 0.280840181346044 
1342	 0.280814607571468 
1343	 0.280781485111575 
1344	 0.280749845270668 
1345	 0.280689797360895 
1346	 0.280607309170971 
1347	 0.280518985855828 
1348	 0.280410651016178 
1349	 0.280301268894773 
1350	 0.280185483305638 
1351	 0.28006214360672 
1352	 0.279929011268502 
1353	 0.279793383181802 
1354	 0.279650742691531 
1355	 0.279506361177677 
1356	 0.279344008989363 
1357	 0.279204655949956 
1358	 0.279075606917707 
1359	 0.278946234316753 
1360	 0.278840284432072 
1361	 0.278723739763078 
1362	 0.278580395797385 
1363	 0.278444418887932 
1364	 0.278277295468754 
1365	 0.278095108294651 
1366	 0.277889952486442 
1367	 0.277668546494993 
1368	 0.277419098764881 
1369	 0.277145766471399 
1370	 0.276855413473342 
1371	 0.27654104891196 
1372	 0.276214163896527 
1373	 0.275874514968684 
1374	 0.275510857123365 
1375	 0.275129201845641 
1376	 0.27472080456839 
1377	 0.274278442026438 
1378	 0.273833123164751 
1379	 0.27336529538136 
1380	 0.272893898729065 
1381	 0.27243082885782 
1382	 0.271928911695934 
1383	 0.271395931079796 
1384	 0.270860450702647 
1385	 0.270285937721531 
1386	 0.269736124158429 
1387	 0.269188258397515 
1388	 0.268658677407288 
1389	 0.268136035275171 
1390	 0.267634073591574 
1391	 0.267160588971687 
1392	 0.266675112898108 
1393	 0.266241862205055 
1394	 0.265787540334269 
1395	 0.265309313872861 
1396	 0.264853309522598 
1397	 0.264300665681687 
1398	 0.263720631247598 
1399	 0.26303644881872 
1400	 0.262278095983273 
1401	 0.261453578339969 
1402	 0.260549689136794 
1403	 0.259585191515523 
1404	 0.258552888876128 
1405	 0.257475409656591 
1406	 0.256311501952438 
1407	 0.255149029285053 
1408	 0.253888607835686 
1409	 0.252734110295271 
1410	 0.251556551859686 
1411	 0.250490773350913 
1412	 0.249470883516634 
1413	 0.248587300473313 
1414	 0.247799749632351 
1415	 0.247094670972404 
1416	 0.246542932365353 
1417	 0.245995267459866 
1418	 0.245532085608579 
1419	 0.245054994140785 
1420	 0.244614820315871 
1421	 0.244170763691111 
1422	 0.243725161818033 
1423	 0.243285569717649 
1424	 0.242860669393333 
1425	 0.242422567850185 
1426	 0.241999969097738 
1427	 0.241589898919902 
1428	 0.241191753367322 
1429	 0.240840727230502 
1430	 0.240504091608536 
1431	 0.2402002026639 
1432	 0.239887474513738 
1433	 0.239586786094714 
1434	 0.23930242439215 
1435	 0.23901772708715 
1436	 0.238761296761303 
1437	 0.238535668881308 
1438	 0.238311002307604 
1439	 0.238094950053468 
1440	 0.237894899125887 
1441	 0.237711932907675 
1442	 0.237531003222974 
1443	 0.237367083131538 
1444	 0.237194130172225 
1445	 0.237014600719553 
1446	 0.236854158977829 
1447	 0.236701586447462 
1448	 0.236551537876849 
1449	 0.236414859270643 
1450	 0.236277018720786 
1451	 0.236141125705789 
1452	 0.236003687447911 
1453	 0.235879648486642 
1454	 0.235738278636946 
1455	 0.235585467438892 
1456	 0.235429512238133 
1457	 0.235257071134845 
1458	 0.235094343296172 
1459	 0.234935703326608 
1460	 0.234773416241155 
1461	 0.234606688866712 
1462	 0.234451064314701 
1463	 0.234296971185916 
1464	 0.234147075588772 
1465	 0.234015248916464 
1466	 0.233870039222534 
1467	 0.233724531482524 
1468	 0.233587246648991 
1469	 0.233466471808037 
1470	 0.233355639059168 
1471	 0.233235384085856 
1472	 0.233126127968121 
1473	 0.233001744734374 
1474	 0.232866663069363 
1475	 0.232728164968278 
1476	 0.232590669055748 
1477	 0.232436515186866 
1478	 0.232268023608267 
1479	 0.232099063746811 
1480	 0.231917773294018 
1481	 0.231746483078481 
1482	 0.231576118872104 
1483	 0.23140062515755 
1484	 0.231231715890326 
1485	 0.231047663664419 
1486	 0.230848882205052 
1487	 0.230660416737653 
1488	 0.230465705153015 
1489	 0.230278975265301 
1490	 0.230091779864907 
1491	 0.229920879913719 
1492	 0.22975351528158 
1493	 0.229603757834717 
1494	 0.229471980268018 
1495	 0.229349111739933 
1496	 0.229244260059073 
1497	 0.229136576504506 
1498	 0.229032304010802 
1499	 0.228939662703308 
1500	 0.228851218871405 
1501	 0.228770834849092 
1502	 0.228696230502703 
1503	 0.228641754904364 
1504	 0.228596996729931 
1505	 0.228565405205614 
1506	 0.228557210289681 
1507	 0.22855382996026 
1508	 0.228564717184034 
1509	 0.228572179573701 
1510	 0.228590452595956 
1511	 0.228604381048189 
1512	 0.228601422658926 
1513	 0.228620373577766 
1514	 0.228658908159095 
1515	 0.22868950614112 
1516	 0.228726129908504 
1517	 0.228767206357958 
1518	 0.22879334318075 
1519	 0.228839280876474 
1520	 0.228900605386361 
1521	 0.228977673561672 
1522	 0.229044847612072 
1523	 0.229118007315869 
1524	 0.229198545421878 
1525	 0.229276895311528 
1526	 0.229368558553219 
1527	 0.229475938389135 
1528	 0.229578909584821 
1529	 0.229674839580789 
1530	 0.229804628762257 
1531	 0.229954910274951 
1532	 0.230096184224621 
1533	 0.230252593027071 
1534	 0.230410813596939 
1535	 0.230563220131105 
1536	 0.230724362825493 
1537	 0.230900966654022 
1538	 0.231075656672535 
1539	 0.231244676417301 
1540	 0.231425466805427 
1541	 0.231627943228694 
1542	 0.231804236410905 
1543	 0.231964969472369 
1544	 0.232143579318912 
1545	 0.232323151290745 
1546	 0.232495605270318 
1547	 0.232682823003595 
1548	 0.232849052350054 
1549	 0.23299145705984 
1550	 0.233146040244696 
1551	 0.233296496835987 
1552	 0.233457374589925 
1553	 0.233629873440735 
1554	 0.233786878604464 
1555	 0.233939460948027 
1556	 0.234099258624341 
1557	 0.234242627059532 
1558	 0.234411856969785 
1559	 0.234609031072315 
1560	 0.234788815764924 
1561	 0.234956314322823 
1562	 0.23515463193844 
1563	 0.235355301346783 
1564	 0.235576646935007 
1565	 0.235830976988535 
1566	 0.236083636469826 
1567	 0.23634499148341 
1568	 0.236608381786814 
1569	 0.236887256996536 
1570	 0.237156982839938 
1571	 0.237416773011019 
1572	 0.237690543522561 
1573	 0.237968554233663 
1574	 0.238251347574896 
1575	 0.238554417684536 
1576	 0.238837850932456 
1577	 0.239100850634753 
1578	 0.239388831552806 
1579	 0.239687159548908 
1580	 0.239975160832903 
1581	 0.240271887629004 
1582	 0.240570171822573 
1583	 0.240857432872372 
1584	 0.24114970831581 
1585	 0.241453308261108 
1586	 0.241757623650966 
1587	 0.242056326918355 
1588	 0.24235886448695 
1589	 0.242665960231993 
1590	 0.242980763923291 
1591	 0.243299809939863 
1592	 0.243619379637814 
1593	 0.243951964907734 
1594	 0.244277594368127 
1595	 0.244599185426742 
1596	 0.244916312266802 
1597	 0.245235571443489 
1598	 0.245544576963281 
1599	 0.245836311624238 
1600	 0.246140973613833 
1601	 0.246452502079433 
1602	 0.246754610891916 
1603	 0.247065455014805 
1604	 0.247358472628922 
1605	 0.247627019030909 
1606	 0.247906965628657 
1607	 0.248184202294346 
1608	 0.248464158803908 
1609	 0.248760784574904 
1610	 0.249034630407839 
1611	 0.249296786846179 
1612	 0.249553510681771 
1613	 0.249791186671822 
1614	 0.250033940646203 
1615	 0.250285763330071 
1616	 0.250518709434123 
1617	 0.250749221991415 
1618	 0.250958902178814 
1619	 0.251147539526197 
1620	 0.251325465561112 
1621	 0.251473817423786 
1622	 0.251639435070267 
1623	 0.251803528621693 
1624	 0.251967468268017 
1625	 0.252142141822538 
1626	 0.252311500820696 
1627	 0.252483220144302 
1628	 0.252637721250209 
1629	 0.252795794555907 
1630	 0.252927161502767 
1631	 0.253019328501593 
1632	 0.253127458768931 
1633	 0.253230799672483 
1634	 0.253330132843772 
1635	 0.253432201529583 
1636	 0.253532940543115 
1637	 0.253643918558925 
1638	 0.253720887708261 
1639	 0.253783200243673 
1640	 0.253837214702235 
1641	 0.253852499001305 
1642	 0.25388185835297 
1643	 0.253935579118701 
1644	 0.253951389413797 
1645	 0.253948681176998 
1646	 0.253933418629754 
1647	 0.253896716072547 
1648	 0.253842749070903 
1649	 0.253776997692639 
1650	 0.253694218301676 
1651	 0.253596300080738 
1652	 0.253469648271165 
1653	 0.253325775139744 
1654	 0.253157541863989 
1655	 0.252958952316338 
1656	 0.252734728478316 
1657	 0.252495001022741 
1658	 0.252217085019616 
1659	 0.251909696342813 
1660	 0.251565167201021 
1661	 0.251193532548868 
1662	 0.250775866679775 
1663	 0.250307852022446 
1664	 0.249809299012091 
1665	 0.249286508324395 
1666	 0.248693845916813 
1667	 0.248054901150723 
1668	 0.247370416618857 
1669	 0.246624750779565 
1670	 0.24583324929946 
1671	 0.244988887739015 
1672	 0.24410980424056 
1673	 0.243184022125508 
1674	 0.242208442217174 
1675	 0.241191385867848 
1676	 0.24015679277384 
1677	 0.239074856366645 
1678	 0.237964739503378 
1679	 0.236827813456186 
1680	 0.235648811250542 
1681	 0.234416920672729 
1682	 0.23317379585289 
1683	 0.231909079367334 
1684	 0.230642170965544 
1685	 0.229344357410558 
1686	 0.228049050854038 
1687	 0.226730745079891 
1688	 0.225427629088497 
1689	 0.224121591996159 
1690	 0.222831367967766 
1691	 0.22156722999413 
1692	 0.220308708665851 
1693	 0.219070642773319 
1694	 0.217807454759452 
1695	 0.216539486126689 
1696	 0.215237565513649 
1697	 0.213909118797299 
1698	 0.212565174831146 
1699	 0.211192758411715 
1700	 0.209872727066802 
1701	 0.208543003849805 
1702	 0.207259544953284 
1703	 0.20598589401035 
1704	 0.204792363672097 
1705	 0.203631974506017 
1706	 0.202531586664794 
1707	 0.201580777046761 
1708	 0.200673674726678 
1709	 0.199790669926975 
1710	 0.198968800662389 
1711	 0.198138961092964 
1712	 0.197361183271579 
1713	 0.196614448700868 
1714	 0.195891339684896 
1715	 0.195249235755471 
1716	 0.194596684009816 
1717	 0.193971395965176 
1718	 0.193398794362916 
1719	 0.192837709312587 
1720	 0.192335833542395 
1721	 0.191918053171713 
1722	 0.191585667938874 
1723	 0.191345179673694 
1724	 0.191208425545668 
1725	 0.191178993654067 
1726	 0.191282437449071 
1727	 0.19151258154588 
1728	 0.191844235460719 
1729	 0.192304406173361 
1730	 0.192872941914278 
1731	 0.193503750404649 
1732	 0.194244107274804 
1733	 0.195016007253476 
1734	 0.195807257064939 
1735	 0.196609251591273 
1736	 0.197339198069125 
1737	 0.198021833552132 
1738	 0.19861051297755 
1739	 0.199093119663247 
1740	 0.199506542803841 
1741	 0.199813279327062 
1742	 0.199987661894529 
1743	 0.200108442909204 
1744	 0.200125924346333 
1745	 0.200118020185156 
1746	 0.200033107263417 
1747	 0.199942923830085 
1748	 0.199816506056844 
1749	 0.199673168985538 
1750	 0.199472642923758 
1751	 0.199330125290339 
1752	 0.199173302496235 
1753	 0.199087555089874 
1754	 0.199050109021312 
1755	 0.199061169205777 
1756	 0.199097250744251 
1757	 0.199215773538488 
1758	 0.19942476564339 
1759	 0.199686264041954 
1760	 0.200044168845523 
1761	 0.200527163210569 
1762	 0.201058179922317 
1763	 0.201666545865169 
1764	 0.202362264530872 
1765	 0.203104526653417 
1766	 0.203923376487231 
1767	 0.204793205954461 
1768	 0.20571052549094 
1769	 0.206622848372809 
1770	 0.207455989976686 
1771	 0.20827369302822 
1772	 0.209039473738845 
1773	 0.209755922410082 
1774	 0.210499043595455 
1775	 0.2111981208133 
1776	 0.21185722599114 
1777	 0.21248357298131 
1778	 0.213035594548828 
1779	 0.213538118694546 
1780	 0.214025685257292 
1781	 0.214489526711565 
1782	 0.214920773851216 
1783	 0.215337991851318 
1784	 0.215712301356145 
1785	 0.216018961036221 
1786	 0.216328686373877 
1787	 0.216602840294171 
1788	 0.216864180818172 
1789	 0.217110522398877 
1790	 0.21735937829988 
1791	 0.217592800511363 
1792	 0.217846069144765 
1793	 0.218102461296028 
1794	 0.21835907696048 
1795	 0.218600630031107 
1796	 0.218849847827634 
1797	 0.219133062562067 
1798	 0.219376837958404 
1799	 0.219643417595115 
1800	 0.219905782191584 
1801	 0.222070625344178 
1802	 0.222369037509626 
1803	 0.222663133339343 
1804	 0.222967549775536 
1805	 0.223286050840599 
1806	 0.223586980564282 
1807	 0.2238767584259 
1808	 0.224180812271493 
1809	 0.224487010353294 
1810	 0.224796802083868 
1811	 0.22510610399542 
1812	 0.225429278256266 
1813	 0.225747966204501 
1814	 0.226095442757198 
1815	 0.22645088775746 
1816	 0.226839031467021 
1817	 0.227219848814333 
1818	 0.22761018016939 
1819	 0.227996257087574 
1820	 0.228369063911374 
1821	 0.228773493837212 
1822	 0.229187701203588 
1823	 0.229631330992949 
1824	 0.230055891620205 
1825	 0.230512200529668 
1826	 0.230949230247501 
1827	 0.231360370560517 
1828	 0.231797390065261 
1829	 0.232243013437304 
1830	 0.23268948067903 
1831	 0.233132336964045 
1832	 0.233619973815395 
1833	 0.234062945590248 
1834	 0.23453356066032 
1835	 0.235027236222352 
1836	 0.23548551583238 
1837	 0.235963217803997 
1838	 0.236466389681985 
1839	 0.236947887423875 
1840	 0.237410889670539 
1841	 0.237893065029699 
1842	 0.23837182629839 
1843	 0.238866783756347 
1844	 0.239385308947553 
1845	 0.239877416339732 
1846	 0.24037527831941 
1847	 0.240855354144073 
1848	 0.241327964075012 
1849	 0.241797650169565 
1850	 0.242251233784958 
1851	 0.242691227829317 
1852	 0.243127304636777 
1853	 0.24355007381435 
1854	 0.243939199653616 
1855	 0.244335436505178 
1856	 0.244713520668598 
1857	 0.245078789833589 
1858	 0.245427858628192 
1859	 0.245752243511956 
1860	 0.246055837519578 
1861	 0.246349607391438 
1862	 0.246633711953758 
1863	 0.246884617129637 
1864	 0.247112008368124 
1865	 0.24729048293319 
1866	 0.247427429140671 
1867	 0.247545283116496 
1868	 0.247634059844789 
1869	 0.24769375175328 
1870	 0.247714455968818 
1871	 0.247701537422399 
1872	 0.247645454077522 
1873	 0.247555079084464 
1874	 0.247431184541406 
1875	 0.247249821720753 
1876	 0.246989382162466 
1877	 0.246686102447926 
1878	 0.246298168896795 
1879	 0.245820440991579 
1880	 0.245308837542353 
1881	 0.244699135394667 
1882	 0.24400561616947 
1883	 0.243229164642874 
1884	 0.242359335957437 
1885	 0.241330088022069 
1886	 0.240221301195924 
1887	 0.238994273243012 
1888	 0.237628583167907 
1889	 0.236274948499293 
1890	 0.234793188284592 
1891	 0.233272984067758 
1892	 0.231737659879227 
1893	 0.230161488288335 
1894	 0.228498303629159 
1895	 0.226921036501219 
1896	 0.225333030610608 
1897	 0.223772524675652 
1898	 0.222362865500701 
1899	 0.220958012701164 
1900	 0.219629431696686 
1901	 0.218419447075806 
1902	 0.217198595648373 
1903	 0.21608586621824 
1904	 0.215042433788949 
1905	 0.214058084803918 
1906	 0.21314079300886 
1907	 0.21236813061245 
1908	 0.211636219490066 
1909	 0.210976611474916 
1910	 0.210380336416104 
1911	 0.209800735335165 
1912	 0.209304812637908 
1913	 0.208853415361113 
1914	 0.20844598241358 
1915	 0.208079055835978 
1916	 0.207772635885129 
1917	 0.207467071478591 
1918	 0.207208252987134 
1919	 0.206992457215088 
1920	 0.206790329202519 
1921	 0.206613701309195 
1922	 0.20646543982584 
1923	 0.206327242957991 
1924	 0.206214571600411 
1925	 0.20615343482685 
1926	 0.206106039712321 
1927	 0.206063782468634 
1928	 0.206076641739428 
1929	 0.206138260611011 
1930	 0.206191864871926 
1931	 0.20630581959125 
1932	 0.206467149262785 
1933	 0.206607574413845 
1934	 0.20680030972298 
1935	 0.207023326083417 
1936	 0.207261542733597 
1937	 0.207553269670388 
1938	 0.207896133256655 
1939	 0.208268176162427 
1940	 0.208688764993836 
1941	 0.209120147507552 
1942	 0.209556697397533 
1943	 0.210045153986676 
1944	 0.210509859956869 
1945	 0.210988233240764 
1946	 0.211545244010828 
1947	 0.212094756817716 
1948	 0.212679871579723 
1949	 0.213318926180805 
1950	 0.213939733567223 
1951	 0.214557047814656 
1952	 0.215197489851491 
1953	 0.215856602201999 
1954	 0.216504168981851 
1955	 0.217171061169817 
1956	 0.217835695064724 
1957	 0.21851098095263 
1958	 0.219197957890872 
1959	 0.219870425301742 
1960	 0.220546780370763 
1961	 0.221204128133566 
1962	 0.221816967912301 
1963	 0.222478316446276 
1964	 0.223158741688368 
1965	 0.223827505077875 
1966	 0.224511857453588 
1967	 0.225212265125083 
1968	 0.225860984427303 
1969	 0.226514403247953 
1970	 0.227164964363116 
1971	 0.227802531390152 
1972	 0.228483999948708 
1973	 0.229157387252693 
1974	 0.229819656514599 
1975	 0.230501561259587 
1976	 0.231151847940632 
1977	 0.231764675096289 
1978	 0.232401109936125 
1979	 0.233037893016989 
1980	 0.233666678803227 
1981	 0.23432905758485 
1982	 0.234961079709416 
1983	 0.235608103388139 
1984	 0.236267789579444 
1985	 0.236863718023942 
1986	 0.237456480522491 
1987	 0.238048652287871 
1988	 0.238602928289468 
1989	 0.239189038108816 
1990	 0.239807214512561 
1991	 0.240394490972725 
1992	 0.240986258284291 
1993	 0.241563526152492 
1994	 0.242071727208278 
1995	 0.24258577679259 
1996	 0.2430850798826 
1997	 0.243566270397696 
1998	 0.244075288336656 
1999	 0.244612207901398 
2000	 0.245118836976452 
2001	 0.245640137028276 
2002	 0.246116593743367 
2003	 0.246568529827231 
2004	 0.247009995288917 
2005	 0.247405518705815 
2006	 0.247818536398658 
2007	 0.248243172020509 
2008	 0.248641680788433 
2009	 0.249023459093522 
2010	 0.249393688215888 
2011	 0.249724723389642 
2012	 0.250035644551637 
2013	 0.25032641914304 
2014	 0.25061219495853 
2015	 0.250852649681306 
2016	 0.251074969037672 
2017	 0.251236983432402 
2018	 0.251355096399557 
2019	 0.251431108922768 
2020	 0.251453613991174 
2021	 0.251443720522564 
2022	 0.251390995605014 
2023	 0.251305106925495 
2024	 0.251192315932537 
2025	 0.251037586207287 
2026	 0.250866508085746 
2027	 0.250662877426167 
2028	 0.250457101396871 
2029	 0.250213620836859 
2030	 0.249988839603657 
2031	 0.249761190251265 
2032	 0.249535783119472 
2033	 0.249296960134361 
2034	 0.24909048116917 
2035	 0.248884002510874 
2036	 0.248699736818804 
2037	 0.248576236220802 
2038	 0.248480378361304 
2039	 0.248433880717236 
2040	 0.248434651676786 
2041	 0.248479174381937 
2042	 0.248564315430138 
2043	 0.248698230396718 
2044	 0.248897111373718 
2045	 0.249107826704659 
2046	 0.249355503257685 
2047	 0.249630604404049 
2048	 0.249932486237826 
2049	 0.250261660746321 
2050	 0.250637366996059 
2051	 0.251018778529569 
2052	 0.251413867148738 
2053	 0.251843133014019 
2054	 0.252257632078126 
2055	 0.252662355394801 
2056	 0.253112418980677 
2057	 0.253578736354704 
2058	 0.254058733867786 
2059	 0.254595673038507 
2060	 0.255090654269928 
2061	 0.255571522201656 
2062	 0.256056446945302 
2063	 0.256531279271442 
2064	 0.257010321608145 
2065	 0.25749279546097 
2066	 0.257977489515688 
2067	 0.258461017167122 
2068	 0.258921707256798 
2069	 0.259377666030275 
2070	 0.259832050459972 
2071	 0.26026061924312 
2072	 0.260675561286677 
2073	 0.261073405920226 
2074	 0.261440152567555 
2075	 0.261818448172603 
2076	 0.262188509365879 
2077	 0.262552165965548 
2078	 0.26293069934163 
2079	 0.263277129903755 
2080	 0.263608173627472 
2081	 0.263918985617275 
2082	 0.264189431064839 
2083	 0.264462708830896 
2084	 0.264774217776576 
2085	 0.265049772129026 
2086	 0.265323741745296 
2087	 0.265617921947483 
2088	 0.265874323288173 
2089	 0.266088708293843 
2090	 0.266319360158576 
2091	 0.266546331107411 
2092	 0.266769225002657 
2093	 0.267002073865331 
2094	 0.267202341524651 
2095	 0.267399730930367 
2096	 0.267563650134722 
2097	 0.267688305932617 
2098	 0.267800903849465 
2099	 0.267906855892419 
2100	 0.268011063198672 
2101	 0.26810934337138 
2102	 0.268218490184654 
2103	 0.268283425483262 
2104	 0.268334250587853 
2105	 0.268349308803391 
2106	 0.268318999334825 
2107	 0.268298822195318 
2108	 0.268256345513231 
2109	 0.268213416550203 
2110	 0.268178509836181 
2111	 0.268116169620114 
2112	 0.268025800483907 
2113	 0.267940753748215 
2114	 0.267840951476224 
2115	 0.267738890966496 
2116	 0.267633876013027 
2117	 0.267540018994282 
2118	 0.267414974796647 
2119	 0.267261289614373 
2120	 0.267140106378803 
2121	 0.267004453284114 
2122	 0.266902250336689 
2123	 0.266834571844004 
2124	 0.266760384266376 
2125	 0.266693759368654 
2126	 0.26663195186728 
2127	 0.266582395801732 
2128	 0.266528513197156 
2129	 0.266483088335292 
2130	 0.2664289745576 
2131	 0.266371787623023 
2132	 0.266311322551263 
2133	 0.266262491350741 
2134	 0.266184431217944 
2135	 0.266091321279882 
2136	 0.265971572666989 
2137	 0.265838193937882 
2138	 0.265665660449995 
2139	 0.265514084017985 
2140	 0.265361816074009 
2141	 0.265200736181134 
2142	 0.265025503222577 
2143	 0.264870772207953 
2144	 0.264720259808894 
2145	 0.264568933654465 
2146	 0.264403455529041 
2147	 0.264287507920108 
2148	 0.264186846105196 
2149	 0.264105168741036 
2150	 0.264111497917288 
2151	 0.264053460291953 
2152	 0.263968906704207 
2153	 0.26387003520405 
2154	 0.263793560295429 
2155	 0.263681116336759 
2156	 0.263567825682801 
2157	 0.263471407831739 
2158	 0.263339207661741 
2159	 0.263173754276138 
2160	 0.262999529605887 
2161	 0.2628035109305 
2162	 0.262626546213715 
2163	 0.262433870911392 
2164	 0.262252207630541 
2165	 0.262073344308891 
2166	 0.261921123526888 
2167	 0.261756044535648 
2168	 0.261636450244438 
2169	 0.261562998629756 
2170	 0.26150312037611 
2171	 0.2614593505073 
2172	 0.26144512866763 
2173	 0.261466535083572 
2174	 0.261500443764465 
2175	 0.261529864454253 
2176	 0.261608484639252 
2177	 0.26169193247468 
2178	 0.261771867448348 
2179	 0.261908205029549 
2180	 0.26209983109381 
2181	 0.262270774761518 
2182	 0.262457159763458 
2183	 0.26266770544443 
2184	 0.262887731166677 
2185	 0.263112429933232 
2186	 0.263372408629434 
2187	 0.263621231407006 
2188	 0.263856825668225 
2189	 0.26410789532311 
2190	 0.264384583794329 
2191	 0.26464503071476 
2192	 0.264899295346745 
2193	 0.26515559959317 
2194	 0.265425675442888 
2195	 0.265663277162066 
2196	 0.26588643316769 
2197	 0.266105983992822 
2198	 0.266291319805811 
2199	 0.266461406118975 
2200	 0.26663691389084 
2201	 0.266806705316609 
2202	 0.266983099670293 
2203	 0.267176364888213 
2204	 0.267315609651018 
2205	 0.267443710097572 
2206	 0.267542258764197 
2207	 0.267581688374034 
2208	 0.267645469706031 
2209	 0.267725127899251 
2210	 0.267763695151029 
2211	 0.267782069608395 
2212	 0.267786750692689 
2213	 0.267754827401517 
2214	 0.267725460585216 
2215	 0.267688747087565 
2216	 0.267646456412336 
2217	 0.267622725373711 
2218	 0.267547361723968 
2219	 0.267447960657812 
2220	 0.267321052789883 
2221	 0.26717402805942 
2222	 0.266959289164199 
2223	 0.266716434168054 
2224	 0.266467221536757 
2225	 0.266169347236416 
2226	 0.265812536706875 
2227	 0.265381608393883 
2228	 0.264901458848496 
2229	 0.264357266110401 
2230	 0.263714142386344 
2231	 0.263065596896597 
2232	 0.262416942940272 
2233	 0.261626050466815 
2234	 0.260786866733571 
2235	 0.259808054850305 
2236	 0.258689226092931 
2237	 0.257510928107351 
2238	 0.25621148204122 
2239	 0.254867233797858 
2240	 0.253474609363187 
2241	 0.251952724706586 
2242	 0.250352660137906 
2243	 0.248648764171038 
2244	 0.246782381016197 
2245	 0.244903190737947 
2246	 0.242897048727355 
2247	 0.240923666294717 
2248	 0.238933965274833 
2249	 0.23691589914598 
2250	 0.234911239283669 
2251	 0.232875482114438 
2252	 0.230665888973364 
2253	 0.228527660164314 
2254	 0.226351761776691 
2255	 0.224154625964918 
2256	 0.222201613165339 
2257	 0.220276965344584 
2258	 0.218431547883114 
2259	 0.216738122621393 
2260	 0.214971904945941 
2261	 0.213183973239086 
2262	 0.2115271143824 
2263	 0.209858910965349 
2264	 0.208372549161072 
2265	 0.207074289272718 
2266	 0.20573103845811 
2267	 0.204492047298156 
2268	 0.203229530137112 
2269	 0.201960869457032 
2270	 0.200747609836177 
2271	 0.199533270655029 
2272	 0.198405551627183 
2273	 0.197368282015602 
2274	 0.196311791644249 
2275	 0.195377538280939 
2276	 0.194325519377138 
2277	 0.193184858186468 
2278	 0.192084498871522 
2279	 0.190925220957021 
2280	 0.189811378693485 
2281	 0.188771209574874 
2282	 0.187675912932345 
2283	 0.18658028534893 
2284	 0.185459418550151 
2285	 0.184229835024732 
2286	 0.183043196617326 
2287	 0.181818922178429 
2288	 0.18057977417495 
2289	 0.179441449699048 
2290	 0.178253421276251 
2291	 0.177071133227179 
2292	 0.175866918636303 
2293	 0.174569336894383 
2294	 0.173337670716736 
2295	 0.17211471740675 
2296	 0.170962423776392 
2297	 0.169979392601398 
2298	 0.169109498234313 
2299	 0.16836417127876 
2300	 0.167776501719709 
2301	 0.167274732875571 
2302	 0.166858534256223 
2303	 0.166649159294201 
2304	 0.166562497303939 
2305	 0.166705155351859 
2306	 0.167064187028913 
2307	 0.16758269145528 
2308	 0.168316338714671 
2309	 0.169187423483652 
2310	 0.170294169742796 
2311	 0.171419511909879 
2312	 0.172766411725254 
2313	 0.174016225682542 
2314	 0.175339111022796 
2315	 0.176553455179053 
2316	 0.177717003986541 
2317	 0.178820260457209 
2318	 0.179912231900527 
2319	 0.180842932297502 
2320	 0.181722272476569 
2321	 0.182415711967666 
2322	 0.182913095750913 
2323	 0.183308669323943 
2324	 0.183529975505429 
2325	 0.183698873764038 
2326	 0.18375734325237 
2327	 0.183731509279487 
2328	 0.183629201509495 
2329	 0.183419728506238 
2330	 0.183115639647985 
2331	 0.182661124750061 
2332	 0.182112511858071 
2333	 0.181480403778785 
2334	 0.180706914944146 
2335	 0.179905628277235 
2336	 0.179053584961254 
2337	 0.178129402304339 
2338	 0.177253664166319 
2339	 0.176317932862053 
2340	 0.175456553058492 
2341	 0.174668222763233 
2342	 0.173853325004288 
2343	 0.173208633310558 
2344	 0.172660454283891 
2345	 0.172260125315898 
2346	 0.172138390740408 
2347	 0.172220534986932 
2348	 0.172492685954825 
2349	 0.173025233290021 
2350	 0.17370505629671 
2351	 0.174527817424204 
2352	 0.175485922719601 
2353	 0.176455630416085 
2354	 0.177411125008842 
2355	 0.178357790058421 
2356	 0.179200488124086 
2357	 0.179972471412406 
2358	 0.180726910006411 
2359	 0.181321590642247 
2360	 0.181843486002929 
2361	 0.182248619575508 
2362	 0.182508320835716 
2363	 0.182770352076112 
2364	 0.182970398396298 
2365	 0.183164217426629 
2366	 0.183401886936294 
2367	 0.183586173244718 
2368	 0.183744264007583 
2369	 0.183874384147917 
2370	 0.183960180933712 
2371	 0.184029658822406 
2372	 0.184108568832813 
2373	 0.184213829146031 
2374	 0.184361011812461 
2375	 0.184443351381953 
2376	 0.18450311141679 
2377	 0.184644742194235 
2378	 0.184737107111653 
2379	 0.184860618614881 
2380	 0.18501529722855 
2381	 0.185097582295488 
2382	 0.185201129024702 
2383	 0.185263865969995 
2384	 0.185397990283036 
2385	 0.185590287868609 
2386	 0.185752418285876 
2387	 0.185951635000776 
2388	 0.186120665018019 
2389	 0.186214328400171 
2390	 0.186364331945704 
2391	 0.186586316009768 
2392	 0.186707747616007 
2393	 0.186844824730264 
2394	 0.186918123246676 
2395	 0.186831557730648 
2396	 0.186852239131084 
2397	 0.186887108227006 
2398	 0.186933480393892 
2399	 0.187048628392064 
2400	 0.187185246565824 
2401	 0.187341772633267 
2402	 0.187391423534938 
2403	 0.187496064685447 
2404	 0.187449854465995 
2405	 0.187382522115156 
2406	 0.18748850178235 
2407	 0.187521665936919 
2408	 0.187666329602022 
2409	 0.187853539094472 
2410	 0.187874114788754 
2411	 0.18791505565297 
2412	 0.187847841016082 
2413	 0.187762782969215 
2414	 0.18783014223192 
2415	 0.187908401501124 
2416	 0.187979642423648 
2417	 0.188017754406623 
2418	 0.187950454212642 
2419	 0.187799079629814 
2420	 0.187664188455515 
2421	 0.187679761072049 
2422	 0.187804335467562 
2423	 0.187922556309178 
2424	 0.187963756530127 
2425	 0.18784796410167 
2426	 0.187781599640106 
2427	 0.18785448760267 
2428	 0.187957981903392 
2429	 0.18815172895195 
2430	 0.188099836921381 
2431	 0.187789527516183 
2432	 0.187574818099334 
2433	 0.18733227718839 
2434	 0.187204207184113 
2435	 0.187187536982051 
2436	 0.187085727193854 
2437	 0.186933139228576 
2438	 0.186719807680791 
2439	 0.186624484343095 
2440	 0.18658076319612 
2441	 0.186504710751289 
2442	 0.186428470306854 
2443	 0.186176028872063 
2444	 0.185897423155786 
2445	 0.185708926232299 
2446	 0.185467513648978 
2447	 0.185270156542159 
2448	 0.185062156893488 
2449	 0.184696258175575 
2450	 0.184300079353371 
2451	 0.183964895816589 
2452	 0.183631555872272 
2453	 0.183214982391202 
2454	 0.183028123109263 
2455	 0.182899221907851 
2456	 0.182388326722585 
2457	 0.181980409956666 
2458	 0.181570406828039 
2459	 0.181016980592268 
2460	 0.180814123463469 
2461	 0.180772408124071 
2462	 0.180640615427643 
2463	 0.180490582007171 
2464	 0.180397094563714 
2465	 0.180176504986714 
2466	 0.179908504727966 
2467	 0.17983749803456 
2468	 0.1795963691042 
2469	 0.179313929144662 
2470	 0.179238970010225 
2471	 0.178951180138803 
2472	 0.178540013807199 
2473	 0.178363374964616 
2474	 0.178238776737841 
2475	 0.17798821849617 
2476	 0.177906752728965 
2477	 0.17799630751151 
2478	 0.177886341158567 
2479	 0.177805366272454 
2480	 0.177669403748956 
2481	 0.177687987155363 
2482	 0.177807177444619 
2483	 0.178020331131581 
2484	 0.178174168152751 
2485	 0.178309172655582 
2486	 0.178048752830591 
2487	 0.177767472152964 
2488	 0.177713211478044 
2489	 0.177423102817102 
2490	 0.177339546954507 
2491	 0.177518457639283 
2492	 0.177765773710859 
2493	 0.177966902531804 
2494	 0.178077775539146 
2495	 0.178399455306462 
2496	 0.178509136818721 
2497	 0.17849618373429 
2498	 0.178604833968159 
2499	 0.178297883681021 
2500	 0.177883512756633 
