Wavelength	spectrum00006.asd
350	 7.34910358869698E-02 
351	 7.30221447981424E-02 
352	 7.13383843316034E-02 
353	 6.96037714303306E-02 
354	 6.98353464896749E-02 
355	 6.94403251707069E-02 
356	 6.90977253332344E-02 
357	 6.91116317695044E-02 
358	 6.61498311950766E-02 
359	 6.44682573773945E-02 
360	 6.47889830295917E-02 
361	 0.065801872923889 
362	 6.70497093455958E-02 
363	 6.70763170430675E-02 
364	 6.60369227507003E-02 
365	 6.61489225140317E-02 
366	 6.81645551887481E-02 
367	 6.94172435724183E-02 
368	 6.83587089630719E-02 
369	 6.97510390538802E-02 
370	 0.071479657608977 
371	 7.25315899299155E-02 
372	 7.28289605160362E-02 
373	 7.43446752371142E-02 
374	 0.0757653270713 
375	 0.076489397464334 
376	 7.74134228273001E-02 
377	 7.95085931791875E-02 
378	 8.16337175266279E-02 
379	 8.28863705588244E-02 
380	 8.52621831807394E-02 
381	 8.79538922060625E-02 
382	 8.99037982283427E-02 
383	 9.03965093903898E-02 
384	 9.25854261326766E-02 
385	 9.52871834185632E-02 
386	 9.74059804641409E-02 
387	 9.87502124162665E-02 
388	 0.101131163536853 
389	 0.104222673155806 
390	 0.10718401130787 
391	 0.10977915363912 
392	 0.112536360369296 
393	 0.115472472252729 
394	 0.118298644378742 
395	 0.121406206859436 
396	 0.124402068574432 
397	 0.127073228548409 
398	 0.129612754498885 
399	 0.13253789569007 
400	 0.135684840940396 
401	 0.138700055293598 
402	 0.14132559893115 
403	 0.145070437211505 
404	 0.149047342221523 
405	 0.150895342716735 
406	 0.153801369770005 
407	 0.157159264318885 
408	 0.160206720464639 
409	 0.162980150293651 
410	 0.165754985451428 
411	 0.168691617314796 
412	 0.171785986487226 
413	 0.174517189513127 
414	 0.177196825201674 
415	 0.179995924626012 
416	 0.182899483235353 
417	 0.185981604488877 
418	 0.188952496734271 
419	 0.191653256952898 
420	 0.194349274005375 
421	 0.197180818909077 
422	 0.200033526409502 
423	 0.202727793619796 
424	 0.205454507363928 
425	 0.208049448879789 
426	 0.210568689119787 
427	 0.213341346495853 
428	 0.216128298167922 
429	 0.218809961701866 
430	 0.221349283599522 
431	 0.223874485186025 
432	 0.226436662152983 
433	 0.229042832106812 
434	 0.231677298817733 
435	 0.234304763613458 
436	 0.236862802576955 
437	 0.239351323597768 
438	 0.241850937399309 
439	 0.244402211136095 
440	 0.246991001979897 
441	 0.249555057854786 
442	 0.251911868515931 
443	 0.25438697301991 
444	 0.256942165151173 
445	 0.259267558657745 
446	 0.26167922750644 
447	 0.264124835566401 
448	 0.266495516852208 
449	 0.268681606407103 
450	 0.270802106321729 
451	 0.27290903716193 
452	 0.275030281969668 
453	 0.277211277312683 
454	 0.27936100105944 
455	 0.281419049100658 
456	 0.283380806327774 
457	 0.285272763541785 
458	 0.287117105167422 
459	 0.288932044686563 
460	 0.290707863610653 
461	 0.29251813001769 
462	 0.294264130537018 
463	 0.295794116301359 
464	 0.29737750326873 
465	 0.299058581379075 
466	 0.300699964898445 
467	 0.301925382538558 
468	 0.303218879649623 
469	 0.304605058927649 
470	 0.305966137383573 
471	 0.307221234578698 
472	 0.308313358811584 
473	 0.30929596071414 
474	 0.310295361595394 
475	 0.31118041124811 
476	 0.312063064199223 
477	 0.3129743719169 
478	 0.313689812965095 
479	 0.314277119041954 
480	 0.314818326033739 
481	 0.315370438580642 
482	 0.315762350213609 
483	 0.316054266849593 
484	 0.316307212742832 
485	 0.316559461845684 
486	 0.31676216040791 
487	 0.316865699877787 
488	 0.316829699594887 
489	 0.3166182585166 
490	 0.316423339843802 
491	 0.316255555873644 
492	 0.31601175275843 
493	 0.315678193908843 
494	 0.315193230787888 
495	 0.314554956597292 
496	 0.313856200914958 
497	 0.313180610870382 
498	 0.312443256540368 
499	 0.311547796715452 
500	 0.310614941797212 
501	 0.309627225613984 
502	 0.308588776880311 
503	 0.307521551496203 
504	 0.306340625215418 
505	 0.305057993786301 
506	 0.30373532822277 
507	 0.302521994410504 
508	 0.301195936415789 
509	 0.299764003570291 
510	 0.298322409992174 
511	 0.296776867909152 
512	 0.295252406800117 
513	 0.293780717325099 
514	 0.292251354215676 
515	 0.290554068071036 
516	 0.288806745908142 
517	 0.287134223416427 
518	 0.285466385069218 
519	 0.283709018048444 
520	 0.2819246441969 
521	 0.280264844412597 
522	 0.278560488708327 
523	 0.276796409570689 
524	 0.275003292994943 
525	 0.273256991807005 
526	 0.271429711456711 
527	 0.269618207464511 
528	 0.267944433058746 
529	 0.266204847934571 
530	 0.264433070480974 
531	 0.262653233659765 
532	 0.260866401443931 
533	 0.259044038947455 
534	 0.257267737530808 
535	 0.255570178878081 
536	 0.253760952759192 
537	 0.252002533697058 
538	 0.25028085761257 
539	 0.248493954213106 
540	 0.246727082872311 
541	 0.245022443409571 
542	 0.243367978426074 
543	 0.241671017764909 
544	 0.240088944996326 
545	 0.238494974205051 
546	 0.236759870402053 
547	 0.23513904779498 
548	 0.233578566334159 
549	 0.232059585643571 
550	 0.230601851222833 
551	 0.229123164817054 
552	 0.227679187504067 
553	 0.226303125317715 
554	 0.224909030385536 
555	 0.223532336698752 
556	 0.222198818706479 
557	 0.220922814346166 
558	 0.219642332104197 
559	 0.2184155029017 
560	 0.217241469504905 
561	 0.21602286415579 
562	 0.214854937334176 
563	 0.213744821275243 
564	 0.212642883344829 
565	 0.211382692431375 
566	 0.210133802104579 
567	 0.208918469854118 
568	 0.207653546981147 
569	 0.206487591276551 
570	 0.205344680794613 
571	 0.204202047796082 
572	 0.203234706005437 
573	 0.202301665785957 
574	 0.201372738322671 
575	 0.200455427987162 
576	 0.199538205620704 
577	 0.198597091475802 
578	 0.197630307158851 
579	 0.196664350470308 
580	 0.195722935075414 
581	 0.194810797192939 
582	 0.193926300158279 
583	 0.193069423134175 
584	 0.192256643447407 
585	 0.19146876108822 
586	 0.190667373668322 
587	 0.189876497744268 
588	 0.189068325250416 
589	 0.188233850995651 
590	 0.187398923291805 
591	 0.186615236168075 
592	 0.185890888289424 
593	 0.185205554998832 
594	 0.184489006007728 
595	 0.183809606195818 
596	 0.183146676353278 
597	 0.182410617336767 
598	 0.181750691952182 
599	 0.181101783701253 
600	 0.18041366247065 
601	 0.179765316039218 
602	 0.179183733064911 
603	 0.178624921575791 
604	 0.178026229417238 
605	 0.177442029753149 
606	 0.176906081168014 
607	 0.176414471953003 
608	 0.175921158374347 
609	 0.175400352153015 
610	 0.174888312639747 
611	 0.174423474805966 
612	 0.173998086126033 
613	 0.173593575782264 
614	 0.173192016951037 
615	 0.172782666321402 
616	 0.172419182423222 
617	 0.17208547400943 
618	 0.171759215747358 
619	 0.171419362344211 
620	 0.171143523656385 
621	 0.170906509673973 
622	 0.170656257589803 
623	 0.170391410429445 
624	 0.170198710622406 
625	 0.170063085247267 
626	 0.169876715751038 
627	 0.169712066145998 
628	 0.16956670200579 
629	 0.169438206118226 
630	 0.169361185638129 
631	 0.169286736968891 
632	 0.169220626356215 
633	 0.169192304020125 
634	 0.169208138686111 
635	 0.169222362833273 
636	 0.169233145940841 
637	 0.169297687989158 
638	 0.169344045328003 
639	 0.169404432345366 
640	 0.169504473780399 
641	 0.169555831397635 
642	 0.169653961454125 
643	 0.169817336226617 
644	 0.170009042642619 
645	 0.170171541263722 
646	 0.170355643066848 
647	 0.17058979589421 
648	 0.170846236470954 
649	 0.171053724359748 
650	 0.171284466046918 
651	 0.17160699341381 
652	 0.171869577987101 
653	 0.172141044435476 
654	 0.172452113153533 
655	 0.172794797675948 
656	 0.173154428017656 
657	 0.173496682387211 
658	 0.17382785112445 
659	 0.174247602880629 
660	 0.174679898457917 
661	 0.175085807502709 
662	 0.175464724098788 
663	 0.175948147723808 
664	 0.176421637600892 
665	 0.176852719412694 
666	 0.17730531983716 
667	 0.177774371360362 
668	 0.178254939855296 
669	 0.178752939717114 
670	 0.179314535664703 
671	 0.179852565110486 
672	 0.180368812977374 
673	 0.180908280450376 
674	 0.181490755635264 
675	 0.182068098267208 
676	 0.182623882772303 
677	 0.183187044401671 
678	 0.183751094307399 
679	 0.184322799355268 
680	 0.184914155452625 
681	 0.185548761431258 
682	 0.186175358964232 
683	 0.186783143704368 
684	 0.18738720493595 
685	 0.187996778588285 
686	 0.188623689008374 
687	 0.189276011623194 
688	 0.18995831688497 
689	 0.190596098698691 
690	 0.191221381093326 
691	 0.19187989779714 
692	 0.192551730482504 
693	 0.193243442037924 
694	 0.19392980294796 
695	 0.194574982731691 
696	 0.195260614121223 
697	 0.195920703355893 
698	 0.196549282503685 
699	 0.197262406563514 
700	 0.197955502805244 
701	 0.198641997687211 
702	 0.199356466394466 
703	 0.200082406983937 
704	 0.200793158716695 
705	 0.201472946279595 
706	 0.202123185898271 
707	 0.202825092518244 
708	 0.203548376980602 
709	 0.204251173025098 
710	 0.204895884148632 
711	 0.205591644414085 
712	 0.206298428567387 
713	 0.206968778360088 
714	 0.207737836197385 
715	 0.208392802589834 
716	 0.208967299370806 
717	 0.209659991270202 
718	 0.210360352019094 
719	 0.211048978319463 
720	 0.211726984953079 
721	 0.212412922566579 
722	 0.213034602971216 
723	 0.213649782900093 
724	 0.214325342355129 
725	 0.215004057497148 
726	 0.2156465163132 
727	 0.216267873925538 
728	 0.216916013231839 
729	 0.217542609749235 
730	 0.218161705324428 
731	 0.218767145491388 
732	 0.219302797647823 
733	 0.21991780815151 
734	 0.220555762840993 
735	 0.221138202107091 
736	 0.221753992598928 
737	 0.222335624583834 
738	 0.222891319342854 
739	 0.223475775111261 
740	 0.224065219109322 
741	 0.22465007483379 
742	 0.225208730698026 
743	 0.225699820878148 
744	 0.226272034680026 
745	 0.226863857581972 
746	 0.227385793900572 
747	 0.227859015915254 
748	 0.228347756697944 
749	 0.228871708865701 
750	 0.229409166854588 
751	 0.2298640197329 
752	 0.230284359981982 
753	 0.230737372796705 
754	 0.231288862052126 
755	 0.231803755856071 
756	 0.232253723853329 
757	 0.232657561117073 
758	 0.233077619379712 
759	 0.23350105564554 
760	 0.233932604034052 
761	 0.23437820321389 
762	 0.234809905612029 
763	 0.235233806695157 
764	 0.235643530401292 
765	 0.236023209941738 
766	 0.23646865075957 
767	 0.236934157668653 
768	 0.237374215920598 
769	 0.237816325203692 
770	 0.238191454522609 
771	 0.238544561457309 
772	 0.238945212376832 
773	 0.239352677654594 
774	 0.239774709346571 
775	 0.240195687066414 
776	 0.240582029761546 
777	 0.240921953626198 
778	 0.241317455616642 
779	 0.24178241246919 
780	 0.242158222843036 
781	 0.242495608729441 
782	 0.242864829000389 
783	 0.243302675541287 
784	 0.243707324495303 
785	 0.244082822093864 
786	 0.244448180580901 
787	 0.244823228471985 
788	 0.245158302450719 
789	 0.245499724189303 
790	 0.245880505777018 
791	 0.246304328131382 
792	 0.246718014727902 
793	 0.247098140219092 
794	 0.247454111918181 
795	 0.247855661232391 
796	 0.248228675560134 
797	 0.248638655082478 
798	 0.249147348452632 
799	 0.249552108355057 
800	 0.249911176130689 
801	 0.250270181668831 
802	 0.250656423229897 
803	 0.251099357032478 
804	 0.251558703091447 
805	 0.251998320772392 
806	 0.252404979354431 
807	 0.252853830464188 
808	 0.253312379990275 
809	 0.253743333639201 
810	 0.254176660125768 
811	 0.254661399949864 
812	 0.255166547116855 
813	 0.255641010349176 
814	 0.256157412499348 
815	 0.256639922642906 
816	 0.257091623448689 
817	 0.257586630604795 
818	 0.258081974299566 
819	 0.258624707902433 
820	 0.259201701771627 
821	 0.25968437924008 
822	 0.260212104348679 
823	 0.260779452497651 
824	 0.26134606769061 
825	 0.261887106015577 
826	 0.262496382012229 
827	 0.263153972777816 
828	 0.263789902852256 
829	 0.264403944483998 
830	 0.265007493620276 
831	 0.265602139080236 
832	 0.266184513012094 
833	 0.266801407448023 
834	 0.267458985197696 
835	 0.268149613086282 
836	 0.268857432621902 
837	 0.269561875561815 
838	 0.270257296992867 
839	 0.270954142211484 
840	 0.271697982862081 
841	 0.272413981849941 
842	 0.273145306554349 
843	 0.273953367206259 
844	 0.274729317082852 
845	 0.275545212761453 
846	 0.276379407569021 
847	 0.277151728148308 
848	 0.277956579113803 
849	 0.278738723941854 
850	 0.279525505347383 
851	 0.280453697741007 
852	 0.281340185897448 
853	 0.282261452274454 
854	 0.28324825645725 
855	 0.284117833427149 
856	 0.285024727755716 
857	 0.28598404793661 
858	 0.286980757871991 
859	 0.288077015017118 
860	 0.289102073392379 
861	 0.290082735303463 
862	 0.291133778300838 
863	 0.29221159911082 
864	 0.293281100068308 
865	 0.294374339328456 
866	 0.295561752125802 
867	 0.296660683675757 
868	 0.297775046246392 
869	 0.29896153879688 
870	 0.300156464135081 
871	 0.301372300287573 
872	 0.302618969755714 
873	 0.303880489182557 
874	 0.30508178376432 
875	 0.306344695087686 
876	 0.307703923636028 
877	 0.309128524046946 
878	 0.310474404001909 
879	 0.311818612120549 
880	 0.313182200295282 
881	 0.314556137532709 
882	 0.315934970116256 
883	 0.317364574289881 
884	 0.318830143252344 
885	 0.32028315459078 
886	 0.321804195767742 
887	 0.323353801414007 
888	 0.324876750383895 
889	 0.326327294654674 
890	 0.327903631199319 
891	 0.329534205975143 
892	 0.331126159228702 
893	 0.332644227419986 
894	 0.334199612964905 
895	 0.335861410120323 
896	 0.337620389668177 
897	 0.339308064516655 
898	 0.341041458543813 
899	 0.342795228388031 
900	 0.344520478391828 
901	 0.346258936224249 
902	 0.347987326679545 
903	 0.349735427210794 
904	 0.351538147170622 
905	 0.353314342236384 
906	 0.355138401359231 
907	 0.357022876654187 
908	 0.358929066004926 
909	 0.36085021863475 
910	 0.362785026468266 
911	 0.364746576445482 
912	 0.366758092098678 
913	 0.368772879362791 
914	 0.370837284660391 
915	 0.372958192808237 
916	 0.375076683355745 
917	 0.37713647392782 
918	 0.379174028485229 
919	 0.381257998950656 
920	 0.383467870704097 
921	 0.385618339561747 
922	 0.38780150640651 
923	 0.390093646750884 
924	 0.392340340170254 
925	 0.394607641566921 
926	 0.396856578904517 
927	 0.399079826971524 
928	 0.401470058741333 
929	 0.403947588677033 
930	 0.40640532477259 
931	 0.408765181266157 
932	 0.411116719793175 
933	 0.413593281505344 
934	 0.416197995573869 
935	 0.418827671791561 
936	 0.421284479309693 
937	 0.423757339612387 
938	 0.426282788502682 
939	 0.428796552872346 
940	 0.431456283496933 
941	 0.434073067338907 
942	 0.436602964847207 
943	 0.43914739562359 
944	 0.441614038856864 
945	 0.44418486883346 
946	 0.446856437321354 
947	 0.449414373345697 
948	 0.451914015574327 
949	 0.454417164873948 
950	 0.456934626434884 
951	 0.459413984554229 
952	 0.461847993733737 
953	 0.46431889739051 
954	 0.466843635341566 
955	 0.469321901228642 
956	 0.471741002943249 
957	 0.474149292222432 
958	 0.476559747155021 
959	 0.478901265885359 
960	 0.481270785895404 
961	 0.48367343989575 
962	 0.486057113253485 
963	 0.488307405785912 
964	 0.490619726461737 
965	 0.493027847642296 
966	 0.495478960707719 
967	 0.497844806391358 
968	 0.500245766034252 
969	 0.50260455391581 
970	 0.504896666255289 
971	 0.507368260328902 
972	 0.509693596381594 
973	 0.512025021189815 
974	 0.514508115776253 
975	 0.516835054636016 
976	 0.519202620226508 
977	 0.521590319273773 
978	 0.523931231754857 
979	 0.526222080871863 
980	 0.528580902626207 
981	 0.53093914007598 
982	 0.533205112692321 
983	 0.535445085393685 
984	 0.537710185846278 
985	 0.539946046564901 
986	 0.542126294052687 
987	 0.544441042382988 
988	 0.546789040448405 
989	 0.549039443844253 
990	 0.551126980239168 
991	 0.553214855696616 
992	 0.555391396792543 
993	 0.557583068462099 
994	 0.559699177460556 
995	 0.561841269580281 
996	 0.563889428831729 
997	 0.565921027008273 
998	 0.56799978988883 
999	 0.56989554516977 
1000	 0.571814869439251 
1001	 0.579235001333479 
1002	 0.581339875359135 
1003	 0.583505868800895 
1004	 0.585496193769998 
1005	 0.587367187686196 
1006	 0.589290965138434 
1007	 0.591115290119832 
1008	 0.593032999307315 
1009	 0.595019291720518 
1010	 0.596941014112387 
1011	 0.598893318434955 
1012	 0.600766298926587 
1013	 0.602555922045252 
1014	 0.604385204418304 
1015	 0.606192349801857 
1016	 0.607991797095727 
1017	 0.609883635194651 
1018	 0.611618153265191 
1019	 0.613348142597999 
1020	 0.615149685058576 
1021	 0.616890808473405 
1022	 0.618610416444168 
1023	 0.620337775162668 
1024	 0.622032272735796 
1025	 0.623755729867889 
1026	 0.625506174858431 
1027	 0.627203843958637 
1028	 0.628915808101398 
1029	 0.630619976849007 
1030	 0.632137609944481 
1031	 0.633736613471169 
1032	 0.635267960125643 
1033	 0.636715696351711 
1034	 0.638324878127713 
1035	 0.639878128213354 
1036	 0.641418180988438 
1037	 0.643020796615251 
1038	 0.644512218846689 
1039	 0.645924252443058 
1040	 0.647369399155668 
1041	 0.648735604805728 
1042	 0.650176397496925 
1043	 0.65169851810673 
1044	 0.653106757527524 
1045	 0.65453958267381 
1046	 0.656033002440628 
1047	 0.657384032695233 
1048	 0.658785402704293 
1049	 0.660189700116895 
1050	 0.661556500367485 
1051	 0.663012768817441 
1052	 0.664402498819067 
1053	 0.665795402037433 
1054	 0.667244037088772 
1055	 0.668577763283047 
1056	 0.669816073978419 
1057	 0.67110693887081 
1058	 0.672362996707123 
1059	 0.673574494133686 
1060	 0.674893676289647 
1061	 0.676199263210491 
1062	 0.67749687443526 
1063	 0.678773758457458 
1064	 0.679987197764678 
1065	 0.681227510015691 
1066	 0.682433322834556 
1067	 0.68364438492161 
1068	 0.68486975125435 
1069	 0.686006529607819 
1070	 0.687154680651744 
1071	 0.688294777496659 
1072	 0.689397213603121 
1073	 0.690451383829636 
1074	 0.691593432944467 
1075	 0.692668145991812 
1076	 0.693694718369617 
1077	 0.694807234104091 
1078	 0.695830126011044 
1079	 0.696863499496915 
1080	 0.697931379751725 
1081	 0.698907073049785 
1082	 0.699930340970835 
1083	 0.700910811480703 
1084	 0.701845425444602 
1085	 0.702844567108842 
1086	 0.703780026513564 
1087	 0.704661292725261 
1088	 0.705545886715111 
1089	 0.706445598747174 
1090	 0.707253278987505 
1091	 0.708056462377775 
1092	 0.708825779623812 
1093	 0.709576865694725 
1094	 0.71035866392933 
1095	 0.711108343670072 
1096	 0.711912277943285 
1097	 0.712704018015679 
1098	 0.713394848833862 
1099	 0.714101865068317 
1100	 0.714754748285073 
1101	 0.715365875320792 
1102	 0.716019268682619 
1103	 0.716628396441898 
1104	 0.717212599214131 
1105	 0.717784439994373 
1106	 0.718346057915198 
1107	 0.718853545621575 
1108	 0.719367428884313 
1109	 0.719891199215342 
1110	 0.720395696188081 
1111	 0.720895503126821 
1112	 0.721367980334754 
1113	 0.72181609256743 
1114	 0.722243628378031 
1115	 0.72261038438852 
1116	 0.722974424495903 
1117	 0.723338059218995 
1118	 0.723681214225138 
1119	 0.724031753325573 
1120	 0.724336597568409 
1121	 0.72462497396779 
1122	 0.724860365234055 
1123	 0.725065800684414 
1124	 0.725203679708139 
1125	 0.725321197437445 
1126	 0.725395363543747 
1127	 0.72538100873308 
1128	 0.725318498114866 
1129	 0.725213915880344 
1130	 0.725045342369466 
1131	 0.724833976635308 
1132	 0.724603044514759 
1133	 0.724341662704239 
1134	 0.724039011485655 
1135	 0.723662432909756 
1136	 0.723236784504385 
1137	 0.722755999232103 
1138	 0.722186001755604 
1139	 0.721603342127116 
1140	 0.720980333581846 
1141	 0.720356098594798 
1142	 0.719686611820569 
1143	 0.718990118940169 
1144	 0.718245835292598 
1145	 0.717422686888238 
1146	 0.716596325913835 
1147	 0.715719171878871 
1148	 0.714793852578921 
1149	 0.713906978993744 
1150	 0.712978243890367 
1151	 0.712045521590544 
1152	 0.711089083921857 
1153	 0.71013072760715 
1154	 0.709126883366535 
1155	 0.708107030929259 
1156	 0.70701923000106 
1157	 0.705886277459797 
1158	 0.704759840765931 
1159	 0.70359069549109 
1160	 0.702393456014587 
1161	 0.701224231790468 
1162	 0.699946377510998 
1163	 0.698711300477099 
1164	 0.697490548369643 
1165	 0.696256936520755 
1166	 0.695136261010879 
1167	 0.693988113358856 
1168	 0.692855841598839 
1169	 0.691718106254295 
1170	 0.690601759429147 
1171	 0.689445802724209 
1172	 0.688286944593952 
1173	 0.687081301733628 
1174	 0.685850866570818 
1175	 0.684628352477219 
1176	 0.683392915312032 
1177	 0.68211806382127 
1178	 0.680844806595518 
1179	 0.679487736014493 
1180	 0.678171007234289 
1181	 0.676828369672925 
1182	 0.675482254287139 
1183	 0.674247058767996 
1184	 0.672962339286742 
1185	 0.671697400328638 
1186	 0.670516491195086 
1187	 0.669364319677782 
1188	 0.668309225953167 
1189	 0.667327046158443 
1190	 0.666412817336769 
1191	 0.665585281333888 
1192	 0.664821513060502 
1193	 0.664133573244481 
1194	 0.66348151169707 
1195	 0.662893057562999 
1196	 0.662333633196637 
1197	 0.661804922569366 
1198	 0.661327229672419 
1199	 0.66089449189806 
1200	 0.660547356249262 
1201	 0.660228210179008 
1202	 0.659968981837765 
1203	 0.659802464714893 
1204	 0.659716100727641 
1205	 0.659758126580146 
1206	 0.659880191391651 
1207	 0.660194288639409 
1208	 0.660609454627045 
1209	 0.66123757423888 
1210	 0.662015045406104 
1211	 0.663025181441873 
1212	 0.664233070434263 
1213	 0.665646685380982 
1214	 0.667273790222646 
1215	 0.669110487010897 
1216	 0.671215292854931 
1217	 0.67338611653849 
1218	 0.675759934917829 
1219	 0.678236385656562 
1220	 0.680755628873842 
1221	 0.683450969398349 
1222	 0.686096518068666 
1223	 0.688793715608441 
1224	 0.691388645776117 
1225	 0.693946925107246 
1226	 0.696391025607689 
1227	 0.698807294317699 
1228	 0.701079230439752 
1229	 0.703254338786215 
1230	 0.705319201229844 
1231	 0.707261752051516 
1232	 0.709128953292703 
1233	 0.710894200449928 
1234	 0.712547973197229 
1235	 0.714108837442681 
1236	 0.715572113494614 
1237	 0.71689170319741 
1238	 0.718176760238835 
1239	 0.719375471748022 
1240	 0.720533467654033 
1241	 0.721656813605548 
1242	 0.722637369052452 
1243	 0.72359503367895 
1244	 0.724475107274606 
1245	 0.72533821564162 
1246	 0.726151329477099 
1247	 0.726936940718918 
1248	 0.727687106473262 
1249	 0.728408665972213 
1250	 0.729102610322933 
1251	 0.729740751513997 
1252	 0.730347845455945 
1253	 0.730907026266791 
1254	 0.731404898635447 
1255	 0.731878919333455 
1256	 0.73231146504357 
1257	 0.732723546661433 
1258	 0.73309844328474 
1259	 0.733452292572544 
1260	 0.733786419719621 
1261	 0.734092427334233 
1262	 0.734339116358551 
1263	 0.734614989558038 
1264	 0.734877186381995 
1265	 0.735124366127399 
1266	 0.735367664122315 
1267	 0.735613559429811 
1268	 0.735847215189693 
1269	 0.736056118180546 
1270	 0.736284320740144 
1271	 0.736524669281455 
1272	 0.736750541606766 
1273	 0.736968623443731 
1274	 0.73719550367042 
1275	 0.737425749685151 
1276	 0.737642476879704 
1277	 0.737847199856864 
1278	 0.738069020593648 
1279	 0.738273997218464 
1280	 0.738506314812673 
1281	 0.738778514242082 
1282	 0.739034861498911 
1283	 0.739297705292198 
1284	 0.739551593131545 
1285	 0.739799610845872 
1286	 0.740034751378048 
1287	 0.740286457632394 
1288	 0.740542093018208 
1289	 0.740789999798053 
1290	 0.741053175640547 
1291	 0.741281399757813 
1292	 0.741494464881329 
1293	 0.741690560782618 
1294	 0.741858266292005 
1295	 0.742035741013638 
1296	 0.742205243920707 
1297	 0.742369494229287 
1298	 0.742549464511989 
1299	 0.742689683478432 
1300	 0.742817184177686 
1301	 0.742913242187576 
1302	 0.742959374823877 
1303	 0.743021466649214 
1304	 0.743088190445745 
1305	 0.743121306920347 
1306	 0.743167302997285 
1307	 0.743162071653145 
1308	 0.743108007676919 
1309	 0.743025960006706 
1310	 0.742940291872036 
1311	 0.742821166016257 
1312	 0.74272017657649 
1313	 0.74262061739712 
1314	 0.742508363561401 
1315	 0.742386097931111 
1316	 0.742273824768278 
1317	 0.7421414788492 
1318	 0.742049255813087 
1319	 0.741997247334771 
1320	 0.741908789617766 
1321	 0.741859256079193 
1322	 0.741729211718918 
1323	 0.741567313721878 
1324	 0.7413536679613 
1325	 0.741089490244586 
1326	 0.74078989463468 
1327	 0.740452231618366 
1328	 0.74007029933728 
1329	 0.739657082553477 
1330	 0.739190386655152 
1331	 0.73867311479091 
1332	 0.738118621501446 
1333	 0.737522368003511 
1334	 0.736871885184481 
1335	 0.736219884176277 
1336	 0.735538724176125 
1337	 0.734836350672033 
1338	 0.73411127852813 
1339	 0.733382841887371 
1340	 0.732641555324797 
1341	 0.731865655764811 
1342	 0.731101687024262 
1343	 0.730247150995422 
1344	 0.729351719088531 
1345	 0.728381633918307 
1346	 0.727354031607971 
1347	 0.726262690432985 
1348	 0.725108138902128 
1349	 0.723891728986156 
1350	 0.722590980795445 
1351	 0.721271270306043 
1352	 0.719876692355421 
1353	 0.718487341837127 
1354	 0.717052211060838 
1355	 0.715650944914692 
1356	 0.714251824275415 
1357	 0.71285374059354 
1358	 0.711447136925352 
1359	 0.710074707523194 
1360	 0.708749659372451 
1361	 0.707384891548802 
1362	 0.705988756799254 
1363	 0.704656933415096 
1364	 0.703203622538432 
1365	 0.701709951756037 
1366	 0.700103837800839 
1367	 0.698435795568534 
1368	 0.696679400608922 
1369	 0.694815777898289 
1370	 0.692908091011151 
1371	 0.690923717121112 
1372	 0.688939815856276 
1373	 0.686908268145886 
1374	 0.684828267525068 
1375	 0.682703765440601 
1376	 0.68055596727586 
1377	 0.678328525421536 
1378	 0.676105504761345 
1379	 0.673871952123178 
1380	 0.671627822442374 
1381	 0.669385005690489 
1382	 0.66707815384973 
1383	 0.664701395576511 
1384	 0.662374642915913 
1385	 0.659976689796453 
1386	 0.65768575591798 
1387	 0.655405655396616 
1388	 0.653300207790737 
1389	 0.651278189514923 
1390	 0.649380422347829 
1391	 0.647696530053416 
1392	 0.646001111964708 
1393	 0.644458708684822 
1394	 0.642903801008301 
1395	 0.641269562484379 
1396	 0.639710906593918 
1397	 0.637897040244607 
1398	 0.636026045127559 
1399	 0.633843866421561 
1400	 0.631476136195415 
1401	 0.628879058350388 
1402	 0.626051897235103 
1403	 0.622993369435126 
1404	 0.619692825839022 
1405	 0.616288528977754 
1406	 0.612568391987407 
1407	 0.608940941018124 
1408	 0.605065701394617 
1409	 0.601537709372288 
1410	 0.597946767169915 
1411	 0.594796397066601 
1412	 0.591868742986082 
1413	 0.589354068527574 
1414	 0.587206839032298 
1415	 0.585305710131123 
1416	 0.583875738256591 
1417	 0.582467354790865 
1418	 0.581346324356734 
1419	 0.580182218039857 
1420	 0.579130043979332 
1421	 0.578066335828319 
1422	 0.577005781263063 
1423	 0.575972017352889 
1424	 0.574970646250488 
1425	 0.573945587615817 
1426	 0.573023093895834 
1427	 0.572138607889356 
1428	 0.571311355593227 
1429	 0.57060886508439 
1430	 0.569945767218733 
1431	 0.569333170236572 
1432	 0.568809016290113 
1433	 0.568364834390924 
1434	 0.567982168410681 
1435	 0.567674616265631 
1436	 0.5674193066319 
1437	 0.567222755468499 
1438	 0.567103911649332 
1439	 0.567058433226908 
1440	 0.5670566664757 
1441	 0.567151072235834 
1442	 0.567231859220128 
1443	 0.567346288948426 
1444	 0.567472787218951 
1445	 0.567607118870094 
1446	 0.567781798939824 
1447	 0.567979849892612 
1448	 0.568212641772829 
1449	 0.568492724665613 
1450	 0.568778153800223 
1451	 0.569108129848663 
1452	 0.569414532947162 
1453	 0.569742851594079 
1454	 0.570032036353814 
1455	 0.570298771270407 
1456	 0.570554322325073 
1457	 0.570778016980617 
1458	 0.571005909194436 
1459	 0.571220475794805 
1460	 0.571442202357507 
1461	 0.57166088399568 
1462	 0.571883471247414 
1463	 0.572121941547746 
1464	 0.572343971075314 
1465	 0.572560787928267 
1466	 0.57278459550815 
1467	 0.572954244859397 
1468	 0.573101009899478 
1469	 0.573225820496502 
1470	 0.573288700843306 
1471	 0.573309645507803 
1472	 0.573298389126364 
1473	 0.573230822829341 
1474	 0.573107463669978 
1475	 0.572932695975971 
1476	 0.572719556044459 
1477	 0.572433635802477 
1478	 0.57208124058161 
1479	 0.571679899346785 
1480	 0.571219721979277 
1481	 0.570711360122099 
1482	 0.57013275845298 
1483	 0.569537830709907 
1484	 0.568889430623521 
1485	 0.568234058571112 
1486	 0.567531541984307 
1487	 0.566868683174929 
1488	 0.566157213869655 
1489	 0.565553860457099 
1490	 0.564966675613634 
1491	 0.564498871369976 
1492	 0.564108298322058 
1493	 0.563816504178048 
1494	 0.563628106190314 
1495	 0.563514176021911 
1496	 0.563478465970565 
1497	 0.563544213117751 
1498	 0.563672947003953 
1499	 0.563949742051132 
1500	 0.56427497762563 
1501	 0.564853796180323 
1502	 0.565561822290428 
1503	 0.566531130150511 
1504	 0.567769154018441 
1505	 0.569165496344691 
1506	 0.570924623430737 
1507	 0.572599782363236 
1508	 0.574495017385445 
1509	 0.57621749956015 
1510	 0.577934598661273 
1511	 0.57947169556649 
1512	 0.58088729334121 
1513	 0.582185988052156 
1514	 0.583305980663551 
1515	 0.584366403911925 
1516	 0.5852822561864 
1517	 0.586195104888427 
1518	 0.587012417121512 
1519	 0.587844099670936 
1520	 0.588671107922317 
1521	 0.589480750024179 
1522	 0.590278279966181 
1523	 0.591132203798182 
1524	 0.591975497445731 
1525	 0.592840349462548 
1526	 0.593681185344772 
1527	 0.594527659154449 
1528	 0.595342516972938 
1529	 0.59612997444056 
1530	 0.596936077603436 
1531	 0.597741921150182 
1532	 0.598527665502273 
1533	 0.599319697276081 
1534	 0.600082659749302 
1535	 0.600816814992074 
1536	 0.601542389951125 
1537	 0.60226991840316 
1538	 0.60294777069547 
1539	 0.603604242278904 
1540	 0.60421238823498 
1541	 0.604780131731638 
1542	 0.605314744751627 
1543	 0.605801731565545 
1544	 0.606275604583523 
1545	 0.606725742773351 
1546	 0.607138841203709 
1547	 0.607531286618711 
1548	 0.607875845164667 
1549	 0.608178863253399 
1550	 0.608445441819501 
1551	 0.608661899786527 
1552	 0.608869750881139 
1553	 0.609043818780357 
1554	 0.609202767215587 
1555	 0.609335619790483 
1556	 0.609469803329612 
1557	 0.609567800082676 
1558	 0.609701039781479 
1559	 0.609836742332346 
1560	 0.61000063603547 
1561	 0.610168389601443 
1562	 0.610389006529763 
1563	 0.610650639471457 
1564	 0.610926781563561 
1565	 0.611255701438607 
1566	 0.61156907535477 
1567	 0.611891638490113 
1568	 0.612213844903153 
1569	 0.612539949391717 
1570	 0.612868321908556 
1571	 0.613194965853865 
1572	 0.61353132776223 
1573	 0.613868581229636 
1574	 0.614222091437098 
1575	 0.614617985418804 
1576	 0.614958892639186 
1577	 0.615281066210595 
1578	 0.615601273179076 
1579	 0.615881200132263 
1580	 0.616174941330645 
1581	 0.616483626913721 
1582	 0.616782010304429 
1583	 0.617070438231709 
1584	 0.617355253620531 
1585	 0.617635141446127 
1586	 0.617919545387403 
1587	 0.61819666486366 
1588	 0.618478806271024 
1589	 0.618765932653794 
1590	 0.619057706234091 
1591	 0.61935422797511 
1592	 0.619647130286175 
1593	 0.619942601875093 
1594	 0.620241093283474 
1595	 0.620543419151885 
1596	 0.620833672050113 
1597	 0.621130315275992 
1598	 0.621410651288944 
1599	 0.621673638380114 
1600	 0.621932732609419 
1601	 0.622188893274707 
1602	 0.62242860293409 
1603	 0.622657630916474 
1604	 0.622874175858133 
1605	 0.623083718598774 
1606	 0.623267694003772 
1607	 0.623430211316087 
1608	 0.623582477041599 
1609	 0.623707850298893 
1610	 0.623834301501057 
1611	 0.623953107395873 
1612	 0.624065946620695 
1613	 0.624187067078389 
1614	 0.624273483013674 
1615	 0.624370135706239 
1616	 0.624400734871266 
1617	 0.624369269563403 
1618	 0.624326198475082 
1619	 0.624225424202554 
1620	 0.624131823246096 
1621	 0.624030626921882 
1622	 0.623919421034852 
1623	 0.623812685507345 
1624	 0.623669780698914 
1625	 0.623515629818663 
1626	 0.623324995601861 
1627	 0.623071682419536 
1628	 0.622839586865402 
1629	 0.622581018416335 
1630	 0.622346321403896 
1631	 0.622131518478153 
1632	 0.621914260240269 
1633	 0.621712360368232 
1634	 0.621497369941088 
1635	 0.621274313543658 
1636	 0.621059134869508 
1637	 0.620873378879523 
1638	 0.620627432311288 
1639	 0.620374845786021 
1640	 0.620074241333113 
1641	 0.619704524242079 
1642	 0.619325256972519 
1643	 0.618927070271796 
1644	 0.618494092572184 
1645	 0.618035180778032 
1646	 0.61754732389568 
1647	 0.617036861776602 
1648	 0.616476563427947 
1649	 0.615897389021469 
1650	 0.615235964968279 
1651	 0.61451823476278 
1652	 0.613740364056859 
1653	 0.612900569194637 
1654	 0.611990439567179 
1655	 0.611014807679308 
1656	 0.609961791851247 
1657	 0.608850530527536 
1658	 0.607630088395045 
1659	 0.606344156869816 
1660	 0.604940781376098 
1661	 0.603450699311152 
1662	 0.601803415829821 
1663	 0.600012926865508 
1664	 0.598097946441608 
1665	 0.596055225959751 
1666	 0.593840738435958 
1667	 0.591492506465107 
1668	 0.58902190625031 
1669	 0.586390470270533 
1670	 0.583624071336258 
1671	 0.580708664874398 
1672	 0.577664836154357 
1673	 0.574465860625625 
1674	 0.571148249153328 
1675	 0.567712046882926 
1676	 0.564223374086722 
1677	 0.56060969550028 
1678	 0.55692289240629 
1679	 0.553111632375091 
1680	 0.549281376095346 
1681	 0.54537700142563 
1682	 0.541401270776656 
1683	 0.537383927257284 
1684	 0.53339382437684 
1685	 0.529319097496906 
1686	 0.525283371941221 
1687	 0.521233257198352 
1688	 0.517226990849782 
1689	 0.513216091383258 
1690	 0.509235748447142 
1691	 0.505357094312986 
1692	 0.501488876995928 
1693	 0.497637285693138 
1694	 0.493766818469236 
1695	 0.489901919278552 
1696	 0.486000313558894 
1697	 0.482049834030011 
1698	 0.47810608121443 
1699	 0.474170437988785 
1700	 0.470333545299538 
1701	 0.466460582457353 
1702	 0.462783811009347 
1703	 0.459155863810881 
1704	 0.455763035268476 
1705	 0.452517812725033 
1706	 0.449403878196902 
1707	 0.446679916893285 
1708	 0.4440745074998 
1709	 0.441632286873287 
1710	 0.439398070714648 
1711	 0.43715281492814 
1712	 0.435049731403125 
1713	 0.433011577825899 
1714	 0.431015906885338 
1715	 0.429238997781547 
1716	 0.427484839196583 
1717	 0.425811567416021 
1718	 0.424268739763024 
1719	 0.422772663855716 
1720	 0.421445329598659 
1721	 0.420322690381779 
1722	 0.419408673702374 
1723	 0.418773449298098 
1724	 0.418395337195276 
1725	 0.418284018319458 
1726	 0.418562929047327 
1727	 0.41921090092362 
1728	 0.420182259466399 
1729	 0.421563755907543 
1730	 0.423276080932314 
1731	 0.425127210645773 
1732	 0.427271954439615 
1733	 0.429484299869721 
1734	 0.431683363158605 
1735	 0.43396827584063 
1736	 0.436054400988932 
1737	 0.437980556297778 
1738	 0.439748647785816 
1739	 0.44117277872872 
1740	 0.44237559226226 
1741	 0.44327763914126 
1742	 0.443809303340525 
1743	 0.444195874623082 
1744	 0.444286617647279 
1745	 0.44429336190079 
1746	 0.444074899322271 
1747	 0.443834253987946 
1748	 0.443439402575154 
1749	 0.443093818840587 
1750	 0.442655963153664 
1751	 0.442346017951343 
1752	 0.442040850986137 
1753	 0.441904407244383 
1754	 0.441856376274544 
1755	 0.441984631580755 
1756	 0.442214710973251 
1757	 0.442626580761431 
1758	 0.443284184777303 
1759	 0.4441331077532 
1760	 0.445300898578004 
1761	 0.446768982127867 
1762	 0.44836135714938 
1763	 0.450191836129285 
1764	 0.45217775080426 
1765	 0.454306927356522 
1766	 0.456702779918906 
1767	 0.459114220807801 
1768	 0.461619258792287 
1769	 0.464175638202487 
1770	 0.46649445369113 
1771	 0.46879724145518 
1772	 0.470996212904089 
1773	 0.472990252582666 
1774	 0.474983963774177 
1775	 0.476804276579417 
1776	 0.47851930784728 
1777	 0.480148082080253 
1778	 0.481535935294543 
1779	 0.482831230996187 
1780	 0.484006482922171 
1781	 0.485040202365134 
1782	 0.486031508284151 
1783	 0.486917020596379 
1784	 0.487695183553976 
1785	 0.488298666871577 
1786	 0.488854668075798 
1787	 0.489293899503469 
1788	 0.48971330090541 
1789	 0.490067177658801 
1790	 0.490411002132986 
1791	 0.49072484455444 
1792	 0.491029013633138 
1793	 0.491305564027786 
1794	 0.491558248606948 
1795	 0.491776062333608 
1796	 0.492029946892714 
1797	 0.492317233711257 
1798	 0.492594944513374 
1799	 0.492893021206463 
1800	 0.493176507697595 
1801	 0.495760567311087 
1802	 0.496089753809285 
1803	 0.496397103831143 
1804	 0.496700515937666 
1805	 0.496996653826163 
1806	 0.497290443830897 
1807	 0.497579710960359 
1808	 0.497867572695847 
1809	 0.498144989908123 
1810	 0.498439056786193 
1811	 0.49872627169121 
1812	 0.499030137236218 
1813	 0.499336051349527 
1814	 0.499683051346357 
1815	 0.500015386166746 
1816	 0.500383599093465 
1817	 0.500764930608025 
1818	 0.501159274010157 
1819	 0.5015721536073 
1820	 0.502008168248185 
1821	 0.502451405168359 
1822	 0.502915137214451 
1823	 0.50339237441986 
1824	 0.503842433057586 
1825	 0.504321739621218 
1826	 0.504776998099461 
1827	 0.505220734641984 
1828	 0.505650926897575 
1829	 0.506070264827901 
1830	 0.506493375719741 
1831	 0.506896492604407 
1832	 0.507321086508564 
1833	 0.507763905034914 
1834	 0.508188017043554 
1835	 0.508606329914739 
1836	 0.509018040737004 
1837	 0.509446390608091 
1838	 0.509881657045353 
1839	 0.510308484968627 
1840	 0.510743114670271 
1841	 0.511181871461369 
1842	 0.51162203509646 
1843	 0.512042363300873 
1844	 0.512491441696476 
1845	 0.512905621792547 
1846	 0.51327265455533 
1847	 0.513603970917438 
1848	 0.513910173485342 
1849	 0.514192696636399 
1850	 0.514425832052583 
1851	 0.51462098668935 
1852	 0.514801190165114 
1853	 0.514927169769734 
1854	 0.514997367801881 
1855	 0.515043510965279 
1856	 0.515037049259136 
1857	 0.51497936683128 
1858	 0.514859665730835 
1859	 0.514672191414906 
1860	 0.514418297775535 
1861	 0.514118547230011 
1862	 0.513758999210611 
1863	 0.513349771881197 
1864	 0.512877946852892 
1865	 0.512346895259149 
1866	 0.511715052304206 
1867	 0.510947313527373 
1868	 0.510153512358794 
1869	 0.509231139003262 
1870	 0.508214447935692 
1871	 0.507150107420898 
1872	 0.505965302963792 
1873	 0.504662731902569 
1874	 0.503281946089328 
1875	 0.501819651269155 
1876	 0.500116541262601 
1877	 0.498367128682177 
1878	 0.4964372754135 
1879	 0.49429273195099 
1880	 0.492134924963399 
1881	 0.489754674957589 
1882	 0.48717340770043 
1883	 0.484477093911843 
1884	 0.481587761399263 
1885	 0.478315668323238 
1886	 0.474975285545403 
1887	 0.471400098775324 
1888	 0.467566693714075 
1889	 0.463886049668698 
1890	 0.460022196390998 
1891	 0.456134041747726 
1892	 0.452292139914077 
1893	 0.448314337564181 
1894	 0.444169599769336 
1895	 0.440173054252091 
1896	 0.436094274305495 
1897	 0.431996227220279 
1898	 0.428254167346591 
1899	 0.424458098774609 
1900	 0.420780623083305 
1901	 0.417298968661655 
1902	 0.413661904379271 
1903	 0.410226935819429 
1904	 0.406912057230989 
1905	 0.403659136086448 
1906	 0.400517180947214 
1907	 0.397762388722069 
1908	 0.395037323865243 
1909	 0.392458080127128 
1910	 0.390082051690234 
1911	 0.387638257915311 
1912	 0.385379234789718 
1913	 0.383222687556423 
1914	 0.381104856974022 
1915	 0.379163595546079 
1916	 0.377418748430818 
1917	 0.375680720033344 
1918	 0.374038543389159 
1919	 0.372525398129077 
1920	 0.370970614575024 
1921	 0.369527611004211 
1922	 0.368158097120589 
1923	 0.366832917294751 
1924	 0.36569069718436 
1925	 0.364618952169646 
1926	 0.363613944972053 
1927	 0.362713291001264 
1928	 0.36185882578197 
1929	 0.361047356763002 
1930	 0.360337079559544 
1931	 0.359698704701432 
1932	 0.359118795836259 
1933	 0.358666037325249 
1934	 0.35825476443795 
1935	 0.357896624862042 
1936	 0.357655043591029 
1937	 0.35747876626873 
1938	 0.357375361163988 
1939	 0.357335676275603 
1940	 0.357380358021392 
1941	 0.357480003403888 
1942	 0.357635857873863 
1943	 0.357864551969979 
1944	 0.358152729101713 
1945	 0.358483126349099 
1946	 0.358857834060575 
1947	 0.359265102366658 
1948	 0.359711780669797 
1949	 0.360203552383404 
1950	 0.360691995067626 
1951	 0.36119097648575 
1952	 0.361709161261145 
1953	 0.36223906966955 
1954	 0.362790060708983 
1955	 0.363376254107342 
1956	 0.363962263116971 
1957	 0.364580939439997 
1958	 0.365207851280467 
1959	 0.36578052065316 
1960	 0.366375109638427 
1961	 0.366965671367487 
1962	 0.367523927427587 
1963	 0.368116982172597 
1964	 0.368752335801208 
1965	 0.369346284182198 
1966	 0.369942292947291 
1967	 0.370520440894702 
1968	 0.371054479260268 
1969	 0.371613936993636 
1970	 0.372149491498853 
1971	 0.372674541655474 
1972	 0.373236350485139 
1973	 0.373767094839451 
1974	 0.374305309646711 
1975	 0.37487593551802 
1976	 0.375397286751446 
1977	 0.375862419589161 
1978	 0.376380171827172 
1979	 0.376894906218526 
1980	 0.377416920658673 
1981	 0.377999023050633 
1982	 0.37858950792945 
1983	 0.379188115100106 
1984	 0.379812418140211 
1985	 0.380411419954665 
1986	 0.381030239168911 
1987	 0.381625566087183 
1988	 0.382207782395594 
1989	 0.382776459414517 
1990	 0.383347454723758 
1991	 0.383874668462643 
1992	 0.38438734993782 
1993	 0.384865877034926 
1994	 0.385278050529155 
1995	 0.385685206358073 
1996	 0.386055523954008 
1997	 0.386411198961677 
1998	 0.386769193001832 
1999	 0.38713275154044 
2000	 0.38745547025043 
2001	 0.387767370520681 
2002	 0.388046352986156 
2003	 0.388292572315845 
2004	 0.38851935446715 
2005	 0.388724433357086 
2006	 0.38890631932942 
2007	 0.389069185150957 
2008	 0.389201136430277 
2009	 0.389297160618918 
2010	 0.389351788434585 
2011	 0.389356320885878 
2012	 0.389305169802261 
2013	 0.389203665523842 
2014	 0.389071116640545 
2015	 0.388847041719299 
2016	 0.388554497858725 
2017	 0.388200898846932 
2018	 0.387762317968869 
2019	 0.387279829731726 
2020	 0.38674938312111 
2021	 0.386142573814957 
2022	 0.385495897327198 
2023	 0.384777777427383 
2024	 0.383967367369756 
2025	 0.383144602765947 
2026	 0.382272926473422 
2027	 0.381301192841245 
2028	 0.380389667285791 
2029	 0.379464313280881 
2030	 0.378542883641292 
2031	 0.377662362543877 
2032	 0.376733135032655 
2033	 0.375741337435896 
2034	 0.374812959726281 
2035	 0.373886720769033 
2036	 0.372951583957829 
2037	 0.372117339951496 
2038	 0.371278681568695 
2039	 0.370539147610016 
2040	 0.36982021480122 
2041	 0.369252018520265 
2042	 0.368747389058614 
2043	 0.368434919585211 
2044	 0.368269366100803 
2045	 0.368215751712747 
2046	 0.368371140266109 
2047	 0.368536636778488 
2048	 0.368806112261291 
2049	 0.369111773609043 
2050	 0.369520783154998 
2051	 0.369897571200151 
2052	 0.370324654650139 
2053	 0.370763841292275 
2054	 0.371165129130182 
2055	 0.371535167151766 
2056	 0.371943686779258 
2057	 0.372332608068794 
2058	 0.372767320332289 
2059	 0.373230935295976 
2060	 0.373716360316742 
2061	 0.374242734725519 
2062	 0.374763970742201 
2063	 0.375309071909774 
2064	 0.375854208912953 
2065	 0.376410938353495 
2066	 0.3769457777918 
2067	 0.377517023163008 
2068	 0.378061661489088 
2069	 0.378593437522501 
2070	 0.379132852888244 
2071	 0.379622880883028 
2072	 0.380095235695616 
2073	 0.380516997202721 
2074	 0.380883519194347 
2075	 0.381247140503166 
2076	 0.381585274454736 
2077	 0.381891128459596 
2078	 0.382184823446375 
2079	 0.382438991842742 
2080	 0.382640181161965 
2081	 0.382831374862824 
2082	 0.382997657291803 
2083	 0.383147547582615 
2084	 0.383287204377439 
2085	 0.383386591218254 
2086	 0.38345878936273 
2087	 0.383498866418377 
2088	 0.383528872906919 
2089	 0.383515872892852 
2090	 0.383517509553451 
2091	 0.383521600991214 
2092	 0.383505450605822 
2093	 0.383485627459372 
2094	 0.383441678487198 
2095	 0.383381113172414 
2096	 0.383300058601212 
2097	 0.383208447561848 
2098	 0.383079584338757 
2099	 0.382932970021908 
2100	 0.382759115282008 
2101	 0.382566889026429 
2102	 0.382354228823688 
2103	 0.382110359924557 
2104	 0.38183718980376 
2105	 0.381550638967383 
2106	 0.381238087001952 
2107	 0.380900562917474 
2108	 0.38054633110635 
2109	 0.38017017555332 
2110	 0.379757361173109 
2111	 0.379336866261095 
2112	 0.378898466066399 
2113	 0.378447950219842 
2114	 0.377974420947706 
2115	 0.377497373774793 
2116	 0.376996100841756 
2117	 0.376524001274991 
2118	 0.376026259172384 
2119	 0.375510342224495 
2120	 0.375014539324815 
2121	 0.374502101317524 
2122	 0.3740331671964 
2123	 0.373586927297447 
2124	 0.373153946986843 
2125	 0.372770361170723 
2126	 0.372347234336374 
2127	 0.371910331693909 
2128	 0.371492555435164 
2129	 0.37106383101619 
2130	 0.37064290087081 
2131	 0.370250322527892 
2132	 0.36984374254291 
2133	 0.369432890042524 
2134	 0.369015423522283 
2135	 0.368592707834133 
2136	 0.368155479949503 
2137	 0.367697599894668 
2138	 0.36719908497597 
2139	 0.366744961054741 
2140	 0.366291597452169 
2141	 0.365845888805568 
2142	 0.365439229310283 
2143	 0.364993601936188 
2144	 0.364511473522544 
2145	 0.364069357579907 
2146	 0.363605823452004 
2147	 0.363198342387439 
2148	 0.36284553819799 
2149	 0.362488289363425 
2150	 0.362182056452879 
2151	 0.361841782746204 
2152	 0.361493589220294 
2153	 0.361137235421876 
2154	 0.360768804424866 
2155	 0.360381563428141 
2156	 0.360012268833 
2157	 0.359656014252185 
2158	 0.35926883475245 
2159	 0.358887208626749 
2160	 0.358466090161966 
2161	 0.357997085488162 
2162	 0.357557434242735 
2163	 0.357084794526933 
2164	 0.35666442009277 
2165	 0.356264766472473 
2166	 0.355892630061031 
2167	 0.355548928700074 
2168	 0.355233139251196 
2169	 0.35493348516573 
2170	 0.354677172852166 
2171	 0.35444923273627 
2172	 0.354262378957572 
2173	 0.354124886533282 
2174	 0.354009292668961 
2175	 0.353925027532781 
2176	 0.353897050778168 
2177	 0.353887930310573 
2178	 0.35391214362869 
2179	 0.353969744601317 
2180	 0.354067789863831 
2181	 0.354171184330107 
2182	 0.354317695348766 
2183	 0.354444600821811 
2184	 0.354570754212851 
2185	 0.354714450363232 
2186	 0.354862525255527 
2187	 0.355018965700013 
2188	 0.355188898306416 
2189	 0.355370022097256 
2190	 0.355566786171359 
2191	 0.355761513475189 
2192	 0.355979706410656 
2193	 0.356175699554639 
2194	 0.356379542566366 
2195	 0.356542816668666 
2196	 0.356673261190866 
2197	 0.356805264241884 
2198	 0.356917024189584 
2199	 0.356976305451729 
2200	 0.357003114408887 
2201	 0.357010413480106 
2202	 0.356966295097825 
2203	 0.356884869503435 
2204	 0.35673275714622 
2205	 0.356523187378241 
2206	 0.356277508286228 
2207	 0.355920998554097 
2208	 0.35563213843648 
2209	 0.355326849893297 
2210	 0.355062807071839 
2211	 0.354786915488657 
2212	 0.354607566135976 
2213	 0.354473844896388 
2214	 0.354398342867886 
2215	 0.354458324446574 
2216	 0.354459751751932 
2217	 0.354521126822871 
2218	 0.354494350051861 
2219	 0.35446630682067 
2220	 0.354328973316788 
2221	 0.354120100830261 
2222	 0.353829898080526 
2223	 0.353459287556073 
2224	 0.352949602038534 
2225	 0.352389169511913 
2226	 0.351728639967518 
2227	 0.350950474864084 
2228	 0.350075157597962 
2229	 0.349097157008801 
2230	 0.347965473303628 
2231	 0.346816834893371 
2232	 0.345609016482513 
2233	 0.34427971360126 
2234	 0.342935372913751 
2235	 0.341351978894035 
2236	 0.339601658289796 
2237	 0.337726791693353 
2238	 0.335618024263996 
2239	 0.333492249754781 
2240	 0.331283249090219 
2241	 0.328946882830632 
2242	 0.326570301885295 
2243	 0.32399553616479 
2244	 0.321213059855647 
2245	 0.318395121217369 
2246	 0.315314480941405 
2247	 0.312349769212821 
2248	 0.309425349249702 
2249	 0.306430052141493 
2250	 0.303431430615539 
2251	 0.300462447725402 
2252	 0.297252474290619 
2253	 0.294117637354482 
2254	 0.290968299997949 
2255	 0.287825654629487 
2256	 0.284990384597999 
2257	 0.282135433303774 
2258	 0.279376585860753 
2259	 0.276799219923273 
2260	 0.274128489917451 
2261	 0.271437665917962 
2262	 0.268837991025836 
2263	 0.266234561934051 
2264	 0.263728662345987 
2265	 0.261397970387737 
2266	 0.258874260518513 
2267	 0.256485241649672 
2268	 0.253712820216883 
2269	 0.250744382541869 
2270	 0.247599173881863 
2271	 0.244151921980084 
2272	 0.240624106502885 
2273	 0.23696824877016 
2274	 0.233101045040995 
2275	 0.229026621945891 
2276	 0.224860549847974 
2277	 0.220265058909058 
2278	 0.216050169377108 
2279	 0.211613087224107 
2280	 0.207762525211777 
2281	 0.204240444364923 
2282	 0.201133955056491 
2283	 0.198366857592714 
2284	 0.196208073121196 
2285	 0.194374984110867 
2286	 0.193038543149056 
2287	 0.192213503160204 
2288	 0.191786569546723 
2289	 0.191751265237249 
2290	 0.192058940326164 
2291	 0.192585843750747 
2292	 0.19330242382859 
2293	 0.194192179018515 
2294	 0.195096357078453 
2295	 0.196023987360773 
2296	 0.196973525583776 
2297	 0.197843710563056 
2298	 0.198685605328648 
2299	 0.199464896747261 
2300	 0.200167553409274 
2301	 0.200870522020945 
2302	 0.201483054093869 
2303	 0.202205248897757 
2304	 0.202937768109609 
2305	 0.203751361720185 
2306	 0.20459896869604 
2307	 0.205596671656705 
2308	 0.206647484290667 
2309	 0.20787721575963 
2310	 0.209319397578554 
2311	 0.210750808212872 
2312	 0.21237390529008 
2313	 0.213881420701999 
2314	 0.215443087893466 
2315	 0.216864949426871 
2316	 0.218253997731876 
2317	 0.21945158066737 
2318	 0.22058416149721 
2319	 0.221437853038896 
2320	 0.222108892999103 
2321	 0.222537411416339 
2322	 0.222701767815841 
2323	 0.22265830040895 
2324	 0.222439530157726 
2325	 0.221888327873735 
2326	 0.221074979644062 
2327	 0.219950932406231 
2328	 0.21842731489991 
2329	 0.216708064010827 
2330	 0.214785525037566 
2331	 0.21242158001589 
2332	 0.209872214299863 
2333	 0.206973874767343 
2334	 0.203593516752229 
2335	 0.200142656449787 
2336	 0.196382445327237 
2337	 0.192435045986722 
2338	 0.188680537314582 
2339	 0.184762533190888 
2340	 0.181039801284243 
2341	 0.17764272479592 
2342	 0.174364174593652 
2343	 0.171641705150929 
2344	 0.169367001398508 
2345	 0.16762606578372 
2346	 0.16642711464654 
2347	 0.165644355085437 
2348	 0.165108454533951 
2349	 0.164787199383855 
2350	 0.164619017880857 
2351	 0.164426426429002 
2352	 0.164408358255646 
2353	 0.164352849934145 
2354	 0.164547762394593 
2355	 0.165117952080312 
2356	 0.166009035482635 
2357	 0.16776102621697 
2358	 0.170260992054015 
2359	 0.173347492036834 
2360	 0.177038999394151 
2361	 0.181260844979407 
2362	 0.185384183655638 
2363	 0.189552696273735 
2364	 0.193589716585453 
2365	 0.197128368901836 
2366	 0.200578950945758 
2367	 0.203506894741613 
2368	 0.206123375919886 
2369	 0.208441545896622 
2370	 0.210186871949411 
2371	 0.211781326199222 
2372	 0.21308276335315 
2373	 0.214069479217603 
2374	 0.215030993559184 
2375	 0.215734806195644 
2376	 0.216295206439726 
2377	 0.216773236168997 
2378	 0.216988456397702 
2379	 0.217190841790127 
2380	 0.217405340260821 
2381	 0.217545149312788 
2382	 0.217788043710364 
2383	 0.218100894718304 
2384	 0.218472135804948 
2385	 0.218921130847459 
2386	 0.219371705445639 
2387	 0.219890663982301 
2388	 0.220405869584273 
2389	 0.220944104523895 
2390	 0.221402848058096 
2391	 0.221872965097975 
2392	 0.222287655055629 
2393	 0.22258619672227 
2394	 0.222938186490218 
2395	 0.223341824599859 
2396	 0.223643796598474 
2397	 0.223875714853285 
2398	 0.224149393456887 
2399	 0.224388653149222 
2400	 0.224665583487231 
2401	 0.224938261853194 
2402	 0.225326481506284 
2403	 0.225702465822891 
2404	 0.225892016296743 
2405	 0.226183331109254 
2406	 0.226564786350251 
2407	 0.226873503564166 
2408	 0.227266444666726 
2409	 0.227615449170788 
2410	 0.227722272084713 
2411	 0.22778468791761 
2412	 0.227944843292673 
2413	 0.228082066180094 
2414	 0.228315466462254 
2415	 0.22848996275612 
2416	 0.228496962973916 
2417	 0.228581936134959 
2418	 0.228578617527786 
2419	 0.228623962602772 
2420	 0.228791986231404 
2421	 0.228827610171346 
2422	 0.228922102194113 
2423	 0.229014800451168 
2424	 0.22902967295772 
2425	 0.229157484138621 
2426	 0.229212604044282 
2427	 0.229199111597068 
2428	 0.229222123526022 
2429	 0.229288727005168 
2430	 0.229386441044553 
2431	 0.229336817992472 
2432	 0.229273385885524 
2433	 0.22917988824936 
2434	 0.229099911262945 
2435	 0.229162271282772 
2436	 0.229191683769265 
2437	 0.229141342690478 
2438	 0.228928436525922 
2439	 0.228695070584143 
2440	 0.228479048023947 
2441	 0.228205273440623 
2442	 0.228013222830982 
2443	 0.227754562522515 
2444	 0.22746789199257 
2445	 0.227271214037881 
2446	 0.226981519538732 
2447	 0.226670237627575 
2448	 0.226358879917573 
2449	 0.225955857282388 
2450	 0.225616943501603 
2451	 0.225345681421196 
2452	 0.225063914548227 
2453	 0.224748931643891 
2454	 0.224467051271275 
2455	 0.224147599413504 
2456	 0.223732219127973 
2457	 0.223454894853756 
2458	 0.223177359819745 
2459	 0.222888149581527 
2460	 0.222654877694191 
2461	 0.222224086226416 
2462	 0.221682557991092 
2463	 0.221195904106089 
2464	 0.220902075041221 
2465	 0.220847111054185 
2466	 0.220808824038089 
2467	 0.220685413166671 
2468	 0.220422807689744 
2469	 0.219985703156615 
2470	 0.219519160966249 
2471	 0.219161267258969 
2472	 0.218895418107676 
2473	 0.218831802748999 
2474	 0.21876099974188 
2475	 0.218545631633915 
2476	 0.218505566778114 
2477	 0.218324906183522 
2478	 0.218110077429779 
2479	 0.218057984005593 
2480	 0.217799942634805 
2481	 0.217662777263553 
2482	 0.217661863294582 
2483	 0.217621222559071 
2484	 0.217424852007951 
2485	 0.21726705285949 
2486	 0.217205467928127 
2487	 0.217190817468883 
2488	 0.217123264742288 
2489	 0.217027390990917 
2490	 0.216881750842734 
2491	 0.216822648608792 
2492	 0.216917287574485 
2493	 0.21689185499176 
2494	 0.217124982935042 
2495	 0.2174204268701 
2496	 0.217413862910209 
2497	 0.217727147864528 
2498	 0.218108534785251 
2499	 0.218098945844503 
2500	 0.218210556560769 
