Wavelength	spectrum00010.asd
350	 3.92297507356295E-02 
351	 3.70156850647806E-02 
352	 3.51605363370824E-02 
353	 3.49858433959721E-02 
354	 3.61391646092563E-02 
355	 3.58833683398345E-02 
356	 3.48429744620465E-02 
357	 3.38927183219952E-02 
358	 3.18735648439054E-02 
359	 3.08906761238233E-02 
360	 3.16297784742233E-02 
361	 3.35303332924312E-02 
362	 3.33889728961821E-02 
363	 0.032519269417975 
364	 3.18508137740796E-02 
365	 3.11474056971251E-02 
366	 3.19327960458875E-02 
367	 3.21039503814746E-02 
368	 3.04160415305391E-02 
369	 3.13398310684642E-02 
370	 3.14636364345355E-02 
371	 3.09335300071736E-02 
372	 0.031660228928842 
373	 3.15312198679477E-02 
374	 3.16625899595387E-02 
375	 3.22567482755716E-02 
376	 3.17334576582895E-02 
377	 3.19935834920352E-02 
378	 3.24512192402412E-02 
379	 3.23379401313078E-02 
380	 0.032549950311424 
381	 3.33918921082623E-02 
382	 3.37771624712649E-02 
383	 3.23427628582773E-02 
384	 3.33535752115939E-02 
385	 3.41676692590643E-02 
386	 3.35070353617105E-02 
387	 3.33271312168362E-02 
388	 3.36011113278012E-02 
389	 3.43184578976037E-02 
390	 3.51304910081998E-02 
391	 3.46246818560773E-02 
392	 3.46715248590838E-02 
393	 3.56501309875826E-02 
394	 3.68020899268037E-02 
395	 3.71313762674119E-02 
396	 3.77026022984117E-02 
397	 3.88674533796937E-02 
398	 3.93477616192838E-02 
399	 3.99397466016386E-02 
400	 4.06406814056188E-02 
401	 4.12792370663422E-02 
402	 4.19343935750188E-02 
403	 4.28777068369216E-02 
404	 4.38397825575168E-02 
405	 4.42703941477877E-02 
406	 4.55786210606311E-02 
407	 4.67558556207338E-02 
408	 4.73930891097571E-02 
409	 4.89919437820854E-02 
410	 4.99231803968859E-02 
411	 5.07701216563723E-02 
412	 5.24641749651708E-02 
413	 5.39392711967331E-02 
414	 5.48531129568429E-02 
415	 5.56590072222222E-02 
416	 5.73811612032781E-02 
417	 5.88283843030106E-02 
418	 6.01000809308325E-02 
419	 6.14673178388702E-02 
420	 6.30628984313988E-02 
421	 6.45757874916146E-02 
422	 6.60775968414781E-02 
423	 6.77393715267832E-02 
424	 6.92555578415548E-02 
425	 7.06747215284636E-02 
426	 7.21267803391787E-02 
427	 7.37946231317401E-02 
428	 7.53205088609719E-02 
429	 7.69920112684984E-02 
430	 7.89244697816821E-02 
431	 8.02424188953035E-02 
432	 8.18986289225432E-02 
433	 0.083805425501779 
434	 8.53580034702401E-02 
435	 0.087046577673342 
436	 8.87570542497098E-02 
437	 9.03964931184003E-02 
438	 9.19913421073922E-02 
439	 9.37550607581152E-02 
440	 9.55502637436709E-02 
441	 9.72054236987408E-02 
442	 9.88852372596957E-02 
443	 0.100568969152581 
444	 0.102247289206747 
445	 0.103919752782921 
446	 0.105465250639889 
447	 0.107000426222642 
448	 0.108626000761563 
449	 0.110351019098093 
450	 0.111867368232663 
451	 0.113282335824633 
452	 0.114825407796525 
453	 0.116348729507238 
454	 0.117775787925935 
455	 0.119121845368022 
456	 0.12050234582311 
457	 0.121919885852607 
458	 0.123289075873415 
459	 0.124566052559146 
460	 0.125899973099559 
461	 0.127067392699226 
462	 0.12813514681381 
463	 0.129314868766375 
464	 0.130530846026723 
465	 0.131626044056975 
466	 0.132563269170382 
467	 0.133500460358878 
468	 0.134450329944272 
469	 0.13534665356128 
470	 0.136145576465704 
471	 0.13702126960216 
472	 0.137731628186345 
473	 0.138344670820445 
474	 0.139149265566158 
475	 0.139731111698781 
476	 0.14025783916082 
477	 0.140843448431503 
478	 0.141261114458019 
479	 0.141700863708632 
480	 0.142161387802164 
481	 0.142564831404542 
482	 0.142863912554167 
483	 0.14311002351554 
484	 0.143312110944928 
485	 0.143422716242795 
486	 0.143672275539331 
487	 0.143824756802399 
488	 0.143709863651132 
489	 0.143683440357416 
490	 0.143750502772364 
491	 0.143773463252688 
492	 0.143566167282214 
493	 0.143374259885729 
494	 0.143180509553192 
495	 0.142952087341937 
496	 0.142689345186144 
497	 0.142360381538513 
498	 0.141946175802246 
499	 0.1414680109082 
500	 0.141093832493949 
501	 0.14066621839731 
502	 0.140144029189414 
503	 0.139600925300674 
504	 0.139058257853929 
505	 0.138448788760796 
506	 0.137768239995679 
507	 0.137213310138577 
508	 0.136603796748098 
509	 0.135922995772267 
510	 0.135229846972453 
511	 0.134545832880687 
512	 0.133880222332041 
513	 0.133228541632009 
514	 0.132573199300354 
515	 0.131780740397949 
516	 0.130972345664385 
517	 0.130266479149674 
518	 0.129526084512271 
519	 0.128774009416943 
520	 0.128040308760588 
521	 0.127348614785104 
522	 0.12660357558816 
523	 0.125809360757227 
524	 0.125008627146476 
525	 0.124291468156698 
526	 0.123547611932922 
527	 0.122805747259685 
528	 0.122122957415315 
529	 0.121430630752497 
530	 0.12068320974574 
531	 0.119924994243071 
532	 0.11928780994743 
533	 0.118574845137697 
534	 0.117836074206884 
535	 0.117144915536332 
536	 0.116473533951541 
537	 0.115829807017111 
538	 0.115167775658492 
539	 0.114434093197078 
540	 0.113795378121564 
541	 0.113194920138724 
542	 0.112581724952343 
543	 0.111954583456546 
544	 0.111399010845774 
545	 0.11085016668652 
546	 0.110241353921827 
547	 0.109717149828649 
548	 0.109240499587177 
549	 0.108772769740938 
550	 0.108282460062865 
551	 0.107770078816183 
552	 0.107294994033393 
553	 0.106873896260063 
554	 0.106389021007075 
555	 0.10591599006206 
556	 0.10546773079479 
557	 0.105028834215894 
558	 0.104591108947274 
559	 0.10420642632644 
560	 0.103856776949443 
561	 0.103421895605191 
562	 0.102976858116762 
563	 0.102585508051858 
564	 0.102276171416858 
565	 0.101956098917654 
566	 0.101666122756892 
567	 0.101389199005561 
568	 0.10107534999467 
569	 0.100872763945013 
570	 0.100649052641628 
571	 0.100331027362317 
572	 0.100060340464581 
573	 9.98289812848145E-02 
574	 9.95789486961463E-02 
575	 9.92574054005102E-02 
576	 9.89955248914781E-02 
577	 9.87525630953645E-02 
578	 9.85105241008551E-02 
579	 9.82915499197667E-02 
580	 9.81267112192453E-02 
581	 9.79576459948487E-02 
582	 9.77379773315026E-02 
583	 9.75263136770464E-02 
584	 9.73059153963322E-02 
585	 9.70772397032756E-02 
586	 9.68522870954481E-02 
587	 9.66521811816386E-02 
588	 9.64866123103257E-02 
589	 9.63395326800043E-02 
590	 9.61573200821709E-02 
591	 9.59713656053743E-02 
592	 9.57949057874698E-02 
593	 9.56286864674559E-02 
594	 9.54398775189058E-02 
595	 9.52541961295207E-02 
596	 9.50914975063827E-02 
597	 9.49620217792344E-02 
598	 9.48264960331241E-02 
599	 0.094674927894076 
600	 9.45161231787568E-02 
601	 0.094392556264334 
602	 9.42484296557231E-02 
603	 9.40981834375883E-02 
604	 9.39790628680182E-02 
605	 9.38528728058928E-02 
606	 9.37367817939282E-02 
607	 9.36435768839849E-02 
608	 9.35753940335359E-02 
609	 9.34480341117794E-02 
610	 9.33273483744552E-02 
611	 9.32762552601702E-02 
612	 9.32209051341173E-02 
613	 9.31357767900063E-02 
614	 9.30335293954553E-02 
615	 9.29508242443759E-02 
616	 9.28797450233204E-02 
617	 9.28316211457392E-02 
618	 9.28021877675193E-02 
619	 9.27572460013648E-02 
620	 9.26984496478821E-02 
621	 9.26618443135574E-02 
622	 9.26668424780509E-02 
623	 9.25895201440475E-02 
624	 9.25421157234186E-02 
625	 9.25513281408897E-02 
626	 9.25547426340892E-02 
627	 9.25526290729098E-02 
628	 9.25465514654995E-02 
629	 9.25443129812399E-02 
630	 9.25667717758225E-02 
631	 9.25814254754928E-02 
632	 9.25898068629354E-02 
633	 9.26107275959761E-02 
634	 9.26669300880914E-02 
635	 9.27020927112378E-02 
636	 9.27113428971679E-02 
637	 9.27607802102304E-02 
638	 0.092805879531348 
639	 9.28563976453246E-02 
640	 9.29200019321381E-02 
641	 9.29519356001901E-02 
642	 9.30072246770534E-02 
643	 0.093084131136388 
644	 9.31490852360098E-02 
645	 9.32308144645612E-02 
646	 9.33293850931053E-02 
647	 9.34336680356398E-02 
648	 0.093520133216624 
649	 9.36098433034821E-02 
650	 9.37028780948961E-02 
651	 9.37978248297294E-02 
652	 9.39171748397173E-02 
653	 9.40247136158088E-02 
654	 9.41234937603177E-02 
655	 9.42478352525362E-02 
656	 9.43854000273942E-02 
657	 9.45110883849482E-02 
658	 9.46208974732119E-02 
659	 9.47596483822001E-02 
660	 9.49059332128373E-02 
661	 9.50470949407127E-02 
662	 9.51815694276665E-02 
663	 9.53568777594373E-02 
664	 9.55111482769841E-02 
665	 9.56476351109082E-02 
666	 0.09583716613296 
667	 9.60105985126662E-02 
668	 9.61807717425162E-02 
669	 9.63592880922011E-02 
670	 9.65074571018436E-02 
671	 9.66902326210142E-02 
672	 9.68912864186497E-02 
673	 9.70661572137687E-02 
674	 9.72577570892137E-02 
675	 9.74582014810265E-02 
676	 9.76634381370311E-02 
677	 9.78786604612681E-02 
678	 9.80446300774009E-02 
679	 9.82041970445748E-02 
680	 9.84046316264492E-02 
681	 9.86298771926589E-02 
682	 9.88590919669371E-02 
683	 9.90830746756095E-02 
684	 9.93001917317744E-02 
685	 9.94999225796109E-02 
686	 9.97223806348216E-02 
687	 9.99749137333825E-02 
688	 0.100213526484505 
689	 0.100419836837339 
690	 0.10063332976682 
691	 0.10088565606018 
692	 0.101120407854863 
693	 0.101367477087893 
694	 0.10162990204134 
695	 0.101892170665998 
696	 0.102150189900306 
697	 0.102387005469396 
698	 0.102608777889203 
699	 0.102857772556497 
700	 0.103132918521887 
701	 0.103409949178738 
702	 0.103666749563477 
703	 0.103915485354345 
704	 0.104197205719706 
705	 0.104485853945091 
706	 0.104721828264444 
707	 0.10501930040845 
708	 0.10531318375646 
709	 0.105563160190263 
710	 0.105807231664571 
711	 0.106087325575179 
712	 0.10637401363412 
713	 0.106634517012695 
714	 0.106924545576171 
715	 0.107204918613905 
716	 0.107463307786552 
717	 0.107711830976957 
718	 0.107986525363421 
719	 0.108271454104312 
720	 0.108551687638737 
721	 0.108827271754781 
722	 0.109104895469145 
723	 0.109377909217055 
724	 0.109641335191431 
725	 0.10991455409063 
726	 0.110188477712413 
727	 0.110449768459716 
728	 0.110688676921409 
729	 0.110958344336956 
730	 0.111217260050629 
731	 0.111452807441607 
732	 0.111720397212284 
733	 0.111986369870212 
734	 0.112249150427844 
735	 0.112513713033284 
736	 0.112779316358803 
737	 0.113002764278646 
738	 0.11320774347479 
739	 0.113454287822195 
740	 0.113696198225506 
741	 0.113917663495856 
742	 0.11412513277215 
743	 0.114351941912696 
744	 0.114604665252262 
745	 0.114845085579274 
746	 0.115044143309744 
747	 0.115243108150606 
748	 0.115467985459948 
749	 0.115697125526051 
750	 0.115889221857205 
751	 0.116089273975552 
752	 0.116297735626699 
753	 0.116508107176266 
754	 0.116711439753701 
755	 0.116945434766643 
756	 0.117159490847176 
757	 0.117319700551619 
758	 0.117495327645253 
759	 0.117682745539253 
760	 0.117879625214505 
761	 0.118082914712462 
762	 0.118301302079421 
763	 0.11847683278182 
764	 0.118614967851539 
765	 0.118791313229491 
766	 0.118993855672403 
767	 0.119184633388395 
768	 0.119346953539329 
769	 0.119526043961439 
770	 0.119702896090545 
771	 0.119860102773572 
772	 0.119994211208716 
773	 0.120165890924105 
774	 0.120350443474543 
775	 0.120518796116321 
776	 0.120650094672902 
777	 0.12081675060164 
778	 0.120997994532441 
779	 0.121169145449523 
780	 0.121323498202151 
781	 0.121476219532825 
782	 0.121633512356591 
783	 0.121799452344787 
784	 0.121983679081349 
785	 0.122154280418374 
786	 0.122303782601075 
787	 0.122441695111251 
788	 0.122579859875106 
789	 0.122723241178922 
790	 0.122873621319426 
791	 0.123030181095248 
792	 0.123192323707197 
793	 0.123347504128048 
794	 0.123492643640988 
795	 0.123652608323965 
796	 0.123813484086606 
797	 0.123976326005444 
798	 0.124143720296748 
799	 0.124302681561648 
800	 0.124441620915007 
801	 0.124583714074491 
802	 0.124769826724823 
803	 0.124935657949667 
804	 0.125112891466605 
805	 0.125309357216582 
806	 0.125479107672049 
807	 0.125668585203846 
808	 0.125840129471737 
809	 0.125979416084666 
810	 0.126203465379882 
811	 0.126422607867127 
812	 0.12662211343318 
813	 0.126818631311398 
814	 0.126996534141875 
815	 0.127182246718364 
816	 0.127373511708276 
817	 0.127546840450147 
818	 0.127778439279887 
819	 0.127991442188683 
820	 0.128161017528075 
821	 0.128384023358719 
822	 0.128598149378413 
823	 0.128824339674959 
824	 0.129074548794635 
825	 0.129263126327017 
826	 0.129486679675508 
827	 0.129745950185913 
828	 0.130000912517166 
829	 0.130270454370151 
830	 0.130524388208213 
831	 0.130747812843099 
832	 0.130948602149735 
833	 0.131192948681792 
834	 0.131462397245812 
835	 0.131733861402118 
836	 0.132000020301597 
837	 0.132274851221483 
838	 0.132559408958772 
839	 0.132851717675852 
840	 0.133154491820047 
841	 0.133445502549542 
842	 0.133728784996772 
843	 0.134020354967474 
844	 0.134326968736413 
845	 0.134668032966061 
846	 0.135017926804156 
847	 0.135328582380146 
848	 0.135664199259857 
849	 0.135989099484015 
850	 0.136302003569582 
851	 0.136655326526603 
852	 0.137028614584611 
853	 0.137421750866723 
854	 0.13782760917984 
855	 0.138219079435343 
856	 0.138587086235979 
857	 0.138972004871734 
858	 0.139404380983398 
859	 0.139821977005487 
860	 0.140248716766978 
861	 0.140678445206375 
862	 0.141097945408325 
863	 0.141553960580011 
864	 0.142000081510953 
865	 0.142440997467006 
866	 0.142922893513016 
867	 0.143373282332925 
868	 0.143846798654348 
869	 0.144363657768848 
870	 0.144874182265418 
871	 0.145386342176826 
872	 0.145889592625231 
873	 0.146386880991424 
874	 0.146914640612269 
875	 0.147478717588096 
876	 0.148071905882018 
877	 0.148669416214928 
878	 0.149203116480655 
879	 0.14975910516307 
880	 0.150355638660828 
881	 0.150967722202905 
882	 0.151555781056588 
883	 0.152128375410858 
884	 0.152725146228225 
885	 0.153392097300518 
886	 0.154040432946587 
887	 0.154714320085467 
888	 0.155411847287248 
889	 0.156066573866551 
890	 0.156758981108173 
891	 0.157474731544226 
892	 0.158178954989933 
893	 0.158834089945977 
894	 0.159557390729785 
895	 0.160322699652444 
896	 0.161079807290728 
897	 0.161819890981858 
898	 0.162572076244671 
899	 0.163349679170477 
900	 0.164151681504203 
901	 0.164946425575899 
902	 0.165752495603217 
903	 0.166574463898156 
904	 0.167405047273358 
905	 0.168214510689837 
906	 0.169085954131342 
907	 0.170019445356004 
908	 0.170954872729523 
909	 0.17191406136864 
910	 0.172850087815669 
911	 0.173770596467877 
912	 0.174737173165821 
913	 0.175687594237831 
914	 0.176691154177444 
915	 0.177741915714118 
916	 0.178719225920423 
917	 0.17974893135247 
918	 0.180802938853239 
919	 0.181851701421318 
920	 0.182922193406172 
921	 0.183925010673309 
922	 0.184984711569265 
923	 0.186178551792042 
924	 0.187324874010497 
925	 0.188490715175086 
926	 0.189657984017642 
927	 0.190806810055323 
928	 0.191993997479236 
929	 0.193178129200255 
930	 0.19436336560177 
931	 0.195569539122438 
932	 0.196797501344715 
933	 0.198064269859103 
934	 0.199350870412141 
935	 0.200617010976344 
936	 0.201822767220105 
937	 0.203065659352704 
938	 0.204369233603275 
939	 0.205696812239036 
940	 0.207046908093836 
941	 0.20834986851644 
942	 0.209633526710786 
943	 0.210998055761296 
944	 0.212358341302737 
945	 0.213697046870547 
946	 0.215022912083971 
947	 0.21636139256382 
948	 0.217715319730182 
949	 0.219047425871163 
950	 0.220350223193921 
951	 0.22166248872158 
952	 0.222994102718676 
953	 0.22437343525865 
954	 0.225784286856068 
955	 0.227147928060616 
956	 0.228467059877081 
957	 0.22986446902521 
958	 0.231344607251968 
959	 0.23267924460997 
960	 0.23399342258757 
961	 0.235361695897495 
962	 0.236776710006663 
963	 0.23809705996668 
964	 0.239397166330516 
965	 0.240770429642522 
966	 0.242235802990918 
967	 0.243643370656553 
968	 0.24504551195804 
969	 0.246477647250145 
970	 0.24794588725303 
971	 0.249394994479056 
972	 0.25077156257091 
973	 0.252115659876726 
974	 0.253511221668933 
975	 0.255068776294974 
976	 0.256519209271226 
977	 0.25792071262703 
978	 0.259382309118951 
979	 0.260806277721913 
980	 0.262236625164429 
981	 0.263638328825591 
982	 0.265011625156775 
983	 0.26656188897585 
984	 0.26800803398906 
985	 0.269439752734421 
986	 0.270964699360295 
987	 0.272282576308715 
988	 0.273617063163879 
989	 0.275079243783124 
990	 0.276637014982708 
991	 0.27795681052196 
992	 0.279319124238712 
993	 0.280779566145057 
994	 0.282270482931028 
995	 0.283640024974588 
996	 0.284962089651763 
997	 0.286255850115697 
998	 0.287558813319624 
999	 0.289032608717271 
1000	 0.290447853833553 
1001	 0.291268078125346 
1002	 0.292576400774445 
1003	 0.293942614025764 
1004	 0.295243403987371 
1005	 0.296516121630072 
1006	 0.297789816758215 
1007	 0.299010333189848 
1008	 0.300299575137919 
1009	 0.301606865911569 
1010	 0.302903630033907 
1011	 0.304270668617647 
1012	 0.305561187691014 
1013	 0.306806035886476 
1014	 0.308047302776762 
1015	 0.309236957907729 
1016	 0.310438333297991 
1017	 0.31173770323029 
1018	 0.312977631438599 
1019	 0.31424647908632 
1020	 0.315540953443648 
1021	 0.316768260063936 
1022	 0.317937842301021 
1023	 0.319131219291996 
1024	 0.320284968169925 
1025	 0.321493941391012 
1026	 0.322703114446579 
1027	 0.323941319393492 
1028	 0.325250525168934 
1029	 0.326539065268954 
1030	 0.327711769448538 
1031	 0.328925587355381 
1032	 0.330084427529529 
1033	 0.331224867254218 
1034	 0.332477160737352 
1035	 0.333681504404628 
1036	 0.334889577416785 
1037	 0.336142216003955 
1038	 0.337313152789129 
1039	 0.338438438227848 
1040	 0.339588509780499 
1041	 0.340668723390717 
1042	 0.341815108312426 
1043	 0.343033620607927 
1044	 0.344175987435813 
1045	 0.345324283778047 
1046	 0.346490909600081 
1047	 0.347512526274079 
1048	 0.348570182253693 
1049	 0.349646187251126 
1050	 0.350678094380996 
1051	 0.351766639994987 
1052	 0.352810943380214 
1053	 0.353863177810092 
1054	 0.354946334089776 
1055	 0.355951815839703 
1056	 0.356927526170376 
1057	 0.357892113381827 
1058	 0.358799904308357 
1059	 0.359664165540989 
1060	 0.360646226329388 
1061	 0.361605416479283 
1062	 0.362580498705661 
1063	 0.363547177377741 
1064	 0.364401534146155 
1065	 0.365277866394805 
1066	 0.366108023854205 
1067	 0.366916841449964 
1068	 0.367805000194992 
1069	 0.368628884732063 
1070	 0.369454863532835 
1071	 0.370284795121968 
1072	 0.371134123759559 
1073	 0.371876603518688 
1074	 0.372641782145235 
1075	 0.373416738968505 
1076	 0.374144746704662 
1077	 0.374932051466299 
1078	 0.375700654310954 
1079	 0.376461830138647 
1080	 0.377221555049479 
1081	 0.377925889108845 
1082	 0.378668378256341 
1083	 0.379372157457141 
1084	 0.380034011083296 
1085	 0.380722788723639 
1086	 0.381392398358323 
1087	 0.382022597988609 
1088	 0.382691808708032 
1089	 0.383388779711059 
1090	 0.38402105653177 
1091	 0.384666583281351 
1092	 0.385287181046904 
1093	 0.385888597823774 
1094	 0.386559491755759 
1095	 0.387210820460744 
1096	 0.387822171018359 
1097	 0.38841066522019 
1098	 0.388959650204374 
1099	 0.389539635752023 
1100	 0.390122029420929 
1101	 0.390680330239949 
1102	 0.391259635253447 
1103	 0.391805224321541 
1104	 0.392311569989941 
1105	 0.392818194442154 
1106	 0.393355145376348 
1107	 0.393855644732469 
1108	 0.394365898327755 
1109	 0.394868705719813 
1110	 0.395356305297953 
1111	 0.395855919267041 
1112	 0.3963170524328 
1113	 0.396777463469209 
1114	 0.397231878008137 
1115	 0.397646766999435 
1116	 0.398080361520974 
1117	 0.398498921558426 
1118	 0.398917769343099 
1119	 0.399355109073133 
1120	 0.399752894866982 
1121	 0.40013479133427 
1122	 0.40050283005709 
1123	 0.400830764950227 
1124	 0.401110902260573 
1125	 0.401379468541974 
1126	 0.401639200823891 
1127	 0.401864881073495 
1128	 0.402046047415167 
1129	 0.402187109091019 
1130	 0.402275990719485 
1131	 0.402356167312751 
1132	 0.40242084717667 
1133	 0.402462886274137 
1134	 0.402489324648082 
1135	 0.402457949455277 
1136	 0.402366351877525 
1137	 0.402268656900937 
1138	 0.402130620755785 
1139	 0.401984473179443 
1140	 0.401824584942492 
1141	 0.401648729624509 
1142	 0.401452972812545 
1143	 0.401236883531176 
1144	 0.400998717775676 
1145	 0.400727467448495 
1146	 0.400442628872121 
1147	 0.40014863628808 
1148	 0.399849107716611 
1149	 0.39957826651297 
1150	 0.3993062645719 
1151	 0.399012510947855 
1152	 0.398693343464533 
1153	 0.398359074846524 
1154	 0.397999025469508 
1155	 0.39761664001154 
1156	 0.397199980343959 
1157	 0.396777625058749 
1158	 0.396305522606439 
1159	 0.395779229431581 
1160	 0.395245289607842 
1161	 0.394696751163863 
1162	 0.394072582149947 
1163	 0.393464502801343 
1164	 0.392833621600832 
1165	 0.392163543887646 
1166	 0.391516439524357 
1167	 0.390842035218858 
1168	 0.390193725090599 
1169	 0.389515746665456 
1170	 0.388831125861268 
1171	 0.388118457722795 
1172	 0.387374378197552 
1173	 0.386630380816643 
1174	 0.385868196622409 
1175	 0.385128176986159 
1176	 0.38438998334435 
1177	 0.383655744672047 
1178	 0.382930382752624 
1179	 0.382193628875975 
1180	 0.38148360804372 
1181	 0.380758941921674 
1182	 0.380069961089452 
1183	 0.379471870425058 
1184	 0.378889396620244 
1185	 0.378368274531403 
1186	 0.377931640261812 
1187	 0.377547500598461 
1188	 0.377245677902962 
1189	 0.377040239856877 
1190	 0.376878951976241 
1191	 0.376785080112142 
1192	 0.376742850657973 
1193	 0.376767910061805 
1194	 0.37682281436891 
1195	 0.376946341640288 
1196	 0.377073279781579 
1197	 0.377222076691315 
1198	 0.377404557801524 
1199	 0.377616989953147 
1200	 0.37784576820767 
1201	 0.378101778429693 
1202	 0.37837496626067 
1203	 0.378657612816406 
1204	 0.378989670442681 
1205	 0.379364262922948 
1206	 0.379765011656614 
1207	 0.380245891821577 
1208	 0.380760716922129 
1209	 0.381372029503423 
1210	 0.382052879256388 
1211	 0.382821395306678 
1212	 0.383684683037793 
1213	 0.384610612610575 
1214	 0.385600629353818 
1215	 0.386688360146418 
1216	 0.387885735754206 
1217	 0.389100852119965 
1218	 0.390399368208078 
1219	 0.391733779067518 
1220	 0.393089317366069 
1221	 0.394531812271619 
1222	 0.395946630193496 
1223	 0.397368209776245 
1224	 0.398719027801475 
1225	 0.400022419192702 
1226	 0.401273928950738 
1227	 0.402487306009265 
1228	 0.403657151310344 
1229	 0.40479082381751 
1230	 0.405860125998926 
1231	 0.406877206805729 
1232	 0.407851506630365 
1233	 0.408751155200407 
1234	 0.409622441870253 
1235	 0.410467994074664 
1236	 0.411264359992671 
1237	 0.412014858499221 
1238	 0.412722690111208 
1239	 0.41337327860576 
1240	 0.413999633928827 
1241	 0.414614693731117 
1242	 0.415168645612205 
1243	 0.415700532827576 
1244	 0.416205247905259 
1245	 0.416688051638414 
1246	 0.417120021307145 
1247	 0.417567464124118 
1248	 0.418016456945899 
1249	 0.418439051166951 
1250	 0.418843110405614 
1251	 0.419236071701197 
1252	 0.419609541395516 
1253	 0.419978764224452 
1254	 0.420348229457345 
1255	 0.420692394159704 
1256	 0.42101889340957 
1257	 0.421333649041783 
1258	 0.421625448267221 
1259	 0.421911324658658 
1260	 0.4221848488612 
1261	 0.422455398998281 
1262	 0.422707261220531 
1263	 0.422970384364768 
1264	 0.423229195352607 
1265	 0.423485935131266 
1266	 0.423746682407819 
1267	 0.424013502450164 
1268	 0.424263964805763 
1269	 0.424513583154225 
1270	 0.42475055318403 
1271	 0.424975853450614 
1272	 0.425192494844703 
1273	 0.425403148361175 
1274	 0.425601164212012 
1275	 0.425785151023499 
1276	 0.425961278636209 
1277	 0.42613185367067 
1278	 0.426285738352138 
1279	 0.4264215331084 
1280	 0.426553653881152 
1281	 0.426665171292205 
1282	 0.426783691958975 
1283	 0.426914705797418 
1284	 0.427023044283275 
1285	 0.427120472585374 
1286	 0.427214930023573 
1287	 0.427288392762962 
1288	 0.427336514130552 
1289	 0.427390821759776 
1290	 0.427437487627767 
1291	 0.427482541895658 
1292	 0.427526303261219 
1293	 0.427558293398116 
1294	 0.427587454602822 
1295	 0.42760227692841 
1296	 0.427599109409345 
1297	 0.427601324669241 
1298	 0.427593148676518 
1299	 0.427591795393619 
1300	 0.427599389845016 
1301	 0.427595493587701 
1302	 0.427591542943632 
1303	 0.427578303070647 
1304	 0.427564875086451 
1305	 0.427531477881455 
1306	 0.427492622306635 
1307	 0.427432924956001 
1308	 0.427350650547331 
1309	 0.427254187501616 
1310	 0.42715679320102 
1311	 0.427038348728831 
1312	 0.426946436996934 
1313	 0.426854106998073 
1314	 0.426781742684642 
1315	 0.426712181799331 
1316	 0.426683292356022 
1317	 0.426672317844394 
1318	 0.426689297335487 
1319	 0.426769368453683 
1320	 0.426798598010584 
1321	 0.42683845879096 
1322	 0.426845051252987 
1323	 0.426835687262469 
1324	 0.426791290030819 
1325	 0.426718632198083 
1326	 0.42663345920225 
1327	 0.426527822649421 
1328	 0.426389893349783 
1329	 0.426247467012266 
1330	 0.42606070538332 
1331	 0.425835283227275 
1332	 0.425575975415789 
1333	 0.425284775235829 
1334	 0.424953596597487 
1335	 0.424620198808839 
1336	 0.424251900875976 
1337	 0.423893191174823 
1338	 0.42353795655381 
1339	 0.423152799856766 
1340	 0.422757056439699 
1341	 0.422333545244999 
1342	 0.42189882475429 
1343	 0.421416303620078 
1344	 0.420921262503937 
1345	 0.420354415849961 
1346	 0.41973887640888 
1347	 0.419079849736362 
1348	 0.418368725502624 
1349	 0.417616960795647 
1350	 0.416793579176436 
1351	 0.41598270203909 
1352	 0.415126291793409 
1353	 0.414286187572274 
1354	 0.413436273980289 
1355	 0.412613363664383 
1356	 0.411788851926977 
1357	 0.410986135186842 
1358	 0.410213448734295 
1359	 0.409443634317183 
1360	 0.408703809030889 
1361	 0.407940576062259 
1362	 0.40715896041263 
1363	 0.406415371120862 
1364	 0.40560325537583 
1365	 0.404770121082598 
1366	 0.403892494821791 
1367	 0.402977701475248 
1368	 0.402034271857068 
1369	 0.401056702183648 
1370	 0.400049546186795 
1371	 0.398998902732126 
1372	 0.397962657992382 
1373	 0.396898119337393 
1374	 0.395842886950597 
1375	 0.394783616984419 
1376	 0.393726250514966 
1377	 0.392664710830761 
1378	 0.391589878057139 
1379	 0.390506603166532 
1380	 0.389430060121851 
1381	 0.388346530173971 
1382	 0.387258145083192 
1383	 0.386169746163865 
1384	 0.38508857880774 
1385	 0.383988394945787 
1386	 0.382921863284001 
1387	 0.381850576645286 
1388	 0.380849657136559 
1389	 0.379882020095978 
1390	 0.378959949563271 
1391	 0.378117759057386 
1392	 0.377271034045752 
1393	 0.37649500606429 
1394	 0.375699717590982 
1395	 0.374856470832807 
1396	 0.374044807387693 
1397	 0.373095304091853 
1398	 0.372110023430742 
1399	 0.370946699731457 
1400	 0.369689322205988 
1401	 0.368276937838781 
1402	 0.366725129155586 
1403	 0.365027684641416 
1404	 0.363172910237194 
1405	 0.361258725890178 
1406	 0.359172514567444 
1407	 0.35709697564078 
1408	 0.354876181073268 
1409	 0.352805071975524 
1410	 0.350663515126902 
1411	 0.348733349787796 
1412	 0.346886518382489 
1413	 0.345258200209794 
1414	 0.343791804584609 
1415	 0.342465883881082 
1416	 0.341366885012107 
1417	 0.340317287226303 
1418	 0.339423924690368 
1419	 0.33853621127279 
1420	 0.337743616563548 
1421	 0.336958289149631 
1422	 0.336197654725993 
1423	 0.335457215900186 
1424	 0.334754492843912 
1425	 0.334038548460358 
1426	 0.333393798456116 
1427	 0.332779070292994 
1428	 0.332208819207176 
1429	 0.331726874070054 
1430	 0.331262647661461 
1431	 0.330828889571083 
1432	 0.330456364996438 
1433	 0.330133864069183 
1434	 0.329856905412357 
1435	 0.329628845241307 
1436	 0.329448356290503 
1437	 0.329314206239341 
1438	 0.329229135482273 
1439	 0.329195881018369 
1440	 0.329204611780917 
1441	 0.329269817319746 
1442	 0.329354936068393 
1443	 0.329485931620558 
1444	 0.329632140972667 
1445	 0.329802903476916 
1446	 0.329998346201099 
1447	 0.330227611399089 
1448	 0.33046501684533 
1449	 0.330732022977073 
1450	 0.330997331176157 
1451	 0.331282224320454 
1452	 0.331553308308731 
1453	 0.331837632327554 
1454	 0.332093709175348 
1455	 0.332325752645917 
1456	 0.332562844459034 
1457	 0.332780465653341 
1458	 0.333008381849246 
1459	 0.333254714750999 
1460	 0.333480442451996 
1461	 0.333699866187989 
1462	 0.333909126238188 
1463	 0.334114017676645 
1464	 0.334294539594756 
1465	 0.334455300075488 
1466	 0.334616470586813 
1467	 0.334742339617201 
1468	 0.334841808102649 
1469	 0.334922954891323 
1470	 0.334968173627041 
1471	 0.334976972078008 
1472	 0.334956289243679 
1473	 0.334886166627807 
1474	 0.334771938636753 
1475	 0.334627729505841 
1476	 0.334447265535219 
1477	 0.334217624772823 
1478	 0.333949342911634 
1479	 0.33364467424659 
1480	 0.33328128622337 
1481	 0.332910068858193 
1482	 0.332513172131393 
1483	 0.332090679198711 
1484	 0.331638249489357 
1485	 0.331168462964051 
1486	 0.330645833836124 
1487	 0.33017578763521 
1488	 0.329679584822539 
1489	 0.329258799698111 
1490	 0.328861932121396 
1491	 0.328547791302821 
1492	 0.328271122553794 
1493	 0.328095133058821 
1494	 0.32801432043876 
1495	 0.327985972714895 
1496	 0.328023840433708 
1497	 0.328144490507979 
1498	 0.328308966357062 
1499	 0.328599307647758 
1500	 0.328931455212258 
1501	 0.329476135820217 
1502	 0.330139142391902 
1503	 0.330999419539124 
1504	 0.332062949419598 
1505	 0.33327783033042 
1506	 0.334780233830864 
1507	 0.336233002566408 
1508	 0.3379112005892 
1509	 0.339419173594479 
1510	 0.340927439752093 
1511	 0.342263110029055 
1512	 0.343481563176628 
1513	 0.344585452065037 
1514	 0.345512591312991 
1515	 0.346391985636998 
1516	 0.347134871500326 
1517	 0.34787726861646 
1518	 0.348544153595339 
1519	 0.349214566583096 
1520	 0.349871020258641 
1521	 0.350519243033874 
1522	 0.351146244823979 
1523	 0.351809003565513 
1524	 0.352448124618139 
1525	 0.353087959871428 
1526	 0.353719951039644 
1527	 0.354347642052078 
1528	 0.354954257714217 
1529	 0.355554302553931 
1530	 0.356137606395068 
1531	 0.356704898687919 
1532	 0.357251658911007 
1533	 0.357782332238604 
1534	 0.35830795056169 
1535	 0.358816114083594 
1536	 0.359306932924746 
1537	 0.359795137739642 
1538	 0.360255664866471 
1539	 0.360689178266142 
1540	 0.361107461749297 
1541	 0.361513102517925 
1542	 0.361895384551616 
1543	 0.362249357051728 
1544	 0.362594522629065 
1545	 0.362932450484156 
1546	 0.363235152804526 
1547	 0.363522125224467 
1548	 0.36376896194656 
1549	 0.363963921162862 
1550	 0.364176150751361 
1551	 0.364367065666658 
1552	 0.364558086267035 
1553	 0.364760527037461 
1554	 0.36493381221201 
1555	 0.365079734102727 
1556	 0.365231691437682 
1557	 0.36536920781538 
1558	 0.36551502043003 
1559	 0.365653894920849 
1560	 0.365811326053534 
1561	 0.365973743366393 
1562	 0.366149126825305 
1563	 0.36634023281556 
1564	 0.366537064149167 
1565	 0.366746379764911 
1566	 0.366954422368294 
1567	 0.367163287913362 
1568	 0.367388231377392 
1569	 0.36762172164497 
1570	 0.367858655222724 
1571	 0.36812143484164 
1572	 0.368361352526224 
1573	 0.368582923281454 
1574	 0.368820785239965 
1575	 0.369067727393467 
1576	 0.369297627712023 
1577	 0.369529751523495 
1578	 0.369755044717329 
1579	 0.36996267693493 
1580	 0.370170839565022 
1581	 0.370378418552771 
1582	 0.370586884487701 
1583	 0.370787296770764 
1584	 0.370991534631748 
1585	 0.371198654222071 
1586	 0.371411154676591 
1587	 0.371630630238314 
1588	 0.37183908298813 
1589	 0.372053435101732 
1590	 0.372255811626286 
1591	 0.37243064377387 
1592	 0.372628538820006 
1593	 0.37284670569517 
1594	 0.373043372637143 
1595	 0.373240955793682 
1596	 0.373431392657509 
1597	 0.373601760802467 
1598	 0.373774494396872 
1599	 0.373961952063807 
1600	 0.374124189782709 
1601	 0.374269118407008 
1602	 0.374406597567977 
1603	 0.374520548695262 
1604	 0.374641222095883 
1605	 0.374781764457785 
1606	 0.374878366610193 
1607	 0.374942393313105 
1608	 0.375016895376098 
1609	 0.375068448715111 
1610	 0.375116683036135 
1611	 0.375184813037626 
1612	 0.37522488903187 
1613	 0.37523643209341 
1614	 0.375242587304457 
1615	 0.375243721388395 
1616	 0.375224153931703 
1617	 0.375196411532518 
1618	 0.375139778560739 
1619	 0.37505258985553 
1620	 0.374958597743198 
1621	 0.374837331725785 
1622	 0.374714099065854 
1623	 0.374585437429309 
1624	 0.374447205854483 
1625	 0.374305351679314 
1626	 0.374143709877392 
1627	 0.373946692876346 
1628	 0.373778516006276 
1629	 0.373606135423687 
1630	 0.373443643176068 
1631	 0.373311330402517 
1632	 0.373166540886809 
1633	 0.373002894060104 
1634	 0.372864531537252 
1635	 0.372728725589746 
1636	 0.372616977793258 
1637	 0.372547422039449 
1638	 0.372455195524437 
1639	 0.372378001567041 
1640	 0.372278247787828 
1641	 0.372168206206916 
1642	 0.372028973453946 
1643	 0.371886838698208 
1644	 0.371699993742743 
1645	 0.371469650381923 
1646	 0.371221400832845 
1647	 0.370962276323766 
1648	 0.370638794670932 
1649	 0.370295952669375 
1650	 0.369872509007303 
1651	 0.369377525806764 
1652	 0.368827628953901 
1653	 0.368230091101782 
1654	 0.367546650155854 
1655	 0.366790098700376 
1656	 0.365953743496306 
1657	 0.365051079730895 
1658	 0.364035423562955 
1659	 0.362947207364349 
1660	 0.361746181794729 
1661	 0.360455413817927 
1662	 0.359005071564859 
1663	 0.35743338741525 
1664	 0.355698576008831 
1665	 0.353822459273439 
1666	 0.351751216213913 
1667	 0.34951513253456 
1668	 0.347140690627842 
1669	 0.344582402259057 
1670	 0.341879320698279 
1671	 0.338991528230446 
1672	 0.336003894831785 
1673	 0.332854033377098 
1674	 0.32961048950553 
1675	 0.32623507949688 
1676	 0.3228866708819 
1677	 0.319427409553347 
1678	 0.315990775680833 
1679	 0.312515835440229 
1680	 0.309075866577362 
1681	 0.305611408192743 
1682	 0.302190739359447 
1683	 0.298807556847782 
1684	 0.295531551639729 
1685	 0.292279964789505 
1686	 0.289119312917338 
1687	 0.286030598582792 
1688	 0.283032267243506 
1689	 0.280082979442634 
1690	 0.277270608411591 
1691	 0.274601367513242 
1692	 0.272060481113876 
1693	 0.269636576338343 
1694	 0.267304784059065 
1695	 0.265109476805125 
1696	 0.262946843201054 
1697	 0.260866993668328 
1698	 0.258836671829169 
1699	 0.256887454713398 
1700	 0.255012931294396 
1701	 0.253193819667147 
1702	 0.251462758077252 
1703	 0.249794671926216 
1704	 0.248224194693721 
1705	 0.246736912085876 
1706	 0.245291057666806 
1707	 0.244035825043649 
1708	 0.242842154603381 
1709	 0.241733321996897 
1710	 0.240747090193321 
1711	 0.239779014819815 
1712	 0.238857570467151 
1713	 0.237966257882233 
1714	 0.237122347092563 
1715	 0.236360444369865 
1716	 0.235614752431261 
1717	 0.234940528473417 
1718	 0.234284178088039 
1719	 0.233641030085257 
1720	 0.23311568115069 
1721	 0.232683217028251 
1722	 0.232374633480369 
1723	 0.232216223097046 
1724	 0.232165223222578 
1725	 0.232256082946675 
1726	 0.232558132580221 
1727	 0.233034945298375 
1728	 0.23367578226105 
1729	 0.23452731601654 
1730	 0.23551803351034 
1731	 0.236589407658562 
1732	 0.237821949903522 
1733	 0.239099917027336 
1734	 0.240418417669582 
1735	 0.24179739155414 
1736	 0.243086310791824 
1737	 0.244285574492053 
1738	 0.245339113784796 
1739	 0.246273388695022 
1740	 0.247119420836486 
1741	 0.247822309342461 
1742	 0.248373488238601 
1743	 0.248846893681767 
1744	 0.249159815458381 
1745	 0.249463804925738 
1746	 0.24965287011914 
1747	 0.249881487458397 
1748	 0.250080745671493 
1749	 0.250299023555802 
1750	 0.250512850446655 
1751	 0.250793147415392 
1752	 0.251068331639672 
1753	 0.251462661091791 
1754	 0.251926312906209 
1755	 0.252468397779946 
1756	 0.253067636763588 
1757	 0.25375543993542 
1758	 0.254628050334909 
1759	 0.255576395105795 
1760	 0.256720828285405 
1761	 0.258035228221158 
1762	 0.259355133123586 
1763	 0.260866656038019 
1764	 0.262493857427943 
1765	 0.264174369747918 
1766	 0.266045978975652 
1767	 0.267935053942866 
1768	 0.269841415076803 
1769	 0.271778928762448 
1770	 0.2736048024794 
1771	 0.27542959089076 
1772	 0.277178552712787 
1773	 0.278816850635996 
1774	 0.280437517078933 
1775	 0.281902140674394 
1776	 0.283322451016119 
1777	 0.284666620970869 
1778	 0.285815044569736 
1779	 0.28691258356355 
1780	 0.287891233158204 
1781	 0.288771260324792 
1782	 0.289632024615943 
1783	 0.290371792839569 
1784	 0.291037740751651 
1785	 0.291573886659459 
1786	 0.29208852840656 
1787	 0.29255453132028 
1788	 0.292977380890895 
1789	 0.29335040716636 
1790	 0.293689010178736 
1791	 0.293984866497288 
1792	 0.29427284346523 
1793	 0.294491840676682 
1794	 0.294769136170396 
1795	 0.295024156364863 
1796	 0.295269604564689 
1797	 0.295559411241 
1798	 0.295814228437705 
1799	 0.296071324269623 
1800	 0.296322739994581 
1801	 0.297092751851812 
1802	 0.297342705138492 
1803	 0.29756436805758 
1804	 0.297773330233243 
1805	 0.297979962843912 
1806	 0.298178989622521 
1807	 0.298362050737152 
1808	 0.298546160554451 
1809	 0.298719221951666 
1810	 0.29891130282995 
1811	 0.299096601884108 
1812	 0.299291863095717 
1813	 0.299495839338283 
1814	 0.299732572971808 
1815	 0.299939186261076 
1816	 0.300160210152028 
1817	 0.300397572366134 
1818	 0.300646967047909 
1819	 0.30089741870627 
1820	 0.301168042234431 
1821	 0.301429547108734 
1822	 0.301678169354723 
1823	 0.301954672658737 
1824	 0.302228046713247 
1825	 0.30251180683471 
1826	 0.302793155979246 
1827	 0.303084387671038 
1828	 0.303358930786629 
1829	 0.303621284657973 
1830	 0.30389615889761 
1831	 0.304161298257271 
1832	 0.304453725305787 
1833	 0.304749183714326 
1834	 0.305047965987277 
1835	 0.305373922850732 
1836	 0.30567937412945 
1837	 0.305987174184585 
1838	 0.306291682016341 
1839	 0.306613196329901 
1840	 0.306943888814255 
1841	 0.307269782739347 
1842	 0.307610195166654 
1843	 0.307934956223801 
1844	 0.308266972847435 
1845	 0.30857193809352 
1846	 0.308867987850933 
1847	 0.309159124363621 
1848	 0.309408662409658 
1849	 0.309629000877298 
1850	 0.309823116356924 
1851	 0.309986724747347 
1852	 0.310132613622972 
1853	 0.310264542600147 
1854	 0.310343108742773 
1855	 0.310411742734872 
1856	 0.310459900802472 
1857	 0.31045847240201 
1858	 0.310431072045165 
1859	 0.310361651207881 
1860	 0.310257834932621 
1861	 0.310109472432595 
1862	 0.309928410820212 
1863	 0.309696395436051 
1864	 0.30940569149517 
1865	 0.30906496367505 
1866	 0.308665831610109 
1867	 0.308203598379435 
1868	 0.307715872010485 
1869	 0.307146448002576 
1870	 0.306520195198578 
1871	 0.305854835524038 
1872	 0.30511897116908 
1873	 0.304321627647551 
1874	 0.303471156934096 
1875	 0.30255074081962 
1876	 0.301448216463463 
1877	 0.300289914076345 
1878	 0.298989381504197 
1879	 0.297500651486594 
1880	 0.296000117061966 
1881	 0.294335617068658 
1882	 0.292518179730714 
1883	 0.290595344945084 
1884	 0.288549019530304 
1885	 0.286212184440821 
1886	 0.283793179542799 
1887	 0.281209413308526 
1888	 0.278430735590366 
1889	 0.275773049083814 
1890	 0.272983027261334 
1891	 0.270177307757184 
1892	 0.267424986597525 
1893	 0.26458211971512 
1894	 0.261612667783586 
1895	 0.258786215595136 
1896	 0.25593925119791 
1897	 0.253085463569652 
1898	 0.250494788732519 
1899	 0.247864982219075 
1900	 0.245303020225048 
1901	 0.242890558508458 
1902	 0.240397565482809 
1903	 0.238059378020647 
1904	 0.23579647780819 
1905	 0.233585775193222 
1906	 0.231451347231319 
1907	 0.22957366456665 
1908	 0.227707151765872 
1909	 0.225956594925715 
1910	 0.224347927762892 
1911	 0.222689641632613 
1912	 0.221156719921586 
1913	 0.219704930112845 
1914	 0.218284520339185 
1915	 0.216990581832492 
1916	 0.21583298543516 
1917	 0.214704698767395 
1918	 0.213630079100277 
1919	 0.21264197136439 
1920	 0.21166661877785 
1921	 0.21077462134529 
1922	 0.209930750910117 
1923	 0.209119249608578 
1924	 0.208401003292297 
1925	 0.207707304732365 
1926	 0.207082870416094 
1927	 0.206542494119597 
1928	 0.206031706649582 
1929	 0.205559183804101 
1930	 0.205151683321885 
1931	 0.204793996709102 
1932	 0.204466203336605 
1933	 0.204221951207726 
1934	 0.20403449764282 
1935	 0.203886586341915 
1936	 0.203791504979195 
1937	 0.203751645361419 
1938	 0.20376281558415 
1939	 0.203830995567808 
1940	 0.203960522827233 
1941	 0.204132944167676 
1942	 0.204341252188442 
1943	 0.204590706428148 
1944	 0.204854811007261 
1945	 0.205170481326596 
1946	 0.205552716481476 
1947	 0.205938549788857 
1948	 0.20635853261256 
1949	 0.206819414363457 
1950	 0.207274692033522 
1951	 0.207738265283892 
1952	 0.208216384358367 
1953	 0.208706348066057 
1954	 0.209202781700716 
1955	 0.20972893593501 
1956	 0.210253541687785 
1957	 0.210801623427397 
1958	 0.211343825875648 
1959	 0.211842533855474 
1960	 0.212358680575298 
1961	 0.21286655839126 
1962	 0.213348859847128 
1963	 0.213854821955201 
1964	 0.21438354500053 
1965	 0.2148850283019 
1966	 0.21538728219917 
1967	 0.215885449179851 
1968	 0.216331913098145 
1969	 0.216783854992379 
1970	 0.217233178709593 
1971	 0.217658853348813 
1972	 0.218113904652559 
1973	 0.218570970679456 
1974	 0.219024534879813 
1975	 0.219490294942105 
1976	 0.219932856609424 
1977	 0.220345487927951 
1978	 0.220794187370078 
1979	 0.221236440237481 
1980	 0.221697558151852 
1981	 0.222218248297161 
1982	 0.222724324236356 
1983	 0.223236045492644 
1984	 0.22377967105678 
1985	 0.224287323869464 
1986	 0.224815388815873 
1987	 0.225316819996714 
1988	 0.225800662266448 
1989	 0.226271996701618 
1990	 0.226750072682536 
1991	 0.227174920049324 
1992	 0.227570339363869 
1993	 0.227958476434618 
1994	 0.228284440944156 
1995	 0.228588882576676 
1996	 0.228864995316724 
1997	 0.229115266133833 
1998	 0.229357578290963 
1999	 0.229576025192074 
2000	 0.229777327503314 
2001	 0.229974132967696 
2002	 0.230136331612517 
2003	 0.230272199983263 
2004	 0.230387521548896 
2005	 0.230498955538859 
2006	 0.230551678461559 
2007	 0.230567115483947 
2008	 0.230542208522068 
2009	 0.230475811280816 
2010	 0.230368908610031 
2011	 0.230249000029491 
2012	 0.230085359084125 
2013	 0.229864492313087 
2014	 0.22960019425987 
2015	 0.229281631973006 
2016	 0.228908491593325 
2017	 0.228486746779887 
2018	 0.228001092699392 
2019	 0.227483545350589 
2020	 0.226929677401641 
2021	 0.226307277727596 
2022	 0.225661514255033 
2023	 0.224989372820971 
2024	 0.224222668432771 
2025	 0.223457784035992 
2026	 0.222662267547001 
2027	 0.221787924458625 
2028	 0.220971980303924 
2029	 0.220169096576328 
2030	 0.219349800731753 
2031	 0.218571739150519 
2032	 0.217735202136786 
2033	 0.21683954743995 
2034	 0.21598007535918 
2035	 0.215101060996694 
2036	 0.214203756147369 
2037	 0.213418926218165 
2038	 0.212628567654128 
2039	 0.21190055514114 
2040	 0.211206928277588 
2041	 0.210595933142735 
2042	 0.210000210558536 
2043	 0.209561374847747 
2044	 0.209231320760277 
2045	 0.20898247898337 
2046	 0.208870834504417 
2047	 0.208792048442135 
2048	 0.208815757040104 
2049	 0.208845224114579 
2050	 0.208946001073352 
2051	 0.20904873885107 
2052	 0.209147188625884 
2053	 0.209243818690133 
2054	 0.209338591045287 
2055	 0.20941948824831 
2056	 0.20952630549726 
2057	 0.209628825056318 
2058	 0.209770705139827 
2059	 0.209934000979447 
2060	 0.210124491510153 
2061	 0.210352598337118 
2062	 0.210587381550851 
2063	 0.210847568739196 
2064	 0.211111456913311 
2065	 0.211395613557573 
2066	 0.211671059290192 
2067	 0.211959519026008 
2068	 0.212248212413415 
2069	 0.212532273903256 
2070	 0.21283087056041 
2071	 0.213085835571779 
2072	 0.21333307841011 
2073	 0.213550292277884 
2074	 0.213722228062623 
2075	 0.21390075608667 
2076	 0.214072443904815 
2077	 0.214220686909367 
2078	 0.214359227264125 
2079	 0.214478000441911 
2080	 0.214563573219229 
2081	 0.21465157078973 
2082	 0.214727716122994 
2083	 0.214797711838241 
2084	 0.214868344562324 
2085	 0.214922009544815 
2086	 0.214959111914193 
2087	 0.214979498257488 
2088	 0.214992465129413 
2089	 0.214987871931854 
2090	 0.214978266827066 
2091	 0.214960847528393 
2092	 0.214935895269932 
2093	 0.214911383228725 
2094	 0.21485948765036 
2095	 0.2147967596114 
2096	 0.214713651507534 
2097	 0.214604046521291 
2098	 0.214478847576831 
2099	 0.214352824191545 
2100	 0.214191538934657 
2101	 0.214020429771077 
2102	 0.213831895797215 
2103	 0.213626883567328 
2104	 0.21340651889992 
2105	 0.213163945139135 
2106	 0.212906548134522 
2107	 0.212619588657615 
2108	 0.212298596957524 
2109	 0.211976562493108 
2110	 0.211636473728403 
2111	 0.211280827068902 
2112	 0.210895972973362 
2113	 0.210526724045705 
2114	 0.210154192678698 
2115	 0.209771470815662 
2116	 0.209394092928545 
2117	 0.209022082529956 
2118	 0.208619753243307 
2119	 0.208183709270618 
2120	 0.207777684984579 
2121	 0.207365885975917 
2122	 0.206965724305448 
2123	 0.20657019174404 
2124	 0.206191391125833 
2125	 0.205818264449141 
2126	 0.205463920586961 
2127	 0.205151436904148 
2128	 0.204810451816808 
2129	 0.204447069472898 
2130	 0.204113247278493 
2131	 0.20380393371959 
2132	 0.203463847765171 
2133	 0.203114720484896 
2134	 0.202794445779371 
2135	 0.202434092093157 
2136	 0.202077141827607 
2137	 0.201729987007815 
2138	 0.201393231762372 
2139	 0.201071672891431 
2140	 0.200753674595672 
2141	 0.200443077555075 
2142	 0.200150958428292 
2143	 0.199869629819692 
2144	 0.199574269985553 
2145	 0.199322761476165 
2146	 0.199114958787591 
2147	 0.198901902527797 
2148	 0.198702164797332 
2149	 0.198516388181439 
2150	 0.198339663269693 
2151	 0.198177064290119 
2152	 0.198037887300151 
2153	 0.197906375872445 
2154	 0.197775899189199 
2155	 0.197626932219015 
2156	 0.197467238519151 
2157	 0.197289242122191 
2158	 0.197126420287746 
2159	 0.196963830341007 
2160	 0.196787462031668 
2161	 0.196613694708145 
2162	 0.1964331647998 
2163	 0.196220502711332 
2164	 0.196042036634961 
2165	 0.195867770160951 
2166	 0.195719528868002 
2167	 0.195586695534441 
2168	 0.195480611890816 
2169	 0.195396741602796 
2170	 0.195335851416703 
2171	 0.195302165494609 
2172	 0.195282792752741 
2173	 0.195273389250105 
2174	 0.19530386660453 
2175	 0.195346854203686 
2176	 0.195433737430828 
2177	 0.195536997216856 
2178	 0.195680974498288 
2179	 0.195810972678429 
2180	 0.195964140992399 
2181	 0.196098153530105 
2182	 0.196220659235183 
2183	 0.196367391117765 
2184	 0.196517151891688 
2185	 0.196674434464035 
2186	 0.196857406155511 
2187	 0.197022332528408 
2188	 0.197183207087209 
2189	 0.197340578420086 
2190	 0.197507199895293 
2191	 0.197649418993521 
2192	 0.197769764929771 
2193	 0.197895002633056 
2194	 0.198020422927588 
2195	 0.198118476907878 
2196	 0.198198115453728 
2197	 0.198290939056657 
2198	 0.198359741776121 
2199	 0.198384123541253 
2200	 0.198375117128065 
2201	 0.198365644044198 
2202	 0.19825725846669 
2203	 0.198072633661148 
2204	 0.19786797923881 
2205	 0.197592218223437 
2206	 0.197318293821127 
2207	 0.197002366367162 
2208	 0.196702752763401 
2209	 0.1963843926222 
2210	 0.196076763050146 
2211	 0.195754256312839 
2212	 0.195476915533893 
2213	 0.195206458361268 
2214	 0.194971394647331 
2215	 0.194823630140464 
2216	 0.194611375837664 
2217	 0.194452290808145 
2218	 0.194168268206214 
2219	 0.193837359305395 
2220	 0.193406235769517 
2221	 0.192885654280083 
2222	 0.19225834529268 
2223	 0.191593683479256 
2224	 0.190795095309574 
2225	 0.189924155641433 
2226	 0.188985923669429 
2227	 0.187899013078363 
2228	 0.186699739217203 
2229	 0.185395718839798 
2230	 0.183930973692777 
2231	 0.182438885716795 
2232	 0.180874827990858 
2233	 0.179193465013198 
2234	 0.177472204034676 
2235	 0.175555182628286 
2236	 0.173476778769945 
2237	 0.171314280050834 
2238	 0.168948594141684 
2239	 0.166590774412519 
2240	 0.164170238281892 
2241	 0.16166520778885 
2242	 0.159153103562182 
2243	 0.156481793536807 
2244	 0.153631919173523 
2245	 0.150802914714659 
2246	 0.147776266026175 
2247	 0.144875383491047 
2248	 0.142038430998133 
2249	 0.139185467643225 
2250	 0.136342695990397 
2251	 0.133602585900675 
2252	 0.130678304871418 
2253	 0.12790445822493 
2254	 0.125173001746722 
2255	 0.122431899101674 
2256	 0.11996812624703 
2257	 0.117541974296205 
2258	 0.115235526639451 
2259	 0.113090466450095 
2260	 0.110939843309922 
2261	 0.108826866964957 
2262	 0.106861540538619 
2263	 0.104938183624103 
2264	 0.103188123504592 
2265	 0.101662182307195 
2266	 0.100069913996985 
2267	 9.86157260552199E-02 
2268	 9.70547712332509E-02 
2269	 9.54517085169799E-02 
2270	 0.093880337979157 
2271	 9.22919047201301E-02 
2272	 9.06908786859095E-02 
2273	 8.91489861613105E-02 
2274	 8.74798075223802E-02 
2275	 8.57350065913263E-02 
2276	 8.39747345097338E-02 
2277	 8.20725609025698E-02 
2278	 8.02972751901216E-02 
2279	 7.84692872358535E-02 
2280	 7.68141073521832E-02 
2281	 7.52761866778144E-02 
2282	 7.38201388986858E-02 
2283	 7.24488005053198E-02 
2284	 7.12567964373664E-02 
2285	 7.01060779907306E-02 
2286	 6.91395414065503E-02 
2287	 6.83153033675124E-02 
2288	 6.75912880545814E-02 
2289	 6.70301075164848E-02 
2290	 6.65422514264638E-02 
2291	 6.61394333209897E-02 
2292	 6.58018460909539E-02 
2293	 6.54786952559523E-02 
2294	 6.52096431404975E-02 
2295	 6.49614273152462E-02 
2296	 6.47450930585451E-02 
2297	 6.46002655550322E-02 
2298	 6.45007648308663E-02 
2299	 6.44636380162209E-02 
2300	 6.44900837087276E-02 
2301	 6.45892433558064E-02 
2302	 0.064726917401355 
2303	 6.49830632556031E-02 
2304	 6.53404356062062E-02 
2305	 6.57832654921351E-02 
2306	 6.63137209342052E-02 
2307	 6.69675585028541E-02 
2308	 6.77197078060859E-02 
2309	 6.85948713417166E-02 
2310	 6.96307516285182E-02 
2311	 7.06970399850772E-02 
2312	 7.19457173828149E-02 
2313	 7.30888447060217E-02 
2314	 7.42750155558047E-02 
2315	 7.53937746700735E-02 
2316	 7.64753171540112E-02 
2317	 7.74771934408816E-02 
2318	 7.84717523358874E-02 
2319	 7.93089179058256E-02 
2320	 8.00816661838907E-02 
2321	 8.06706704283559E-02 
2322	 8.11153311510854E-02 
2323	 8.14133312261102E-02 
2324	 8.14952677817226E-02 
2325	 8.15008095802297E-02 
2326	 8.14055721132396E-02 
2327	 8.11415744309369E-02 
2328	 0.080737604125773 
2329	 8.01979841959176E-02 
2330	 7.94844674753088E-02 
2331	 7.86058644613851E-02 
2332	 7.77099355239729E-02 
2333	 7.67224638380363E-02 
2334	 7.55159196127616E-02 
2335	 7.42433381692176E-02 
2336	 0.07285692206058 
2337	 7.13819663245286E-02 
2338	 7.00552720332923E-02 
2339	 6.87350569803095E-02 
2340	 6.74935539210733E-02 
2341	 6.63571671958108E-02 
2342	 6.52043160507291E-02 
2343	 6.42769457493595E-02 
2344	 6.34943605815462E-02 
2345	 6.28957454526719E-02 
2346	 6.26108974385676E-02 
2347	 6.25410222344518E-02 
2348	 6.25691377632176E-02 
2349	 6.27241110257032E-02 
2350	 6.29621503157599E-02 
2351	 0.063179969631589 
2352	 6.35217300513931E-02 
2353	 6.39305907233618E-02 
2354	 0.064344443928443 
2355	 6.48743651021925E-02 
2356	 0.06550921767456 
2357	 6.62742136539803E-02 
2358	 6.72669174518316E-02 
2359	 6.84687131535181E-02 
2360	 6.98230875329047E-02 
2361	 0.071316614221478 
2362	 7.27452197196048E-02 
2363	 7.41320396294847E-02 
2364	 7.54167234248745E-02 
2365	 7.65631917883344E-02 
2366	 7.77469617441637E-02 
2367	 7.87998970571134E-02 
2368	 7.97210669643158E-02 
2369	 8.05265779079464E-02 
2370	 8.11488054104565E-02 
2371	 8.16941170732368E-02 
2372	 8.21512748651109E-02 
2373	 8.25178394019591E-02 
2374	 8.28439757181911E-02 
2375	 0.083098588441433 
2376	 8.33076321702091E-02 
2377	 8.34468036429509E-02 
2378	 8.35301447072906E-02 
2379	 8.35869835721476E-02 
2380	 8.36333666114713E-02 
2381	 8.36858036327123E-02 
2382	 8.37893884842403E-02 
2383	 8.39478976572022E-02 
2384	 8.40804111004709E-02 
2385	 8.42451180107035E-02 
2386	 8.43811342855885E-02 
2387	 8.44795819108115E-02 
2388	 8.46080698087783E-02 
2389	 8.47529754928365E-02 
2390	 8.48852575161937E-02 
2391	 8.50208833698293E-02 
2392	 8.51152148459969E-02 
2393	 8.51923324469699E-02 
2394	 8.52829856300879E-02 
2395	 8.53482250291734E-02 
2396	 8.54227132218886E-02 
2397	 0.085515054775833 
2398	 8.56125307935468E-02 
2399	 8.56851698525323E-02 
2400	 8.57976799604416E-02 
2401	 8.59451995497958E-02 
2402	 8.59541019311555E-02 
2403	 8.61018769910907E-02 
2404	 8.62805952093755E-02 
2405	 8.64861845951738E-02 
2406	 8.67215112110342E-02 
2407	 8.69526223044185E-02 
2408	 8.72166762621192E-02 
2409	 8.73552569862739E-02 
2410	 0.087412611982437 
2411	 8.74324260445293E-02 
2412	 8.73855457525743E-02 
2413	 8.74515966902718E-02 
2414	 8.76675334410725E-02 
2415	 0.087891205863885 
2416	 8.80579265022788E-02 
2417	 0.08817346863705 
2418	 0.088206885819659 
2419	 8.82587867857482E-02 
2420	 8.83674763141316E-02 
2421	 8.84161631927583E-02 
2422	 8.84368214072018E-02 
2423	 8.84800855702663E-02 
2424	 8.85193781125818E-02 
2425	 0.088526571984834 
2426	 8.85421138220907E-02 
2427	 8.85608820556866E-02 
2428	 8.85350835652248E-02 
2429	 0.088631896195255 
2430	 8.87592710191268E-02 
2431	 8.88215739708256E-02 
2432	 8.89264901165605E-02 
2433	 8.88835785962162E-02 
2434	 8.88218624250919E-02 
2435	 8.87796332368591E-02 
2436	 0.08864433875578 
2437	 8.85070348094892E-02 
2438	 8.83420345633664E-02 
2439	 8.81927564023408E-02 
2440	 8.80424626521024E-02 
2441	 8.78988375562125E-02 
2442	 8.76584073957718E-02 
2443	 8.74456610532268E-02 
2444	 8.72770146623787E-02 
2445	 0.087010433497267 
2446	 8.68710358929263E-02 
2447	 8.67098651998026E-02 
2448	 8.65314047688043E-02 
2449	 8.63684288472549E-02 
2450	 8.61920808502576E-02 
2451	 8.60152724023478E-02 
2452	 0.085685738606602 
2453	 8.54154086531979E-02 
2454	 8.51256272928912E-02 
2455	 8.47669862279189E-02 
2456	 8.44035572460934E-02 
2457	 8.40284859806289E-02 
2458	 8.37834809511205E-02 
2459	 8.36597729080259E-02 
2460	 8.36503351086772E-02 
2461	 8.36339911338945E-02 
2462	 8.35970963297547E-02 
2463	 8.34620494958667E-02 
2464	 8.31898285979379E-02 
2465	 8.29606523103945E-02 
2466	 8.28153950008667E-02 
2467	 8.26432942741375E-02 
2468	 8.25780219613238E-02 
2469	 8.26454877325507E-02 
2470	 8.25223599486045E-02 
2471	 8.24684469300289E-02 
2472	 8.24811395538866E-02 
2473	 8.23967468503767E-02 
2474	 8.23953408324784E-02 
2475	 8.23290929540941E-02 
2476	 0.082277645038866 
2477	 8.23083527096311E-02 
2478	 8.23214178038182E-02 
2479	 8.24073044564932E-02 
2480	 8.25863946122161E-02 
2481	 8.26931780051356E-02 
2482	 8.29142210615847E-02 
2483	 0.082942604560818 
2484	 8.27651758932638E-02 
2485	 8.27606979416189E-02 
2486	 8.29296763991989E-02 
2487	 8.30909960443558E-02 
2488	 8.33315225125438E-02 
2489	 8.35013810483915E-02 
2490	 8.34786459854558E-02 
2491	 8.33980928734467E-02 
2492	 8.33394959306381E-02 
2493	 8.34491430346579E-02 
2494	 8.37150032439786E-02 
2495	 8.38270916962265E-02 
2496	 8.41203517856848E-02 
2497	 8.44826793912361E-02 
2498	 0.084489711769535 
2499	 8.46567115097008E-02 
2500	 8.48590008361522E-02 
