Wavelength	spectrum00021.asd
350	 6.84609591259361E-02 
351	 6.79121671130468E-02 
352	 6.55131945511208E-02 
353	 6.19305717709069E-02 
354	 5.98532622728158E-02 
355	 6.10325239604116E-02 
356	 6.08685547904932E-02 
357	 5.65540899128753E-02 
358	 5.42940704195452E-02 
359	 5.41125641569143E-02 
360	 5.47224280296489E-02 
361	 5.42306831925721E-02 
362	 5.21006735614559E-02 
363	 0.049969983006884 
364	 4.90126116040685E-02 
365	 4.95145730960582E-02 
366	 5.07948352419139E-02 
367	 5.10802579173984E-02 
368	 4.96355859420844E-02 
369	 4.97327693995677E-02 
370	 4.89690804094868E-02 
371	 0.047866622916294 
372	 4.82729600377827E-02 
373	 4.76706298656512E-02 
374	 0.047991359180833 
375	 4.91215725714512E-02 
376	 4.73924432202269E-02 
377	 4.75073483979904E-02 
378	 4.80385518941082E-02 
379	 0.046945217632407 
380	 4.56723584317026E-02 
381	 4.60071544054002E-02 
382	 4.67856120239351E-02 
383	 4.54893511181859E-02 
384	 4.50996881132276E-02 
385	 4.53981278601347E-02 
386	 4.56607639378131E-02 
387	 4.50056393547278E-02 
388	 4.46221284958122E-02 
389	 4.43973944723374E-02 
390	 4.39335913885293E-02 
391	 4.30731723279789E-02 
392	 4.30853500034442E-02 
393	 4.37512742483866E-02 
394	 0.043878748311164 
395	 4.33117096402121E-02 
396	 4.28941226153001E-02 
397	 4.29252405874398E-02 
398	 4.25995765399822E-02 
399	 4.22597097455666E-02 
400	 4.19729414079537E-02 
401	 4.17127160295834E-02 
402	 4.13137631224237E-02 
403	 4.13223334421067E-02 
404	 4.15698333083498E-02 
405	 0.041389618893985 
406	 4.11010410741997E-02 
407	 4.08650684705286E-02 
408	 0.040686326953419 
409	 4.02793298195037E-02 
410	 0.040179856926018 
411	 4.01559251066501E-02 
412	 3.98525930584563E-02 
413	 0.03968603924553 
414	 3.93173930697781E-02 
415	 0.039009718602495 
416	 3.95073834694935E-02 
417	 3.92845191558339E-02 
418	 3.90326645575922E-02 
419	 3.92197720665413E-02 
420	 3.88041666576746E-02 
421	 3.86671505650411E-02 
422	 3.87471414913587E-02 
423	 3.86540698270805E-02 
424	 3.86231320993644E-02 
425	 3.84867909364897E-02 
426	 3.82883728457585E-02 
427	 3.83348782661344E-02 
428	 3.81399664816845E-02 
429	 3.79783215147347E-02 
430	 3.80941189170487E-02 
431	 3.81226467545639E-02 
432	 3.81479576047013E-02 
433	 0.038059155471852 
434	 3.77312296100031E-02 
435	 3.79451747041711E-02 
436	 3.80918610443392E-02 
437	 3.78798923250997E-02 
438	 3.77421873558655E-02 
439	 3.77712294264278E-02 
440	 0.037776573499601 
441	 3.76018700199771E-02 
442	 3.76522778588839E-02 
443	 3.76980261028707E-02 
444	 3.76665046255907E-02 
445	 3.76228598559877E-02 
446	 3.74652715302927E-02 
447	 0.037339028015917 
448	 3.73462209899113E-02 
449	 3.74243383968165E-02 
450	 3.75021562887621E-02 
451	 3.74608422820136E-02 
452	 3.72345179904557E-02 
453	 3.71099946737276E-02 
454	 3.71661248915545E-02 
455	 3.72976338851852E-02 
456	 3.72255929983896E-02 
457	 3.71631494397853E-02 
458	 3.71043205554012E-02 
459	 3.70369978564466E-02 
460	 3.70928480076901E-02 
461	 3.70396805341776E-02 
462	 3.69099624192396E-02 
463	 0.036870265040495 
464	 3.68160663824245E-02 
465	 3.68100256923825E-02 
466	 3.68173671121286E-02 
467	 3.66195636104252E-02 
468	 3.65561526401967E-02 
469	 3.66111582120452E-02 
470	 3.66645048633637E-02 
471	 3.66718464944768E-02 
472	 3.65507035923605E-02 
473	 3.64134056884899E-02 
474	 0.036495719014314 
475	 3.64523900547376E-02 
476	 3.63418527732345E-02 
477	 3.62450500909689E-02 
478	 3.61267014170282E-02 
479	 3.61043734281896E-02 
480	 3.61413097405649E-02 
481	 3.61386740648171E-02 
482	 3.60433093440964E-02 
483	 3.60308247526789E-02 
484	 3.61071978260218E-02 
485	 3.60702313925618E-02 
486	 3.59926633718876E-02 
487	 3.59251887876244E-02 
488	 3.58918758411045E-02 
489	 3.58366105923897E-02 
490	 3.58466262231662E-02 
491	 3.58866443832583E-02 
492	 0.03585308554873 
493	 3.57345613700522E-02 
494	 3.56875460059535E-02 
495	 3.57408497500064E-02 
496	 0.035679748776071 
497	 3.56543049529817E-02 
498	 3.56085842848189E-02 
499	 3.54858360115207E-02 
500	 3.55204204042979E-02 
501	 3.55083832503899E-02 
502	 3.53997183945056E-02 
503	 3.52977244965135E-02 
504	 3.52482649520549E-02 
505	 3.52549452061291E-02 
506	 3.52696098428497E-02 
507	 3.51386797110956E-02 
508	 3.50308502092572E-02 
509	 3.49969895575885E-02 
510	 3.50129385193034E-02 
511	 3.49429170471644E-02 
512	 3.48784539652724E-02 
513	 0.034859484397284 
514	 3.48337181378576E-02 
515	 3.47426679908441E-02 
516	 3.46714291257618E-02 
517	 3.46806889779926E-02 
518	 3.46062273433156E-02 
519	 3.45311516256648E-02 
520	 3.44663387555413E-02 
521	 3.43782681737146E-02 
522	 3.43782372064502E-02 
523	 3.43513796087493E-02 
524	 3.42522778103908E-02 
525	 3.42404872213833E-02 
526	 3.41800581255032E-02 
527	 3.41253913940633E-02 
528	 3.41556088161402E-02 
529	 3.40937479919147E-02 
530	 3.40400456174533E-02 
531	 3.40224841385454E-02 
532	 3.39752797252659E-02 
533	 3.39195012684415E-02 
534	 3.38389441479309E-02 
535	 3.37376574579138E-02 
536	 3.36961032552265E-02 
537	 3.36718860253481E-02 
538	 3.36412490010582E-02 
539	 3.35956003342781E-02 
540	 3.35624176476844E-02 
541	 3.35421283231438E-02 
542	 3.35178157250173E-02 
543	 3.34455487844296E-02 
544	 3.34445556241059E-02 
545	 3.34259092361719E-02 
546	 3.33003103648993E-02 
547	 3.32794844219318E-02 
548	 3.32947172490276E-02 
549	 3.32971094446826E-02 
550	 3.32674891228502E-02 
551	 3.32073361567439E-02 
552	 3.31931048166672E-02 
553	 3.32398973810484E-02 
554	 3.31698126753702E-02 
555	 3.31269317675491E-02 
556	 3.31168049761256E-02 
557	 3.30834202308779E-02 
558	 3.30291205339927E-02 
559	 0.03302072367196 
560	 3.30475442858465E-02 
561	 3.29846393387691E-02 
562	 0.032934479846037 
563	 0.032928096589413 
564	 3.29491069102553E-02 
565	 0.032881353958165 
566	 3.28145920531282E-02 
567	 3.27792236790518E-02 
568	 3.27573641836444E-02 
569	 3.27677851853826E-02 
570	 3.27598354614736E-02 
571	 3.27153921473116E-02 
572	 3.27082956796002E-02 
573	 3.26895108865911E-02 
574	 3.26504132820965E-02 
575	 3.26038143207034E-02 
576	 3.25996416112043E-02 
577	 3.25538468098624E-02 
578	 0.03247398975058 
579	 0.03247827641113 
580	 3.24641236741373E-02 
581	 0.03242517734822 
582	 3.23843375992004E-02 
583	 3.23846777254517E-02 
584	 3.23838752322372E-02 
585	 3.23515894881522E-02 
586	 3.22795704709772E-02 
587	 0.032283949820739 
588	 0.032268949621989 
589	 3.21991119030512E-02 
590	 3.21790266016922E-02 
591	 0.032153376367643 
592	 3.21309335948586E-02 
593	 3.21249889141701E-02 
594	 3.20824446924407E-02 
595	 3.20692449683769E-02 
596	 3.20767535585221E-02 
597	 3.20325424778476E-02 
598	 3.19934424993758E-02 
599	 3.19730157018412E-02 
600	 3.19620216996711E-02 
601	 3.19103286088527E-02 
602	 0.031902055275828 
603	 3.19027971964206E-02 
604	 0.031846127795005 
605	 0.031832687421109 
606	 3.18194819707699E-02 
607	 0.031793147863515 
608	 3.17913905365987E-02 
609	 3.17605582333237E-02 
610	 3.17412607695696E-02 
611	 3.17614400249056E-02 
612	 3.17258402822699E-02 
613	 3.16989719732874E-02 
614	 3.16815375971638E-02 
615	 3.16378578081689E-02 
616	 3.16171041345363E-02 
617	 3.16117152357396E-02 
618	 3.16125269369961E-02 
619	 3.16257867278263E-02 
620	 3.15794211065043E-02 
621	 3.15290814786898E-02 
622	 3.15436929067102E-02 
623	 3.15296710583761E-02 
624	 3.15039325249591E-02 
625	 3.14940385506809E-02 
626	 3.15278265544221E-02 
627	 3.15239745176844E-02 
628	 3.15144911730042E-02 
629	 3.15276232150544E-02 
630	 3.15284270987731E-02 
631	 3.15020059919172E-02 
632	 3.14880570900274E-02 
633	 3.15322729036014E-02 
634	 3.15331896334754E-02 
635	 3.15232435406155E-02 
636	 3.15289572438803E-02 
637	 3.15543323935118E-02 
638	 3.15621987907649E-02 
639	 3.15700217091181E-02 
640	 3.15962222171432E-02 
641	 3.16154967373004E-02 
642	 3.16276622483155E-02 
643	 3.16448098427623E-02 
644	 3.16843576325994E-02 
645	 3.17404049097044E-02 
646	 3.17635658814115E-02 
647	 3.17618539880852E-02 
648	 3.18466518958343E-02 
649	 3.19000558890171E-02 
650	 3.19367862207636E-02 
651	 3.19932840886685E-02 
652	 3.20135933015635E-02 
653	 3.20396231260339E-02 
654	 3.20884461708475E-02 
655	 3.21537058060355E-02 
656	 0.03223706155783 
657	 3.23114850859043E-02 
658	 3.23686464890405E-02 
659	 3.24473634758168E-02 
660	 3.25370459620015E-02 
661	 3.26279854633082E-02 
662	 3.27123144928441E-02 
663	 3.27974805057852E-02 
664	 3.28831864891643E-02 
665	 3.29778007414317E-02 
666	 0.033096329974049 
667	 0.033190474326665 
668	 3.32938880330319E-02 
669	 3.34293975833198E-02 
670	 3.35525801263165E-02 
671	 3.36475222030602E-02 
672	 3.37512168749957E-02 
673	 0.033911854240022 
674	 3.40672437998782E-02 
675	 3.42016371158141E-02 
676	 3.43288981132223E-02 
677	 0.034491938710457 
678	 3.46472493216843E-02 
679	 3.48103462745925E-02 
680	 3.49966771822679E-02 
681	 3.51785754299464E-02 
682	 3.53732549002024E-02 
683	 3.55746827585683E-02 
684	 3.57677202217649E-02 
685	 3.59697114563696E-02 
686	 3.61903884347372E-02 
687	 3.64344935403157E-02 
688	 3.67018914255399E-02 
689	 3.69562148920723E-02 
690	 3.72061128900483E-02 
691	 3.74770299768942E-02 
692	 3.78017577325183E-02 
693	 3.81547110326157E-02 
694	 3.85241515352595E-02 
695	 3.89060958379479E-02 
696	 3.92802729467918E-02 
697	 3.96958099286423E-02 
698	 4.01694073792636E-02 
699	 4.06544116751392E-02 
700	 4.11918324000091E-02 
701	 4.17795425267198E-02 
702	 4.24063727755047E-02 
703	 4.30721475327775E-02 
704	 4.38067705185794E-02 
705	 0.044602978245504 
706	 4.54326620496404E-02 
707	 4.63415085249856E-02 
708	 4.73337848919494E-02 
709	 4.84051000195304E-02 
710	 4.95445660925545E-02 
711	 5.07917584949272E-02 
712	 5.21492772746933E-02 
713	 5.36085125343092E-02 
714	 5.51697633033889E-02 
715	 0.056846466386199 
716	 5.86541993115133E-02 
717	 6.06087359337346E-02 
718	 6.27366199506445E-02 
719	 6.50048886722327E-02 
720	 6.74150606959191E-02 
721	 7.00393120151398E-02 
722	 7.28296081883682E-02 
723	 7.58049216368828E-02 
724	 7.89895850948891E-02 
725	 8.23585928154462E-02 
726	 8.59562976614936E-02 
727	 8.97782119442665E-02 
728	 0.093787918264225 
729	 9.80086321621673E-02 
730	 0.102461766196866 
731	 0.107147012567329 
732	 0.112030330064073 
733	 0.117143406217348 
734	 0.122457740832135 
735	 0.12795036700378 
736	 0.133673155712706 
737	 0.139557458189442 
738	 0.145582982453057 
739	 0.151762478848801 
740	 0.158111104104581 
741	 0.164587709530456 
742	 0.171160533277988 
743	 0.177837144880535 
744	 0.184614006589134 
745	 0.191458706813164 
746	 0.19833368012021 
747	 0.205223553934868 
748	 0.212145533506948 
749	 0.21907496440959 
750	 0.225964608346491 
751	 0.232823648104061 
752	 0.239593348538639 
753	 0.246301869229318 
754	 0.253089829152533 
755	 0.259792828226064 
756	 0.266368778545812 
757	 0.272834002391999 
758	 0.279259639088884 
759	 0.285506461173341 
760	 0.291588035731574 
761	 0.297593496533194 
762	 0.303580703251878 
763	 0.309395436606154 
764	 0.315025218095517 
765	 0.320642436037049 
766	 0.326148722673295 
767	 0.331493914881139 
768	 0.336668785717888 
769	 0.341711806778876 
770	 0.346732409907642 
771	 0.351668369733314 
772	 0.356416874448884 
773	 0.361047516874569 
774	 0.365589385047021 
775	 0.370042286692161 
776	 0.374385549058798 
777	 0.378645624509563 
778	 0.382856510602593 
779	 0.386993051670568 
780	 0.390919286675052 
781	 0.394796689033016 
782	 0.398666838036233 
783	 0.402495724251336 
784	 0.40611707017285 
785	 0.409676749509288 
786	 0.413206175696883 
787	 0.4166669021191 
788	 0.42008521687238 
789	 0.42343764147612 
790	 0.42669700388533 
791	 0.429846908456344 
792	 0.432996123916971 
793	 0.436111524178855 
794	 0.439150798355941 
795	 0.442126726517582 
796	 0.445038854997106 
797	 0.447983410592751 
798	 0.451020083156768 
799	 0.453890556759284 
800	 0.456603606779847 
801	 0.459238225298448 
802	 0.461910541641736 
803	 0.464608812042083 
804	 0.46734051119293 
805	 0.470064636903416 
806	 0.472673103337895 
807	 0.475157242777777 
808	 0.477586047614323 
809	 0.480037672005578 
810	 0.482554620094796 
811	 0.485008002934259 
812	 0.48739988212762 
813	 0.489783162529762 
814	 0.492106195816562 
815	 0.49437388081897 
816	 0.496622645942981 
817	 0.498901806898674 
818	 0.501154540617212 
819	 0.503372781533004 
820	 0.505559311262909 
821	 0.507719510219899 
822	 0.509973736537173 
823	 0.512191911736911 
824	 0.51425492627446 
825	 0.516291459274313 
826	 0.518392969814703 
827	 0.5204924311644 
828	 0.522483075386907 
829	 0.524536028196624 
830	 0.526550603421775 
831	 0.52848109721936 
832	 0.530351298038469 
833	 0.532193536162255 
834	 0.534120144248968 
835	 0.536127991130675 
836	 0.538032252269012 
837	 0.539960944284191 
838	 0.541807201655153 
839	 0.543528655635016 
840	 0.545435690659731 
841	 0.547221075257885 
842	 0.54892824295296 
843	 0.550723471212395 
844	 0.552594373153776 
845	 0.554497162591045 
846	 0.556340285469494 
847	 0.558024677926254 
848	 0.559654071320016 
849	 0.561293717327367 
850	 0.562985757306901 
851	 0.564739278910847 
852	 0.566463676964923 
853	 0.568194489934646 
854	 0.569937144676677 
855	 0.571571114406771 
856	 0.573230939718423 
857	 0.57491008427718 
858	 0.576570943905011 
859	 0.578245988635407 
860	 0.579937824731062 
861	 0.581619358232316 
862	 0.583248074408475 
863	 0.584806011610888 
864	 0.586356010577541 
865	 0.587979808260717 
866	 0.589731201055791 
867	 0.591264008827678 
868	 0.592733475666173 
869	 0.594279655580438 
870	 0.595910837508561 
871	 0.59751141334616 
872	 0.599044426374617 
873	 0.60054119851262 
874	 0.602139003315392 
875	 0.603665136334682 
876	 0.605203022532472 
877	 0.606824915364833 
878	 0.608258922984548 
879	 0.609705938559296 
880	 0.611153458260624 
881	 0.612508398599677 
882	 0.613848952007184 
883	 0.61532241050813 
884	 0.616890744127891 
885	 0.618373490520475 
886	 0.619685561763215 
887	 0.620970624277063 
888	 0.622287407490137 
889	 0.623564795347824 
890	 0.624925212530046 
891	 0.626291407556188 
892	 0.627565743147269 
893	 0.628684564465556 
894	 0.629890343537379 
895	 0.631177834119204 
896	 0.63245190315705 
897	 0.633569908906563 
898	 0.634697629972917 
899	 0.63591574005267 
900	 0.637193114852728 
901	 0.638209400575207 
902	 0.639283325153112 
903	 0.640443770062583 
904	 0.641572736348891 
905	 0.642680545192317 
906	 0.643699915526443 
907	 0.644715476024618 
908	 0.645884000012257 
909	 0.647040925028777 
910	 0.648133377650957 
911	 0.649172468549552 
912	 0.650222937150882 
913	 0.651308758522121 
914	 0.652335066663216 
915	 0.653296714451607 
916	 0.654330043130852 
917	 0.655335274689138 
918	 0.656330827855487 
919	 0.657349824284866 
920	 0.658407636988668 
921	 0.659380073963384 
922	 0.660360190092249 
923	 0.661423483001459 
924	 0.662446972498467 
925	 0.663528584905385 
926	 0.664562718323 
927	 0.665489009248698 
928	 0.666605825341151 
929	 0.667804868257154 
930	 0.66896922274714 
931	 0.670020047942374 
932	 0.671046983674294 
933	 0.672188596337785 
934	 0.673409671710657 
935	 0.674582642546869 
936	 0.675680565625646 
937	 0.676762479316123 
938	 0.677846419091964 
939	 0.678933779049478 
940	 0.680173124196896 
941	 0.681277434443775 
942	 0.682259117641122 
943	 0.683377826410607 
944	 0.684383417590268 
945	 0.68530662499325 
946	 0.68619459339022 
947	 0.687071975939006 
948	 0.687925399313736 
949	 0.688698981989163 
950	 0.689447109723053 
951	 0.690341899468634 
952	 0.691123828352174 
953	 0.691886788962621 
954	 0.692651434541186 
955	 0.693250951702661 
956	 0.693887244505391 
957	 0.694497310566261 
958	 0.695050832122828 
959	 0.69566329689531 
960	 0.696230795027393 
961	 0.69680247074467 
962	 0.697367419152534 
963	 0.697734375478574 
964	 0.69812283418351 
965	 0.698621619340488 
966	 0.699238450549417 
967	 0.699900936739005 
968	 0.700361186922876 
969	 0.700859072936569 
970	 0.701590572721097 
971	 0.702277983508222 
972	 0.702757725368344 
973	 0.703237380265635 
974	 0.703899976482115 
975	 0.704503261465847 
976	 0.705098904079413 
977	 0.705592406515968 
978	 0.705971342942831 
979	 0.706565667761894 
980	 0.707309059973397 
981	 0.70796848720695 
982	 0.708393945984824 
983	 0.708892140824827 
984	 0.709350393216521 
985	 0.709876070352025 
986	 0.71052966857341 
987	 0.710981211233246 
988	 0.711508475360685 
989	 0.712092959969704 
990	 0.712620017894958 
991	 0.713049348286399 
992	 0.713451086761886 
993	 0.713866595714209 
994	 0.714338711282584 
995	 0.714976007471764 
996	 0.715475237095763 
997	 0.715830683403533 
998	 0.716148503357064 
999	 0.7164627911471 
1000	 0.716892345695869 
1001	 0.722876026793115 
1002	 0.723322085985484 
1003	 0.723779851335127 
1004	 0.724203702199711 
1005	 0.724655503910596 
1006	 0.725060643877784 
1007	 0.725403625435276 
1008	 0.725792107358609 
1009	 0.726203367445065 
1010	 0.726583576042536 
1011	 0.72694119134675 
1012	 0.727326110331067 
1013	 0.727750086844196 
1014	 0.728105870678326 
1015	 0.728433111720046 
1016	 0.728757422715277 
1017	 0.729103029613018 
1018	 0.729419383838151 
1019	 0.72981783937866 
1020	 0.730237876378332 
1021	 0.730616650080025 
1022	 0.730954157747258 
1023	 0.731332136785273 
1024	 0.731736818939751 
1025	 0.732107986393441 
1026	 0.732475728770776 
1027	 0.732825353680402 
1028	 0.733142450621321 
1029	 0.733476010396355 
1030	 0.733817610880166 
1031	 0.734172445694099 
1032	 0.734543863181195 
1033	 0.734896465077986 
1034	 0.735252365457631 
1035	 0.735614106663186 
1036	 0.735970901424576 
1037	 0.736333684780417 
1038	 0.736679521107815 
1039	 0.736995355827602 
1040	 0.737368808789454 
1041	 0.737753687596828 
1042	 0.738147564842155 
1043	 0.738597295289921 
1044	 0.739007206923502 
1045	 0.739362033257961 
1046	 0.739755025643215 
1047	 0.74013843194424 
1048	 0.740542041807792 
1049	 0.740977744216905 
1050	 0.741423001453445 
1051	 0.741884777799974 
1052	 0.742312512444258 
1053	 0.742755872333453 
1054	 0.743229043561968 
1055	 0.743658790124967 
1056	 0.744062385696966 
1057	 0.74448410691931 
1058	 0.74489564739624 
1059	 0.745279031431753 
1060	 0.74571763401287 
1061	 0.746169519533645 
1062	 0.746623758836422 
1063	 0.747067635429972 
1064	 0.747472378163146 
1065	 0.747900233351827 
1066	 0.748306573417004 
1067	 0.748699578185737 
1068	 0.749102847656763 
1069	 0.749480021833038 
1070	 0.749858240224127 
1071	 0.750228322098013 
1072	 0.750588445472378 
1073	 0.750930540663058 
1074	 0.751288071955077 
1075	 0.751656577507214 
1076	 0.752032312168532 
1077	 0.752420564844622 
1078	 0.752810645341657 
1079	 0.753191889436478 
1080	 0.753548851497522 
1081	 0.753932702639787 
1082	 0.754294190921848 
1083	 0.754578940345723 
1084	 0.75488456471712 
1085	 0.755197826070884 
1086	 0.755487011674076 
1087	 0.755757191302616 
1088	 0.756042712361572 
1089	 0.756318194981116 
1090	 0.756566818661612 
1091	 0.756811205798407 
1092	 0.757027988429317 
1093	 0.757234205956096 
1094	 0.757457050886746 
1095	 0.757653710233633 
1096	 0.757901438332435 
1097	 0.758168097080981 
1098	 0.758338022944611 
1099	 0.758541669303088 
1100	 0.758754181922231 
1101	 0.758882401718879 
1102	 0.759029962932317 
1103	 0.75916264976098 
1104	 0.759277416845491 
1105	 0.759345408410162 
1106	 0.759443742539759 
1107	 0.759543661164868 
1108	 0.759632116751969 
1109	 0.759735427207847 
1110	 0.759831258020291 
1111	 0.759883254956834 
1112	 0.759908192623858 
1113	 0.759920576384132 
1114	 0.759901088271675 
1115	 0.759888620253574 
1116	 0.759884434311076 
1117	 0.759843289498858 
1118	 0.759781341015965 
1119	 0.759707711256495 
1120	 0.75960084837358 
1121	 0.759476651938539 
1122	 0.759307496556874 
1123	 0.759084565645633 
1124	 0.758837631197206 
1125	 0.758512628760674 
1126	 0.758150062448165 
1127	 0.757752643180146 
1128	 0.757264264549044 
1129	 0.756755121878768 
1130	 0.756190559492955 
1131	 0.755575194068505 
1132	 0.75497276258448 
1133	 0.754321384624228 
1134	 0.753626351041649 
1135	 0.752881056605402 
1136	 0.752066164658918 
1137	 0.751249480945121 
1138	 0.75038529465789 
1139	 0.749529850566949 
1140	 0.748656824969644 
1141	 0.747815571358703 
1142	 0.746948253729546 
1143	 0.746086837299563 
1144	 0.74523114413568 
1145	 0.744287413751 
1146	 0.743331001197879 
1147	 0.742320785776458 
1148	 0.741251235772571 
1149	 0.740253218747329 
1150	 0.739233682843323 
1151	 0.738206765517278 
1152	 0.737120668385277 
1153	 0.735983526481835 
1154	 0.734835741851202 
1155	 0.733662813141041 
1156	 0.732433434873342 
1157	 0.731223823870408 
1158	 0.729936941326747 
1159	 0.728550539123139 
1160	 0.727154089060309 
1161	 0.725778068065311 
1162	 0.724291965166714 
1163	 0.722905094217883 
1164	 0.721553054096463 
1165	 0.720177280737623 
1166	 0.718941723717279 
1167	 0.717699548199759 
1168	 0.716452627649085 
1169	 0.715228556791066 
1170	 0.714040064522985 
1171	 0.712819624211658 
1172	 0.711622100907635 
1173	 0.710362011285203 
1174	 0.709076757641672 
1175	 0.707792942681684 
1176	 0.706484654441323 
1177	 0.705152524090757 
1178	 0.703840694037589 
1179	 0.702419039025562 
1180	 0.701033624779524 
1181	 0.699606832531921 
1182	 0.698133735412557 
1183	 0.696778116703581 
1184	 0.695377580165436 
1185	 0.693998158412727 
1186	 0.692721655163345 
1187	 0.691492394291702 
1188	 0.6903539296781 
1189	 0.689296617502006 
1190	 0.688310972053741 
1191	 0.687409309556545 
1192	 0.686584059798573 
1193	 0.685856769548702 
1194	 0.685140788265935 
1195	 0.684489117216424 
1196	 0.683857539087146 
1197	 0.683245288807561 
1198	 0.682676414362118 
1199	 0.682130468910052 
1200	 0.68166222488284 
1201	 0.681222566066402 
1202	 0.680845032310811 
1203	 0.680543216879975 
1204	 0.680318539182896 
1205	 0.680227868487469 
1206	 0.68018749984362 
1207	 0.680372945507784 
1208	 0.680695955284228 
1209	 0.681207876850674 
1210	 0.68187218664216 
1211	 0.682760669108428 
1212	 0.683833189017298 
1213	 0.6851152378004 
1214	 0.686599170085444 
1215	 0.688307970814159 
1216	 0.690299666742734 
1217	 0.69235201408935 
1218	 0.694616447358626 
1219	 0.696969107986417 
1220	 0.699384111942703 
1221	 0.701958838574955 
1222	 0.704485967034885 
1223	 0.707096686302278 
1224	 0.709608841490108 
1225	 0.712098776074739 
1226	 0.71445846417976 
1227	 0.716791399780215 
1228	 0.718989801027704 
1229	 0.721077564399116 
1230	 0.723072492481672 
1231	 0.724989770972059 
1232	 0.72679142518442 
1233	 0.728464330083106 
1234	 0.730037320023788 
1235	 0.731505709243206 
1236	 0.73288103598231 
1237	 0.734128203446555 
1238	 0.735327265007705 
1239	 0.736427265559233 
1240	 0.737479936303274 
1241	 0.738527214960931 
1242	 0.73946259925961 
1243	 0.740364043358783 
1244	 0.741219784967826 
1245	 0.742029010128638 
1246	 0.742765347413628 
1247	 0.74348815583109 
1248	 0.744191294545524 
1249	 0.744835308529179 
1250	 0.7454277785586 
1251	 0.745985599750339 
1252	 0.746492993356083 
1253	 0.746979587721119 
1254	 0.747432457980011 
1255	 0.747858071456282 
1256	 0.748247691676845 
1257	 0.748621944034903 
1258	 0.748967447769495 
1259	 0.749294507070338 
1260	 0.749601394944879 
1261	 0.749891113867614 
1262	 0.750145139220057 
1263	 0.750405976265554 
1264	 0.7506529688254 
1265	 0.750885573595571 
1266	 0.751117317159989 
1267	 0.751343936477733 
1268	 0.751559393515527 
1269	 0.751754890117547 
1270	 0.751972819212583 
1271	 0.752194676917784 
1272	 0.75241385012368 
1273	 0.752644144449719 
1274	 0.752869167287489 
1275	 0.753097032225489 
1276	 0.753302219897716 
1277	 0.75348807674066 
1278	 0.753691031283687 
1279	 0.753882328229675 
1280	 0.754078349613634 
1281	 0.754291408399053 
1282	 0.754502362260161 
1283	 0.754708397082016 
1284	 0.754909164695242 
1285	 0.755109276112306 
1286	 0.755316422779437 
1287	 0.755515635774217 
1288	 0.755702149717461 
1289	 0.7558998320526 
1290	 0.756109641892778 
1291	 0.756299036236852 
1292	 0.756483286200683 
1293	 0.756659389053272 
1294	 0.756835025327656 
1295	 0.756980296917051 
1296	 0.757099466808043 
1297	 0.757230539905401 
1298	 0.757342427884112 
1299	 0.75746038636629 
1300	 0.757611388650281 
1301	 0.7577151769345 
1302	 0.757797159979471 
1303	 0.757860300541525 
1304	 0.75790433168173 
1305	 0.75792075705154 
1306	 0.757920584004028 
1307	 0.757891723000763 
1308	 0.757825288077362 
1309	 0.757742995443883 
1310	 0.757659457059368 
1311	 0.757553214271345 
1312	 0.757462191049147 
1313	 0.757375458605959 
1314	 0.757278439818004 
1315	 0.75718796540938 
1316	 0.757069365404074 
1317	 0.756948611697681 
1318	 0.756789033809962 
1319	 0.756602093262416 
1320	 0.756400231826331 
1321	 0.756169228226214 
1322	 0.755930569175777 
1323	 0.75569902348559 
1324	 0.755413732029696 
1325	 0.755090541116653 
1326	 0.754757452666991 
1327	 0.754396296994994 
1328	 0.754010446949721 
1329	 0.75362551636333 
1330	 0.75319437430496 
1331	 0.752729784233823 
1332	 0.752226218779762 
1333	 0.751692415007998 
1334	 0.751116883778026 
1335	 0.750507373243688 
1336	 0.749862712256262 
1337	 0.749172534636232 
1338	 0.748452710811717 
1339	 0.747676678286858 
1340	 0.746859630114697 
1341	 0.745983501517292 
1342	 0.745049549971445 
1343	 0.744084636441833 
1344	 0.743086183871972 
1345	 0.742014129947114 
1346	 0.740897866100933 
1347	 0.739728326259638 
1348	 0.738489750970444 
1349	 0.737208970291581 
1350	 0.735868077253716 
1351	 0.73450929535807 
1352	 0.733090383978843 
1353	 0.731665681715853 
1354	 0.730199489905084 
1355	 0.728765221894862 
1356	 0.727319329093575 
1357	 0.72588404313165 
1358	 0.724452797125115 
1359	 0.723048232173868 
1360	 0.721682534377565 
1361	 0.720282808347364 
1362	 0.718883352051685 
1363	 0.717539856991546 
1364	 0.716082540623722 
1365	 0.714596457341206 
1366	 0.713017505135256 
1367	 0.711376408480939 
1368	 0.709667021874721 
1369	 0.707891727599525 
1370	 0.706038369415976 
1371	 0.704100298120709 
1372	 0.702157441182767 
1373	 0.700158747744557 
1374	 0.698112808038221 
1375	 0.696024486926593 
1376	 0.693897469935976 
1377	 0.691710705940207 
1378	 0.689466522407397 
1379	 0.687175400312956 
1380	 0.684859601908253 
1381	 0.68247251969078 
1382	 0.680071116439203 
1383	 0.677624293137966 
1384	 0.675208442654626 
1385	 0.672744506069411 
1386	 0.670358647978982 
1387	 0.66796403346054 
1388	 0.66572534125 
1389	 0.663551961554838 
1390	 0.661491689365666 
1391	 0.659618173078084 
1392	 0.657731659390308 
1393	 0.656001164882398 
1394	 0.654246543021558 
1395	 0.65241985884661 
1396	 0.650661922271062 
1397	 0.648674117526035 
1398	 0.646632275583279 
1399	 0.644305574243842 
1400	 0.641820474281646 
1401	 0.639102630260751 
1402	 0.636162690735904 
1403	 0.633003651245331 
1404	 0.629599291883446 
1405	 0.626128332200288 
1406	 0.62236248621729 
1407	 0.618709888601901 
1408	 0.614845767349379 
1409	 0.611323676824913 
1410	 0.607761257745482 
1411	 0.604621616252423 
1412	 0.60171659677022 
1413	 0.5991953315705 
1414	 0.597028482688289 
1415	 0.595091307313089 
1416	 0.593598336324409 
1417	 0.592125434162661 
1418	 0.590925962391097 
1419	 0.589680660657276 
1420	 0.588537725717536 
1421	 0.587386412397329 
1422	 0.586227281965692 
1423	 0.585106913932225 
1424	 0.584033085885809 
1425	 0.582920682576831 
1426	 0.581930944274496 
1427	 0.580984200506202 
1428	 0.580088629180285 
1429	 0.579346548591167 
1430	 0.578640947158948 
1431	 0.577992529357401 
1432	 0.577433194793326 
1433	 0.576959614236119 
1434	 0.576551814177881 
1435	 0.576218959790088 
1436	 0.575951165305751 
1437	 0.575757568959902 
1438	 0.575629732849736 
1439	 0.575583503748876 
1440	 0.575563515645157 
1441	 0.575618022942039 
1442	 0.575682885989557 
1443	 0.575771402786236 
1444	 0.575902681701707 
1445	 0.57607709064696 
1446	 0.576273723987925 
1447	 0.576506030338138 
1448	 0.576761863855139 
1449	 0.577051355879767 
1450	 0.577352547421266 
1451	 0.577687961057069 
1452	 0.578022591635273 
1453	 0.578376506211576 
1454	 0.578721996212824 
1455	 0.579071524205437 
1456	 0.579420404463654 
1457	 0.579761317732864 
1458	 0.580113401209432 
1459	 0.58047321807321 
1460	 0.580835875990466 
1461	 0.581191991493623 
1462	 0.581570711817346 
1463	 0.581957568254592 
1464	 0.582360396245387 
1465	 0.582774820391594 
1466	 0.583225485398591 
1467	 0.583668196540058 
1468	 0.584133657651714 
1469	 0.584616050849099 
1470	 0.58506640211413 
1471	 0.585515983644575 
1472	 0.585961422895135 
1473	 0.586395208733225 
1474	 0.586826342835211 
1475	 0.58722432522735 
1476	 0.587616318617994 
1477	 0.587963593958299 
1478	 0.588280965272991 
1479	 0.588552345989088 
1480	 0.588786461178052 
1481	 0.588991876444211 
1482	 0.589145516635408 
1483	 0.589298955486383 
1484	 0.589428863660202 
1485	 0.589548494933366 
1486	 0.589653002146986 
1487	 0.589740834065274 
1488	 0.589795559629165 
1489	 0.589877120192673 
1490	 0.589934171801392 
1491	 0.590041898912671 
1492	 0.59017704608716 
1493	 0.590335370969569 
1494	 0.590527255443806 
1495	 0.590727926990739 
1496	 0.590952420593102 
1497	 0.591185825246437 
1498	 0.591426349067115 
1499	 0.591692938040868 
1500	 0.591971707061137 
1501	 0.592281144845325 
1502	 0.592617206554101 
1503	 0.592973654408705 
1504	 0.593350479955154 
1505	 0.59375824416695 
1506	 0.594211523288078 
1507	 0.594656972604746 
1508	 0.595142082860348 
1509	 0.595596598206593 
1510	 0.596027835134845 
1511	 0.596466076082837 
1512	 0.596895582121181 
1513	 0.597326886005151 
1514	 0.597771788106085 
1515	 0.598200338605787 
1516	 0.598605485408983 
1517	 0.599027177075287 
1518	 0.599448645165952 
1519	 0.599870458368342 
1520	 0.600303396602467 
1521	 0.600738472796262 
1522	 0.601152794212405 
1523	 0.601592171247269 
1524	 0.602028311910662 
1525	 0.602465543520727 
1526	 0.602922704018203 
1527	 0.603382503919797 
1528	 0.603876166943766 
1529	 0.604394202262124 
1530	 0.604919700923446 
1531	 0.605474506760522 
1532	 0.606013459317039 
1533	 0.606550413140646 
1534	 0.607106493762977 
1535	 0.607676404551455 
1536	 0.608225615283322 
1537	 0.608789760938254 
1538	 0.609322209982986 
1539	 0.609832784455531 
1540	 0.610329095367895 
1541	 0.610819871717299 
1542	 0.611276515903715 
1543	 0.61171106699577 
1544	 0.612112529274225 
1545	 0.612488843424349 
1546	 0.612832937873783 
1547	 0.613141834619308 
1548	 0.613429431806368 
1549	 0.613688512219798 
1550	 0.613925481757434 
1551	 0.614138092886976 
1552	 0.614324182212165 
1553	 0.614477680034224 
1554	 0.614623772558418 
1555	 0.614739392725801 
1556	 0.614860148139258 
1557	 0.614968789078559 
1558	 0.61508265275629 
1559	 0.615172765403711 
1560	 0.615310047965193 
1561	 0.615446665834278 
1562	 0.615641924432089 
1563	 0.615892348236872 
1564	 0.616149025875725 
1565	 0.616457218631258 
1566	 0.616742787111757 
1567	 0.617020452172545 
1568	 0.617325755030491 
1569	 0.617642686728608 
1570	 0.617964623083861 
1571	 0.618317793519464 
1572	 0.618652206224909 
1573	 0.61897341401089 
1574	 0.619305255887194 
1575	 0.619648140782692 
1576	 0.619976037164702 
1577	 0.620305712464133 
1578	 0.62062254299492 
1579	 0.620919618136686 
1580	 0.621221956714761 
1581	 0.621508657605641 
1582	 0.621819235250574 
1583	 0.622143067186192 
1584	 0.622465988392937 
1585	 0.622808354110289 
1586	 0.623139449736488 
1587	 0.623462227155215 
1588	 0.623786746105904 
1589	 0.624103497830322 
1590	 0.624434772998044 
1591	 0.624776201259386 
1592	 0.625113765597785 
1593	 0.625461155919777 
1594	 0.625803992652037 
1595	 0.626140725839054 
1596	 0.626477062809692 
1597	 0.62683001690842 
1598	 0.627151381379115 
1599	 0.627452402123108 
1600	 0.627752695329181 
1601	 0.628036527924967 
1602	 0.628313346874667 
1603	 0.628588993231867 
1604	 0.628851918582143 
1605	 0.629110147786933 
1606	 0.629341864699832 
1607	 0.629572447372709 
1608	 0.629761920138587 
1609	 0.62990775202287 
1610	 0.63004415115211 
1611	 0.63015328682258 
1612	 0.630247638840233 
1613	 0.630342068036492 
1614	 0.630390421022383 
1615	 0.630404683990976 
1616	 0.630396745575924 
1617	 0.630366892415639 
1618	 0.630288161404633 
1619	 0.630163989045587 
1620	 0.630026561960148 
1621	 0.629856243788746 
1622	 0.629649324252807 
1623	 0.629407331786769 
1624	 0.629162269454325 
1625	 0.628878170874521 
1626	 0.62859070524772 
1627	 0.628290434372504 
1628	 0.628005930217144 
1629	 0.627702463955984 
1630	 0.627417950110912 
1631	 0.627153211806135 
1632	 0.626900353363245 
1633	 0.626669585312985 
1634	 0.626424536714336 
1635	 0.626200886596543 
1636	 0.62595193925118 
1637	 0.625693287282925 
1638	 0.625401668862633 
1639	 0.625093854554987 
1640	 0.624756643964921 
1641	 0.624403067343103 
1642	 0.623992738737939 
1643	 0.623569694396973 
1644	 0.623064491851583 
1645	 0.622511579714465 
1646	 0.621859298940164 
1647	 0.621141912699645 
1648	 0.620312358123585 
1649	 0.619417585063314 
1650	 0.618351181976345 
1651	 0.617129786392849 
1652	 0.61583205686336 
1653	 0.614380227934473 
1654	 0.612867456827027 
1655	 0.611246202486466 
1656	 0.609589079803925 
1657	 0.607860749146544 
1658	 0.6060533256303 
1659	 0.604216223072893 
1660	 0.602289632736075 
1661	 0.600290020534182 
1662	 0.598160926720844 
1663	 0.595929737292627 
1664	 0.59358061322287 
1665	 0.591097324963285 
1666	 0.588503808518598 
1667	 0.585781581361533 
1668	 0.583044669863854 
1669	 0.580194432280899 
1670	 0.577325790893957 
1671	 0.574396398647885 
1672	 0.571461801000567 
1673	 0.568504042416319 
1674	 0.565496017080621 
1675	 0.562486365541245 
1676	 0.55947106988785 
1677	 0.556413020022368 
1678	 0.553322660114423 
1679	 0.550194562941304 
1680	 0.547057384301321 
1681	 0.543877162051657 
1682	 0.540676776320677 
1683	 0.53748388664132 
1684	 0.534321487192748 
1685	 0.531128215677495 
1686	 0.527952267896967 
1687	 0.524797694069373 
1688	 0.521615480571928 
1689	 0.518422487764153 
1690	 0.515200629175614 
1691	 0.511990683279927 
1692	 0.508801991765918 
1693	 0.505620884142049 
1694	 0.502360158779845 
1695	 0.499086750995861 
1696	 0.495720297092537 
1697	 0.492257464005666 
1698	 0.488746288766948 
1699	 0.485170359118112 
1700	 0.481693705808726 
1701	 0.478139829006779 
1702	 0.47476476392706 
1703	 0.471433998930695 
1704	 0.468286681674792 
1705	 0.465237393954143 
1706	 0.462309045268804 
1707	 0.459735451742607 
1708	 0.457262930958322 
1709	 0.45493384130392 
1710	 0.452801066531936 
1711	 0.450686864821654 
1712	 0.448731296617937 
1713	 0.446810836409699 
1714	 0.44489971295021 
1715	 0.443199822721905 
1716	 0.441510121800814 
1717	 0.439916150103997 
1718	 0.438477078581927 
1719	 0.43707010775112 
1720	 0.43582948674262 
1721	 0.434785458043091 
1722	 0.433953269362605 
1723	 0.433403541495031 
1724	 0.433101155629211 
1725	 0.433039987419316 
1726	 0.433305862820356 
1727	 0.433923944129926 
1728	 0.434858179457507 
1729	 0.436165707763839 
1730	 0.43781430130251 
1731	 0.439624995165248 
1732	 0.441693247015816 
1733	 0.443840534460188 
1734	 0.446030660941011 
1735	 0.448294461101696 
1736	 0.450379794384265 
1737	 0.452332864271272 
1738	 0.454099946641262 
1739	 0.455535360329703 
1740	 0.456766524190587 
1741	 0.457682481480046 
1742	 0.458225830111158 
1743	 0.458616676083722 
1744	 0.458716064464902 
1745	 0.458702788475507 
1746	 0.458443820928483 
1747	 0.45816217431221 
1748	 0.457705774311513 
1749	 0.457296870832621 
1750	 0.456810062055594 
1751	 0.456411867619509 
1752	 0.455998020024455 
1753	 0.455709484208463 
1754	 0.455459495227235 
1755	 0.455413154390089 
1756	 0.45545079647728 
1757	 0.455721361257046 
1758	 0.456214549005601 
1759	 0.456844493578324 
1760	 0.457774168372648 
1761	 0.458979741669611 
1762	 0.460309871119394 
1763	 0.461965366427721 
1764	 0.463788955416579 
1765	 0.465731995679858 
1766	 0.467917881112823 
1767	 0.470081427145193 
1768	 0.472326147464049 
1769	 0.474653259424929 
1770	 0.476806882056216 
1771	 0.47894566124916 
1772	 0.480986864165504 
1773	 0.482834924862663 
1774	 0.48468332288169 
1775	 0.486405446082962 
1776	 0.488035981646984 
1777	 0.489581981318859 
1778	 0.490936640297577 
1779	 0.492216052649791 
1780	 0.493342824610139 
1781	 0.494327908624479 
1782	 0.495273478372135 
1783	 0.496095408274353 
1784	 0.49683472788772 
1785	 0.49742812083131 
1786	 0.497972917200028 
1787	 0.49840472647753 
1788	 0.498823529643556 
1789	 0.499211198517228 
1790	 0.499557150873275 
1791	 0.499835178635885 
1792	 0.500130206885525 
1793	 0.500397257730898 
1794	 0.500632029571225 
1795	 0.500877667917219 
1796	 0.501137702330611 
1797	 0.50141142461934 
1798	 0.501718197864366 
1799	 0.502025396177585 
1800	 0.502303401488817 
1801	 0.505431929611554 
1802	 0.505768176899184 
1803	 0.506080123701894 
1804	 0.506380876079333 
1805	 0.506705028266969 
1806	 0.507002795460635 
1807	 0.507281821527708 
1808	 0.507574353294706 
1809	 0.50786312606531 
1810	 0.50815485936756 
1811	 0.50843572897983 
1812	 0.508741482843625 
1813	 0.509036985383128 
1814	 0.50938377217626 
1815	 0.509750414434471 
1816	 0.510137512147361 
1817	 0.510538366385825 
1818	 0.510969598858361 
1819	 0.511391627161089 
1820	 0.511821686688829 
1821	 0.512255288679331 
1822	 0.512692039097132 
1823	 0.513141128672623 
1824	 0.51358203309815 
1825	 0.514043833732566 
1826	 0.514474395701181 
1827	 0.514888155400721 
1828	 0.51530056920598 
1829	 0.515680553031974 
1830	 0.516097985023334 
1831	 0.516519805836123 
1832	 0.516980935066451 
1833	 0.517428935700851 
1834	 0.517863017772237 
1835	 0.518305309110878 
1836	 0.518719579342769 
1837	 0.519137893724917 
1838	 0.519559807035339 
1839	 0.519970987523888 
1840	 0.520373008920537 
1841	 0.520775004538196 
1842	 0.521175351564803 
1843	 0.521564840554597 
1844	 0.521970114187076 
1845	 0.522328681571791 
1846	 0.522637874325592 
1847	 0.522936918273628 
1848	 0.523210306778129 
1849	 0.523455974009135 
1850	 0.523658990134868 
1851	 0.523843059600948 
1852	 0.523996728888402 
1853	 0.524081530132306 
1854	 0.524118320704015 
1855	 0.524121330460481 
1856	 0.524082168179819 
1857	 0.523984837090883 
1858	 0.523834811357158 
1859	 0.523634660103786 
1860	 0.523389602968416 
1861	 0.523073589274987 
1862	 0.522706822284567 
1863	 0.522283957343166 
1864	 0.521762212848039 
1865	 0.521183058089669 
1866	 0.520502380127495 
1867	 0.519667702589103 
1868	 0.518787968546769 
1869	 0.517773772983063 
1870	 0.516668642069769 
1871	 0.515490407626912 
1872	 0.514228956478518 
1873	 0.512865245638712 
1874	 0.511438332353458 
1875	 0.509953255163767 
1876	 0.508230536311024 
1877	 0.50645059481677 
1878	 0.504476015409933 
1879	 0.502268298651731 
1880	 0.500046800259047 
1881	 0.497598466829856 
1882	 0.494944384826912 
1883	 0.492171776265483 
1884	 0.489212649006119 
1885	 0.485863336973963 
1886	 0.482446996396276 
1887	 0.478732467286381 
1888	 0.474696932180503 
1889	 0.470798338532054 
1890	 0.466618744309187 
1891	 0.462401153460736 
1892	 0.458229408900024 
1893	 0.453885721979486 
1894	 0.449316074897392 
1895	 0.444928345234122 
1896	 0.440459625061086 
1897	 0.43595982407749 
1898	 0.43187876906769 
1899	 0.427743418250121 
1900	 0.423721807321747 
1901	 0.419933556979524 
1902	 0.415984948331956 
1903	 0.412259984851346 
1904	 0.408664486421894 
1905	 0.405148865956528 
1906	 0.401757664453241 
1907	 0.398782682402955 
1908	 0.395834860297 
1909	 0.393074340183709 
1910	 0.390523432119836 
1911	 0.387867945390746 
1912	 0.385428873761278 
1913	 0.383116621184783 
1914	 0.380853882952398 
1915	 0.378777473070051 
1916	 0.37692614379322 
1917	 0.375077395106489 
1918	 0.373323072958993 
1919	 0.371702345433209 
1920	 0.37007800448088 
1921	 0.368600111049165 
1922	 0.367172453039084 
1923	 0.365795328795634 
1924	 0.364612352954463 
1925	 0.3634896766257 
1926	 0.362438808917788 
1927	 0.361513021640201 
1928	 0.360614907819606 
1929	 0.359749689037689 
1930	 0.358972939094741 
1931	 0.358292386558 
1932	 0.357697017827489 
1933	 0.357226415887667 
1934	 0.356827013081554 
1935	 0.356485178787164 
1936	 0.356207953969047 
1937	 0.356006465036684 
1938	 0.355861228671867 
1939	 0.355820893317041 
1940	 0.355868279047106 
1941	 0.35599780003622 
1942	 0.356186816859894 
1943	 0.356439934363132 
1944	 0.356726137120517 
1945	 0.357052506640612 
1946	 0.35747053394063 
1947	 0.357925089561431 
1948	 0.358427620886515 
1949	 0.358985318982254 
1950	 0.359533171689398 
1951	 0.360102254893201 
1952	 0.360680444609421 
1953	 0.361258987855936 
1954	 0.361853204060085 
1955	 0.362525768371644 
1956	 0.363178330579458 
1957	 0.363844171602728 
1958	 0.364552674424611 
1959	 0.365203254426311 
1960	 0.365864068261319 
1961	 0.366524375849414 
1962	 0.367178636438544 
1963	 0.367838540022598 
1964	 0.36850222211748 
1965	 0.369153873273286 
1966	 0.369805667561515 
1967	 0.370473358404442 
1968	 0.371098920149402 
1969	 0.37173333445587 
1970	 0.37236026987886 
1971	 0.37298144366272 
1972	 0.373617885749979 
1973	 0.374255932632186 
1974	 0.374902702377177 
1975	 0.375584080868477 
1976	 0.376214384745657 
1977	 0.376829511367395 
1978	 0.377442024626856 
1979	 0.378033898836059 
1980	 0.378607326783488 
1981	 0.379207684151629 
1982	 0.379775943434726 
1983	 0.380337796997617 
1984	 0.380916534922863 
1985	 0.381460111530265 
1986	 0.381994823110012 
1987	 0.382518059861933 
1988	 0.383019767664493 
1989	 0.383519347946902 
1990	 0.384022706761125 
1991	 0.384499662344474 
1992	 0.384977095800547 
1993	 0.385414463467784 
1994	 0.385807149544391 
1995	 0.386168196254954 
1996	 0.386483259785351 
1997	 0.386791919463921 
1998	 0.38710364470954 
1999	 0.387403953368424 
2000	 0.387695467259198 
2001	 0.388000782313642 
2002	 0.388263150088051 
2003	 0.388506530328052 
2004	 0.388725638473492 
2005	 0.388911010326467 
2006	 0.389084407109123 
2007	 0.389245721867015 
2008	 0.389373961157599 
2009	 0.38947687403675 
2010	 0.389554131492382 
2011	 0.38960920424168 
2012	 0.389641949783646 
2013	 0.389605230045737 
2014	 0.389548720533924 
2015	 0.389403483391322 
2016	 0.38917960090599 
2017	 0.388901916046582 
2018	 0.388557259723429 
2019	 0.38816120677536 
2020	 0.387715250876141 
2021	 0.387189971726877 
2022	 0.386615373283815 
2023	 0.38598640848612 
2024	 0.385252207433127 
2025	 0.384500315382944 
2026	 0.383680434556078 
2027	 0.382756546871217 
2028	 0.381863430447452 
2029	 0.38092894682754 
2030	 0.37999458307206 
2031	 0.379060409371463 
2032	 0.378119774785516 
2033	 0.377122188359919 
2034	 0.37619115073666 
2035	 0.375275587360292 
2036	 0.374373417448705 
2037	 0.373549691567788 
2038	 0.372775448008015 
2039	 0.372078599349265 
2040	 0.371449917089056 
2041	 0.370880289961611 
2042	 0.370380376565769 
2043	 0.369941314517896 
2044	 0.369554883552275 
2045	 0.369237995616369 
2046	 0.368998424339604 
2047	 0.368810308644087 
2048	 0.368693341865263 
2049	 0.368621200439959 
2050	 0.368605919848196 
2051	 0.368647250465975 
2052	 0.368725088502785 
2053	 0.368847863396462 
2054	 0.369009831022854 
2055	 0.369216131205236 
2056	 0.369452596300536 
2057	 0.369717942346377 
2058	 0.370051046737229 
2059	 0.370450563086281 
2060	 0.370853455179112 
2061	 0.371322752977889 
2062	 0.371780628482708 
2063	 0.372220439241178 
2064	 0.372712365537416 
2065	 0.373251033046693 
2066	 0.373792885230921 
2067	 0.374361672722257 
2068	 0.374913478767429 
2069	 0.375462965152457 
2070	 0.376021019537526 
2071	 0.37653701768228 
2072	 0.377046259901546 
2073	 0.377525959148632 
2074	 0.377967893015682 
2075	 0.378396068549391 
2076	 0.378810428250682 
2077	 0.379196024988367 
2078	 0.37957609045646 
2079	 0.379895988223312 
2080	 0.38019330419126 
2081	 0.380432309025763 
2082	 0.380605305543684 
2083	 0.380730488715424 
2084	 0.380845459981722 
2085	 0.380941091623121 
2086	 0.381004523992005 
2087	 0.381054245854992 
2088	 0.381062244335081 
2089	 0.381024543310153 
2090	 0.380972080551791 
2091	 0.380899071160889 
2092	 0.380793927968816 
2093	 0.380661181144277 
2094	 0.380497497482455 
2095	 0.380287793947305 
2096	 0.38007547597441 
2097	 0.379843326112461 
2098	 0.379589189701892 
2099	 0.379342592996502 
2100	 0.379062214609823 
2101	 0.378731740338258 
2102	 0.378362834448106 
2103	 0.377975095479207 
2104	 0.377521052211063 
2105	 0.377105650941472 
2106	 0.376717676051035 
2107	 0.376258632983808 
2108	 0.375790420395536 
2109	 0.375273527564529 
2110	 0.374691134179648 
2111	 0.374099221886765 
2112	 0.373461433889733 
2113	 0.372832101797986 
2114	 0.372190674934373 
2115	 0.371529205988748 
2116	 0.370857101351261 
2117	 0.370195886892973 
2118	 0.369487695738475 
2119	 0.368750403698184 
2120	 0.367992092465166 
2121	 0.367185463162201 
2122	 0.366415809133016 
2123	 0.365631408971351 
2124	 0.364861476184418 
2125	 0.364156889409572 
2126	 0.363358412675673 
2127	 0.362524630484704 
2128	 0.361666093693372 
2129	 0.36071603614968 
2130	 0.359816635538662 
2131	 0.358935588692411 
2132	 0.358033033358305 
2133	 0.357143050336955 
2134	 0.356238341280969 
2135	 0.355272230640252 
2136	 0.354335331279107 
2137	 0.353407111085064 
2138	 0.352449875770674 
2139	 0.351578193117011 
2140	 0.350738343233975 
2141	 0.349950691277332 
2142	 0.34922873408304 
2143	 0.348518233277739 
2144	 0.347830503731467 
2145	 0.347205657100481 
2146	 0.346607103331768 
2147	 0.346075692856327 
2148	 0.345631465433225 
2149	 0.345192492236508 
2150	 0.344801569440573 
2151	 0.344429437627371 
2152	 0.344077275647479 
2153	 0.343764212268169 
2154	 0.343453239946948 
2155	 0.343155268953802 
2156	 0.342895670383323 
2157	 0.342653769438182 
2158	 0.342436237443586 
2159	 0.342251363333916 
2160	 0.342095653594947 
2161	 0.341950120327916 
2162	 0.341855786380076 
2163	 0.341814269867073 
2164	 0.341787662253171 
2165	 0.341791334416084 
2166	 0.341820690523121 
2167	 0.341888096467068 
2168	 0.341961157954319 
2169	 0.342039165122969 
2170	 0.342162467847398 
2171	 0.34229351710018 
2172	 0.342480831986729 
2173	 0.342709565767192 
2174	 0.343004695977886 
2175	 0.34331112678784 
2176	 0.343672850520225 
2177	 0.344053072302787 
2178	 0.344484925956249 
2179	 0.344882824630366 
2180	 0.34531378282003 
2181	 0.345694810298151 
2182	 0.346051944186956 
2183	 0.346395972552241 
2184	 0.346718149592284 
2185	 0.34703015355135 
2186	 0.347328244716781 
2187	 0.347608072669703 
2188	 0.34787147116812 
2189	 0.34812701314063 
2190	 0.348367024470862 
2191	 0.348594215614635 
2192	 0.348800946200277 
2193	 0.349009035886724 
2194	 0.34922694232585 
2195	 0.349405710554563 
2196	 0.349563834982215 
2197	 0.349723124977994 
2198	 0.349837272650859 
2199	 0.349899662926871 
2200	 0.349915503728916 
2201	 0.349887524029019 
2202	 0.349831417875639 
2203	 0.34970269139748 
2204	 0.34960772967345 
2205	 0.349495809326742 
2206	 0.349403459658874 
2207	 0.349309770989947 
2208	 0.349226964342136 
2209	 0.349156306299122 
2210	 0.349088200624513 
2211	 0.349025900372983 
2212	 0.348976666159459 
2213	 0.348959386002135 
2214	 0.348900906235773 
2215	 0.348878093498397 
2216	 0.34875806271139 
2217	 0.348608134743948 
2218	 0.348368415226507 
2219	 0.348056217228425 
2220	 0.347666416276473 
2221	 0.347212273708452 
2222	 0.346634419385485 
2223	 0.346036235943072 
2224	 0.345370801250545 
2225	 0.344614927265176 
2226	 0.343851226697591 
2227	 0.34295345815942 
2228	 0.341953829376504 
2229	 0.340890060359807 
2230	 0.339707170990324 
2231	 0.338521772583088 
2232	 0.337301986860109 
2233	 0.335975584711614 
2234	 0.334636638320431 
2235	 0.333123405141816 
2236	 0.331474725382798 
2237	 0.329739890811448 
2238	 0.327835919337572 
2239	 0.325921577857108 
2240	 0.323929130038753 
2241	 0.321876513549283 
2242	 0.319840559942208 
2243	 0.317620640110715 
2244	 0.315246247051204 
2245	 0.312836135311796 
2246	 0.310212243208549 
2247	 0.307664388667387 
2248	 0.305126697707047 
2249	 0.302554204938936 
2250	 0.299979515513532 
2251	 0.29742254018894 
2252	 0.29465470052417 
2253	 0.292014837426229 
2254	 0.289355874865814 
2255	 0.286680039784878 
2256	 0.284293352474373 
2257	 0.28190830669259 
2258	 0.279609564070344 
2259	 0.277439752708675 
2260	 0.275260730284177 
2261	 0.273071904757091 
2262	 0.271073314730899 
2263	 0.269137873982497 
2264	 0.267352969715453 
2265	 0.265780992285807 
2266	 0.26415508864405 
2267	 0.262621936990194 
2268	 0.261081021518571 
2269	 0.2595468734194 
2270	 0.258070906492225 
2271	 0.256603148302453 
2272	 0.255219103286587 
2273	 0.253921230963692 
2274	 0.2526213373697 
2275	 0.251420990474233 
2276	 0.250166704448313 
2277	 0.248883153532629 
2278	 0.247632092724287 
2279	 0.246351075412319 
2280	 0.245120076108101 
2281	 0.243966353786548 
2282	 0.242763066510416 
2283	 0.241574330439681 
2284	 0.240377801263528 
2285	 0.239067737623276 
2286	 0.237764927099442 
2287	 0.236434807768881 
2288	 0.235107078421373 
2289	 0.233856918977004 
2290	 0.232596505589327 
2291	 0.23135248666953 
2292	 0.230076609625194 
2293	 0.228730290908857 
2294	 0.227420759153323 
2295	 0.226126977507597 
2296	 0.224874168515746 
2297	 0.223791348536577 
2298	 0.222819085142557 
2299	 0.221970653495299 
2300	 0.221234844962779 
2301	 0.220691287226395 
2302	 0.220266061866934 
2303	 0.220070261961674 
2304	 0.220072157300202 
2305	 0.220298813580443 
2306	 0.220750625705816 
2307	 0.221392804104819 
2308	 0.222243343745953 
2309	 0.223340655047651 
2310	 0.224751523057805 
2311	 0.226178659388675 
2312	 0.227946381289942 
2313	 0.229531816773704 
2314	 0.23111220543138 
2315	 0.232666845907669 
2316	 0.234238624502437 
2317	 0.235669201464656 
2318	 0.237120085922915 
2319	 0.238319600787212 
2320	 0.239362581732199 
2321	 0.240225230844816 
2322	 0.240863148030082 
2323	 0.241394921975772 
2324	 0.241737508864098 
2325	 0.241980789396887 
2326	 0.24209305695545 
2327	 0.242068786127566 
2328	 0.241869368503635 
2329	 0.241614528159738 
2330	 0.241249893734129 
2331	 0.240765811286521 
2332	 0.240226675165874 
2333	 0.239591902326859 
2334	 0.238775832343081 
2335	 0.237851481383257 
2336	 0.236825580319337 
2337	 0.235704358712042 
2338	 0.234605635903703 
2339	 0.233510746527693 
2340	 0.232506321348638 
2341	 0.231558936036489 
2342	 0.230625602387805 
2343	 0.229841385567299 
2344	 0.229150892177078 
2345	 0.228609163535232 
2346	 0.228286381682693 
2347	 0.228201673657144 
2348	 0.228369742519199 
2349	 0.22882377495153 
2350	 0.22954750777965 
2351	 0.230482724141233 
2352	 0.231469251121979 
2353	 0.232505072154838 
2354	 0.233511339989457 
2355	 0.23445360230591 
2356	 0.235379207363489 
2357	 0.236216053121982 
2358	 0.236993210674284 
2359	 0.237643113330547 
2360	 0.238158426065675 
2361	 0.238474791477063 
2362	 0.238690536781559 
2363	 0.23884814340473 
2364	 0.238898717973417 
2365	 0.238942811395028 
2366	 0.238953684856168 
2367	 0.238971442239378 
2368	 0.238985341573242 
2369	 0.238994319130122 
2370	 0.239042856571736 
2371	 0.239018785143299 
2372	 0.238951870798139 
2373	 0.238933452979412 
2374	 0.238902593338396 
2375	 0.238847531129065 
2376	 0.238857622550289 
2377	 0.238904155884244 
2378	 0.23891222700794 
2379	 0.238968726138558 
2380	 0.239075075245977 
2381	 0.239155254770941 
2382	 0.239222162820704 
2383	 0.239284316559408 
2384	 0.239375145430894 
2385	 0.239447494097404 
2386	 0.239538553698963 
2387	 0.239701604675507 
2388	 0.239804035901561 
2389	 0.239884728654254 
2390	 0.239918571573975 
2391	 0.239898715687545 
2392	 0.239889943214991 
2393	 0.23982052726756 
2394	 0.239834575809585 
2395	 0.239968789270646 
2396	 0.23992212122766 
2397	 0.239835996826273 
2398	 0.239639000549272 
2399	 0.23924061718165 
2400	 0.238992628327761 
2401	 0.238757181495231 
2402	 0.238426809176549 
2403	 0.238199954369497 
2404	 0.237895992614101 
2405	 0.237734063550359 
2406	 0.237729630038099 
2407	 0.23764493351537 
2408	 0.237586045939631 
2409	 0.237594924716998 
2410	 0.237712239952283 
2411	 0.237960715652749 
2412	 0.23829698327436 
2413	 0.23870479560945 
2414	 0.23899098240821 
2415	 0.239166364825466 
2416	 0.239352728684716 
2417	 0.239448457982103 
2418	 0.23952600624675 
2419	 0.239655906263097 
2420	 0.239786959111572 
2421	 0.239931917914456 
2422	 0.239974772008183 
2423	 0.239938648926687 
2424	 0.239874958392937 
2425	 0.239659073078928 
2426	 0.239524784305445 
2427	 0.239449093686302 
2428	 0.239255131226147 
2429	 0.239114178109213 
2430	 0.239040536226807 
2431	 0.2390255857171 
2432	 0.239008582758206 
2433	 0.238899447486812 
2434	 0.23871422784493 
2435	 0.23842222800532 
2436	 0.237995777907213 
2437	 0.237553081843221 
2438	 0.237093083051343 
2439	 0.236643876014444 
2440	 0.236347158400476 
2441	 0.236031474969731 
2442	 0.235672927585953 
2443	 0.235328388968895 
2444	 0.234924737231258 
2445	 0.234516387048331 
2446	 0.234011620902536 
2447	 0.233453241011238 
2448	 0.232949678652326 
2449	 0.232432669517902 
2450	 0.231859626044513 
2451	 0.231264169909117 
2452	 0.23075220522971 
2453	 0.230211962684041 
2454	 0.229853980626245 
2455	 0.229579129235365 
2456	 0.228964908712545 
2457	 0.228392131920877 
2458	 0.227899962686534 
2459	 0.227443531502506 
2460	 0.227213359521767 
2461	 0.227085181097607 
2462	 0.226991347448557 
2463	 0.226778525422725 
2464	 0.226524879490436 
2465	 0.226315064376591 
2466	 0.225951696169271 
2467	 0.225654590326862 
2468	 0.225485596060854 
2469	 0.22507299253522 
2470	 0.224578965840088 
2471	 0.224197695186599 
2472	 0.223804103958342 
2473	 0.223621129704433 
2474	 0.223533967252676 
2475	 0.223382285772677 
2476	 0.223207031527887 
2477	 0.22285491424974 
2478	 0.222654584853398 
2479	 0.222578471177816 
2480	 0.222437111144345 
2481	 0.222269401554246 
2482	 0.222055813733233 
2483	 0.221915802558517 
2484	 0.221682216858161 
2485	 0.221604258228841 
2486	 0.221519360794406 
2487	 0.221471106281232 
2488	 0.221648684203205 
2489	 0.221714342562384 
2490	 0.221690214689385 
2491	 0.221746623804224 
2492	 0.221820161853536 
2493	 0.22186700368198 
2494	 0.22193717591092 
2495	 0.221926932441008 
2496	 0.221799504427999 
2497	 0.221867623018378 
2498	 0.221926338414146 
2499	 0.221960915158466 
2500	 0.222269195435487 
