Wavelength	spectrum00003.asd
350	 0.120434669444416 
351	 0.116327228944319 
352	 0.112610167139744 
353	 0.109464725199002 
354	 0.107764515935032 
355	 0.107709688484773 
356	 0.10680843589696 
357	 0.10347509219211 
358	 0.099963270829511 
359	 9.86681632035865E-02 
360	 9.82367565111012E-02 
361	 9.59599741850476E-02 
362	 9.55514496180042E-02 
363	 9.49800762351568E-02 
364	 9.31597218819841E-02 
365	 9.09042319190945E-02 
366	 9.06882759179651E-02 
367	 9.09104447163537E-02 
368	 9.00242402794218E-02 
369	 9.01924315214575E-02 
370	 9.04354562705609E-02 
371	 9.02404651835356E-02 
372	 8.94209580740105E-02 
373	 0.087789849903397 
374	 8.73664366566599E-02 
375	 8.82019734536779E-02 
376	 0.087295882296606 
377	 0.087419484917663 
378	 8.74306440393651E-02 
379	 8.61722080555713E-02 
380	 0.085926969312064 
381	 8.61079274444197E-02 
382	 8.57329831312556E-02 
383	 8.39830580371153E-02 
384	 0.083425223367675 
385	 8.41964677218615E-02 
386	 8.49195065568666E-02 
387	 8.23958386640397E-02 
388	 8.18102500169786E-02 
389	 8.22645714033549E-02 
390	 8.17508297006722E-02 
391	 8.08399088896012E-02 
392	 8.01959415125816E-02 
393	 7.99365728119249E-02 
394	 0.079778632726191 
395	 7.95733980139375E-02 
396	 7.91168939456005E-02 
397	 7.84432225540692E-02 
398	 0.077964725170852 
399	 7.72966758275935E-02 
400	 7.69292159413779E-02 
401	 7.71483227137879E-02 
402	 7.63310703049107E-02 
403	 7.59661376893546E-02 
404	 7.61191803825635E-02 
405	 7.57575461098176E-02 
406	 0.07513229286061 
407	 7.43607181133919E-02 
408	 7.37493964245198E-02 
409	 7.40925018141173E-02 
410	 0.074013179130021 
411	 7.36535016012018E-02 
412	 7.35524880958974E-02 
413	 7.35282249889421E-02 
414	 0.073012799732559 
415	 7.22510845352682E-02 
416	 7.21636899733726E-02 
417	 7.19924331153726E-02 
418	 7.17251119956045E-02 
419	 7.15078594600079E-02 
420	 7.15686095948334E-02 
421	 7.14327219771623E-02 
422	 7.12147052218563E-02 
423	 0.071209412229686 
424	 7.11609400690543E-02 
425	 7.09391486908796E-02 
426	 7.06888835612248E-02 
427	 7.08410687355484E-02 
428	 7.06088970402917E-02 
429	 7.03378922084257E-02 
430	 7.04026039474368E-02 
431	 7.04794167584932E-02 
432	 7.05224170195706E-02 
433	 7.04303438790912E-02 
434	 0.070143740501967 
435	 0.07019869359674 
436	 7.03131393807352E-02 
437	 7.03245050276908E-02 
438	 7.04153266200561E-02 
439	 7.03388902692655E-02 
440	 7.02532377076544E-02 
441	 7.03417238481303E-02 
442	 7.03623848835052E-02 
443	 0.070471780694626 
444	 7.06247325134978E-02 
445	 7.06261888800531E-02 
446	 7.06900022374974E-02 
447	 7.07741708321984E-02 
448	 7.08333991943101E-02 
449	 7.09003675419532E-02 
450	 7.10329469578776E-02 
451	 7.12409125910785E-02 
452	 7.14752575877901E-02 
453	 7.14809451889554E-02 
454	 7.15936068416677E-02 
455	 7.18841175291081E-02 
456	 7.20889011821107E-02 
457	 7.23373577204698E-02 
458	 7.25428774235171E-02 
459	 7.26807374300049E-02 
460	 7.30392508512925E-02 
461	 7.34352821937281E-02 
462	 7.37696200850516E-02 
463	 7.40212324094812E-02 
464	 7.43941444531595E-02 
465	 7.48174443257736E-02 
466	 7.51987756191023E-02 
467	 7.54538181119858E-02 
468	 7.59418273991893E-02 
469	 7.65426176946806E-02 
470	 7.70794132724614E-02 
471	 7.78120267874217E-02 
472	 7.84466704898661E-02 
473	 7.89963638018301E-02 
474	 7.97193490657699E-02 
475	 8.05183436716516E-02 
476	 8.13849803757907E-02 
477	 8.22782165351723E-02 
478	 8.30286393342271E-02 
479	 8.40086895166533E-02 
480	 8.51988300124375E-02 
481	 8.64087438654404E-02 
482	 8.74831437721691E-02 
483	 8.86572041694175E-02 
484	 9.00449946191614E-02 
485	 0.091581452071415 
486	 9.31698096553655E-02 
487	 9.48112815681279E-02 
488	 9.65172847015146E-02 
489	 9.82317042567761E-02 
490	 0.100078871370487 
491	 0.102102170483317 
492	 0.104274858877969 
493	 0.106420201140245 
494	 0.108678893380024 
495	 0.111123748303822 
496	 0.113643647993902 
497	 0.116296077592751 
498	 0.119060556314065 
499	 0.121911683837931 
500	 0.124941804080112 
501	 0.128014360181035 
502	 0.13116664580369 
503	 0.134586016278995 
504	 0.138136027265661 
505	 0.14173489306594 
506	 0.145404258423632 
507	 0.149398169144354 
508	 0.153444308639576 
509	 0.157559843400421 
510	 0.161873184702339 
511	 0.166333992944886 
512	 0.170911489218238 
513	 0.175610413393578 
514	 0.180491734062363 
515	 0.185417530289576 
516	 0.190483815669814 
517	 0.195782054550402 
518	 0.201158823601957 
519	 0.20662159384408 
520	 0.212222993053674 
521	 0.218029646754963 
522	 0.22388012905779 
523	 0.229814774054087 
524	 0.235862638092609 
525	 0.241982312986802 
526	 0.248213751459489 
527	 0.254570431110775 
528	 0.261047727751144 
529	 0.26758925062515 
530	 0.274149471246831 
531	 0.280768222186985 
532	 0.287553716543311 
533	 0.294355801252336 
534	 0.301235265546898 
535	 0.308238503109266 
536	 0.315279670928853 
537	 0.322327659442883 
538	 0.32935764602131 
539	 0.336362838785108 
540	 0.343353881921139 
541	 0.350323598343671 
542	 0.357267478272667 
543	 0.364187465625307 
544	 0.371008759411855 
545	 0.377688896942716 
546	 0.384238205790204 
547	 0.390869979059093 
548	 0.397423654643877 
549	 0.403845846573774 
550	 0.410189632186088 
551	 0.416431307232776 
552	 0.422576633649109 
553	 0.428617728735786 
554	 0.434458909283906 
555	 0.440292090680975 
556	 0.446111802541624 
557	 0.451810679201007 
558	 0.457388668173428 
559	 0.462825070823902 
560	 0.468083220706866 
561	 0.473104668706922 
562	 0.477907900485039 
563	 0.482635888458915 
564	 0.487388793939371 
565	 0.491978547845805 
566	 0.496463313870271 
567	 0.500849505989509 
568	 0.50511062065071 
569	 0.509362443838443 
570	 0.513488839906918 
571	 0.517461325040995 
572	 0.521532743482644 
573	 0.525383915012455 
574	 0.529010651613701 
575	 0.532514465732902 
576	 0.535776472842989 
577	 0.538982682879569 
578	 0.542223584219041 
579	 0.54544865965533 
580	 0.548635387812314 
581	 0.55171867096008 
582	 0.554662866761375 
583	 0.557538818756818 
584	 0.560270221717746 
585	 0.562914842360548 
586	 0.565613642672993 
587	 0.568388585272513 
588	 0.571263037555057 
589	 0.574153391099359 
590	 0.576817197735124 
591	 0.579331028098618 
592	 0.581749875310753 
593	 0.584106466169404 
594	 0.586356160526707 
595	 0.58849353591401 
596	 0.590557994989064 
597	 0.592617180674454 
598	 0.594693246924086 
599	 0.596757307934974 
600	 0.598794636151071 
601	 0.600847941296085 
602	 0.602826548253447 
603	 0.604735965356062 
604	 0.606622616518505 
605	 0.608502709894533 
606	 0.610351829574574 
607	 0.61218837972966 
608	 0.614084230930168 
609	 0.615815351407423 
610	 0.617466443379172 
611	 0.619147876853069 
612	 0.620750540434726 
613	 0.622363271946183 
614	 0.623954170127416 
615	 0.625433838985196 
616	 0.626966716870536 
617	 0.628462413894365 
618	 0.629896428117778 
619	 0.631434047682662 
620	 0.632901957251003 
621	 0.634265466712979 
622	 0.635564435750002 
623	 0.636941014915156 
624	 0.638325453392788 
625	 0.639669023460616 
626	 0.640959481807875 
627	 0.642291406623263 
628	 0.643560959611363 
629	 0.644715463657142 
630	 0.645912748114365 
631	 0.647177206972173 
632	 0.648413065487646 
633	 0.649516990251623 
634	 0.650802149535555 
635	 0.651980380368064 
636	 0.652991802266727 
637	 0.654115308384224 
638	 0.655238378143591 
639	 0.656349788202666 
640	 0.657435855049879 
641	 0.658392114633916 
642	 0.659401852710489 
643	 0.660467167130394 
644	 0.661482907319517 
645	 0.662505221334628 
646	 0.663494878154902 
647	 0.664447187570104 
648	 0.665434312439967 
649	 0.666367477944932 
650	 0.667287010059866 
651	 0.668244915421885 
652	 0.669180359478049 
653	 0.670011839894724 
654	 0.670840691582871 
655	 0.671883945330066 
656	 0.672835646693894 
657	 0.673650962984324 
658	 0.67439805679218 
659	 0.675287535695417 
660	 0.676188212127306 
661	 0.677054658929019 
662	 0.677875265954704 
663	 0.678652638851749 
664	 0.679498959362722 
665	 0.680377913009594 
666	 0.68110621803856 
667	 0.681796741726338 
668	 0.682499171053448 
669	 0.683236287349568 
670	 0.684001131117198 
671	 0.684771382584296 
672	 0.685480560966556 
673	 0.686084251068625 
674	 0.686805236567494 
675	 0.687499450145923 
676	 0.688138610557245 
677	 0.688868043589206 
678	 0.68951020396915 
679	 0.690072305553806 
680	 0.690639128142764 
681	 0.691394211461176 
682	 0.69210635306109 
683	 0.692764064566971 
684	 0.693466135292987 
685	 0.69410660997121 
686	 0.694796352604523 
687	 0.695555092047253 
688	 0.696248576615126 
689	 0.696862884104908 
690	 0.697517281435216 
691	 0.69829184942195 
692	 0.69900597829567 
693	 0.699669893231849 
694	 0.700281504190909 
695	 0.700851146332262 
696	 0.701575761361694 
697	 0.702313865615687 
698	 0.70294139708912 
699	 0.703422025602072 
700	 0.704061214796786 
701	 0.704776795262294 
702	 0.705407392871797 
703	 0.70596732462914 
704	 0.706552654649406 
705	 0.70714740212709 
706	 0.707672633549304 
707	 0.708275869028415 
708	 0.70891855518133 
709	 0.709517019717077 
710	 0.709950476885416 
711	 0.710442165097636 
712	 0.710984066711467 
713	 0.71151474955344 
714	 0.712076242989164 
715	 0.712618954809973 
716	 0.713080400026366 
717	 0.713420535756745 
718	 0.713896177847922 
719	 0.714463679395477 
720	 0.715039694140323 
721	 0.715558015057066 
722	 0.71594997325314 
723	 0.71634906362536 
724	 0.716885368735751 
725	 0.717410986889046 
726	 0.717952416258871 
727	 0.718467326427832 
728	 0.718876761940668 
729	 0.719250464978489 
730	 0.719656071559125 
731	 0.720097811235592 
732	 0.720477139407457 
733	 0.720924567821168 
734	 0.72140315296495 
735	 0.721842148996552 
736	 0.722243647164546 
737	 0.722610471895983 
738	 0.722985080996264 
739	 0.723422341259215 
740	 0.723858245615281 
741	 0.724218611113131 
742	 0.724513383249829 
743	 0.724871674616506 
744	 0.725447272031675 
745	 0.725923808042229 
746	 0.726066992161995 
747	 0.726350205295796 
748	 0.726673627887628 
749	 0.727077290346744 
750	 0.72762342891103 
751	 0.727947451365918 
752	 0.728124807378403 
753	 0.728340575908721 
754	 0.728842112550951 
755	 0.729361176404375 
756	 0.72976889694925 
757	 0.730035948269655 
758	 0.730296328640103 
759	 0.730532606150429 
760	 0.730824736192203 
761	 0.731261659494685 
762	 0.73173857915668 
763	 0.732054548617546 
764	 0.732236370748174 
765	 0.732547384692811 
766	 0.732843559601525 
767	 0.733212626400638 
768	 0.733669837734839 
769	 0.733968808839445 
770	 0.734270652917596 
771	 0.73457792754927 
772	 0.734848097399682 
773	 0.735092125033755 
774	 0.735416883987095 
775	 0.735784274173885 
776	 0.736049139004267 
777	 0.736305820758456 
778	 0.736584992704391 
779	 0.736870954242323 
780	 0.737081857433735 
781	 0.737389219531335 
782	 0.737757835897514 
783	 0.738103731389575 
784	 0.738409413948726 
785	 0.738678615494884 
786	 0.738919125805809 
787	 0.739139308118698 
788	 0.739332562530395 
789	 0.739497231740212 
790	 0.739666342438022 
791	 0.739907390447175 
792	 0.740145293650239 
793	 0.740384005715294 
794	 0.740622511028267 
795	 0.740808135036053 
796	 0.740941007357845 
797	 0.741141510592017 
798	 0.741511284862102 
799	 0.741865983863264 
800	 0.742009282671369 
801	 0.742086612066278 
802	 0.742446167646955 
803	 0.742641578832558 
804	 0.742805793052385 
805	 0.743060277952578 
806	 0.743390651638572 
807	 0.743572318339157 
808	 0.743632047581264 
809	 0.743707609393618 
810	 0.744053088075051 
811	 0.74430282479723 
812	 0.744514183039556 
813	 0.744858434916347 
814	 0.744966196362933 
815	 0.745084369328292 
816	 0.745311418751881 
817	 0.745571453442767 
818	 0.74579022797283 
819	 0.74598202352437 
820	 0.746160561294839 
821	 0.746309737527614 
822	 0.746549468431471 
823	 0.746759646466653 
824	 0.746835225746792 
825	 0.746891728196942 
826	 0.747249223145281 
827	 0.747661278715176 
828	 0.74773222075276 
829	 0.747904767650634 
830	 0.748049988613041 
831	 0.748118661719658 
832	 0.748169457350123 
833	 0.748325108986243 
834	 0.748524898038654 
835	 0.748695563865695 
836	 0.748795195854749 
837	 0.748979698013605 
838	 0.7491474349482 
839	 0.749222012862141 
840	 0.749394334445286 
841	 0.749491519625141 
842	 0.749561574025041 
843	 0.749715857115499 
844	 0.749901222217638 
845	 0.750086361377005 
846	 0.750228896572999 
847	 0.75029784279423 
848	 0.750407285825514 
849	 0.750531962948045 
850	 0.750649273454655 
851	 0.750762484487444 
852	 0.750876749708138 
853	 0.75105088329904 
854	 0.751279974177207 
855	 0.751409892262259 
856	 0.751470179524069 
857	 0.751561032970538 
858	 0.751756288981808 
859	 0.751943677808988 
860	 0.752163675439069 
861	 0.752346363643449 
862	 0.752401729529199 
863	 0.752461336304702 
864	 0.752530424571173 
865	 0.752646979372483 
866	 0.752854565410816 
867	 0.752899338675758 
868	 0.752963086964952 
869	 0.753133369217166 
870	 0.75328499383194 
871	 0.753446288853135 
872	 0.753539746382168 
873	 0.753547411275283 
874	 0.753616754126345 
875	 0.753742441213422 
876	 0.753910460292292 
877	 0.754080255124174 
878	 0.754151847499813 
879	 0.754230654652392 
880	 0.754299754599269 
881	 0.75429894130829 
882	 0.754280983902828 
883	 0.75430527497578 
884	 0.75438010408868 
885	 0.754461065340213 
886	 0.754421691632783 
887	 0.754468943938381 
888	 0.754602906987804 
889	 0.754567805635418 
890	 0.754639571662809 
891	 0.754706080282989 
892	 0.754655852383648 
893	 0.754500399471674 
894	 0.754379580335057 
895	 0.754444340021918 
896	 0.754683574218015 
897	 0.754701523094886 
898	 0.754668900527479 
899	 0.754648120754512 
900	 0.754640463692334 
901	 0.75453168818254 
902	 0.754497875853145 
903	 0.75451893780556 
904	 0.75448036643359 
905	 0.754352533133932 
906	 0.75433031173298 
907	 0.754425697061377 
908	 0.754510072032183 
909	 0.754575301817348 
910	 0.754597588431863 
911	 0.754586308541389 
912	 0.754588852885375 
913	 0.754718427877091 
914	 0.754767272803736 
915	 0.754715785665015 
916	 0.754848526937843 
917	 0.75495103839751 
918	 0.755014918655639 
919	 0.755060212115856 
920	 0.755080866164639 
921	 0.755133161805705 
922	 0.755232444917425 
923	 0.755350957769304 
924	 0.755385573563852 
925	 0.755487462802014 
926	 0.755600836866731 
927	 0.755662989552238 
928	 0.755827199075945 
929	 0.756005256272217 
930	 0.756191071374165 
931	 0.756383501967873 
932	 0.756443474673895 
933	 0.756567736012549 
934	 0.756783398211319 
935	 0.757003646656634 
936	 0.757139902459447 
937	 0.757224603134787 
938	 0.757340442755158 
939	 0.757572779698663 
940	 0.757851101305803 
941	 0.758062230501476 
942	 0.758192468101608 
943	 0.758313595373072 
944	 0.758389190678563 
945	 0.758504051823805 
946	 0.758664192836215 
947	 0.758781721107499 
948	 0.758833419866874 
949	 0.758850531440571 
950	 0.758876101506688 
951	 0.75894427878242 
952	 0.758946176082181 
953	 0.758998933882114 
954	 0.759112773481613 
955	 0.759093312382506 
956	 0.758996594405571 
957	 0.758907626518321 
958	 0.758860735767444 
959	 0.758790545799053 
960	 0.758798148090896 
961	 0.758843943840569 
962	 0.758844555527944 
963	 0.758707838446617 
964	 0.758608922171242 
965	 0.758650324609497 
966	 0.758797248438507 
967	 0.758780971205608 
968	 0.758703995046891 
969	 0.758725425416795 
970	 0.758895895977509 
971	 0.758965512329485 
972	 0.758903936736872 
973	 0.758876043289781 
974	 0.759021014241543 
975	 0.759229070651297 
976	 0.759330416054575 
977	 0.75935948102157 
978	 0.75941453165814 
979	 0.759555005567334 
980	 0.759504940036922 
981	 0.759439055685332 
982	 0.759569513211323 
983	 0.759697040243744 
984	 0.759870558798782 
985	 0.760004893652023 
986	 0.760052459761708 
987	 0.760230244181376 
988	 0.760359975504352 
989	 0.760332782501116 
990	 0.760162564341915 
991	 0.760137510389732 
992	 0.760171706919713 
993	 0.760267043985507 
994	 0.76042263627519 
995	 0.760558114085431 
996	 0.76056178242418 
997	 0.760467403362204 
998	 0.760374775634556 
999	 0.760364224437075 
1000	 0.760509610186639 
1001	 0.762576050917031 
1002	 0.76264799656717 
1003	 0.762742862771563 
1004	 0.76278970636207 
1005	 0.762869236538653 
1006	 0.762872613912081 
1007	 0.762789553725166 
1008	 0.762771285323065 
1009	 0.762775268695963 
1010	 0.762749437400271 
1011	 0.762684430070926 
1012	 0.762680463145368 
1013	 0.762699641008438 
1014	 0.762712221442161 
1015	 0.762758431164422 
1016	 0.762821298407154 
1017	 0.762857699528178 
1018	 0.762848195990393 
1019	 0.762884607190339 
1020	 0.762919752340318 
1021	 0.762948796273568 
1022	 0.762958228606536 
1023	 0.763009515653824 
1024	 0.763085483638006 
1025	 0.76315043432808 
1026	 0.763231832038187 
1027	 0.763296454777958 
1028	 0.763358926967374 
1029	 0.763401518154009 
1030	 0.763422777101365 
1031	 0.763474649496682 
1032	 0.763499731129945 
1033	 0.76352349408846 
1034	 0.763594094499228 
1035	 0.763657407978978 
1036	 0.7637011614609 
1037	 0.763723793431383 
1038	 0.76379028937137 
1039	 0.763841392936281 
1040	 0.763942472843348 
1041	 0.764133096291521 
1042	 0.764248655173574 
1043	 0.76436241057055 
1044	 0.764433498602167 
1045	 0.764472733535632 
1046	 0.764528974343967 
1047	 0.764619374915469 
1048	 0.764746217645662 
1049	 0.76485990593222 
1050	 0.764947372853181 
1051	 0.765041791954863 
1052	 0.765135137184135 
1053	 0.765242126852563 
1054	 0.765394880727115 
1055	 0.765504405997524 
1056	 0.765595391722647 
1057	 0.765675015519656 
1058	 0.765729351816538 
1059	 0.765777763646542 
1060	 0.765853775473869 
1061	 0.765956446261332 
1062	 0.766061416757832 
1063	 0.766126452390695 
1064	 0.766192083041262 
1065	 0.766251321753783 
1066	 0.766261521184695 
1067	 0.766312852838363 
1068	 0.766378670300981 
1069	 0.766419777606128 
1070	 0.766485206099688 
1071	 0.766579296996171 
1072	 0.766677473756781 
1073	 0.766751008164153 
1074	 0.766813685421413 
1075	 0.76689140463313 
1076	 0.766980442580398 
1077	 0.767068445358744 
1078	 0.76715815373109 
1079	 0.76724857271157 
1080	 0.767289406355073 
1081	 0.767328221270154 
1082	 0.76740990185538 
1083	 0.767467425410609 
1084	 0.767534575343123 
1085	 0.76757543966673 
1086	 0.767610336536124 
1087	 0.767619915683656 
1088	 0.767653875559068 
1089	 0.767685905425878 
1090	 0.767721934163514 
1091	 0.767752170041909 
1092	 0.767785600739297 
1093	 0.767812643205323 
1094	 0.767843875419884 
1095	 0.767876025716659 
1096	 0.767903201214467 
1097	 0.76794813078624 
1098	 0.767999603086719 
1099	 0.768069302279737 
1100	 0.768116743943126 
1101	 0.768102423448809 
1102	 0.768074419581137 
1103	 0.768054569804755 
1104	 0.768016853347235 
1105	 0.767974031301037 
1106	 0.767970418378126 
1107	 0.767983024110677 
1108	 0.767980010318754 
1109	 0.768007953936606 
1110	 0.768028216928002 
1111	 0.768018610976781 
1112	 0.7680250825644 
1113	 0.767999789636648 
1114	 0.767956447264899 
1115	 0.76791521502836 
1116	 0.76783810661561 
1117	 0.767754886415824 
1118	 0.767686782622408 
1119	 0.767627661671162 
1120	 0.767560779801221 
1121	 0.767502816796752 
1122	 0.76743464406129 
1123	 0.767343873153743 
1124	 0.767227076511573 
1125	 0.767103818200753 
1126	 0.766952160035267 
1127	 0.766763374773231 
1128	 0.766539667154118 
1129	 0.766285299094947 
1130	 0.76601788512947 
1131	 0.765747780310896 
1132	 0.765489566796717 
1133	 0.765226816033602 
1134	 0.764945963739115 
1135	 0.764625918810103 
1136	 0.764266732501639 
1137	 0.763905399542165 
1138	 0.763522642064551 
1139	 0.763116630125095 
1140	 0.762684391384695 
1141	 0.762282987136661 
1142	 0.761846804182602 
1143	 0.761378105637146 
1144	 0.760929262584276 
1145	 0.760425213617424 
1146	 0.759895590745662 
1147	 0.759366868662308 
1148	 0.758816762938562 
1149	 0.758292213743971 
1150	 0.757773235744143 
1151	 0.757259649409035 
1152	 0.756701042539973 
1153	 0.756113539684412 
1154	 0.755521740035918 
1155	 0.754910963277476 
1156	 0.754266030168729 
1157	 0.753613452948513 
1158	 0.752959382632306 
1159	 0.752272347262579 
1160	 0.751567563262103 
1161	 0.750896475479153 
1162	 0.750163656341554 
1163	 0.749448573980292 
1164	 0.748743532091289 
1165	 0.748026814458785 
1166	 0.747376354518413 
1167	 0.746731192905097 
1168	 0.746087903386427 
1169	 0.745440027033444 
1170	 0.744810712451339 
1171	 0.744163039892322 
1172	 0.743500288581963 
1173	 0.742825380395768 
1174	 0.742161462383146 
1175	 0.741473407767407 
1176	 0.740752990803748 
1177	 0.74004579682077 
1178	 0.73934582193118 
1179	 0.738597165094626 
1180	 0.737899482114382 
1181	 0.737197735574074 
1182	 0.736491286781571 
1183	 0.73583451143776 
1184	 0.735141155296298 
1185	 0.734470852195332 
1186	 0.733823752479866 
1187	 0.733164529261096 
1188	 0.732576458350161 
1189	 0.732020740051023 
1190	 0.731523320728898 
1191	 0.73108910811225 
1192	 0.730681881206358 
1193	 0.730338068666563 
1194	 0.729983016159338 
1195	 0.729632333922251 
1196	 0.729324337175667 
1197	 0.729045420551923 
1198	 0.728774583469653 
1199	 0.728519454153888 
1200	 0.728306543609681 
1201	 0.728100510537375 
1202	 0.727913544968928 
1203	 0.727780997317863 
1204	 0.727693385463558 
1205	 0.727659309999611 
1206	 0.72764471492705 
1207	 0.727743342231718 
1208	 0.727906649404865 
1209	 0.728156020997683 
1210	 0.728473677302037 
1211	 0.728904581255085 
1212	 0.729427893923452 
1213	 0.730046576901491 
1214	 0.730770086757088 
1215	 0.731592564326868 
1216	 0.732528833638325 
1217	 0.733507781242445 
1218	 0.73460042739912 
1219	 0.735729463027236 
1220	 0.736864812304134 
1221	 0.7380869199312 
1222	 0.739279174670254 
1223	 0.740488070944668 
1224	 0.741662473417885 
1225	 0.742843963200128 
1226	 0.743933199529447 
1227	 0.744996781158569 
1228	 0.745990104359507 
1229	 0.746906651523769 
1230	 0.747793354522576 
1231	 0.748644408630203 
1232	 0.749436739423385 
1233	 0.750171778203632 
1234	 0.750855915538471 
1235	 0.751483290929916 
1236	 0.752068758651049 
1237	 0.752597402372856 
1238	 0.753097512988405 
1239	 0.753543596585087 
1240	 0.753970712128387 
1241	 0.754410805626253 
1242	 0.754782713025206 
1243	 0.755137449262784 
1244	 0.755473780117065 
1245	 0.755786437928545 
1246	 0.756041093231113 
1247	 0.756328533726675 
1248	 0.756629308982049 
1249	 0.756896184413829 
1250	 0.757158715243536 
1251	 0.757393617949854 
1252	 0.757596707097949 
1253	 0.757798016151088 
1254	 0.757985191419987 
1255	 0.758163888350651 
1256	 0.758335860658678 
1257	 0.758490889635108 
1258	 0.758628696154516 
1259	 0.758759546753419 
1260	 0.75887339920926 
1261	 0.758984818313482 
1262	 0.759082648893055 
1263	 0.759192164902635 
1264	 0.759285909664247 
1265	 0.759371931032144 
1266	 0.75945304615157 
1267	 0.759526955335656 
1268	 0.75959664246643 
1269	 0.759662644861379 
1270	 0.759720674058487 
1271	 0.75976383488852 
1272	 0.759820053986266 
1273	 0.759879538463708 
1274	 0.759931757377692 
1275	 0.759996168501001 
1276	 0.760038709300944 
1277	 0.760052273671098 
1278	 0.760085292854898 
1279	 0.76012131429978 
1280	 0.760153642410752 
1281	 0.760190124018492 
1282	 0.760228804342946 
1283	 0.760258024236377 
1284	 0.760295850481195 
1285	 0.760339816454694 
1286	 0.76039785445974 
1287	 0.760440406074015 
1288	 0.760478699257521 
1289	 0.760521494736012 
1290	 0.760562328908601 
1291	 0.760601309311741 
1292	 0.760650555506089 
1293	 0.76067846337161 
1294	 0.760703171341139 
1295	 0.760703843466222 
1296	 0.760671163507911 
1297	 0.760663636038926 
1298	 0.760650256340583 
1299	 0.760640070522695 
1300	 0.760657764826631 
1301	 0.760646028809279 
1302	 0.760598023482635 
1303	 0.760578704948739 
1304	 0.76057351576863 
1305	 0.760552956857502 
1306	 0.760559989813819 
1307	 0.760530501253768 
1308	 0.760477914159851 
1309	 0.760398673400496 
1310	 0.760315535911148 
1311	 0.760203070985482 
1312	 0.760123537945554 
1313	 0.760059555248279 
1314	 0.759957841784328 
1315	 0.759845897425145 
1316	 0.759749889534727 
1317	 0.759624789457204 
1318	 0.759531235474116 
1319	 0.759480834191756 
1320	 0.759400339620149 
1321	 0.759320048380395 
1322	 0.759216217528033 
1323	 0.759110182463966 
1324	 0.75897621207469 
1325	 0.758810766113222 
1326	 0.758643574865104 
1327	 0.758474241468597 
1328	 0.758274486865456 
1329	 0.758047747252912 
1330	 0.757821920494642 
1331	 0.757579818419522 
1332	 0.757326064321151 
1333	 0.757081823548846 
1334	 0.756805187091849 
1335	 0.756521752993538 
1336	 0.756223525741197 
1337	 0.755897837255215 
1338	 0.755555078014562 
1339	 0.755203280241918 
1340	 0.754835149486255 
1341	 0.754435606137821 
1342	 0.754024094308631 
1343	 0.753588625873271 
1344	 0.75312462958112 
1345	 0.752632230180712 
1346	 0.752127342262111 
1347	 0.751591666239307 
1348	 0.75100443094897 
1349	 0.750425586117671 
1350	 0.749836606022395 
1351	 0.749233970327895 
1352	 0.748617555497056 
1353	 0.74799299524403 
1354	 0.747348810952043 
1355	 0.746710307571747 
1356	 0.746059879769026 
1357	 0.745420347623543 
1358	 0.744781477836109 
1359	 0.74414897269356 
1360	 0.743538936368565 
1361	 0.74291013324273 
1362	 0.742263611836868 
1363	 0.741638717510226 
1364	 0.740966997096158 
1365	 0.740288675786314 
1366	 0.73954387240134 
1367	 0.738764592854529 
1368	 0.737946606161217 
1369	 0.737080352793033 
1370	 0.736178848539525 
1371	 0.735234997531785 
1372	 0.734290932588866 
1373	 0.733321432024397 
1374	 0.732315921565464 
1375	 0.731287983182314 
1376	 0.73023827590072 
1377	 0.729125926428849 
1378	 0.728028528557316 
1379	 0.726938981898571 
1380	 0.725822697573724 
1381	 0.724702673622091 
1382	 0.723540345871631 
1383	 0.722345614765715 
1384	 0.721136568740634 
1385	 0.719886734769632 
1386	 0.718647739245511 
1387	 0.717357817413279 
1388	 0.716154064325165 
1389	 0.71496809565753 
1390	 0.713835288722873 
1391	 0.712798254823084 
1392	 0.711741301060362 
1393	 0.71075627386275 
1394	 0.709751458133414 
1395	 0.708728695790322 
1396	 0.707742879568469 
1397	 0.706656715791097 
1398	 0.705562205384638 
1399	 0.704310874792425 
1400	 0.702986178281635 
1401	 0.701533877479604 
1402	 0.699960437931618 
1403	 0.698281656755518 
1404	 0.69648386582624 
1405	 0.694639564343708 
1406	 0.692644994057023 
1407	 0.690697857686528 
1408	 0.688616858585732 
1409	 0.686737534217035 
1410	 0.684831263752854 
1411	 0.683171992465863 
1412	 0.681650546545344 
1413	 0.680349020276795 
1414	 0.679260674142841 
1415	 0.678287020682714 
1416	 0.67757544452242 
1417	 0.676845642502964 
1418	 0.676256664453816 
1419	 0.675621638344667 
1420	 0.675011697478566 
1421	 0.674399308485546 
1422	 0.673764836373551 
1423	 0.673154232022817 
1424	 0.672572356750861 
1425	 0.671957536938762 
1426	 0.671409384261133 
1427	 0.670905073989405 
1428	 0.670429797377292 
1429	 0.670017953007243 
1430	 0.669620268622834 
1431	 0.669246776065695 
1432	 0.668911290870956 
1433	 0.668610773635416 
1434	 0.668343311279771 
1435	 0.668108277069379 
1436	 0.667904040370294 
1437	 0.667734328655859 
1438	 0.667597883882227 
1439	 0.667495901803946 
1440	 0.667416673632453 
1441	 0.66738325424739 
1442	 0.66734261363642 
1443	 0.667316467228289 
1444	 0.66730227950263 
1445	 0.667298428327257 
1446	 0.667304250702113 
1447	 0.667325432391261 
1448	 0.667353996557576 
1449	 0.667378788284402 
1450	 0.667436846071267 
1451	 0.667526954907052 
1452	 0.667610163877502 
1453	 0.667726544873995 
1454	 0.667815167753337 
1455	 0.667883275895 
1456	 0.667959948491319 
1457	 0.668028800890838 
1458	 0.66810174241045 
1459	 0.668184899584642 
1460	 0.668261332635916 
1461	 0.668326650466079 
1462	 0.66840351948755 
1463	 0.668479242978044 
1464	 0.668562332129208 
1465	 0.668650251443567 
1466	 0.668752742072528 
1467	 0.668855623282786 
1468	 0.668975438696293 
1469	 0.669106925720692 
1470	 0.669227763068988 
1471	 0.669341116312378 
1472	 0.669459293589887 
1473	 0.669545103708156 
1474	 0.66960406232972 
1475	 0.669680085774855 
1476	 0.669755319511927 
1477	 0.66980097115396 
1478	 0.669855265900306 
1479	 0.669864047933406 
1480	 0.669825284365012 
1481	 0.66979090388526 
1482	 0.669734357692123 
1483	 0.669686210301723 
1484	 0.669642181924806 
1485	 0.669564766332721 
1486	 0.669484854742263 
1487	 0.669373452647809 
1488	 0.669212807045114 
1489	 0.669072860484669 
1490	 0.668905709057711 
1491	 0.668781239821654 
1492	 0.668661619535479 
1493	 0.668580902858942 
1494	 0.668544532131273 
1495	 0.668507022240766 
1496	 0.668491628833775 
1497	 0.668481964964418 
1498	 0.668478681753482 
1499	 0.668490294077125 
1500	 0.668506988593104 
1501	 0.668552620002333 
1502	 0.668617400868017 
1503	 0.668698100578963 
1504	 0.668809748526402 
1505	 0.668926555279091 
1506	 0.669055244654118 
1507	 0.669193700100801 
1508	 0.66934672020844 
1509	 0.669504879194326 
1510	 0.669667097931011 
1511	 0.66984385270232 
1512	 0.670042622696715 
1513	 0.670232898149989 
1514	 0.670421752173724 
1515	 0.670624295252249 
1516	 0.670830942596467 
1517	 0.671038806807431 
1518	 0.671263865927794 
1519	 0.671483947943255 
1520	 0.671703464836576 
1521	 0.671913949060749 
1522	 0.672125980191482 
1523	 0.672343364246686 
1524	 0.672548356393226 
1525	 0.672739421721934 
1526	 0.672956504518077 
1527	 0.6731721635264 
1528	 0.673412532774891 
1529	 0.673670305900645 
1530	 0.673946914265507 
1531	 0.674241648439367 
1532	 0.674542122185441 
1533	 0.67487256628745 
1534	 0.67517544322316 
1535	 0.675472874941597 
1536	 0.675768743427115 
1537	 0.676057889280064 
1538	 0.676343671777913 
1539	 0.676636159272012 
1540	 0.676902355903525 
1541	 0.677157186221521 
1542	 0.677394186251123 
1543	 0.67760808847516 
1544	 0.677823257641515 
1545	 0.678031175157593 
1546	 0.678223076988687 
1547	 0.678411324291418 
1548	 0.678575455972147 
1549	 0.678712042389628 
1550	 0.678853196023553 
1551	 0.678990505333813 
1552	 0.679104781935626 
1553	 0.679209195729402 
1554	 0.67929943525356 
1555	 0.679367747283091 
1556	 0.679427122843539 
1557	 0.679480973855068 
1558	 0.679515560356615 
1559	 0.679517405829399 
1560	 0.679538539035676 
1561	 0.679545733913762 
1562	 0.679578091885265 
1563	 0.679620641804465 
1564	 0.679681111210552 
1565	 0.679758340163847 
1566	 0.679846628957571 
1567	 0.679950744208147 
1568	 0.680066324539993 
1569	 0.68019621289027 
1570	 0.68033330549067 
1571	 0.68048909656814 
1572	 0.680640121550093 
1573	 0.680809650979951 
1574	 0.680951622129987 
1575	 0.681078902858678 
1576	 0.681207865580522 
1577	 0.68131620018036 
1578	 0.681437328554938 
1579	 0.681560990184808 
1580	 0.681694713278924 
1581	 0.68182663570506 
1582	 0.681976436349572 
1583	 0.682152205182007 
1584	 0.682316599076315 
1585	 0.682478181288523 
1586	 0.682654797153526 
1587	 0.682829807464973 
1588	 0.683017919432605 
1589	 0.68322736978615 
1590	 0.683435923909035 
1591	 0.683659429819143 
1592	 0.683866077475772 
1593	 0.684074620738116 
1594	 0.684271267350971 
1595	 0.684446488599533 
1596	 0.684627708050087 
1597	 0.684803765829084 
1598	 0.684983922236231 
1599	 0.685162197694326 
1600	 0.685348742779739 
1601	 0.685553551465389 
1602	 0.685738338015268 
1603	 0.685920517785841 
1604	 0.686092534259483 
1605	 0.686239874023246 
1606	 0.686397851737722 
1607	 0.6865705011974 
1608	 0.686720342142966 
1609	 0.68686871505919 
1610	 0.686996913386564 
1611	 0.687096489718505 
1612	 0.687194376674461 
1613	 0.68728087474558 
1614	 0.687363250813671 
1615	 0.687448337377133 
1616	 0.687510158858224 
1617	 0.68756398036292 
1618	 0.687595481514427 
1619	 0.687581030266247 
1620	 0.687593570519139 
1621	 0.687608731699896 
1622	 0.687617732575259 
1623	 0.68764592260733 
1624	 0.687654099011381 
1625	 0.687649003219919 
1626	 0.687631936816727 
1627	 0.687605466070747 
1628	 0.68756600507207 
1629	 0.687496226505654 
1630	 0.687441895691409 
1631	 0.687394471945171 
1632	 0.687334829696183 
1633	 0.68727825841724 
1634	 0.687214390075493 
1635	 0.687132581295414 
1636	 0.687055218303639 
1637	 0.687000257836971 
1638	 0.686902604846553 
1639	 0.686789091523361 
1640	 0.686653216095546 
1641	 0.686475030824019 
1642	 0.686297408093356 
1643	 0.686111936202337 
1644	 0.68590856699514 
1645	 0.685698619457488 
1646	 0.685465582136328 
1647	 0.685213791143821 
1648	 0.684941220885434 
1649	 0.684668823613302 
1650	 0.684330254445137 
1651	 0.683956045440244 
1652	 0.683543176802644 
1653	 0.683082183305651 
1654	 0.682573674984542 
1655	 0.682019600750583 
1656	 0.681425369417636 
1657	 0.680784348055284 
1658	 0.680091078546177 
1659	 0.679360852448048 
1660	 0.678583844599919 
1661	 0.677747797068347 
1662	 0.676868045547975 
1663	 0.675963425533231 
1664	 0.674964891256118 
1665	 0.673899410151753 
1666	 0.672756288495269 
1667	 0.671541170313525 
1668	 0.670256364875308 
1669	 0.668905524544746 
1670	 0.667470450120694 
1671	 0.665945876934415 
1672	 0.664337213244989 
1673	 0.662651995145899 
1674	 0.660872630713518 
1675	 0.658981343113151 
1676	 0.657091987182664 
1677	 0.655140878593465 
1678	 0.653143882095778 
1679	 0.651117371616023 
1680	 0.649005010325975 
1681	 0.646814393600214 
1682	 0.644565599299804 
1683	 0.642236444555674 
1684	 0.639939049873065 
1685	 0.63759396034078 
1686	 0.635255383323246 
1687	 0.632889387806144 
1688	 0.630549278879132 
1689	 0.628201042587923 
1690	 0.625860324159584 
1691	 0.623574952082752 
1692	 0.621288472072728 
1693	 0.618995680130614 
1694	 0.616699131045281 
1695	 0.614419465754152 
1696	 0.612073225618379 
1697	 0.609699089781589 
1698	 0.607272637096987 
1699	 0.604786215217426 
1700	 0.602378585518746 
1701	 0.599937543208303 
1702	 0.597593108268549 
1703	 0.595264014555127 
1704	 0.593068404305191 
1705	 0.590935712453405 
1706	 0.588869697217723 
1707	 0.587061284589001 
1708	 0.585289027034779 
1709	 0.58359960091928 
1710	 0.582032731382551 
1711	 0.580439375301284 
1712	 0.578930668427594 
1713	 0.577427120098296 
1714	 0.575927536777358 
1715	 0.574548486865504 
1716	 0.573131815293636 
1717	 0.571778826145055 
1718	 0.570523301735026 
1719	 0.569282109072574 
1720	 0.568188958935816 
1721	 0.56722826935136 
1722	 0.566375802176609 
1723	 0.565717720031147 
1724	 0.565230809938543 
1725	 0.564926045241271 
1726	 0.564892981016701 
1727	 0.565139937021729 
1728	 0.565627868695486 
1729	 0.566387267279314 
1730	 0.56741437433559 
1731	 0.568580889247119 
1732	 0.569972550937547 
1733	 0.571461087390368 
1734	 0.572993324988451 
1735	 0.574597672226824 
1736	 0.576099171969412 
1737	 0.577524128947967 
1738	 0.578817638457695 
1739	 0.579892574723226 
1740	 0.58082327042893 
1741	 0.581550996363017 
1742	 0.582050402794901 
1743	 0.582431220614195 
1744	 0.582588601957955 
1745	 0.582707436495187 
1746	 0.582681850472551 
1747	 0.582634510307763 
1748	 0.58250023082128 
1749	 0.582386425053496 
1750	 0.582203453578612 
1751	 0.582088441029451 
1752	 0.581957304197137 
1753	 0.5819220072805 
1754	 0.58192908856501 
1755	 0.582039049135912 
1756	 0.582221211160618 
1757	 0.582500617322583 
1758	 0.582913684911287 
1759	 0.583450159526403 
1760	 0.584180310365186 
1761	 0.585123722442622 
1762	 0.586151975390931 
1763	 0.587337447527004 
1764	 0.588619188908301 
1765	 0.590004498213642 
1766	 0.591586000361608 
1767	 0.59321613173324 
1768	 0.594920938706423 
1769	 0.596614468942845 
1770	 0.598158019543453 
1771	 0.599709392258845 
1772	 0.601166178752859 
1773	 0.602498766037187 
1774	 0.603823495415957 
1775	 0.604977060095934 
1776	 0.60606469131869 
1777	 0.607117404382868 
1778	 0.608016922117236 
1779	 0.608886173403612 
1780	 0.609662490896501 
1781	 0.610331614711023 
1782	 0.610994896755312 
1783	 0.611536284721881 
1784	 0.611998647677036 
1785	 0.612404004308415 
1786	 0.612757216065735 
1787	 0.61307246090213 
1788	 0.613342486751058 
1789	 0.613532469927565 
1790	 0.613722454679781 
1791	 0.613888904022747 
1792	 0.614039580992961 
1793	 0.614133922232828 
1794	 0.614258023570664 
1795	 0.614390907109088 
1796	 0.614514837385884 
1797	 0.614726253529149 
1798	 0.614928998837475 
1799	 0.615106246525613 
1800	 0.615312357084143 
1801	 0.615982831467778 
1802	 0.616174630961988 
1803	 0.61635993074116 
1804	 0.616555440014763 
1805	 0.616768944473384 
1806	 0.616959590409051 
1807	 0.617134618567891 
1808	 0.617311476229682 
1809	 0.617475595969986 
1810	 0.617661299300431 
1811	 0.6178382182286 
1812	 0.618038554166467 
1813	 0.618250188754306 
1814	 0.618499178310562 
1815	 0.618735882257877 
1816	 0.618996579934786 
1817	 0.619257411416011 
1818	 0.61952472871293 
1819	 0.61979382553272 
1820	 0.620069019354689 
1821	 0.620348827323106 
1822	 0.62062702893984 
1823	 0.620934754254301 
1824	 0.621229553982071 
1825	 0.621521240790753 
1826	 0.621789608427551 
1827	 0.622029550387018 
1828	 0.622293898185996 
1829	 0.6225374579365 
1830	 0.622811244079621 
1831	 0.623100457814766 
1832	 0.623423913705113 
1833	 0.623731292831494 
1834	 0.624044064839175 
1835	 0.624348895934972 
1836	 0.624616440349926 
1837	 0.62491637296558 
1838	 0.625230184106895 
1839	 0.625524984145513 
1840	 0.625836979469246 
1841	 0.626127404812909 
1842	 0.626402876658077 
1843	 0.626649544242507 
1844	 0.626904957628847 
1845	 0.627146606747952 
1846	 0.627349075166899 
1847	 0.627526499002892 
1848	 0.62768358685778 
1849	 0.627810677810363 
1850	 0.627921168259742 
1851	 0.628009492106297 
1852	 0.628095169193346 
1853	 0.628149143267489 
1854	 0.628177167168602 
1855	 0.628164067161027 
1856	 0.628111238427513 
1857	 0.628025001451638 
1858	 0.627900232543586 
1859	 0.627773360918197 
1860	 0.627652405544446 
1861	 0.627467468049083 
1862	 0.627255587720025 
1863	 0.627018763740628 
1864	 0.626686293578502 
1865	 0.626317961297203 
1866	 0.625917237854383 
1867	 0.625435092141709 
1868	 0.624933896091196 
1869	 0.624342654528607 
1870	 0.623679638309271 
1871	 0.62294363339077 
1872	 0.622163913508751 
1873	 0.621316312900527 
1874	 0.620442198846457 
1875	 0.619508808068044 
1876	 0.618420621632918 
1877	 0.61729077391668 
1878	 0.616029124786064 
1879	 0.61463377457137 
1880	 0.61323160480828 
1881	 0.611682809092498 
1882	 0.610006111598065 
1883	 0.60824529365268 
1884	 0.606374504308104 
1885	 0.604262898964934 
1886	 0.602096265133941 
1887	 0.599734053698565 
1888	 0.597127419212432 
1889	 0.594586985609579 
1890	 0.591859573738282 
1891	 0.589073265788329 
1892	 0.586294012601503 
1893	 0.58337164624986 
1894	 0.580278366492106 
1895	 0.577253318954771 
1896	 0.574138122199945 
1897	 0.570975854420744 
1898	 0.568043833304307 
1899	 0.565038825040589 
1900	 0.562103295626336 
1901	 0.55928586491289 
1902	 0.556317242559269 
1903	 0.553506154325288 
1904	 0.550725688126477 
1905	 0.547959421851304 
1906	 0.545209672090789 
1907	 0.542753161848956 
1908	 0.540268173364119 
1909	 0.537888150787237 
1910	 0.53568874564258 
1911	 0.533407889657998 
1912	 0.531263062652845 
1913	 0.529203748147917 
1914	 0.527184294621453 
1915	 0.525342695656767 
1916	 0.523676160268169 
1917	 0.522046620503599 
1918	 0.520514314097387 
1919	 0.519117278122876 
1920	 0.517709154682913 
1921	 0.516405898042363 
1922	 0.515173189113408 
1923	 0.514014060523921 
1924	 0.513004721652247 
1925	 0.512028277299665 
1926	 0.511141995653821 
1927	 0.510373801957847 
1928	 0.509629670129256 
1929	 0.508923555355747 
1930	 0.508321070222545 
1931	 0.507772004485539 
1932	 0.507278046537049 
1933	 0.506897262866166 
1934	 0.506581970349105 
1935	 0.506333239932239 
1936	 0.506156199440911 
1937	 0.506006942456001 
1938	 0.505884538811492 
1939	 0.505852784039969 
1940	 0.505890372326926 
1941	 0.505960415105223 
1942	 0.506087035052252 
1943	 0.506277286065626 
1944	 0.506449635678972 
1945	 0.506643897483515 
1946	 0.506935306848917 
1947	 0.507238657095629 
1948	 0.507576292643909 
1949	 0.507969216670714 
1950	 0.508353847185839 
1951	 0.508739575877145 
1952	 0.509160376986645 
1953	 0.509608024955553 
1954	 0.51005737170301 
1955	 0.510545133111441 
1956	 0.511002824162527 
1957	 0.511466188450799 
1958	 0.511922859283132 
1959	 0.51233393346276 
1960	 0.512753071874592 
1961	 0.513148177694678 
1962	 0.513497723900475 
1963	 0.513881468871032 
1964	 0.514285561675617 
1965	 0.514645681060222 
1966	 0.514990322387492 
1967	 0.515345922056382 
1968	 0.51567052027771 
1969	 0.51601708264752 
1970	 0.516392309423974 
1971	 0.516763407759487 
1972	 0.517117868975778 
1973	 0.5174580802102 
1974	 0.517825818003895 
1975	 0.518213155468302 
1976	 0.518591983799014 
1977	 0.518983615546004 
1978	 0.519371534833992 
1979	 0.519755413003902 
1980	 0.520127102561843 
1981	 0.520517535362143 
1982	 0.520910591430673 
1983	 0.521333712472832 
1984	 0.521758184597313 
1985	 0.52214723159259 
1986	 0.522561371427565 
1987	 0.522964049995788 
1988	 0.523331572148648 
1989	 0.523733423892537 
1990	 0.524176462281927 
1991	 0.524575965594208 
1992	 0.524971751516009 
1993	 0.525360648481623 
1994	 0.525690682535607 
1995	 0.526024530128065 
1996	 0.526359995170445 
1997	 0.526689256423227 
1998	 0.527016564522629 
1999	 0.527355744966088 
2000	 0.527663733436651 
2001	 0.527951154106579 
2002	 0.528233384375033 
2003	 0.528517397091788 
2004	 0.528771737559867 
2005	 0.529012051094594 
2006	 0.529231543584044 
2007	 0.529434452600071 
2008	 0.529591408070991 
2009	 0.52973416238995 
2010	 0.529866195522181 
2011	 0.529979698639522 
2012	 0.530067530700323 
2013	 0.530121007881581 
2014	 0.530162459585505 
2015	 0.530151930656053 
2016	 0.53010340379462 
2017	 0.530009068485755 
2018	 0.529866277952116 
2019	 0.529699188582347 
2020	 0.529504778497686 
2021	 0.529252380530276 
2022	 0.52895918129272 
2023	 0.528609734865261 
2024	 0.528189227755708 
2025	 0.527731797365676 
2026	 0.527235944326265 
2027	 0.526685459767343 
2028	 0.526127897266235 
2029	 0.525530659147892 
2030	 0.524914463093516 
2031	 0.524287928796149 
2032	 0.523630026139918 
2033	 0.522916081970745 
2034	 0.52222258273099 
2035	 0.521517429294173 
2036	 0.520787978613686 
2037	 0.520117155884999 
2038	 0.51945282229451 
2039	 0.518803812925324 
2040	 0.518175310734523 
2041	 0.517570954567991 
2042	 0.516956584736446 
2043	 0.516417469059691 
2044	 0.515923951117218 
2045	 0.515464253227193 
2046	 0.515049733944096 
2047	 0.514669979338156 
2048	 0.514304397376884 
2049	 0.514016072410128 
2050	 0.513783488403665 
2051	 0.513611147637629 
2052	 0.513476891194996 
2053	 0.513404218131276 
2054	 0.513396435268072 
2055	 0.513431602911704 
2056	 0.513545187148902 
2057	 0.513724082310142 
2058	 0.513994102186964 
2059	 0.514353182469629 
2060	 0.514752738475363 
2061	 0.515260439288298 
2062	 0.515774676377891 
2063	 0.516302518280441 
2064	 0.516899994689974 
2065	 0.517562336821181 
2066	 0.518264827126555 
2067	 0.519008017179677 
2068	 0.519732522565619 
2069	 0.520427747875173 
2070	 0.521114176453822 
2071	 0.521772306337507 
2072	 0.522418954913353 
2073	 0.52302316082985 
2074	 0.523591573923984 
2075	 0.524143427326276 
2076	 0.524671504268839 
2077	 0.525155215262007 
2078	 0.525628009754969 
2079	 0.526045852159565 
2080	 0.526394217802369 
2081	 0.5267347734738 
2082	 0.527052619135537 
2083	 0.527325408624081 
2084	 0.527592491200733 
2085	 0.527804454002581 
2086	 0.527986323368712 
2087	 0.528135572367488 
2088	 0.528236827533741 
2089	 0.528288444544238 
2090	 0.528324841653109 
2091	 0.528305313413642 
2092	 0.528293494866247 
2093	 0.528289776235416 
2094	 0.528228540990981 
2095	 0.528137373673313 
2096	 0.528020742265924 
2097	 0.527869327541644 
2098	 0.52767023853654 
2099	 0.52747421653533 
2100	 0.527249628837451 
2101	 0.52698624871677 
2102	 0.526685646988566 
2103	 0.526368833592084 
2104	 0.526011591560765 
2105	 0.525654869213639 
2106	 0.525288067252818 
2107	 0.524892490887328 
2108	 0.524480246399636 
2109	 0.524043004273738 
2110	 0.523586916432582 
2111	 0.523096611185083 
2112	 0.522559240157047 
2113	 0.522031514114606 
2114	 0.521460123889039 
2115	 0.520911366596439 
2116	 0.520386171756492 
2117	 0.519860830676136 
2118	 0.51929743139353 
2119	 0.518721970803384 
2120	 0.518150848057758 
2121	 0.517531936980817 
2122	 0.516970745705994 
2123	 0.516454834225962 
2124	 0.515901731114178 
2125	 0.515375232867149 
2126	 0.514798274996674 
2127	 0.51417784368557 
2128	 0.513566725115653 
2129	 0.512907029331804 
2130	 0.512294909001245 
2131	 0.511722657836244 
2132	 0.511123768494501 
2133	 0.51053277586842 
2134	 0.509959241480696 
2135	 0.509310230311297 
2136	 0.508627900099209 
2137	 0.507951322969448 
2138	 0.507239531066794 
2139	 0.506546768510291 
2140	 0.505863041393687 
2141	 0.505167128589613 
2142	 0.504463559645325 
2143	 0.503762259776756 
2144	 0.503035392881021 
2145	 0.502358901039777 
2146	 0.501699670300741 
2147	 0.501056715551465 
2148	 0.500478573962522 
2149	 0.49984756782643 
2150	 0.499195098703393 
2151	 0.498551247140372 
2152	 0.49786532925493 
2153	 0.497232008355958 
2154	 0.496612815887119 
2155	 0.495966975054722 
2156	 0.49533219020602 
2157	 0.494694258641674 
2158	 0.494065744477015 
2159	 0.493447800402424 
2160	 0.492816195398346 
2161	 0.492166198207967 
2162	 0.491563898897995 
2163	 0.49094544614847 
2164	 0.490397124005722 
2165	 0.489899575237219 
2166	 0.489435092587055 
2167	 0.489016648492138 
2168	 0.488623113706718 
2169	 0.488238934980353 
2170	 0.487936468076888 
2171	 0.487676622279255 
2172	 0.487475526213114 
2173	 0.487359803140742 
2174	 0.487285830814852 
2175	 0.487211643004068 
2176	 0.48719981667673 
2177	 0.487218376139976 
2178	 0.487285727491084 
2179	 0.487334192476124 
2180	 0.487418869707007 
2181	 0.487494256515935 
2182	 0.487540889833675 
2183	 0.487653051017579 
2184	 0.487798629926865 
2185	 0.48796499113663 
2186	 0.488190770161398 
2187	 0.488377458483167 
2188	 0.488554376270288 
2189	 0.488766141427489 
2190	 0.488993876644257 
2191	 0.489203155658652 
2192	 0.489458128048511 
2193	 0.489662193162282 
2194	 0.489801981166256 
2195	 0.48996560367544 
2196	 0.490134771812446 
2197	 0.490288032183094 
2198	 0.490432179451512 
2199	 0.490570089364661 
2200	 0.490664764745029 
2201	 0.490719670028527 
2202	 0.490770515308298 
2203	 0.490787894097239 
2204	 0.490826367696326 
2205	 0.490865370818993 
2206	 0.490888036166232 
2207	 0.490935388037472 
2208	 0.490911038592507 
2209	 0.490813285723007 
2210	 0.490765477531316 
2211	 0.49069015113316 
2212	 0.490645395218837 
2213	 0.490666220431595 
2214	 0.490631096559576 
2215	 0.490571596921596 
2216	 0.49050374021104 
2217	 0.490414377192477 
2218	 0.490319241690073 
2219	 0.490269352615406 
2220	 0.490122212696287 
2221	 0.489929517607629 
2222	 0.489678047826933 
2223	 0.489404474340577 
2224	 0.489031355962285 
2225	 0.488623972160095 
2226	 0.488197791238016 
2227	 0.487640067521496 
2228	 0.486991680558485 
2229	 0.486247612787049 
2230	 0.485385862985715 
2231	 0.484483893064534 
2232	 0.483514870767414 
2233	 0.482425048070064 
2234	 0.481271931223964 
2235	 0.480000105625352 
2236	 0.478590381856322 
2237	 0.477110727164729 
2238	 0.47551567607075 
2239	 0.473876113223168 
2240	 0.472134638594188 
2241	 0.470351820191102 
2242	 0.46856917763361 
2243	 0.466643737989645 
2244	 0.464593501055565 
2245	 0.462510561376564 
2246	 0.460232813350496 
2247	 0.458048441336083 
2248	 0.455879576467686 
2249	 0.453701620591813 
2250	 0.451556753816834 
2251	 0.449430930447665 
2252	 0.44714823226086 
2253	 0.444922699343567 
2254	 0.442646006979993 
2255	 0.440418525463866 
2256	 0.438395523190686 
2257	 0.436319073768985 
2258	 0.434333585247836 
2259	 0.43246713798946 
2260	 0.43053209919443 
2261	 0.428570516589266 
2262	 0.426730125548661 
2263	 0.424868419660976 
2264	 0.423168593867581 
2265	 0.421650405476986 
2266	 0.420066995717692 
2267	 0.41858543561471 
2268	 0.417024635208543 
2269	 0.415366341615779 
2270	 0.413853900592577 
2271	 0.412346523790944 
2272	 0.410936032609046 
2273	 0.409696118604822 
2274	 0.408389407360857 
2275	 0.407116439428259 
2276	 0.405833474042132 
2277	 0.40458586418586 
2278	 0.403252086982811 
2279	 0.401864246953594 
2280	 0.400466447505284 
2281	 0.399026604033738 
2282	 0.397544343584701 
2283	 0.396038523760031 
2284	 0.394544740261656 
2285	 0.392899347112341 
2286	 0.391247116050116 
2287	 0.389550168416918 
2288	 0.387737478270665 
2289	 0.386002969008011 
2290	 0.384191219875059 
2291	 0.382347318917817 
2292	 0.380575240123459 
2293	 0.378636821448501 
2294	 0.376679979068647 
2295	 0.374800662776528 
2296	 0.372933257639458 
2297	 0.371272750618172 
2298	 0.369750252876101 
2299	 0.368370465533166 
2300	 0.367108370409711 
2301	 0.366065485132703 
2302	 0.365157513003763 
2303	 0.364562819620583 
2304	 0.364170661432104 
2305	 0.36413153378628 
2306	 0.364419402104377 
2307	 0.364949200203846 
2308	 0.365783612009523 
2309	 0.366920278119822 
2310	 0.368383903315441 
2311	 0.370051298573783 
2312	 0.37219883124868 
2313	 0.374238616732996 
2314	 0.376517185075149 
2315	 0.378648834249392 
2316	 0.380791038113659 
2317	 0.382805523250965 
2318	 0.384872938916943 
2319	 0.386589811468629 
2320	 0.388155223463441 
2321	 0.389466468588446 
2322	 0.39043076055968 
2323	 0.391286607910278 
2324	 0.391950529772984 
2325	 0.392440241732987 
2326	 0.392724774063346 
2327	 0.39285499484695 
2328	 0.392767394232104 
2329	 0.392574132987391 
2330	 0.39223727974998 
2331	 0.391728530147397 
2332	 0.391083515040666 
2333	 0.390314026930492 
2334	 0.389307476375494 
2335	 0.388204654120597 
2336	 0.386972151233497 
2337	 0.385571894233244 
2338	 0.384231190473445 
2339	 0.38277652960906 
2340	 0.381330610916587 
2341	 0.379987624341064 
2342	 0.378570442465886 
2343	 0.377326984594495 
2344	 0.376322375835988 
2345	 0.375552359738315 
2346	 0.375141164420941 
2347	 0.375091925576442 
2348	 0.375340364123177 
2349	 0.375989917652273 
2350	 0.376999607782744 
2351	 0.378282285087728 
2352	 0.379799294376382 
2353	 0.381498984418991 
2354	 0.383154461835472 
2355	 0.384818919796733 
2356	 0.386404694707811 
2357	 0.387743963297838 
2358	 0.389008658547986 
2359	 0.39002680819424 
2360	 0.390856712322034 
2361	 0.3915018788486 
2362	 0.391931866733901 
2363	 0.392316449457121 
2364	 0.392618808321695 
2365	 0.392843105544745 
2366	 0.393095097578826 
2367	 0.393282736068985 
2368	 0.393391157309625 
2369	 0.393524396859384 
2370	 0.393629901859064 
2371	 0.393798247009292 
2372	 0.394022485661904 
2373	 0.394175877447068 
2374	 0.394312863283477 
2375	 0.394399936761995 
2376	 0.394434629797431 
2377	 0.394503125018335 
2378	 0.394609569660986 
2379	 0.394795772990029 
2380	 0.394976217909307 
2381	 0.395129505890344 
2382	 0.395271779071351 
2383	 0.395357068403869 
2384	 0.395478935070676 
2385	 0.395596706558658 
2386	 0.395760403499549 
2387	 0.396018353584488 
2388	 0.396167224586685 
2389	 0.396284843326137 
2390	 0.39637276954964 
2391	 0.396377231824018 
2392	 0.396370006387237 
2393	 0.396336334581419 
2394	 0.396400213989416 
2395	 0.396458613087036 
2396	 0.396545228172483 
2397	 0.396715855012736 
2398	 0.396811280628144 
2399	 0.396885822225197 
2400	 0.396994803584679 
2401	 0.397099151248965 
2402	 0.397167102536645 
2403	 0.397287378343661 
2404	 0.397231628092139 
2405	 0.397252352177968 
2406	 0.39743097762368 
2407	 0.397434348838905 
2408	 0.397589665161061 
2409	 0.397847682035196 
2410	 0.397883241032658 
2411	 0.397874295376933 
2412	 0.397853901781194 
2413	 0.39789172552933 
2414	 0.398087067222692 
2415	 0.398258005045964 
2416	 0.398329744423283 
2417	 0.398318292404485 
2418	 0.398190070633722 
2419	 0.398177298944557 
2420	 0.39811673913043 
2421	 0.397935701293391 
2422	 0.397928199120979 
2423	 0.397935091353946 
2424	 0.398077531095455 
2425	 0.398325797175694 
2426	 0.398273585321612 
2427	 0.398098138032221 
2428	 0.397953386263618 
2429	 0.397879768472323 
2430	 0.39796172620541 
2431	 0.397927002573462 
2432	 0.397677546194472 
2433	 0.397266140727572 
2434	 0.396851444699096 
2435	 0.396629205634054 
2436	 0.396514917849503 
2437	 0.396438019244593 
2438	 0.396451327170366 
2439	 0.396425829868528 
2440	 0.396170288211484 
2441	 0.39587890327421 
2442	 0.395559610512983 
2443	 0.395130619212965 
2444	 0.394846060937323 
2445	 0.39456364963656 
2446	 0.394150026765087 
2447	 0.393705607595899 
2448	 0.393188154676128 
2449	 0.392755330288951 
2450	 0.39224545070467 
2451	 0.391645583876241 
2452	 0.391222894328922 
2453	 0.390837683216868 
2454	 0.390647606989366 
2455	 0.390507338060783 
2456	 0.390092293840642 
2457	 0.389615733804881 
2458	 0.389067752490416 
2459	 0.388506152477977 
2460	 0.38825370201586 
2461	 0.388184534583043 
2462	 0.387952373410446 
2463	 0.387741655494204 
2464	 0.387454937957759 
2465	 0.386924589452996 
2466	 0.386587726969887 
2467	 0.386353922906251 
2468	 0.386239644582787 
2469	 0.386202191805483 
2470	 0.385969133090859 
2471	 0.385746206225706 
2472	 0.385460116699444 
2473	 0.385430108621339 
2474	 0.385558501361571 
2475	 0.385676264035124 
2476	 0.386089974209255 
2477	 0.386343918814626 
2478	 0.386438782115284 
2479	 0.386517345948797 
2480	 0.386168553037472 
2481	 0.38591875257974 
2482	 0.385787733968605 
2483	 0.385648364465876 
2484	 0.385680404370069 
2485	 0.385766047619859 
2486	 0.386041748681081 
2487	 0.386585193100139 
2488	 0.386803674646601 
2489	 0.387163168215358 
2490	 0.387398960863418 
2491	 0.38726629488396 
2492	 0.38753597846113 
2493	 0.387722038320195 
2494	 0.387745812461015 
2495	 0.388056099321789 
2496	 0.388288212134254 
2497	 0.388726474645988 
2498	 0.3892903288477 
2499	 0.389537683951646 
2500	 0.389798414710208 
