Wavelength	spectrum00017.asd
350	 0.12728642276723 
351	 0.124105083525593 
352	 0.120429527008747 
353	 0.118379564488363 
354	 0.119912709275353 
355	 0.118483419469339 
356	 0.116355212122239 
357	 0.115833880320983 
358	 0.112705168402667 
359	 0.112132047067987 
360	 0.113381248839825 
361	 0.112988806996954 
362	 0.112592210872543 
363	 0.112667134978747 
364	 0.112998905038451 
365	 0.112620629828617 
366	 0.112775852068327 
367	 0.113697842063229 
368	 0.115013325019962 
369	 0.11525603441012 
370	 0.116082922989714 
371	 0.117299457114415 
372	 0.117765136179524 
373	 0.118196564388524 
374	 0.11901378926832 
375	 0.120195347385181 
376	 0.121153206221373 
377	 0.122578602164648 
378	 0.123512107653642 
379	 0.123496421547387 
380	 0.125122205526844 
381	 0.127709910352515 
382	 0.129747631355162 
383	 0.129801273188665 
384	 0.131395896580723 
385	 0.133431334164697 
386	 0.134740249227103 
387	 0.134858104028666 
388	 0.136215434397108 
389	 0.138154273204057 
390	 0.139555762322496 
391	 0.141078171800255 
392	 0.142890468277739 
393	 0.144675359162918 
394	 0.145886652655925 
395	 0.146881179801798 
396	 0.148604798501841 
397	 0.150974075194196 
398	 0.152069841388441 
399	 0.154188650422757 
400	 0.156520741149408 
401	 0.157858296572155 
402	 0.159167829995942 
403	 0.161589844603984 
404	 0.164238939152537 
405	 0.16504462689303 
406	 0.167121916586582 
407	 0.169288988137295 
408	 0.170892720954026 
409	 0.173653159039554 
410	 0.175477542239623 
411	 0.17721464052751 
412	 0.180099184986682 
413	 0.182230185691489 
414	 0.184135058600918 
415	 0.186236031182048 
416	 0.188693689197726 
417	 0.190909069674113 
418	 0.193487018417332 
419	 0.196556862173478 
420	 0.198651549587199 
421	 0.200753209257874 
422	 0.20329903219312 
423	 0.206323316901136 
424	 0.208907458146593 
425	 0.211289949034493 
426	 0.213707927491348 
427	 0.216275742555409 
428	 0.218933877332897 
429	 0.221638097540168 
430	 0.224325257353378 
431	 0.226885139755723 
432	 0.229493606965918 
433	 0.232161533822459 
434	 0.234834389580391 
435	 0.237707372412293 
436	 0.240583274735036 
437	 0.243321534373687 
438	 0.245909744066617 
439	 0.248661649142765 
440	 0.251477359518218 
441	 0.254191431030586 
442	 0.256939778976909 
443	 0.25971895938717 
444	 0.262484439960342 
445	 0.26517688667088 
446	 0.267911687438113 
447	 0.270625513173308 
448	 0.273301946617513 
449	 0.276095536347462 
450	 0.278890316334161 
451	 0.2815495666951 
452	 0.284017788220798 
453	 0.286758372022608 
454	 0.289495534537313 
455	 0.292089116293839 
456	 0.294622786528791 
457	 0.297197788391108 
458	 0.299749540837917 
459	 0.302233366807174 
460	 0.304777764691517 
461	 0.307239403204913 
462	 0.309612376292159 
463	 0.311960681138244 
464	 0.31420670201782 
465	 0.316418271589466 
466	 0.318606739288601 
467	 0.320674102807797 
468	 0.322752310128243 
469	 0.324847478587279 
470	 0.326902709706205 
471	 0.328760191019962 
472	 0.330521739778499 
473	 0.332213515727897 
474	 0.333798890114778 
475	 0.335405588437366 
476	 0.336991642857776 
477	 0.338477876475844 
478	 0.339762754154603 
479	 0.340993066743574 
480	 0.342168833240856 
481	 0.343232931869402 
482	 0.344164419658566 
483	 0.344998476277456 
484	 0.345782924647332 
485	 0.346568814592516 
486	 0.34725840115438 
487	 0.347811091666468 
488	 0.348199550559017 
489	 0.348370046851937 
490	 0.348493347012771 
491	 0.348619133930845 
492	 0.348698070349737 
493	 0.348527653183282 
494	 0.348256600063194 
495	 0.347969833914679 
496	 0.347581087443246 
497	 0.346993821526602 
498	 0.346262533059936 
499	 0.3454853262086 
500	 0.344696151660236 
501	 0.343786277059433 
502	 0.342756674434488 
503	 0.341703550571469 
504	 0.340539411204027 
505	 0.339266139889168 
506	 0.337911083611312 
507	 0.336533079641592 
508	 0.334994636114518 
509	 0.333373042381479 
510	 0.33181008990044 
511	 0.330147234052852 
512	 0.328424689575579 
513	 0.326669699414187 
514	 0.324867704293461 
515	 0.322911668643242 
516	 0.320974688185755 
517	 0.319177455029649 
518	 0.317207372270197 
519	 0.315167577985185 
520	 0.313126161088681 
521	 0.311115097916611 
522	 0.309099092560794 
523	 0.307059973218673 
524	 0.30499152093218 
525	 0.302898435267628 
526	 0.300772874376427 
527	 0.298689885522903 
528	 0.296713312151093 
529	 0.294699680483485 
530	 0.292600036221513 
531	 0.290462300943415 
532	 0.288427903847883 
533	 0.286384900829206 
534	 0.284341561379959 
535	 0.282315275271343 
536	 0.280257034017971 
537	 0.278246472937815 
538	 0.276262196746804 
539	 0.27424269656516 
540	 0.272345894287296 
541	 0.270490671764699 
542	 0.268622049799801 
543	 0.266770516498506 
544	 0.264998352565028 
545	 0.263245051312394 
546	 0.261462860554936 
547	 0.259830357480821 
548	 0.25829699155619 
549	 0.256809658083108 
550	 0.255324994531663 
551	 0.253860341919511 
552	 0.252441876267989 
553	 0.251080905159569 
554	 0.249756936916206 
555	 0.248420909392344 
556	 0.247162758888457 
557	 0.246097115497865 
558	 0.244968872023204 
559	 0.24388788420743 
560	 0.242880638245459 
561	 0.241813001528644 
562	 0.240672316755955 
563	 0.239519813097275 
564	 0.238424013278913 
565	 0.237374393430056 
566	 0.236391868435524 
567	 0.235488168687261 
568	 0.234668086976574 
569	 0.233949681053087 
570	 0.233311593809652 
571	 0.232762194143667 
572	 0.232415222215948 
573	 0.23195030147993 
574	 0.231399031166897 
575	 0.230908072453003 
576	 0.230392684791204 
577	 0.229797902258083 
578	 0.229188737021236 
579	 0.228760082703168 
580	 0.228452418245156 
581	 0.228190102246846 
582	 0.22792344061617 
583	 0.227702214496902 
584	 0.227553402051998 
585	 0.227421322806625 
586	 0.22722762640239 
587	 0.227170604304869 
588	 0.227225733488842 
589	 0.227324115411918 
590	 0.227375225059236 
591	 0.227416289138035 
592	 0.227480662009646 
593	 0.227566049215537 
594	 0.227504379997777 
595	 0.227492522006376 
596	 0.227567274460447 
597	 0.227621293562377 
598	 0.227778273964601 
599	 0.228008205206694 
600	 0.228284394724687 
601	 0.228658515658274 
602	 0.229085566284157 
603	 0.22954784245087 
604	 0.230047377552967 
605	 0.230635984108937 
606	 0.231264861443626 
607	 0.231911927767004 
608	 0.232598155566978 
609	 0.233246892145605 
610	 0.233933530742926 
611	 0.234722687124039 
612	 0.235510702273324 
613	 0.236284868440043 
614	 0.237058082921426 
615	 0.237866246118849 
616	 0.238764854021355 
617	 0.239710613317339 
618	 0.24067409764978 
619	 0.24167980985873 
620	 0.242723060808653 
621	 0.243798048710151 
622	 0.24489630799136 
623	 0.245992033532796 
624	 0.247198444968342 
625	 0.248491192832129 
626	 0.249723104008226 
627	 0.251003458350609 
628	 0.252355324467986 
629	 0.253765823319747 
630	 0.255171110035593 
631	 0.256623318443246 
632	 0.258151861601025 
633	 0.259759836034759 
634	 0.261375328554243 
635	 0.262976755420144 
636	 0.26459488006844 
637	 0.266311624704454 
638	 0.268106414007417 
639	 0.269940172298752 
640	 0.271788394121738 
641	 0.273688071297197 
642	 0.27563545499903 
643	 0.277639300926623 
644	 0.279713843191803 
645	 0.281847408109433 
646	 0.284010373519289 
647	 0.286202899050581 
648	 0.288478979053302 
649	 0.29084560641939 
650	 0.293216555740543 
651	 0.295539436003198 
652	 0.298040564624649 
653	 0.300583636612997 
654	 0.303170611623391 
655	 0.305909341441909 
656	 0.308657647701443 
657	 0.311395087356623 
658	 0.314166380499939 
659	 0.317123367959046 
660	 0.320090853062781 
661	 0.323107299297945 
662	 0.326257166496321 
663	 0.329426384538736 
664	 0.332644454177567 
665	 0.335938613199304 
666	 0.339318270460965 
667	 0.34274081242851 
668	 0.346176518286806 
669	 0.34963770082439 
670	 0.353241179353696 
671	 0.356980337925814 
672	 0.360741051089784 
673	 0.364420865654843 
674	 0.36832827435817 
675	 0.372301184162865 
676	 0.376261737928775 
677	 0.380282911664413 
678	 0.384376653117379 
679	 0.388461326748261 
680	 0.392520607041629 
681	 0.39680352129645 
682	 0.401112709813787 
683	 0.405370043731333 
684	 0.409593847224344 
685	 0.413934310419071 
686	 0.418396980222206 
687	 0.422915159184685 
688	 0.42735235830478 
689	 0.43176901540477 
690	 0.436274126709158 
691	 0.440899424619695 
692	 0.445345224270308 
693	 0.449839729882276 
694	 0.45441942590089 
695	 0.458986064165799 
696	 0.463560010026925 
697	 0.468084242754375 
698	 0.472577833619466 
699	 0.477195829136639 
700	 0.481690589297752 
701	 0.486163357333173 
702	 0.490726167814006 
703	 0.495120172518761 
704	 0.499486131215299 
705	 0.503898537484822 
706	 0.508357410458992 
707	 0.512694326121821 
708	 0.516940081688214 
709	 0.521113388565637 
710	 0.525152914087252 
711	 0.529233222921499 
712	 0.533338362573324 
713	 0.537386255607153 
714	 0.541326399162577 
715	 0.54510441892581 
716	 0.548756276769744 
717	 0.552382729557301 
718	 0.556081849932924 
719	 0.559718986481399 
720	 0.563203187465914 
721	 0.566570244130951 
722	 0.569859082260642 
723	 0.573112852746651 
724	 0.576341837865925 
725	 0.579456059428901 
726	 0.582489043120697 
727	 0.585434788081076 
728	 0.588264104545728 
729	 0.59102022580077 
730	 0.593702770233328 
731	 0.596303519407862 
732	 0.598810695149409 
733	 0.601290537740287 
734	 0.60368948027565 
735	 0.605983471534079 
736	 0.6084058267782 
737	 0.610662621955684 
738	 0.612725714882326 
739	 0.614750487890556 
740	 0.616762539026661 
741	 0.618713525317366 
742	 0.620599573869159 
743	 0.622505678258376 
744	 0.624288288301199 
745	 0.62598151932456 
746	 0.627636069295197 
747	 0.629182754579078 
748	 0.630681492603203 
749	 0.632192999708164 
750	 0.633738592366864 
751	 0.63507323218697 
752	 0.636256492972959 
753	 0.637442171527181 
754	 0.638848111935181 
755	 0.64026682513674 
756	 0.641534259690976 
757	 0.642616314376203 
758	 0.64380827381164 
759	 0.644843341032774 
760	 0.64578560583968 
761	 0.64683113870968 
762	 0.647950157354199 
763	 0.648899956470879 
764	 0.649698542797295 
765	 0.650647104624492 
766	 0.651583953169793 
767	 0.652497784224278 
768	 0.653383979210925 
769	 0.65418034890617 
770	 0.655033394192472 
771	 0.655860853539757 
772	 0.656545712399127 
773	 0.657227733867535 
774	 0.658069506394211 
775	 0.658963605861033 
776	 0.659615957623789 
777	 0.660250178028029 
778	 0.660950968514056 
779	 0.661692479154148 
780	 0.662296574895767 
781	 0.662961882022641 
782	 0.663654539275916 
783	 0.664297013707654 
784	 0.664906150840445 
785	 0.665500811301695 
786	 0.666093117708552 
787	 0.666684328094679 
788	 0.667242829774119 
789	 0.667782542502105 
790	 0.668301454360153 
791	 0.668778543344042 
792	 0.669334375543831 
793	 0.669910086012585 
794	 0.670425219525814 
795	 0.67083390516457 
796	 0.671275001639177 
797	 0.671821182515558 
798	 0.672461002197796 
799	 0.672964038131769 
800	 0.673347173105357 
801	 0.673694957349021 
802	 0.674122840061356 
803	 0.674569026499744 
804	 0.675091073093312 
805	 0.675656440662734 
806	 0.676084835079448 
807	 0.676467453636345 
808	 0.676841401201387 
809	 0.677240405612179 
810	 0.67773079529376 
811	 0.678165729331956 
812	 0.678596328010987 
813	 0.679118410784432 
814	 0.679534454782666 
815	 0.679872506929615 
816	 0.680224496273213 
817	 0.680702503561662 
818	 0.681135423139458 
819	 0.681519456687222 
820	 0.681893151681996 
821	 0.682315956847103 
822	 0.682819563159788 
823	 0.683299209468285 
824	 0.683661115492496 
825	 0.683945050131418 
826	 0.684382662364145 
827	 0.684886465251825 
828	 0.685268776158858 
829	 0.685748434997518 
830	 0.686172564409871 
831	 0.686510014490396 
832	 0.686850458690199 
833	 0.687144198326078 
834	 0.687514872867067 
835	 0.687973562308298 
836	 0.68832979532377 
837	 0.688717253379377 
838	 0.689098186679933 
839	 0.689438439860041 
840	 0.689840011544576 
841	 0.690168553637897 
842	 0.690451998630554 
843	 0.690782292168048 
844	 0.69119788975295 
845	 0.691619450070796 
846	 0.691998888828969 
847	 0.692323719183451 
848	 0.692623518917818 
849	 0.692863288149886 
850	 0.693090547999713 
851	 0.693449218544266 
852	 0.693744752656575 
853	 0.693991952419008 
854	 0.694245696393984 
855	 0.694546037188519 
856	 0.69486804664865 
857	 0.69521565538402 
858	 0.69558459792383 
859	 0.695916232288797 
860	 0.696252011609452 
861	 0.696575386304643 
862	 0.696843992452666 
863	 0.697058996227485 
864	 0.697243135866346 
865	 0.69749047882639 
866	 0.697911992435366 
867	 0.698193045787498 
868	 0.698436825657161 
869	 0.698734238192336 
870	 0.699069616711205 
871	 0.69925603782804 
872	 0.699457688260127 
873	 0.699800039381324 
874	 0.700149166179626 
875	 0.700488394265455 
876	 0.700802263521727 
877	 0.701076806075657 
878	 0.701277625616503 
879	 0.701480025751914 
880	 0.701657962587333 
881	 0.701762727046717 
882	 0.701893733391554 
883	 0.702171891943827 
884	 0.702550567375517 
885	 0.702853770848261 
886	 0.702985724787388 
887	 0.70307904978043 
888	 0.703208619635491 
889	 0.703349856012045 
890	 0.703617154588117 
891	 0.703826938325601 
892	 0.703884770646524 
893	 0.703936426052978 
894	 0.704062036523861 
895	 0.704213602392488 
896	 0.704323800238556 
897	 0.70437360493845 
898	 0.704470259110509 
899	 0.70462380675248 
900	 0.704773854394669 
901	 0.704747284072843 
902	 0.704767465389753 
903	 0.704861605084398 
904	 0.704937064973596 
905	 0.704876041801084 
906	 0.704872586324451 
907	 0.704961969858878 
908	 0.705059723232125 
909	 0.705240191483889 
910	 0.705373528783255 
911	 0.705451311840822 
912	 0.705597478848345 
913	 0.705775293773881 
914	 0.705875637318205 
915	 0.70590399438447 
916	 0.706025088132892 
917	 0.70606983020702 
918	 0.706240365829748 
919	 0.70659715384969 
920	 0.706818868188493 
921	 0.70690571994273 
922	 0.707000079130669 
923	 0.707204742776376 
924	 0.70740793233179 
925	 0.707640176597302 
926	 0.707867451486675 
927	 0.708071698589131 
928	 0.708342523648727 
929	 0.708678143907375 
930	 0.709063328960738 
931	 0.709457795484888 
932	 0.709759469942476 
933	 0.710074038437377 
934	 0.710465440345047 
935	 0.710930746673218 
936	 0.711296931370982 
937	 0.711644046277512 
938	 0.712013282580709 
939	 0.712408166539335 
940	 0.712872177962621 
941	 0.713186914001949 
942	 0.71340615808591 
943	 0.71378848384404 
944	 0.714078464457003 
945	 0.714298644186699 
946	 0.714514909270381 
947	 0.71479092595764 
948	 0.715056896934181 
949	 0.715272956382756 
950	 0.715452113849818 
951	 0.715655590585354 
952	 0.715723372952532 
953	 0.71581926384117 
954	 0.716001796544054 
955	 0.716095125493273 
956	 0.716125898529191 
957	 0.716069752751215 
958	 0.715998141172317 
959	 0.716136419217146 
960	 0.716166473857101 
961	 0.716148435766443 
962	 0.716132211817721 
963	 0.715966168232666 
964	 0.715883184163146 
965	 0.715954377767062 
966	 0.716098151311963 
967	 0.716017328378606 
968	 0.715991745990915 
969	 0.716121142372118 
970	 0.716360860229708 
971	 0.71646833523844 
972	 0.716457267271206 
973	 0.716400931056352 
974	 0.716422934584888 
975	 0.716716035250001 
976	 0.716890637164053 
977	 0.716939584521416 
978	 0.716971309456476 
979	 0.716996413456246 
980	 0.717172398283987 
981	 0.717311415605683 
982	 0.717276700646453 
983	 0.717495879734372 
984	 0.717609529619343 
985	 0.717657376254032 
986	 0.71778670991147 
987	 0.718001610732572 
988	 0.718197874487748 
989	 0.718283435728514 
990	 0.718254462968807 
991	 0.718348968103312 
992	 0.718387442492209 
993	 0.718467187064254 
994	 0.718678877067732 
995	 0.718753919530244 
996	 0.718825694979173 
997	 0.718860252164495 
998	 0.718829468009986 
999	 0.718903901746225 
1000	 0.719079603340222 
1001	 0.729093164330934 
1002	 0.729260185700935 
1003	 0.729410704559734 
1004	 0.729541606893219 
1005	 0.7297200391925 
1006	 0.729835034282224 
1007	 0.729855634679254 
1008	 0.729968138132624 
1009	 0.730133826398588 
1010	 0.730259710613244 
1011	 0.730404277943928 
1012	 0.730520235714822 
1013	 0.730605786408608 
1014	 0.730690717462771 
1015	 0.730760805515921 
1016	 0.730839443624997 
1017	 0.7308933830589 
1018	 0.730983632147601 
1019	 0.731140976260925 
1020	 0.731240568092221 
1021	 0.731334146199239 
1022	 0.731443487912628 
1023	 0.731520394621903 
1024	 0.731546516007879 
1025	 0.731612969862331 
1026	 0.731698696843565 
1027	 0.731749739702371 
1028	 0.73178285608462 
1029	 0.731838321724051 
1030	 0.731851746372338 
1031	 0.731908185392245 
1032	 0.7320242186937 
1033	 0.732072704881675 
1034	 0.732108900196062 
1035	 0.732181772721015 
1036	 0.732247416096914 
1037	 0.732286559588015 
1038	 0.732362812644145 
1039	 0.73246963620109 
1040	 0.7325752209578 
1041	 0.732664159602364 
1042	 0.732797010973327 
1043	 0.73297695064585 
1044	 0.733129799142116 
1045	 0.733266129912193 
1046	 0.733475408890098 
1047	 0.733689529485042 
1048	 0.733905803345559 
1049	 0.734162511084863 
1050	 0.734409634146378 
1051	 0.734612115217884 
1052	 0.734817639155138 
1053	 0.735058988642702 
1054	 0.735325593102383 
1055	 0.735585869059514 
1056	 0.735888182007776 
1057	 0.736144917391081 
1058	 0.736376280857498 
1059	 0.736577580367538 
1060	 0.736829347138572 
1061	 0.7371194386318 
1062	 0.737418731561645 
1063	 0.737705494536218 
1064	 0.737963098713828 
1065	 0.738213080622702 
1066	 0.73843904470119 
1067	 0.738701833749101 
1068	 0.738947813640092 
1069	 0.739143301035357 
1070	 0.739379802983872 
1071	 0.739632288901571 
1072	 0.739876067409423 
1073	 0.740115906090859 
1074	 0.740377241310591 
1075	 0.740602967367901 
1076	 0.740819117427178 
1077	 0.741065530021136 
1078	 0.741340770467534 
1079	 0.741620552552181 
1080	 0.741848426986819 
1081	 0.74206942965069 
1082	 0.742283440553554 
1083	 0.742466779920608 
1084	 0.742678705166132 
1085	 0.74290544120145 
1086	 0.743100272911195 
1087	 0.743276392527395 
1088	 0.743423971295546 
1089	 0.74357071026455 
1090	 0.743698563692208 
1091	 0.743806046390553 
1092	 0.74393841736698 
1093	 0.744084350088854 
1094	 0.74421113672237 
1095	 0.744310835294849 
1096	 0.744440839576556 
1097	 0.744566097729698 
1098	 0.744647480070353 
1099	 0.74476134489702 
1100	 0.744845688895303 
1101	 0.74487368188588 
1102	 0.744939226308739 
1103	 0.744986109863285 
1104	 0.745030740400379 
1105	 0.745035011759621 
1106	 0.74503564684177 
1107	 0.74498195874212 
1108	 0.744904314645047 
1109	 0.744861213674455 
1110	 0.744811992699777 
1111	 0.744786757589111 
1112	 0.744770540348352 
1113	 0.744717921768296 
1114	 0.744630181465111 
1115	 0.744519185392688 
1116	 0.744435960822781 
1117	 0.744340884281155 
1118	 0.744235165207122 
1119	 0.744164392631359 
1120	 0.744048313833781 
1121	 0.743901540773146 
1122	 0.743729030910117 
1123	 0.743537958110124 
1124	 0.743312615230192 
1125	 0.743052388220233 
1126	 0.742775352240575 
1127	 0.742471746820588 
1128	 0.74211711558282 
1129	 0.741716618572291 
1130	 0.741252038025851 
1131	 0.740775246628318 
1132	 0.74030544044875 
1133	 0.73979187928385 
1134	 0.739276447574078 
1135	 0.738703357012505 
1136	 0.738059879569267 
1137	 0.73741427927559 
1138	 0.736750173379996 
1139	 0.736045074301229 
1140	 0.73529887918462 
1141	 0.734585170016549 
1142	 0.733802956700684 
1143	 0.733006112092973 
1144	 0.732205843202039 
1145	 0.731323800804275 
1146	 0.730428745688983 
1147	 0.729506788567779 
1148	 0.728561152228192 
1149	 0.727647282509893 
1150	 0.726725379287618 
1151	 0.725818782792515 
1152	 0.724863040632944 
1153	 0.723874907023843 
1154	 0.722873563788476 
1155	 0.721852954167651 
1156	 0.720785461826043 
1157	 0.719697097488971 
1158	 0.718610459653948 
1159	 0.717477578447752 
1160	 0.716352248657826 
1161	 0.715257075070324 
1162	 0.714070571930675 
1163	 0.712927812800863 
1164	 0.711788983108017 
1165	 0.710619991366913 
1166	 0.709536071675065 
1167	 0.708425744694873 
1168	 0.707336437777045 
1169	 0.706246282411542 
1170	 0.705169732894297 
1171	 0.704079572977432 
1172	 0.703005269918068 
1173	 0.701876788713386 
1174	 0.700719387923993 
1175	 0.699592683157377 
1176	 0.698440404040063 
1177	 0.697302800953265 
1178	 0.696212048111403 
1179	 0.695055113761121 
1180	 0.693925486653963 
1181	 0.69276076238729 
1182	 0.691568410907003 
1183	 0.690488339795823 
1184	 0.689382486828056 
1185	 0.688295901774578 
1186	 0.687268853531459 
1187	 0.686259223941257 
1188	 0.685333412617035 
1189	 0.684459105233883 
1190	 0.683657596419683 
1191	 0.682948143794642 
1192	 0.682269731332638 
1193	 0.681642597289228 
1194	 0.681055185822805 
1195	 0.68051212762076 
1196	 0.680007022783273 
1197	 0.679548423369603 
1198	 0.679122021321986 
1199	 0.678715740041371 
1200	 0.678379685799341 
1201	 0.678087912785177 
1202	 0.677863504287443 
1203	 0.677712280835923 
1204	 0.677636450561703 
1205	 0.677662874448361 
1206	 0.677742674901386 
1207	 0.677982246507936 
1208	 0.678324172589058 
1209	 0.678813608720998 
1210	 0.679420003781928 
1211	 0.680190128468646 
1212	 0.681097878498695 
1213	 0.682175200644302 
1214	 0.683421581004289 
1215	 0.684806510709852 
1216	 0.686398597241827 
1217	 0.688032400559325 
1218	 0.689797906077353 
1219	 0.691635884895593 
1220	 0.693522393878398 
1221	 0.695538814426575 
1222	 0.697505182414799 
1223	 0.699500925490893 
1224	 0.701420781865206 
1225	 0.703324360044942 
1226	 0.705093215734959 
1227	 0.706806535830227 
1228	 0.708437618837832 
1229	 0.709961862326916 
1230	 0.711437251808479 
1231	 0.71286868993359 
1232	 0.714211241734394 
1233	 0.715459833566102 
1234	 0.716634449391015 
1235	 0.71773307026965 
1236	 0.718767971700703 
1237	 0.719712057188825 
1238	 0.720617501209326 
1239	 0.721461908766534 
1240	 0.722253182133085 
1241	 0.723036649298912 
1242	 0.723735016726921 
1243	 0.724396551053626 
1244	 0.725018241313164 
1245	 0.725594779775399 
1246	 0.726108460332122 
1247	 0.726599728621844 
1248	 0.727069298242158 
1249	 0.727478643183343 
1250	 0.72782504233707 
1251	 0.728158384421648 
1252	 0.728441644818901 
1253	 0.728721570336353 
1254	 0.729003009230159 
1255	 0.729231807452842 
1256	 0.729413781096354 
1257	 0.729592425129047 
1258	 0.729723034727058 
1259	 0.729861078828561 
1260	 0.729996525164357 
1261	 0.730130813002511 
1262	 0.730245078909759 
1263	 0.73037773052251 
1264	 0.730516515478371 
1265	 0.730661088452559 
1266	 0.730810566402348 
1267	 0.730966857621757 
1268	 0.731132531899044 
1269	 0.731305419614836 
1270	 0.731482404259167 
1271	 0.731666274462682 
1272	 0.731859893802925 
1273	 0.732062926293222 
1274	 0.732264200771933 
1275	 0.732481886841522 
1276	 0.732684052832335 
1277	 0.732875661710908 
1278	 0.733067930755868 
1279	 0.733239320862024 
1280	 0.733439305696428 
1281	 0.733652942630306 
1282	 0.733867968282219 
1283	 0.734107945091141 
1284	 0.734336957925004 
1285	 0.734562138047864 
1286	 0.734780252526955 
1287	 0.735001913357301 
1288	 0.735223575809671 
1289	 0.735441216938576 
1290	 0.735662459975236 
1291	 0.735866386879685 
1292	 0.736067332051189 
1293	 0.736248169294113 
1294	 0.736407183662342 
1295	 0.736570979749556 
1296	 0.736719399218584 
1297	 0.736877104707856 
1298	 0.737046327946953 
1299	 0.737197180881884 
1300	 0.737364237185996 
1301	 0.737483065844564 
1302	 0.737561978017715 
1303	 0.737644834486202 
1304	 0.73771485963197 
1305	 0.737758326106107 
1306	 0.737813087296179 
1307	 0.737819234006686 
1308	 0.73776378624354 
1309	 0.73770499622279 
1310	 0.737654145602475 
1311	 0.737589638297105 
1312	 0.737515221563729 
1313	 0.737451106026205 
1314	 0.737358397276141 
1315	 0.73723248419501 
1316	 0.73711979995479 
1317	 0.737009636442406 
1318	 0.736884592034504 
1319	 0.736766797487438 
1320	 0.736607841502076 
1321	 0.736436719005491 
1322	 0.736230197558585 
1323	 0.735997678404926 
1324	 0.73572897417852 
1325	 0.735420259394867 
1326	 0.735102208500739 
1327	 0.734759934931626 
1328	 0.734393372531568 
1329	 0.734011780000676 
1330	 0.733608900009949 
1331	 0.733182519027547 
1332	 0.732730263105352 
1333	 0.732262029152336 
1334	 0.731766435312752 
1335	 0.731251508176451 
1336	 0.730718628272964 
1337	 0.730132543098474 
1338	 0.729521933042176 
1339	 0.728873337012393 
1340	 0.728189149537537 
1341	 0.727447642306387 
1342	 0.72665930460771 
1343	 0.725857316156906 
1344	 0.725015890969327 
1345	 0.724128662309695 
1346	 0.723242671806489 
1347	 0.722274901462017 
1348	 0.721219621847621 
1349	 0.720156236025151 
1350	 0.719034510721868 
1351	 0.717917744193848 
1352	 0.716780610997074 
1353	 0.715627405233431 
1354	 0.714440893617985 
1355	 0.713281990216777 
1356	 0.712121350710333 
1357	 0.71095628989043 
1358	 0.709799356649472 
1359	 0.708647328813787 
1360	 0.707511167077544 
1361	 0.706339116435726 
1362	 0.705150983293517 
1363	 0.704006946425424 
1364	 0.702797765331957 
1365	 0.701578286472435 
1366	 0.700269157914383 
1367	 0.698925861135053 
1368	 0.697511619767865 
1369	 0.696026587418282 
1370	 0.694480251325834 
1371	 0.692873350472543 
1372	 0.691246080716197 
1373	 0.689549823042763 
1374	 0.687835189560706 
1375	 0.686082603544023 
1376	 0.684314756850819 
1377	 0.682499725576394 
1378	 0.680665988139511 
1379	 0.678821791041232 
1380	 0.67695022411628 
1381	 0.675048065646316 
1382	 0.673112692374133 
1383	 0.671129667682537 
1384	 0.669167573758508 
1385	 0.667177112566562 
1386	 0.665215493668247 
1387	 0.663236124415899 
1388	 0.661354057371188 
1389	 0.659503318191105 
1390	 0.657711862357696 
1391	 0.65604083979449 
1392	 0.65433618309531 
1393	 0.652749128477067 
1394	 0.65109935642359 
1395	 0.649388661355986 
1396	 0.647716216293465 
1397	 0.64586518115208 
1398	 0.643958552587663 
1399	 0.641814044047587 
1400	 0.639553425579843 
1401	 0.637064257453843 
1402	 0.634372689830323 
1403	 0.631484605197504 
1404	 0.628376105156022 
1405	 0.625202207289714 
1406	 0.621767944086924 
1407	 0.618415236222093 
1408	 0.614845828622275 
1409	 0.611610230663186 
1410	 0.608319250257553 
1411	 0.605454223032882 
1412	 0.602832623640629 
1413	 0.600565045191462 
1414	 0.598651787902515 
1415	 0.596932178046253 
1416	 0.595620711592805 
1417	 0.594324732055687 
1418	 0.593287056312013 
1419	 0.592181995279972 
1420	 0.591155830585057 
1421	 0.590117430641733 
1422	 0.589055475333271 
1423	 0.58802054924927 
1424	 0.587020850971318 
1425	 0.585985259723388 
1426	 0.585052512627133 
1427	 0.584145686515666 
1428	 0.583286260321611 
1429	 0.582562492764527 
1430	 0.581862560285406 
1431	 0.58121077020125 
1432	 0.580615590894833 
1433	 0.580087521558751 
1434	 0.579602133894248 
1435	 0.579151334908488 
1436	 0.578781845825512 
1437	 0.578482789870504 
1438	 0.57823545257809 
1439	 0.578061038820953 
1440	 0.577912440798499 
1441	 0.577819224537317 
1442	 0.57774854296285 
1443	 0.577708979677742 
1444	 0.577710474836157 
1445	 0.577755405493583 
1446	 0.577822209297785 
1447	 0.577924528106357 
1448	 0.57805267398002 
1449	 0.578204197474856 
1450	 0.578389162334854 
1451	 0.578625176894359 
1452	 0.578857215685188 
1453	 0.579132577833265 
1454	 0.579373173873049 
1455	 0.579586981384986 
1456	 0.579827733075114 
1457	 0.580073648461958 
1458	 0.580315294786757 
1459	 0.580574864168151 
1460	 0.580831582953058 
1461	 0.581051515243758 
1462	 0.581313894186163 
1463	 0.581607050061594 
1464	 0.581906184060814 
1465	 0.582217754073242 
1466	 0.582564188004096 
1467	 0.582895479534062 
1468	 0.583244587461483 
1469	 0.583632031544054 
1470	 0.583989278594633 
1471	 0.584344896503742 
1472	 0.584709383726926 
1473	 0.585047089431973 
1474	 0.58536735428936 
1475	 0.585673948372352 
1476	 0.58598229494251 
1477	 0.586236708208598 
1478	 0.586463029004502 
1479	 0.586649758960361 
1480	 0.586780195735293 
1481	 0.586925538969451 
1482	 0.587049534816951 
1483	 0.587167487892561 
1484	 0.587291382122904 
1485	 0.587378222930887 
1486	 0.587429211207278 
1487	 0.587488417883324 
1488	 0.587515962193594 
1489	 0.587577321375734 
1490	 0.587646924323669 
1491	 0.587731073088533 
1492	 0.587826737487262 
1493	 0.587943153855023 
1494	 0.588067700381204 
1495	 0.588219293360664 
1496	 0.588399073626291 
1497	 0.588591165084104 
1498	 0.588802081674317 
1499	 0.58903172044371 
1500	 0.589273351646049 
1501	 0.589541731216701 
1502	 0.589833684142523 
1503	 0.590143502164213 
1504	 0.590469256617058 
1505	 0.590827536492769 
1506	 0.591232339460657 
1507	 0.591622602897084 
1508	 0.592040069566711 
1509	 0.592444260459577 
1510	 0.592837790287433 
1511	 0.593225730045499 
1512	 0.593606278027238 
1513	 0.593992651142626 
1514	 0.594377939719267 
1515	 0.59475853817006 
1516	 0.595131829513025 
1517	 0.595520667051251 
1518	 0.595909971065855 
1519	 0.596302327569854 
1520	 0.596704776262288 
1521	 0.597124461973195 
1522	 0.597520450834674 
1523	 0.597923562737473 
1524	 0.598328574029686 
1525	 0.598731463153515 
1526	 0.599151663378341 
1527	 0.599577656782998 
1528	 0.600017667511236 
1529	 0.600465693505599 
1530	 0.600939474856399 
1531	 0.601436950394696 
1532	 0.601923543763 
1533	 0.602425491136965 
1534	 0.602928474079109 
1535	 0.603426381190169 
1536	 0.60392834282704 
1537	 0.604457035676316 
1538	 0.604940654733167 
1539	 0.605413994442626 
1540	 0.605851581513088 
1541	 0.606260326733487 
1542	 0.606651456633029 
1543	 0.607021655427616 
1544	 0.607355527057218 
1545	 0.60766904718257 
1546	 0.607943585022616 
1547	 0.608179135215364 
1548	 0.608386311149693 
1549	 0.608560337306674 
1550	 0.608710742279484 
1551	 0.608822450097931 
1552	 0.608924663534809 
1553	 0.609007347568949 
1554	 0.609069227566864 
1555	 0.60909855358496 
1556	 0.609138209604915 
1557	 0.609159623033489 
1558	 0.609190533817132 
1559	 0.609210400654917 
1560	 0.609266389464952 
1561	 0.609306990515664 
1562	 0.609422931167363 
1563	 0.609598410781899 
1564	 0.609784750010016 
1565	 0.610031583263446 
1566	 0.610258153350543 
1567	 0.6104891520732 
1568	 0.610730419982418 
1569	 0.610979168560685 
1570	 0.611232129929593 
1571	 0.611493045075906 
1572	 0.61176112808909 
1573	 0.612038347716901 
1574	 0.612312650015977 
1575	 0.612610922319278 
1576	 0.612873893241274 
1577	 0.613121177613422 
1578	 0.61335605764185 
1579	 0.613562031600348 
1580	 0.613773723457044 
1581	 0.613971279893031 
1582	 0.614183032627727 
1583	 0.614395680252501 
1584	 0.614615650390709 
1585	 0.614834851662402 
1586	 0.615078800214346 
1587	 0.615346208824943 
1588	 0.615603480168186 
1589	 0.615877631039171 
1590	 0.616145075960549 
1591	 0.616390773022989 
1592	 0.616660564724445 
1593	 0.616961477711564 
1594	 0.617236919023367 
1595	 0.617510847332768 
1596	 0.617778112596756 
1597	 0.618024460059548 
1598	 0.618275256086774 
1599	 0.618535755914025 
1600	 0.618782444142761 
1601	 0.619022376827031 
1602	 0.619254136780321 
1603	 0.619478210784147 
1604	 0.61969056911814 
1605	 0.619893290880824 
1606	 0.62008572882292 
1607	 0.620266730127211 
1608	 0.620439626590981 
1609	 0.620607901703016 
1610	 0.620758568604603 
1611	 0.620900495467255 
1612	 0.621022046530116 
1613	 0.621118953072264 
1614	 0.621210833313364 
1615	 0.621302909765624 
1616	 0.621357774892678 
1617	 0.621393849216319 
1618	 0.621405859122655 
1619	 0.62136373246373 
1620	 0.621339981398852 
1621	 0.62131310213984 
1622	 0.621279753264293 
1623	 0.621263440805649 
1624	 0.621210333572434 
1625	 0.621137530718873 
1626	 0.621044764039482 
1627	 0.62090400710343 
1628	 0.620786675488375 
1629	 0.620678646735853 
1630	 0.620548266562882 
1631	 0.620415711842095 
1632	 0.620274986370797 
1633	 0.620109595172106 
1634	 0.619947419108467 
1635	 0.619789238990936 
1636	 0.619624114179638 
1637	 0.619472322433609 
1638	 0.619274550359179 
1639	 0.619053682791935 
1640	 0.618818313917768 
1641	 0.618551685773946 
1642	 0.618261351232077 
1643	 0.617952973215535 
1644	 0.617634481183782 
1645	 0.61729692927863 
1646	 0.616929011598221 
1647	 0.616563717525777 
1648	 0.616141533050272 
1649	 0.615685649386207 
1650	 0.615166972692747 
1651	 0.614610507989768 
1652	 0.613984801274958 
1653	 0.613282543873017 
1654	 0.612539686572743 
1655	 0.611746203919087 
1656	 0.61088359706521 
1657	 0.609988377047077 
1658	 0.608985858689342 
1659	 0.607898720593699 
1660	 0.606739123573159 
1661	 0.605510310266608 
1662	 0.604164276188949 
1663	 0.602734072303532 
1664	 0.601169687166988 
1665	 0.599499971085196 
1666	 0.597664326257428 
1667	 0.595685725241295 
1668	 0.593615823548837 
1669	 0.591421448934489 
1670	 0.589080277556685 
1671	 0.586606818530384 
1672	 0.584001283836713 
1673	 0.581219398300743 
1674	 0.578349681742495 
1675	 0.575368975338127 
1676	 0.572351539572381 
1677	 0.569238519747393 
1678	 0.566055817257568 
1679	 0.562780318424442 
1680	 0.559446696517764 
1681	 0.556013937525824 
1682	 0.552540798215004 
1683	 0.549015950989852 
1684	 0.545523642703004 
1685	 0.54199555856248 
1686	 0.538451086888429 
1687	 0.534857745361272 
1688	 0.531313830409661 
1689	 0.527756214870623 
1690	 0.524207329603833 
1691	 0.520749657954847 
1692	 0.517276617460588 
1693	 0.513795913540546 
1694	 0.510273394252586 
1695	 0.506748568350687 
1696	 0.503144160881278 
1697	 0.499465322068198 
1698	 0.495743492213859 
1699	 0.491967234508271 
1700	 0.488304389928587 
1701	 0.484579682544808 
1702	 0.481046648667443 
1703	 0.477564467803517 
1704	 0.474283643195745 
1705	 0.471120107219869 
1706	 0.468085371715812 
1707	 0.465428303158347 
1708	 0.462859766604144 
1709	 0.46044387637481 
1710	 0.458224950717441 
1711	 0.455991224101606 
1712	 0.453914400970386 
1713	 0.451874481621431 
1714	 0.449826244078231 
1715	 0.447972656835214 
1716	 0.446108383297042 
1717	 0.444315638991523 
1718	 0.442643226166349 
1719	 0.441016767460996 
1720	 0.439576302842229 
1721	 0.43829592546713 
1722	 0.437231810401476 
1723	 0.436480148023991 
1724	 0.435976596246413 
1725	 0.435758904711552 
1726	 0.435926380406039 
1727	 0.436427701829365 
1728	 0.437227175611224 
1729	 0.438431465926847 
1730	 0.439987671351876 
1731	 0.441696520771857 
1732	 0.443679733653421 
1733	 0.445728751982805 
1734	 0.447783964921149 
1735	 0.449938578986722 
1736	 0.451942595539111 
1737	 0.453798108225911 
1738	 0.455459452849764 
1739	 0.456810537895207 
1740	 0.457938644149208 
1741	 0.458800206767337 
1742	 0.45932733632545 
1743	 0.459724839396643 
1744	 0.459852886756345 
1745	 0.45989298013807 
1746	 0.459734012549046 
1747	 0.459556579020247 
1748	 0.459210231598239 
1749	 0.458952532873785 
1750	 0.458641381301039 
1751	 0.458422602699011 
1752	 0.458213277069267 
1753	 0.458172845541472 
1754	 0.458206478174217 
1755	 0.458412827248193 
1756	 0.458748875469916 
1757	 0.4592325569689 
1758	 0.459919157186231 
1759	 0.460817390136695 
1760	 0.461970611102149 
1761	 0.46337828989036 
1762	 0.464936785070152 
1763	 0.466730540045689 
1764	 0.46865246378673 
1765	 0.470709142616201 
1766	 0.472996701272088 
1767	 0.475254910811859 
1768	 0.477577387472319 
1769	 0.479927307067571 
1770	 0.482053050294256 
1771	 0.484154319972188 
1772	 0.486156099270308 
1773	 0.487990952469024 
1774	 0.489810808323465 
1775	 0.491448016965665 
1776	 0.492998084037016 
1777	 0.494448499689788 
1778	 0.495667789914415 
1779	 0.496825649981569 
1780	 0.497842546383751 
1781	 0.498698105107086 
1782	 0.499534303042372 
1783	 0.500289839165325 
1784	 0.500957878530474 
1785	 0.501517866471303 
1786	 0.501987501604233 
1787	 0.502287566348777 
1788	 0.502616912969799 
1789	 0.502908032441144 
1790	 0.503174578170451 
1791	 0.50343232433981 
1792	 0.503679135306636 
1793	 0.503873217282286 
1794	 0.504058081683069 
1795	 0.504260597104612 
1796	 0.504455355234637 
1797	 0.504666005056165 
1798	 0.504887214048748 
1799	 0.50512026959021 
1800	 0.505381594889161 
1801	 0.508250440702408 
1802	 0.508562736698711 
1803	 0.508845140437101 
1804	 0.509115133154632 
1805	 0.509408081657333 
1806	 0.509683694711203 
1807	 0.509938348040781 
1808	 0.510207106612577 
1809	 0.510478839567732 
1810	 0.510755716567286 
1811	 0.511021942610958 
1812	 0.511311155361579 
1813	 0.5116046529803 
1814	 0.511939218638854 
1815	 0.512256680929423 
1816	 0.512594204881689 
1817	 0.512955329497295 
1818	 0.513331739192942 
1819	 0.513711788477442 
1820	 0.514129583130612 
1821	 0.514524277500468 
1822	 0.514896826258285 
1823	 0.51531476331875 
1824	 0.515695324182297 
1825	 0.516077338020095 
1826	 0.516454945279663 
1827	 0.516808175776812 
1828	 0.517180786495326 
1829	 0.517563019052763 
1830	 0.517948222528458 
1831	 0.51833781393906 
1832	 0.518745390206255 
1833	 0.519126865740039 
1834	 0.51949810815469 
1835	 0.519873528394321 
1836	 0.520237383006917 
1837	 0.520614025929579 
1838	 0.521005412595659 
1839	 0.521384228502703 
1840	 0.5217706484063 
1841	 0.522138514893963 
1842	 0.52249943961808 
1843	 0.522854265271326 
1844	 0.523189023295162 
1845	 0.523484691671877 
1846	 0.523763011985369 
1847	 0.523999255762428 
1848	 0.524208693130177 
1849	 0.524391913615367 
1850	 0.524541403947107 
1851	 0.524660240673645 
1852	 0.524754184344868 
1853	 0.524802873395614 
1854	 0.524810179361464 
1855	 0.524757075601934 
1856	 0.524667812606317 
1857	 0.524544979925792 
1858	 0.52434676495384 
1859	 0.524102105700783 
1860	 0.523820911955187 
1861	 0.523463711408307 
1862	 0.523044644089128 
1863	 0.522574560199192 
1864	 0.522013929029073 
1865	 0.521401057431 
1866	 0.520692142884291 
1867	 0.519873299831453 
1868	 0.519012446471098 
1869	 0.518012976112025 
1870	 0.516925438839205 
1871	 0.515753114915268 
1872	 0.514510212618639 
1873	 0.513167710283128 
1874	 0.511784829782423 
1875	 0.510344416345524 
1876	 0.508684380667484 
1877	 0.506970031071152 
1878	 0.505064988505588 
1879	 0.502959856885576 
1880	 0.500853289513015 
1881	 0.498537155067372 
1882	 0.496038568356034 
1883	 0.493439812980529 
1884	 0.490638451209799 
1885	 0.48744594009036 
1886	 0.484176037205706 
1887	 0.480603057543484 
1888	 0.476729380264322 
1889	 0.472985239777491 
1890	 0.468955297566443 
1891	 0.464863417045203 
1892	 0.460789704292693 
1893	 0.456538349819605 
1894	 0.45205546405092 
1895	 0.447721075409182 
1896	 0.443272536949971 
1897	 0.438768115812777 
1898	 0.43464022561748 
1899	 0.430421275895141 
1900	 0.426301535424333 
1901	 0.422381120592754 
1902	 0.4182664933224 
1903	 0.41438860265286 
1904	 0.410630327059418 
1905	 0.406954936352791 
1906	 0.403373148621018 
1907	 0.400189232730428 
1908	 0.397010496864231 
1909	 0.393975640701512 
1910	 0.391151218708363 
1911	 0.38824118149241 
1912	 0.385547647352069 
1913	 0.38298132187726 
1914	 0.380457516826894 
1915	 0.378146455516824 
1916	 0.376077862256181 
1917	 0.37400877575898 
1918	 0.37201721431821 
1919	 0.370180619605456 
1920	 0.368311219795957 
1921	 0.366598107047961 
1922	 0.364969745049749 
1923	 0.363388032865834 
1924	 0.362012227936996 
1925	 0.360665680028302 
1926	 0.359399150894317 
1927	 0.358247843718253 
1928	 0.357147404753937 
1929	 0.356090331958038 
1930	 0.355123471903739 
1931	 0.354257127926834 
1932	 0.35346355929174 
1933	 0.352799657189293 
1934	 0.352231705891958 
1935	 0.351739300522382 
1936	 0.351354529030415 
1937	 0.351040652729001 
1938	 0.35079306674251 
1939	 0.350658123641178 
1940	 0.350624053840883 
1941	 0.350662707146779 
1942	 0.350795831544929 
1943	 0.351012625683005 
1944	 0.351238614632621 
1945	 0.351546845798511 
1946	 0.351941161154102 
1947	 0.352373123117339 
1948	 0.352905472008328 
1949	 0.353480355539328 
1950	 0.35406972935608 
1951	 0.354700077051516 
1952	 0.355360682223625 
1953	 0.356045101149887 
1954	 0.356753049327111 
1955	 0.357535932246607 
1956	 0.358278848253783 
1957	 0.359042264981645 
1958	 0.359856350510983 
1959	 0.360619927577591 
1960	 0.361386841575827 
1961	 0.362138702461379 
1962	 0.362848817447966 
1963	 0.363604591529042 
1964	 0.364379436209899 
1965	 0.365141109550905 
1966	 0.365930037236297 
1967	 0.366716421561013 
1968	 0.367423109929164 
1969	 0.368139872142367 
1970	 0.368851405065249 
1971	 0.369530910573286 
1972	 0.370246205397041 
1973	 0.370965124368641 
1974	 0.371691969302065 
1975	 0.372454166540893 
1976	 0.373171824417044 
1977	 0.373871803126583 
1978	 0.374578336402404 
1979	 0.37526699388059 
1980	 0.375939755250323 
1981	 0.376667568499243 
1982	 0.377348281566938 
1983	 0.378021572546984 
1984	 0.378723378972315 
1985	 0.379358556303765 
1986	 0.380008916042716 
1987	 0.380648497000102 
1988	 0.381258587891803 
1989	 0.381882279558936 
1990	 0.382523322928 
1991	 0.383138921676009 
1992	 0.383753111231214 
1993	 0.384359225333877 
1994	 0.384909798701319 
1995	 0.385456361026251 
1996	 0.385978923955491 
1997	 0.386488686775526 
1998	 0.3870069490624 
1999	 0.387532582360852 
2000	 0.388032950236998 
2001	 0.388545045219392 
2002	 0.389003735515897 
2003	 0.389431346098956 
2004	 0.389839815578751 
2005	 0.390212824483158 
2006	 0.390566224793906 
2007	 0.390905827339669 
2008	 0.391214032559007 
2009	 0.391493011551863 
2010	 0.391736799237598 
2011	 0.391926584498692 
2012	 0.392070605239643 
2013	 0.392148213510768 
2014	 0.392155980124679 
2015	 0.392128612136361 
2016	 0.392074317744269 
2017	 0.391919472245193 
2018	 0.391699489845556 
2019	 0.391411611193786 
2020	 0.391044015999139 
2021	 0.390593159596007 
2022	 0.390101412654115 
2023	 0.389540107024794 
2024	 0.388858276956311 
2025	 0.388127883708352 
2026	 0.387345166801031 
2027	 0.386438992518483 
2028	 0.385598574737451 
2029	 0.384744901553468 
2030	 0.383869331040719 
2031	 0.383008836749659 
2032	 0.382118512148538 
2033	 0.381125357113035 
2034	 0.380242533298584 
2035	 0.379378244208117 
2036	 0.378548371045214 
2037	 0.377826492362686 
2038	 0.377194108738544 
2039	 0.376641514160567 
2040	 0.376175049729502 
2041	 0.375778710499614 
2042	 0.375463730411249 
2043	 0.375227174542572 
2044	 0.375077579342571 
2045	 0.374982763469548 
2046	 0.374986704814261 
2047	 0.375017314640848 
2048	 0.375088075959435 
2049	 0.375224378128184 
2050	 0.37542752719237 
2051	 0.375668769347783 
2052	 0.375971857658862 
2053	 0.376321894036318 
2054	 0.376657097774511 
2055	 0.377004187007045 
2056	 0.377382236868337 
2057	 0.377762729809854 
2058	 0.378187846795288 
2059	 0.378672088419096 
2060	 0.379138810121853 
2061	 0.3796322742365 
2062	 0.380116748129302 
2063	 0.38060009493477 
2064	 0.381086200362232 
2065	 0.381585416477862 
2066	 0.382067931828043 
2067	 0.382559904575728 
2068	 0.383004593942329 
2069	 0.383436509606289 
2070	 0.38385172916451 
2071	 0.384241660252413 
2072	 0.384611733457684 
2073	 0.384952591880459 
2074	 0.385257341699053 
2075	 0.385561744253773 
2076	 0.385833207406039 
2077	 0.386111233687181 
2078	 0.386419017911301 
2079	 0.386665160863409 
2080	 0.386885036638847 
2081	 0.387075737209451 
2082	 0.387215250341219 
2083	 0.387329121544953 
2084	 0.387456189670161 
2085	 0.387589498987671 
2086	 0.387685684660925 
2087	 0.38777769509881 
2088	 0.387833841171804 
2089	 0.387845347393878 
2090	 0.387858145535056 
2091	 0.387858041002927 
2092	 0.387844179444115 
2093	 0.387825774069306 
2094	 0.387774383277827 
2095	 0.387695791388827 
2096	 0.38760705506817 
2097	 0.387503082248532 
2098	 0.387368310632432 
2099	 0.387213816178241 
2100	 0.38704425814652 
2101	 0.386839527386864 
2102	 0.38659096018103 
2103	 0.38634276359382 
2104	 0.38607982096624 
2105	 0.385791858977635 
2106	 0.3854891377902 
2107	 0.385159508925418 
2108	 0.384805350207349 
2109	 0.384427221841201 
2110	 0.384020307158208 
2111	 0.383599065949686 
2112	 0.383136859237536 
2113	 0.382686367146933 
2114	 0.38223156690864 
2115	 0.381766645077308 
2116	 0.381307017346187 
2117	 0.380833176475337 
2118	 0.380331038922386 
2119	 0.379804065641611 
2120	 0.379283169116256 
2121	 0.378718769006103 
2122	 0.378214301866607 
2123	 0.377734562346323 
2124	 0.377252334575524 
2125	 0.376801482962402 
2126	 0.37634337170637 
2127	 0.375891799588084 
2128	 0.375426049961553 
2129	 0.374934002877966 
2130	 0.374484840345779 
2131	 0.374055562161515 
2132	 0.373615343657171 
2133	 0.37319920501527 
2134	 0.372806265508635 
2135	 0.372336343347231 
2136	 0.371836788892871 
2137	 0.371338715110216 
2138	 0.370813662764095 
2139	 0.370292243780257 
2140	 0.369758633871929 
2141	 0.369242327673147 
2142	 0.368732741942506 
2143	 0.368208015589164 
2144	 0.367678787576793 
2145	 0.367167210609457 
2146	 0.366621166375469 
2147	 0.366135359294163 
2148	 0.365710326537116 
2149	 0.365262574867704 
2150	 0.364855544413715 
2151	 0.364414407169736 
2152	 0.363947248885356 
2153	 0.363482239221126 
2154	 0.363020791179472 
2155	 0.362519106738176 
2156	 0.362043538974883 
2157	 0.36157648572737 
2158	 0.361095010333569 
2159	 0.360616381774599 
2160	 0.360124935992512 
2161	 0.359610923354064 
2162	 0.359121412042002 
2163	 0.358614636080549 
2164	 0.358153183529813 
2165	 0.357698358791796 
2166	 0.357300375863726 
2167	 0.356942923574303 
2168	 0.356618285837107 
2169	 0.356346071638961 
2170	 0.356093355676176 
2171	 0.355850495565132 
2172	 0.355666833116394 
2173	 0.355546561143369 
2174	 0.355423563172007 
2175	 0.355334370156206 
2176	 0.355327310549917 
2177	 0.355321655595974 
2178	 0.355323970405211 
2179	 0.355402486952347 
2180	 0.355540410500071 
2181	 0.355686557295796 
2182	 0.355892634259599 
2183	 0.356086612561786 
2184	 0.356290701002055 
2185	 0.356508912333254 
2186	 0.356746289968371 
2187	 0.35698855816799 
2188	 0.357240695829019 
2189	 0.357503443792909 
2190	 0.357781612956511 
2191	 0.3580605190878 
2192	 0.358351771946907 
2193	 0.358637990247959 
2194	 0.358946631745614 
2195	 0.359221904163773 
2196	 0.359485517476783 
2197	 0.359733867382363 
2198	 0.359985868172593 
2199	 0.360161482027637 
2200	 0.360321122593143 
2201	 0.360440190551422 
2202	 0.360594817645061 
2203	 0.360731618557958 
2204	 0.360859431033556 
2205	 0.361032816280883 
2206	 0.361121450921192 
2207	 0.361137238972325 
2208	 0.361170892300183 
2209	 0.361188598008276 
2210	 0.361180998033595 
2211	 0.361155993927541 
2212	 0.361119109919723 
2213	 0.361067444097907 
2214	 0.360983811461413 
2215	 0.360901146183794 
2216	 0.360762938846644 
2217	 0.360571633444168 
2218	 0.36035652937701 
2219	 0.360132876358109 
2220	 0.359836695280311 
2221	 0.359487400661676 
2222	 0.359095955508808 
2223	 0.358677650821788 
2224	 0.35815178829268 
2225	 0.357601234333453 
2226	 0.35700947336732 
2227	 0.356283957764386 
2228	 0.355470941439836 
2229	 0.354551135132327 
2230	 0.353506532609953 
2231	 0.352397551502778 
2232	 0.351222386986871 
2233	 0.349883139663672 
2234	 0.348463624157624 
2235	 0.346862296577279 
2236	 0.345109334774321 
2237	 0.343195489911556 
2238	 0.341063541594209 
2239	 0.338887526516046 
2240	 0.336568315922354 
2241	 0.334152206077433 
2242	 0.331733290479403 
2243	 0.32907073915795 
2244	 0.326178348179893 
2245	 0.323237112545708 
2246	 0.320025769892784 
2247	 0.316892730096486 
2248	 0.313737242729912 
2249	 0.310547327145135 
2250	 0.307348860159665 
2251	 0.304175263818519 
2252	 0.300752581242384 
2253	 0.297452496288982 
2254	 0.294107675128339 
2255	 0.290694819419761 
2256	 0.28757984399601 
2257	 0.284488181817109 
2258	 0.281539350637911 
2259	 0.278770967918302 
2260	 0.275975783553 
2261	 0.273227578289075 
2262	 0.270607823708972 
2263	 0.26798167035088 
2264	 0.265593242799554 
2265	 0.263436392204529 
2266	 0.261249116913984 
2267	 0.259248174705423 
2268	 0.257144100454618 
2269	 0.254989543101047 
2270	 0.252936440229789 
2271	 0.25086882963779 
2272	 0.248907953897731 
2273	 0.247080454388684 
2274	 0.245220196726439 
2275	 0.243444833818072 
2276	 0.241609032260789 
2277	 0.239767304583486 
2278	 0.237910379265109 
2279	 0.235984869765808 
2280	 0.234093359916741 
2281	 0.2322470352734 
2282	 0.230333613737235 
2283	 0.228406909456714 
2284	 0.226485516245347 
2285	 0.224396466028485 
2286	 0.222326163483922 
2287	 0.220161189126963 
2288	 0.217960441645076 
2289	 0.215905844012979 
2290	 0.213721266286621 
2291	 0.211576681796332 
2292	 0.209489834813783 
2293	 0.207261360261414 
2294	 0.205125469373347 
2295	 0.203068310710525 
2296	 0.20107677318192 
2297	 0.199362569472874 
2298	 0.197826102473929 
2299	 0.196516205426357 
2300	 0.195426718536877 
2301	 0.194591457045114 
2302	 0.193947758271495 
2303	 0.193667943165107 
2304	 0.193731422523445 
2305	 0.193974482979679 
2306	 0.194548055747143 
2307	 0.195286138868067 
2308	 0.196186266699405 
2309	 0.197431052461885 
2310	 0.199051598196732 
2311	 0.200726151038221 
2312	 0.202807320928036 
2313	 0.204695901613305 
2314	 0.206648841430614 
2315	 0.208539473173374 
2316	 0.210423676054083 
2317	 0.212176844210541 
2318	 0.213987996874364 
2319	 0.215464333314895 
2320	 0.216794300195891 
2321	 0.217848663409372 
2322	 0.218597115034174 
2323	 0.219160870411192 
2324	 0.219440705069867 
2325	 0.219564635512473 
2326	 0.219438504972254 
2327	 0.219211610349118 
2328	 0.218794072126097 
2329	 0.218283137757559 
2330	 0.217658102880814 
2331	 0.21686214011972 
2332	 0.215947080172198 
2333	 0.214902036817414 
2334	 0.213652002051436 
2335	 0.212328338736909 
2336	 0.210867443391245 
2337	 0.20929815033109 
2338	 0.207836469849567 
2339	 0.206262646189025 
2340	 0.204733280288966 
2341	 0.203367995768427 
2342	 0.20196847134029 
2343	 0.200860015865544 
2344	 0.200063353995665 
2345	 0.199440394899441 
2346	 0.199177014671091 
2347	 0.199275743631888 
2348	 0.199572622372139 
2349	 0.200263143524645 
2350	 0.201325937381317 
2351	 0.202533383533313 
2352	 0.203922232022833 
2353	 0.205479450440269 
2354	 0.206947544875392 
2355	 0.208377625894704 
2356	 0.209750700445792 
2357	 0.210946089261942 
2358	 0.21202895518088 
2359	 0.212880285884002 
2360	 0.213563859433107 
2361	 0.21406120556818 
2362	 0.214362918583159 
2363	 0.214596881174991 
2364	 0.214798192912608 
2365	 0.214968854061234 
2366	 0.215086575453202 
2367	 0.21512426103003 
2368	 0.215156581008174 
2369	 0.215199276872141 
2370	 0.215265520791758 
2371	 0.215346163138466 
2372	 0.215361440683976 
2373	 0.215361771812248 
2374	 0.215390425902502 
2375	 0.215466277897434 
2376	 0.21559630398141 
2377	 0.215716294882719 
2378	 0.215748481788459 
2379	 0.215767544863353 
2380	 0.215828432767918 
2381	 0.215934536577824 
2382	 0.216107011791107 
2383	 0.216423049095449 
2384	 0.216624203524522 
2385	 0.216827012050526 
2386	 0.217012371850753 
2387	 0.217106973119001 
2388	 0.217283547596942 
2389	 0.217557119112316 
2390	 0.217693440550223 
2391	 0.217770621999148 
2392	 0.217896871143061 
2393	 0.217981251508581 
2394	 0.218055609481202 
2395	 0.218152593416547 
2396	 0.218239292301586 
2397	 0.218283148717634 
2398	 0.218320466394693 
2399	 0.218403365018769 
2400	 0.21845727521614 
2401	 0.218396231616721 
2402	 0.218447432256544 
2403	 0.21860128714415 
2404	 0.218655839593048 
2405	 0.218761476369259 
2406	 0.218876788151055 
2407	 0.218850301158433 
2408	 0.218929919825984 
2409	 0.219056872294523 
2410	 0.219102329690101 
2411	 0.219126826901857 
2412	 0.219019250146889 
2413	 0.218985992607205 
2414	 0.219054496391721 
2415	 0.219085690639174 
2416	 0.219159325940287 
2417	 0.219182286476127 
2418	 0.219081520152147 
2419	 0.218967576165287 
2420	 0.218972294619691 
2421	 0.218931739216591 
2422	 0.218854496377979 
2423	 0.218960260074344 
2424	 0.219016747757159 
2425	 0.218902213139908 
2426	 0.218859226420402 
2427	 0.218790528778774 
2428	 0.218609310833848 
2429	 0.218601447693639 
2430	 0.218590566582901 
2431	 0.21835961522331 
2432	 0.218162423691489 
2433	 0.21809038156751 
2434	 0.218076588975503 
2435	 0.218107217320815 
2436	 0.21801049461488 
2437	 0.21764465252056 
2438	 0.217176742388256 
2439	 0.216687451784067 
2440	 0.216338961999279 
2441	 0.216155048738753 
2442	 0.215929850550153 
2443	 0.215697888757572 
2444	 0.215327320441339 
2445	 0.214839380482347 
2446	 0.214364391727391 
2447	 0.213883661560594 
2448	 0.213509788753958 
2449	 0.213137748529964 
2450	 0.212693536328966 
2451	 0.212230087707338 
2452	 0.211699247144543 
2453	 0.211119553877444 
2454	 0.210530211803226 
2455	 0.209932685109824 
2456	 0.209469818888139 
2457	 0.209118819260331 
2458	 0.208724469768657 
2459	 0.208387478975745 
2460	 0.208024369974648 
2461	 0.207625688738759 
2462	 0.207278858913601 
2463	 0.206902384723955 
2464	 0.206480312840998 
2465	 0.20603235019776 
2466	 0.205621998527081 
2467	 0.205246894859823 
2468	 0.204909543896449 
2469	 0.204626030191435 
2470	 0.204429177965588 
2471	 0.204176314673214 
2472	 0.20385360346856 
2473	 0.203700577606971 
2474	 0.203361189393292 
2475	 0.203097748165302 
2476	 0.203215929676036 
2477	 0.202886690518152 
2478	 0.202468013296367 
2479	 0.202311567568829 
2480	 0.201979914978576 
2481	 0.201849459991743 
2482	 0.201909521583468 
2483	 0.201896785023501 
2484	 0.201868265444664 
2485	 0.201914452261551 
2486	 0.201978823000818 
2487	 0.201932725085603 
2488	 0.201930157964139 
2489	 0.202065842967867 
2490	 0.202367663724353 
2491	 0.202736299796723 
2492	 0.203182297363607 
2493	 0.203254614346549 
2494	 0.203311676811489 
2495	 0.203532171893882 
2496	 0.203390559299955 
2497	 0.203625268169622 
2498	 0.203759189869944 
2499	 0.203871455702328 
2500	 0.20421116269979 
