Wavelength	spectrum00014.asd
350	 0.123757460712783 
351	 0.120130062278686 
352	 0.117813445537556 
353	 0.117776705086973 
354	 0.116771329133705 
355	 0.116176911577762 
356	 0.115979660977901 
357	 0.115535887854419 
358	 0.112928282026111 
359	 0.111624315497939 
360	 0.11154736961266 
361	 0.110983414499889 
362	 0.111767178695414 
363	 0.111759261778789 
364	 0.111031667363568 
365	 0.112941446806674 
366	 0.114871526443071 
367	 0.115775444713447 
368	 0.11576170279015 
369	 0.117271870507578 
370	 0.118335273405677 
371	 0.119223929979575 
372	 0.121216297663676 
373	 0.122311672088693 
374	 0.123267089112695 
375	 0.124634285184405 
376	 0.126227205101781 
377	 0.128276687937741 
378	 0.129855160890707 
379	 0.130477619465893 
380	 0.132045502931766 
381	 0.134414521419488 
382	 0.136660542631373 
383	 0.137720265847773 
384	 0.139470744116135 
385	 0.141614924640567 
386	 0.143663403217429 
387	 0.14528143027323 
388	 0.146121451001328 
389	 0.14741432540928 
390	 0.150009175852739 
391	 0.151773490708113 
392	 0.154041692276087 
393	 0.156532942642269 
394	 0.158054625223896 
395	 0.160029438173875 
396	 0.162076865308354 
397	 0.164021022221692 
398	 0.166454499943724 
399	 0.16841045091314 
400	 0.170144547557379 
401	 0.172133551355835 
402	 0.174090357010777 
403	 0.176648626931336 
404	 0.179458089434876 
405	 0.181530282154434 
406	 0.183718033282693 
407	 0.185828669117804 
408	 0.187845775608283 
409	 0.190403912338166 
410	 0.192952459757723 
411	 0.195543714993447 
412	 0.19830478525986 
413	 0.200740023189031 
414	 0.203103550392642 
415	 0.205577991636164 
416	 0.208210025756144 
417	 0.210573068321941 
418	 0.213040837286324 
419	 0.215854784552803 
420	 0.218706932470235 
421	 0.221111480642208 
422	 0.223435534273196 
423	 0.226241329993745 
424	 0.228787463269041 
425	 0.231221267778024 
426	 0.233602617935821 
427	 0.235813046604294 
428	 0.238181659124956 
429	 0.2405125214033 
430	 0.242655439151497 
431	 0.244986788724304 
432	 0.247399475031532 
433	 0.249694104464557 
434	 0.251696346187197 
435	 0.253842197098607 
436	 0.256009897256615 
437	 0.258081487700924 
438	 0.260032811628561 
439	 0.26203762960088 
440	 0.264133719580954 
441	 0.266244381943739 
442	 0.268034196564225 
443	 0.269796603832178 
444	 0.271524390016513 
445	 0.27297758701172 
446	 0.274384939472775 
447	 0.275741104213506 
448	 0.277044215129574 
449	 0.278395751317519 
450	 0.279664100302754 
451	 0.280816600097973 
452	 0.281875020377333 
453	 0.282938241482721 
454	 0.283859756498986 
455	 0.284579755280832 
456	 0.285159167186731 
457	 0.285698514322877 
458	 0.286148662832566 
459	 0.286463607932328 
460	 0.286749455546006 
461	 0.286697257178934 
462	 0.286332212233101 
463	 0.285871604387701 
464	 0.285379208966713 
465	 0.284650185236569 
466	 0.283574119913027 
467	 0.282220811377588 
468	 0.280860921642731 
469	 0.279343419525535 
470	 0.277495569107557 
471	 0.275654343124593 
472	 0.273626625556258 
473	 0.271408819940914 
474	 0.269160820294947 
475	 0.266903046321616 
476	 0.264414690707002 
477	 0.261660284886924 
478	 0.259102796850286 
479	 0.256406452052724 
480	 0.253564371682084 
481	 0.250672511917738 
482	 0.247631552413701 
483	 0.244647383275358 
484	 0.241720217867724 
485	 0.238609051946408 
486	 0.235690175986281 
487	 0.232906682190456 
488	 0.23012477530419 
489	 0.227296147128352 
490	 0.224581755081897 
491	 0.221995103195928 
492	 0.219464654255299 
493	 0.21704698896408 
494	 0.214759459403096 
495	 0.212595496013444 
496	 0.210527540786582 
497	 0.208516818966005 
498	 0.206545871837737 
499	 0.204596057535042 
500	 0.202597141422781 
501	 0.200532763120581 
502	 0.198361288414743 
503	 0.196024645204244 
504	 0.19364767795119 
505	 0.191182878162737 
506	 0.188629882759813 
507	 0.186187349185973 
508	 0.183684063288222 
509	 0.181194031691078 
510	 0.17887932358473 
511	 0.176677006163763 
512	 0.174558112162333 
513	 0.172492335175514 
514	 0.170444030346419 
515	 0.168278320836052 
516	 0.166092706120306 
517	 0.1639816062681 
518	 0.161804295188161 
519	 0.159577666777409 
520	 0.15735381823923 
521	 0.155199697931581 
522	 0.153077104937938 
523	 0.150938120266236 
524	 0.148788950671446 
525	 0.14673203738481 
526	 0.144763078394435 
527	 0.142901508857072 
528	 0.141164494160725 
529	 0.139542516190983 
530	 0.138002735822524 
531	 0.136566099810082 
532	 0.135311325012182 
533	 0.134146091804306 
534	 0.133101604786897 
535	 0.132217545961736 
536	 0.131473426496478 
537	 0.130867470339889 
538	 0.130379579413676 
539	 0.129986586527572 
540	 0.12973536423502 
541	 0.129631520959415 
542	 0.129656472940255 
543	 0.129756937426962 
544	 0.130056912122225 
545	 0.130481105734715 
546	 0.130954892618079 
547	 0.131706823578691 
548	 0.132587499629251 
549	 0.133549807896229 
550	 0.134649886645138 
551	 0.13586356747475 
552	 0.137173257645868 
553	 0.138534140038877 
554	 0.139831083213638 
555	 0.141090051554737 
556	 0.142287088275651 
557	 0.143371067758419 
558	 0.144284182840007 
559	 0.145041301513098 
560	 0.145613965533276 
561	 0.145902305815217 
562	 0.146018344639987 
563	 0.145959454557695 
564	 0.145703960226792 
565	 0.145286129248594 
566	 0.144679837476327 
567	 0.143881648679776 
568	 0.142907962529034 
569	 0.141793168054492 
570	 0.140467905168355 
571	 0.138935304727293 
572	 0.137393046647381 
573	 0.135690513210468 
574	 0.133840377971424 
575	 0.131906401759992 
576	 0.129881980354665 
577	 0.127750510947461 
578	 0.125555960653709 
579	 0.123413592164976 
580	 0.121254128801256 
581	 0.119099981006633 
582	 0.116999336923276 
583	 0.115020529313661 
584	 0.11312262370035 
585	 0.111320893758574 
586	 0.109669783828603 
587	 0.108279919221534 
588	 0.107114421798858 
589	 0.10612611659746 
590	 0.105281353394483 
591	 0.104682101968874 
592	 0.104288819383868 
593	 0.104032233269456 
594	 0.103926028016505 
595	 0.103952190131698 
596	 0.10407270259038 
597	 0.104236299173493 
598	 0.10447638013371 
599	 0.104738066939321 
600	 0.104986379011973 
601	 0.105270048470006 
602	 0.105536091550485 
603	 0.105791606450891 
604	 0.106060361248307 
605	 0.106285785803646 
606	 0.106527624529896 
607	 0.106798310793363 
608	 0.107040538040338 
609	 0.107245433696595 
610	 0.107462549036414 
611	 0.107719904980382 
612	 0.107914430954783 
613	 0.108140029911868 
614	 0.108376478135298 
615	 0.108540703116315 
616	 0.108729313419078 
617	 0.108887861735901 
618	 0.108996066657826 
619	 0.109131906059913 
620	 0.109223405913884 
621	 0.109254081450675 
622	 0.109228468001914 
623	 0.109153559081634 
624	 0.109045023672797 
625	 0.108906370506194 
626	 0.108727201179981 
627	 0.108458179630494 
628	 0.108146657645066 
629	 0.107833753011386 
630	 0.107496547542542 
631	 0.107148292361664 
632	 0.106776321397434 
633	 0.106371017536645 
634	 0.106016648373573 
635	 0.10565896098253 
636	 0.105299198902919 
637	 0.105021926205963 
638	 0.104786369101866 
639	 0.104575296569421 
640	 0.104386086499656 
641	 0.104240810785241 
642	 0.104176231335358 
643	 0.104195230432892 
644	 0.104278025773789 
645	 0.104416733452927 
646	 0.104644210504464 
647	 0.104967951843982 
648	 0.105346725573182 
649	 0.105795104480345 
650	 0.106316057868486 
651	 0.106917175056885 
652	 0.107635082178066 
653	 0.108450249552321 
654	 0.10936932636756 
655	 0.110415884324989 
656	 0.111522891621585 
657	 0.112740070364071 
658	 0.114109465786568 
659	 0.115621508742308 
660	 0.117265757737278 
661	 0.119031152488641 
662	 0.120924799554328 
663	 0.123052843818689 
664	 0.125305128295826 
665	 0.127686218148825 
666	 0.130322009298065 
667	 0.133191309220188 
668	 0.136251171543782 
669	 0.139494489553347 
670	 0.143029577539896 
671	 0.146837498795341 
672	 0.150901415786405 
673	 0.155222119161351 
674	 0.159878476244751 
675	 0.164883345694121 
676	 0.170240665827751 
677	 0.175952462941228 
678	 0.181988046845437 
679	 0.188402102403792 
680	 0.195252705500593 
681	 0.202536427754795 
682	 0.210255587542994 
683	 0.218389804588998 
684	 0.226925737510713 
685	 0.235932479267085 
686	 0.245438821781195 
687	 0.255421019134191 
688	 0.265795760870702 
689	 0.276614508320466 
690	 0.287871131534972 
691	 0.29954939412459 
692	 0.311618108498945 
693	 0.324013019873817 
694	 0.336757094775447 
695	 0.349884478957506 
696	 0.363284108556039 
697	 0.376885354084436 
698	 0.390641995556875 
699	 0.404541618532734 
700	 0.418642851512769 
701	 0.432842011995568 
702	 0.4470175277101 
703	 0.461157686422991 
704	 0.475220268905964 
705	 0.489183731698362 
706	 0.503034430269353 
707	 0.516762877399168 
708	 0.530187271833291 
709	 0.543211442218696 
710	 0.555896448791979 
711	 0.568322200904575 
712	 0.580503739309217 
713	 0.592363985687709 
714	 0.603631333255855 
715	 0.61445118316345 
716	 0.624852303607348 
717	 0.634781854801795 
718	 0.644483478650791 
719	 0.653754901475035 
720	 0.662485245296643 
721	 0.670814024206379 
722	 0.678720894138558 
723	 0.686200217465594 
724	 0.693257727899189 
725	 0.699975884748678 
726	 0.706277496837933 
727	 0.712156722067301 
728	 0.717669064905662 
729	 0.722884783002259 
730	 0.727804869544016 
731	 0.73240593635514 
732	 0.736639752909699 
733	 0.740738907212021 
734	 0.744588979488156 
735	 0.74808247881863 
736	 0.75156334695598 
737	 0.754622894810934 
738	 0.757360036366009 
739	 0.760165739064428 
740	 0.76273185452212 
741	 0.765098298953056 
742	 0.767299417119986 
743	 0.76930156415099 
744	 0.7713601624304 
745	 0.773297459798107 
746	 0.774916064872584 
747	 0.776357557985418 
748	 0.777800546934068 
749	 0.779263333185505 
750	 0.780645844936952 
751	 0.781796128079502 
752	 0.782799935654809 
753	 0.783803802140733 
754	 0.784984983849832 
755	 0.786122714015145 
756	 0.787086291937297 
757	 0.787846073475448 
758	 0.78855415228682 
759	 0.789323002477668 
760	 0.790109809775286 
761	 0.790819884890389 
762	 0.79161106435546 
763	 0.792255034554888 
764	 0.7927423245527 
765	 0.793319486988831 
766	 0.793924700887116 
767	 0.79453544724399 
768	 0.795099774615939 
769	 0.795472131499183 
770	 0.795927354428301 
771	 0.796407818172486 
772	 0.796775934107669 
773	 0.797155376441556 
774	 0.797599704872612 
775	 0.798080272581929 
776	 0.798501629445361 
777	 0.798782809304415 
778	 0.799130491805295 
779	 0.799574390643647 
780	 0.799771916234975 
781	 0.800123329394343 
782	 0.800556308287709 
783	 0.800907404510781 
784	 0.801206583429077 
785	 0.801466714469954 
786	 0.801705233135023 
787	 0.801937619192226 
788	 0.802141935521573 
789	 0.802400475465447 
790	 0.802708116177712 
791	 0.802950510804086 
792	 0.803138281944081 
793	 0.80330187485747 
794	 0.803463217520033 
795	 0.803601450054262 
796	 0.803770996593547 
797	 0.804033708559239 
798	 0.804386765171283 
799	 0.804547850500735 
800	 0.804611842821747 
801	 0.804710464507438 
802	 0.804959397323197 
803	 0.805150209488412 
804	 0.80539649557434 
805	 0.805693962338477 
806	 0.805805754065529 
807	 0.805895001617689 
808	 0.805962393225997 
809	 0.806033959010826 
810	 0.806343585194145 
811	 0.806556505145472 
812	 0.806665265050337 
813	 0.806798695122389 
814	 0.806907609786021 
815	 0.807010312702154 
816	 0.807140171340438 
817	 0.807330598630107 
818	 0.807507624867578 
819	 0.807634548762806 
820	 0.807705291007268 
821	 0.80774703995544 
822	 0.807982541384174 
823	 0.808217976976348 
824	 0.808262320384987 
825	 0.808283920103413 
826	 0.808483807671155 
827	 0.808746166583004 
828	 0.808854530776578 
829	 0.809007954542274 
830	 0.809039495266099 
831	 0.808984754063549 
832	 0.809047922352503 
833	 0.809032856651987 
834	 0.809121564719174 
835	 0.809325607545435 
836	 0.809324236546683 
837	 0.809406050034414 
838	 0.809470616344176 
839	 0.8094323672111 
840	 0.80952264545582 
841	 0.809587362696954 
842	 0.809649302913205 
843	 0.809772654720454 
844	 0.809866891087168 
845	 0.809906742388449 
846	 0.809898816779129 
847	 0.809878819300262 
848	 0.809919531622867 
849	 0.809946440256344 
850	 0.809929368179829 
851	 0.809917388161432 
852	 0.809944947884155 
853	 0.81001951945234 
854	 0.810096804852813 
855	 0.810039705779636 
856	 0.810008601044506 
857	 0.810055601610622 
858	 0.810158782247219 
859	 0.810167486490975 
860	 0.810283843918579 
861	 0.810432161554542 
862	 0.810420282460714 
863	 0.81031117589399 
864	 0.810175717387905 
865	 0.810151460042331 
866	 0.810363285449654 
867	 0.810293212467361 
868	 0.810137800173394 
869	 0.810102154632261 
870	 0.810242807276093 
871	 0.810324193859378 
872	 0.810257677343227 
873	 0.810100534663381 
874	 0.810138426594024 
875	 0.810105036321222 
876	 0.810088370099893 
877	 0.810187740803265 
878	 0.81014364971395 
879	 0.81009241709265 
880	 0.809995563583657 
881	 0.809771209794064 
882	 0.809564703425324 
883	 0.809479385444764 
884	 0.809476659472739 
885	 0.809417834686933 
886	 0.809303611247477 
887	 0.809146464026262 
888	 0.8089607581201 
889	 0.808765868990566 
890	 0.808733485254332 
891	 0.80867824501761 
892	 0.808438250556714 
893	 0.808009412402503 
894	 0.807840533844648 
895	 0.807849015931396 
896	 0.807817244357819 
897	 0.807586549774828 
898	 0.807309129084477 
899	 0.807047020999608 
900	 0.806801065594865 
901	 0.806453484777058 
902	 0.806263381045596 
903	 0.806140451351652 
904	 0.805872267859345 
905	 0.805625624455012 
906	 0.805492511916233 
907	 0.805413198679013 
908	 0.805256169351661 
909	 0.805227686393386 
910	 0.805166931650478 
911	 0.804997948514224 
912	 0.804792293261199 
913	 0.804859861109433 
914	 0.80483392604474 
915	 0.804618576972306 
916	 0.80460837489887 
917	 0.804505740181733 
918	 0.804397048061073 
919	 0.804328440462406 
920	 0.804134495024065 
921	 0.803984490969448 
922	 0.803957427752546 
923	 0.804020835174692 
924	 0.803932392320797 
925	 0.80398724445083 
926	 0.804002328356455 
927	 0.80378576576179 
928	 0.803635581069086 
929	 0.803641630328031 
930	 0.803736181090187 
931	 0.803765796176673 
932	 0.803559361762595 
933	 0.803524845711873 
934	 0.803617133421622 
935	 0.803563715079203 
936	 0.803410115584328 
937	 0.803242974318393 
938	 0.803116545581943 
939	 0.803053587857628 
940	 0.80310078416884 
941	 0.803011191755798 
942	 0.802798791820193 
943	 0.802690845211422 
944	 0.802506908443857 
945	 0.802342815025829 
946	 0.802222508174419 
947	 0.80206295045802 
948	 0.801832895520572 
949	 0.801502650957901 
950	 0.801122842861223 
951	 0.800824288518767 
952	 0.800527479332414 
953	 0.800179816951523 
954	 0.799791504775075 
955	 0.799448438349497 
956	 0.798962500847905 
957	 0.798413520380829 
958	 0.797902841981591 
959	 0.797460076910457 
960	 0.797124820485413 
961	 0.796803745362591 
962	 0.796395948092699 
963	 0.795860428919439 
964	 0.795265399637328 
965	 0.794793533431144 
966	 0.794499373033061 
967	 0.794106746634801 
968	 0.793629747910178 
969	 0.793181049550486 
970	 0.792821597609929 
971	 0.79240167157923 
972	 0.791908893462686 
973	 0.791473970308002 
974	 0.791182826673587 
975	 0.790876642283728 
976	 0.790521252334057 
977	 0.790144940979938 
978	 0.789773852548951 
979	 0.789345130759028 
980	 0.788907680172996 
981	 0.788454476641442 
982	 0.787991892267029 
983	 0.787634139970019 
984	 0.787184694130352 
985	 0.786694539267986 
986	 0.786266559574252 
987	 0.785854865142674 
988	 0.7854619835271 
989	 0.785033088838142 
990	 0.784509031647746 
991	 0.783867988867506 
992	 0.783315351663838 
993	 0.782848729322823 
994	 0.782406095070649 
995	 0.782046165873498 
996	 0.781560504373404 
997	 0.780893239170577 
998	 0.780122520094725 
999	 0.77951115555275 
1000	 0.778885099544802 
1001	 0.782539120110882 
1002	 0.781971677474929 
1003	 0.781323952057994 
1004	 0.780690247639167 
1005	 0.78007763154909 
1006	 0.779408867635808 
1007	 0.778697385072991 
1008	 0.777982325781765 
1009	 0.777249223401932 
1010	 0.776517258613924 
1011	 0.775757814389336 
1012	 0.775003335567756 
1013	 0.774252042526616 
1014	 0.773505896055564 
1015	 0.772771063988704 
1016	 0.772017218868407 
1017	 0.771242365821453 
1018	 0.77047268846276 
1019	 0.769646491079666 
1020	 0.768755795372918 
1021	 0.767898679486067 
1022	 0.767021799976023 
1023	 0.766159778984257 
1024	 0.765333843094726 
1025	 0.764468653340798 
1026	 0.76359880270605 
1027	 0.762696958350257 
1028	 0.761766586578486 
1029	 0.760797912862964 
1030	 0.759849138375444 
1031	 0.758886851349348 
1032	 0.757941797554629 
1033	 0.756981399682424 
1034	 0.755938001701174 
1035	 0.754917879248043 
1036	 0.75385063552315 
1037	 0.752665388304605 
1038	 0.751598550160809 
1039	 0.750595483003508 
1040	 0.749522734640781 
1041	 0.748494161746537 
1042	 0.747426456153747 
1043	 0.746301009870795 
1044	 0.745164836221521 
1045	 0.744048029267581 
1046	 0.742874018114701 
1047	 0.741746431708572 
1048	 0.740620019264837 
1049	 0.739507178913354 
1050	 0.738385119794713 
1051	 0.737183560945077 
1052	 0.736021110900994 
1053	 0.734804513704808 
1054	 0.733518246790899 
1055	 0.732278473926841 
1056	 0.731052556936994 
1057	 0.729760901281059 
1058	 0.728459811444542 
1059	 0.727181692720234 
1060	 0.7257570123337 
1061	 0.724395212227469 
1062	 0.723044293500498 
1063	 0.721604178535613 
1064	 0.720239825378569 
1065	 0.718848770588986 
1066	 0.717422625471708 
1067	 0.716008623167238 
1068	 0.714494214761945 
1069	 0.71299010862886 
1070	 0.711461653618824 
1071	 0.709890414273183 
1072	 0.708290326739526 
1073	 0.706804227063993 
1074	 0.705244748311409 
1075	 0.703665431187423 
1076	 0.702105109895006 
1077	 0.700402638520721 
1078	 0.698775507284897 
1079	 0.69710653014853 
1080	 0.695373967315011 
1081	 0.693787547664384 
1082	 0.692070718633588 
1083	 0.690354818316871 
1084	 0.688688277475612 
1085	 0.686847550116349 
1086	 0.685056064474374 
1087	 0.683291481494391 
1088	 0.681442150660628 
1089	 0.679510986800948 
1090	 0.677740709577312 
1091	 0.675860598393381 
1092	 0.673969481809695 
1093	 0.67213985879708 
1094	 0.670158872733803 
1095	 0.668216252306752 
1096	 0.666239654713435 
1097	 0.664194250237722 
1098	 0.66226700379076 
1099	 0.660299242584365 
1100	 0.658342368787252 
1101	 0.656375970703349 
1102	 0.654259105358832 
1103	 0.652179562582862 
1104	 0.650074898089225 
1105	 0.647904593558712 
1106	 0.645732907368349 
1107	 0.643717836937867 
1108	 0.641610431583514 
1109	 0.639521072046116 
1110	 0.637468936834467 
1111	 0.635245007123055 
1112	 0.633049634672249 
1113	 0.630812255828775 
1114	 0.628523497025946 
1115	 0.626377774613477 
1116	 0.624179060297296 
1117	 0.622003457302541 
1118	 0.619795998762738 
1119	 0.617552583229445 
1120	 0.615292796946581 
1121	 0.613048853625273 
1122	 0.61071027742015 
1123	 0.608301954990727 
1124	 0.606056891821373 
1125	 0.603677653153306 
1126	 0.601304601427869 
1127	 0.598965434311742 
1128	 0.596431438453327 
1129	 0.593960273392142 
1130	 0.591407795914499 
1131	 0.588782464704807 
1132	 0.586326427761223 
1133	 0.583781200378335 
1134	 0.581273102262098 
1135	 0.578716851939752 
1136	 0.576111522205115 
1137	 0.573506728176173 
1138	 0.570881660587985 
1139	 0.568230704912066 
1140	 0.565514950030015 
1141	 0.563008214622598 
1142	 0.560382010513218 
1143	 0.557768760444923 
1144	 0.555234955982501 
1145	 0.552522321863081 
1146	 0.549894125412439 
1147	 0.547218773882309 
1148	 0.544470250551675 
1149	 0.541916078987499 
1150	 0.539273092675288 
1151	 0.53667024301281 
1152	 0.534046221037283 
1153	 0.531394187122543 
1154	 0.528757799843377 
1155	 0.526141732667957 
1156	 0.523474268896735 
1157	 0.520822509197467 
1158	 0.518201542025168 
1159	 0.515533605571067 
1160	 0.512889977466349 
1161	 0.510338740668088 
1162	 0.50761829580259 
1163	 0.505007967481967 
1164	 0.502397263119587 
1165	 0.499703402019464 
1166	 0.497208277133108 
1167	 0.49468302092561 
1168	 0.492190010905195 
1169	 0.489732277738016 
1170	 0.487341084525994 
1171	 0.484926348607785 
1172	 0.482503974579254 
1173	 0.480109595086019 
1174	 0.477749417874647 
1175	 0.475444208213744 
1176	 0.473170476851385 
1177	 0.470907341548972 
1178	 0.468713380243417 
1179	 0.466426651364318 
1180	 0.464246177698802 
1181	 0.462055707047534 
1182	 0.459854042446814 
1183	 0.457832784838255 
1184	 0.45575559183594 
1185	 0.453712990913446 
1186	 0.451705529751116 
1187	 0.449717277754019 
1188	 0.447776716306124 
1189	 0.445873589980516 
1190	 0.443996849505681 
1191	 0.442183478020499 
1192	 0.440397336044888 
1193	 0.438628872243109 
1194	 0.436889090860319 
1195	 0.435173372265721 
1196	 0.433481220109536 
1197	 0.431832126677662 
1198	 0.430164507387907 
1199	 0.428485067422671 
1200	 0.426939618632015 
1201	 0.425346547633838 
1202	 0.423792964438502 
1203	 0.422298181612289 
1204	 0.420735887259345 
1205	 0.419258146362223 
1206	 0.417799477308792 
1207	 0.416384979140389 
1208	 0.415026416288395 
1209	 0.413699311658514 
1210	 0.412393059040602 
1211	 0.411133820063968 
1212	 0.409913120032883 
1213	 0.408725553992495 
1214	 0.407583690833466 
1215	 0.406460913442894 
1216	 0.405365241737186 
1217	 0.404318950774079 
1218	 0.403313508819277 
1219	 0.402329997416394 
1220	 0.401387545372365 
1221	 0.400401022487459 
1222	 0.399440148693722 
1223	 0.3984790208122 
1224	 0.397513315632545 
1225	 0.396562822958872 
1226	 0.395610901619909 
1227	 0.39465146908926 
1228	 0.39368631562469 
1229	 0.392717856563788 
1230	 0.391759219164625 
1231	 0.390800428138627 
1232	 0.389827068906877 
1233	 0.388862006939025 
1234	 0.387902424170468 
1235	 0.386930501975625 
1236	 0.385956561791358 
1237	 0.384978763173013 
1238	 0.384015675545585 
1239	 0.383061376682091 
1240	 0.382093396669529 
1241	 0.381099049980365 
1242	 0.380182453267458 
1243	 0.379251937866064 
1244	 0.378318808805683 
1245	 0.377384170632835 
1246	 0.376467636801226 
1247	 0.375552759436618 
1248	 0.37461406336769 
1249	 0.373701718698586 
1250	 0.372826980586267 
1251	 0.371940359846239 
1252	 0.371038394067928 
1253	 0.370162911295495 
1254	 0.369299860331783 
1255	 0.36844137065671 
1256	 0.367590236688389 
1257	 0.366750349624814 
1258	 0.365912008985455 
1259	 0.365099886594276 
1260	 0.364316349058681 
1261	 0.363528574318773 
1262	 0.362755351078218 
1263	 0.361973066685934 
1264	 0.361230660617401 
1265	 0.360500232405929 
1266	 0.359778532226025 
1267	 0.359079632210016 
1268	 0.358406473830238 
1269	 0.35773661281918 
1270	 0.357098419214443 
1271	 0.35650405011937 
1272	 0.355913788358603 
1273	 0.355343210822305 
1274	 0.354770930919209 
1275	 0.354206298589217 
1276	 0.353670362443963 
1277	 0.353146269825347 
1278	 0.352633443461018 
1279	 0.352149764900564 
1280	 0.351675678815861 
1281	 0.351196067234389 
1282	 0.350747496685821 
1283	 0.350327201153454 
1284	 0.349927178563205 
1285	 0.349548272709175 
1286	 0.349192219351752 
1287	 0.348847665449561 
1288	 0.348528221447741 
1289	 0.348208446428732 
1290	 0.347896385970337 
1291	 0.34760017573911 
1292	 0.347307700200003 
1293	 0.347047091014482 
1294	 0.346815475187882 
1295	 0.346581934771507 
1296	 0.346363594735342 
1297	 0.346157651108179 
1298	 0.34596200497454 
1299	 0.345769107831215 
1300	 0.34558585239771 
1301	 0.34541717089058 
1302	 0.345245089898975 
1303	 0.345096688719727 
1304	 0.344981458011122 
1305	 0.344861420012821 
1306	 0.344753395903583 
1307	 0.344643699847542 
1308	 0.344532614059987 
1309	 0.344422187393851 
1310	 0.344336573587502 
1311	 0.34426111123121 
1312	 0.344191512114533 
1313	 0.344134170565966 
1314	 0.344094635499926 
1315	 0.344053802012538 
1316	 0.344046852540925 
1317	 0.344081855681132 
1318	 0.344095790034201 
1319	 0.344117541344185 
1320	 0.344140015890622 
1321	 0.344150206785123 
1322	 0.344183037312062 
1323	 0.344234196534953 
1324	 0.344281853519122 
1325	 0.344338071703868 
1326	 0.344395770224 
1327	 0.34446009578726 
1328	 0.344516707460732 
1329	 0.34457091972459 
1330	 0.344627981521717 
1331	 0.344680266994019 
1332	 0.344734310118404 
1333	 0.344789441856933 
1334	 0.344854636295721 
1335	 0.344907898328096 
1336	 0.344952524448063 
1337	 0.345009443421635 
1338	 0.345068424304614 
1339	 0.345127950935479 
1340	 0.345199631304999 
1341	 0.3452523258525 
1342	 0.345296662841428 
1343	 0.345339329000348 
1344	 0.345373571130414 
1345	 0.345409168018822 
1346	 0.345451893758916 
1347	 0.345473227138527 
1348	 0.345482836783448 
1349	 0.345489272091932 
1350	 0.345483134610333 
1351	 0.345474625235323 
1352	 0.345452797575888 
1353	 0.345447112691838 
1354	 0.34544308415787 
1355	 0.345440441885423 
1356	 0.345452271169648 
1357	 0.345458781527604 
1358	 0.345453639767121 
1359	 0.345459005787895 
1360	 0.345471853028596 
1361	 0.345490132839825 
1362	 0.345500824601462 
1363	 0.345503977043107 
1364	 0.345495859151438 
1365	 0.345480599932033 
1366	 0.345444025187756 
1367	 0.34539671492302 
1368	 0.345334335920432 
1369	 0.345251622374472 
1370	 0.34516267728454 
1371	 0.345068366085666 
1372	 0.344954522374703 
1373	 0.344834861414973 
1374	 0.34468009229959 
1375	 0.344508205281287 
1376	 0.344303595581649 
1377	 0.344072194920158 
1378	 0.343806172549281 
1379	 0.343515752929972 
1380	 0.343186740705654 
1381	 0.34282982220095 
1382	 0.342423803725488 
1383	 0.341975269859417 
1384	 0.341492861553364 
1385	 0.340980844132909 
1386	 0.340415225871948 
1387	 0.339783006695818 
1388	 0.339158889899425 
1389	 0.338503923451742 
1390	 0.337827443027253 
1391	 0.337160675216864 
1392	 0.33644299808238 
1393	 0.335724329230533 
1394	 0.334944333867631 
1395	 0.33415059298378 
1396	 0.333342346764264 
1397	 0.332503442358367 
1398	 0.331642844133338 
1399	 0.330718219260601 
1400	 0.329764867985326 
1401	 0.328751298750176 
1402	 0.327680258893636 
1403	 0.326550950176516 
1404	 0.325376236106022 
1405	 0.324159468173969 
1406	 0.322862022546386 
1407	 0.321566858386921 
1408	 0.320191605966545 
1409	 0.318905155987411 
1410	 0.317598267056683 
1411	 0.316382081888073 
1412	 0.315223663698682 
1413	 0.314144287352741 
1414	 0.313120333901216 
1415	 0.312164582415554 
1416	 0.311308978213991 
1417	 0.310470881221573 
1418	 0.309701729948701 
1419	 0.308930662526161 
1420	 0.308200670186078 
1421	 0.307466667714703 
1422	 0.306737428370935 
1423	 0.306015008863658 
1424	 0.305310830820363 
1425	 0.304574698950787 
1426	 0.303895834431845 
1427	 0.303226496486973 
1428	 0.302568750591814 
1429	 0.301973798219303 
1430	 0.301367674625529 
1431	 0.300768502418138 
1432	 0.300193938662507 
1433	 0.299639913038006 
1434	 0.299093135146605 
1435	 0.298557677370876 
1436	 0.298043774911182 
1437	 0.297542948299044 
1438	 0.297065903874274 
1439	 0.296625841339978 
1440	 0.296166739383323 
1441	 0.295709061659081 
1442	 0.295260890094797 
1443	 0.294812663377672 
1444	 0.294367741917723 
1445	 0.293939267738333 
1446	 0.293506286910122 
1447	 0.293050871453043 
1448	 0.292634657807748 
1449	 0.292243469685072 
1450	 0.291846754151037 
1451	 0.29147374285915 
1452	 0.291090740315234 
1453	 0.290701321885502 
1454	 0.290315862176277 
1455	 0.289933463771087 
1456	 0.289550977958856 
1457	 0.289160344336675 
1458	 0.288780374408034 
1459	 0.288408293905561 
1460	 0.288037987021336 
1461	 0.287671447446725 
1462	 0.287314479598487 
1463	 0.286959331881933 
1464	 0.286612545561635 
1465	 0.286280665374782 
1466	 0.285941998932196 
1467	 0.285625005098609 
1468	 0.285315566783012 
1469	 0.285020889245173 
1470	 0.284742351696872 
1471	 0.28445239875972 
1472	 0.284172703085254 
1473	 0.283867041295504 
1474	 0.283544540034197 
1475	 0.283233259119531 
1476	 0.282922591062278 
1477	 0.282584795078247 
1478	 0.282241506807711 
1479	 0.281895450752745 
1480	 0.281525983147938 
1481	 0.281156280690148 
1482	 0.280790653399221 
1483	 0.280418869301591 
1484	 0.28002406889972 
1485	 0.279647025674855 
1486	 0.279286598247813 
1487	 0.278916562846812 
1488	 0.278534212407174 
1489	 0.278172068944429 
1490	 0.277799015517058 
1491	 0.277470073286828 
1492	 0.277164783709222 
1493	 0.27688202181911 
1494	 0.276626135824944 
1495	 0.276399115972695 
1496	 0.276199402245419 
1497	 0.276016098317423 
1498	 0.275861843257894 
1499	 0.275726739139198 
1500	 0.275598088556824 
1501	 0.275509118694757 
1502	 0.275462406802767 
1503	 0.275423911591355 
1504	 0.275412671608474 
1505	 0.275414460074993 
1506	 0.275425890237316 
1507	 0.275461199218413 
1508	 0.275533015677517 
1509	 0.275597015966538 
1510	 0.275674427740235 
1511	 0.275752586632892 
1512	 0.27582286369952 
1513	 0.27590884599946 
1514	 0.27600856912701 
1515	 0.276112028034548 
1516	 0.276216327700814 
1517	 0.276338976810846 
1518	 0.276470891444865 
1519	 0.276615593907699 
1520	 0.276777910792867 
1521	 0.276952113955725 
1522	 0.277129904193767 
1523	 0.27733284597707 
1524	 0.277542183598098 
1525	 0.277764641672091 
1526	 0.278003028654229 
1527	 0.27825276504549 
1528	 0.27852094702577 
1529	 0.27880342788002 
1530	 0.27911223158202 
1531	 0.279443780215409 
1532	 0.279782706729743 
1533	 0.280151191740773 
1534	 0.280504583165725 
1535	 0.280856439664547 
1536	 0.281218586493399 
1537	 0.281586677830159 
1538	 0.281953389848178 
1539	 0.282338582491723 
1540	 0.282689425635847 
1541	 0.283021452651266 
1542	 0.283360475938904 
1543	 0.283689631965008 
1544	 0.284008842201116 
1545	 0.284340365812553 
1546	 0.284632626805605 
1547	 0.28489584431567 
1548	 0.285151483760731 
1549	 0.285380948381263 
1550	 0.285619015949031 
1551	 0.285852349683981 
1552	 0.286074776829409 
1553	 0.286296176134127 
1554	 0.286504101251772 
1555	 0.286685672957194 
1556	 0.286889110901222 
1557	 0.287086938820128 
1558	 0.287306896225335 
1559	 0.287538265197449 
1560	 0.287786955230261 
1561	 0.288054984997607 
1562	 0.288328006657126 
1563	 0.288609664039392 
1564	 0.288911267197712 
1565	 0.289225767149581 
1566	 0.289552333168283 
1567	 0.289900380526869 
1568	 0.290254664742275 
1569	 0.290618462342202 
1570	 0.29098971874826 
1571	 0.291379768250945 
1572	 0.291762320794292 
1573	 0.292143445098409 
1574	 0.292532122634279 
1575	 0.292929282741628 
1576	 0.293318504322916 
1577	 0.293708694740436 
1578	 0.294099553186619 
1579	 0.294483431422008 
1580	 0.29487042485726 
1581	 0.295261173910938 
1582	 0.29565382773017 
1583	 0.296046069324595 
1584	 0.29644037357586 
1585	 0.296832965175072 
1586	 0.297238385872342 
1587	 0.297647884260229 
1588	 0.298062959569973 
1589	 0.29848156579347 
1590	 0.298920190653784 
1591	 0.299377996155219 
1592	 0.299829661156757 
1593	 0.300298851956423 
1594	 0.300760264490698 
1595	 0.301209731386043 
1596	 0.301664028446694 
1597	 0.302131511949212 
1598	 0.302583528748449 
1599	 0.303024577908799 
1600	 0.303468406631763 
1601	 0.303893217783928 
1602	 0.304341846206919 
1603	 0.304820481156288 
1604	 0.305269176652155 
1605	 0.305717643947061 
1606	 0.306156683620614 
1607	 0.306562746001444 
1608	 0.30698674176974 
1609	 0.307423147768316 
1610	 0.307852650819471 
1611	 0.308292828801086 
1612	 0.30871004593566 
1613	 0.309110001925689 
1614	 0.309512150547438 
1615	 0.309907191417285 
1616	 0.310289559246609 
1617	 0.310669141968583 
1618	 0.311040566916269 
1619	 0.311395527488416 
1620	 0.311744037168977 
1621	 0.31208008792551 
1622	 0.312422543497016 
1623	 0.312770230715955 
1624	 0.313101347817671 
1625	 0.313426226932754 
1626	 0.313752946215574 
1627	 0.314075356159641 
1628	 0.314374864826963 
1629	 0.314669741850265 
1630	 0.314954370210203 
1631	 0.315203641985386 
1632	 0.315469195393151 
1633	 0.315750304735118 
1634	 0.316016367844235 
1635	 0.316274722952657 
1636	 0.316528208101815 
1637	 0.316786818138249 
1638	 0.317013346090367 
1639	 0.317231370108768 
1640	 0.317424940944603 
1641	 0.317565087233537 
1642	 0.317730635952364 
1643	 0.317898439593975 
1644	 0.318057093507715 
1645	 0.318232918684466 
1646	 0.318381092443885 
1647	 0.318514989495525 
1648	 0.318627253028462 
1649	 0.318727386015551 
1650	 0.318795458373792 
1651	 0.31883869717971 
1652	 0.318852939868472 
1653	 0.318845139229036 
1654	 0.318798197715736 
1655	 0.318710187281367 
1656	 0.318604352113704 
1657	 0.318464173111988 
1658	 0.318302754541286 
1659	 0.318142190287551 
1660	 0.317918303672315 
1661	 0.31764823722314 
1662	 0.3173429944476 
1663	 0.316994187810737 
1664	 0.316592061601078 
1665	 0.316174535799148 
1666	 0.315657912330608 
1667	 0.315057850102805 
1668	 0.314412685921066 
1669	 0.313696754096818 
1670	 0.312923639120866 
1671	 0.312088885648625 
1672	 0.311205249094633 
1673	 0.310250168810395 
1674	 0.309260984516195 
1675	 0.30821287638741 
1676	 0.307171648459559 
1677	 0.306096907666611 
1678	 0.305012513757695 
1679	 0.303906978310629 
1680	 0.302796675322586 
1681	 0.301639734946625 
1682	 0.300538292316228 
1683	 0.299449514867118 
1684	 0.298419524286918 
1685	 0.297431996654134 
1686	 0.296474978322637 
1687	 0.295534984353158 
1688	 0.294665100902709 
1689	 0.293846000018264 
1690	 0.293062893527631 
1691	 0.292365171392805 
1692	 0.291671230975564 
1693	 0.291017256686314 
1694	 0.290341764274478 
1695	 0.289685852050726 
1696	 0.288995003775547 
1697	 0.288287561664008 
1698	 0.287560366271195 
1699	 0.286817127378952 
1700	 0.286085773562264 
1701	 0.285330136731819 
1702	 0.284595045495736 
1703	 0.283865589367233 
1704	 0.283148725084836 
1705	 0.282440695179589 
1706	 0.281724187804738 
1707	 0.281049407080064 
1708	 0.280400736767081 
1709	 0.279753712641923 
1710	 0.279091564613006 
1711	 0.278404902904268 
1712	 0.277709999345233 
1713	 0.27695342717772 
1714	 0.276166377232198 
1715	 0.275407558232737 
1716	 0.274575675899772 
1717	 0.273738541357669 
1718	 0.272942108427811 
1719	 0.272127428863821 
1720	 0.27137405107053 
1721	 0.27067499053273 
1722	 0.270025847089991 
1723	 0.269488740004551 
1724	 0.269028936120292 
1725	 0.268687805345525 
1726	 0.268504869775742 
1727	 0.268413988062732 
1728	 0.268453393007229 
1729	 0.26862943350698 
1730	 0.268897241462374 
1731	 0.26924757887162 
1732	 0.269686745514942 
1733	 0.270152649860895 
1734	 0.270656400156358 
1735	 0.271200992334054 
1736	 0.271713872841058 
1737	 0.272192304909709 
1738	 0.272624773813493 
1739	 0.273034481022254 
1740	 0.273430216945427 
1741	 0.273774293231468 
1742	 0.274088292377732 
1743	 0.274355778348353 
1744	 0.274549496498749 
1745	 0.274756654244612 
1746	 0.274931506550068 
1747	 0.27509989644073 
1748	 0.275262279259838 
1749	 0.275424777731327 
1750	 0.275584842213508 
1751	 0.275722967578206 
1752	 0.275833815193506 
1753	 0.275984440499508 
1754	 0.276114782929382 
1755	 0.276294761074663 
1756	 0.276513649994514 
1757	 0.276745109069446 
1758	 0.277027546207439 
1759	 0.277332724648468 
1760	 0.277710479346249 
1761	 0.278153419908889 
1762	 0.278623930210145 
1763	 0.279146999374142 
1764	 0.279704069567624 
1765	 0.280297603747766 
1766	 0.280941678940167 
1767	 0.28160290226763 
1768	 0.28227773537802 
1769	 0.282936930574751 
1770	 0.283552519768905 
1771	 0.284184251539224 
1772	 0.284784644960274 
1773	 0.285328133817151 
1774	 0.285875868548058 
1775	 0.286365255750401 
1776	 0.286843826799759 
1777	 0.28733725127061 
1778	 0.287771327727564 
1779	 0.28817041693842 
1780	 0.288548093673126 
1781	 0.288912177304134 
1782	 0.289261339404798 
1783	 0.289590667118147 
1784	 0.289913205139085 
1785	 0.290181470507008 
1786	 0.290457696914986 
1787	 0.290735608983673 
1788	 0.291000617242559 
1789	 0.291255461035219 
1790	 0.291505511587511 
1791	 0.29173753451894 
1792	 0.291995140078192 
1793	 0.292246076782476 
1794	 0.292505346465379 
1795	 0.292802462896332 
1796	 0.293096257566597 
1797	 0.293426834072669 
1798	 0.293772337558188 
1799	 0.294114767997735 
1800	 0.294478157578271 
1801	 0.296078892183614 
1802	 0.296457764499997 
1803	 0.296824453129697 
1804	 0.297170492779459 
1805	 0.297558749702771 
1806	 0.297929881630163 
1807	 0.298297921385968 
1808	 0.29868439637751 
1809	 0.299077357551613 
1810	 0.299470526035456 
1811	 0.299881770654191 
1812	 0.300288512679551 
1813	 0.300679623735072 
1814	 0.301108791451179 
1815	 0.301525322022951 
1816	 0.301950385325248 
1817	 0.302390665945653 
1818	 0.302838950974184 
1819	 0.303294052204258 
1820	 0.303774261348477 
1821	 0.304236960076506 
1822	 0.304675580920048 
1823	 0.305168295220281 
1824	 0.305641140900685 
1825	 0.306117106358497 
1826	 0.306600180048852 
1827	 0.307094296083409 
1828	 0.307570017743123 
1829	 0.308019405106477 
1830	 0.308519303196646 
1831	 0.309030732194754 
1832	 0.309578180242062 
1833	 0.310111125625467 
1834	 0.31064335685278 
1835	 0.311170060038385 
1836	 0.311666194057261 
1837	 0.312175976848025 
1838	 0.312693929000812 
1839	 0.313214388134257 
1840	 0.313736534934617 
1841	 0.314252623850736 
1842	 0.314777440844269 
1843	 0.315290581977607 
1844	 0.31579896891884 
1845	 0.316270095705363 
1846	 0.316732100544348 
1847	 0.317195327037085 
1848	 0.317640451029787 
1849	 0.318072831712166 
1850	 0.318487093391426 
1851	 0.318887231092149 
1852	 0.319283749693156 
1853	 0.319652520402124 
1854	 0.319980940393021 
1855	 0.320287481279867 
1856	 0.320544839476599 
1857	 0.320792453528792 
1858	 0.321045176131496 
1859	 0.321252022716316 
1860	 0.321458968395223 
1861	 0.321604468262241 
1862	 0.321721774482042 
1863	 0.321749617175011 
1864	 0.321733035999881 
1865	 0.321697053264991 
1866	 0.32160872160491 
1867	 0.321450135181009 
1868	 0.321251711970155 
1869	 0.320962891934696 
1870	 0.320599981624838 
1871	 0.320158906347849 
1872	 0.319658291445217 
1873	 0.319092069923348 
1874	 0.318478353951837 
1875	 0.317769297529021 
1876	 0.31690871944784 
1877	 0.315996239828658 
1878	 0.31490119867507 
1879	 0.313636478157118 
1880	 0.312344766829014 
1881	 0.310875358529458 
1882	 0.309237512052127 
1883	 0.30751640551355 
1884	 0.305655152573486 
1885	 0.303486581719178 
1886	 0.301230139929994 
1887	 0.298741037284865 
1888	 0.296005117022843 
1889	 0.293324748430298 
1890	 0.290442053114158 
1891	 0.287485608151899 
1892	 0.284487497781835 
1893	 0.281335031053711 
1894	 0.277989144953741 
1895	 0.274707297621442 
1896	 0.271316138950358 
1897	 0.267866431905544 
1898	 0.264682247347595 
1899	 0.261432246921004 
1900	 0.258256565821611 
1901	 0.255231004968527 
1902	 0.252030942360692 
1903	 0.248992761727019 
1904	 0.246052095184974 
1905	 0.243158723902527 
1906	 0.24033898106171 
1907	 0.237846442982529 
1908	 0.235369947219005 
1909	 0.232997677416986 
1910	 0.230775603108695 
1911	 0.228478292426618 
1912	 0.226337896754251 
1913	 0.224291038104841 
1914	 0.222275245136305 
1915	 0.220394495264582 
1916	 0.218677671862578 
1917	 0.216949638505309 
1918	 0.215305273855299 
1919	 0.213778852308599 
1920	 0.212229854628655 
1921	 0.210800885461498 
1922	 0.209410173490621 
1923	 0.20805067874943 
1924	 0.20687199685567 
1925	 0.20573525543062 
1926	 0.204679774913473 
1927	 0.203742173022968 
1928	 0.202827241347083 
1929	 0.201938915571831 
1930	 0.201167777299338 
1931	 0.200459692690998 
1932	 0.199827470009468 
1933	 0.199355896036886 
1934	 0.198960101693169 
1935	 0.198634391672476 
1936	 0.198396959377209 
1937	 0.198223113993558 
1938	 0.19809374831791 
1939	 0.198080731020551 
1940	 0.198156242750133 
1941	 0.198325188128135 
1942	 0.198567205838353 
1943	 0.198916730780552 
1944	 0.199314586866445 
1945	 0.199763242730339 
1946	 0.200340681943892 
1947	 0.200962654425322 
1948	 0.201639979089959 
1949	 0.202411904297477 
1950	 0.203189150675356 
1951	 0.203982673712824 
1952	 0.204842070844722 
1953	 0.205743095142501 
1954	 0.206693194919653 
1955	 0.207732099742962 
1956	 0.208756168901293 
1957	 0.209836946616328 
1958	 0.210944022323307 
1959	 0.211987216455793 
1960	 0.213094140148182 
1961	 0.214193577983611 
1962	 0.21525913402361 
1963	 0.216392407747965 
1964	 0.217582434474433 
1965	 0.218743357021811 
1966	 0.219930845417091 
1967	 0.221134615092283 
1968	 0.222253231511412 
1969	 0.223413681941892 
1970	 0.224564391339201 
1971	 0.225683019205174 
1972	 0.226885632248373 
1973	 0.228064988542789 
1974	 0.229254876729603 
1975	 0.230499814654808 
1976	 0.231685650212643 
1977	 0.232830777602867 
1978	 0.234001240509343 
1979	 0.235158420710894 
1980	 0.236299831310395 
1981	 0.23752727736771 
1982	 0.238708564145417 
1983	 0.239903708182298 
1984	 0.241137209152441 
1985	 0.242299150816524 
1986	 0.243478101027386 
1987	 0.244645812800833 
1988	 0.245787590725138 
1989	 0.246954525942371 
1990	 0.248138376261654 
1991	 0.249295551695378 
1992	 0.250469071873122 
1993	 0.25162632094818 
1994	 0.252675623837279 
1995	 0.253777118763302 
1996	 0.254851520475337 
1997	 0.255864880792355 
1998	 0.256932240033874 
1999	 0.25803298427204 
2000	 0.259086376115045 
2001	 0.260187592036659 
2002	 0.26118317288565 
2003	 0.262098838555506 
2004	 0.26302722776322 
2005	 0.263890189383727 
2006	 0.2647584937122 
2007	 0.265657997196399 
2008	 0.26650320104929 
2009	 0.267291280808191 
2010	 0.268049890121458 
2011	 0.268700434000338 
2012	 0.269305507572376 
2013	 0.269841857930961 
2014	 0.270303348379659 
2015	 0.27071045573666 
2016	 0.271094503573236 
2017	 0.27134330546719 
2018	 0.271523638058436 
2019	 0.27158332769787 
2020	 0.27152511018051 
2021	 0.271356140500832 
2022	 0.271111106005686 
2023	 0.270746974498371 
2024	 0.270274706928827 
2025	 0.269740089348379 
2026	 0.269106415845906 
2027	 0.268346260943704 
2028	 0.267565889078829 
2029	 0.266676176621587 
2030	 0.26579686217325 
2031	 0.264858503450489 
2032	 0.263945968164936 
2033	 0.262954097545592 
2034	 0.262092187889166 
2035	 0.261253238812162 
2036	 0.260482330707172 
2037	 0.259865562781338 
2038	 0.259358430622461 
2039	 0.258974235816516 
2040	 0.258699336646651 
2041	 0.258580315379063 
2042	 0.258599021360202 
2043	 0.258735213407797 
2044	 0.259058080937213 
2045	 0.25941348812809 
2046	 0.259874622513013 
2047	 0.260402302255484 
2048	 0.260984910444969 
2049	 0.261670031590384 
2050	 0.262475299838352 
2051	 0.263325872304435 
2052	 0.264237956029212 
2053	 0.265253439094965 
2054	 0.266260221329017 
2055	 0.267296428380507 
2056	 0.268381118989233 
2057	 0.269491901742328 
2058	 0.270662815632824 
2059	 0.271915900339059 
2060	 0.273143940854958 
2061	 0.274438439620428 
2062	 0.275689176671022 
2063	 0.276897004803012 
2064	 0.278145005758816 
2065	 0.279416210461454 
2066	 0.280655378983202 
2067	 0.281960078150441 
2068	 0.283228429202847 
2069	 0.2844701955436 
2070	 0.285729730872835 
2071	 0.286887630870022 
2072	 0.287986891086305 
2073	 0.289061506039309 
2074	 0.290044709405262 
2075	 0.291050534002961 
2076	 0.292075019626582 
2077	 0.293021296375455 
2078	 0.293954732692223 
2079	 0.294819935898174 
2080	 0.295604379964629 
2081	 0.296360637677818 
2082	 0.297061662405707 
2083	 0.297722784151743 
2084	 0.298408063430631 
2085	 0.299018994517301 
2086	 0.299608753654866 
2087	 0.300199465526877 
2088	 0.300705833605632 
2089	 0.301140629224813 
2090	 0.30155413436699 
2091	 0.301897553270614 
2092	 0.302249716156181 
2093	 0.302574727018923 
2094	 0.302885654171469 
2095	 0.303206287330644 
2096	 0.303477364770794 
2097	 0.303716276292827 
2098	 0.303924002204236 
2099	 0.304087068685437 
2100	 0.304211195267249 
2101	 0.304325331433023 
2102	 0.304406817271921 
2103	 0.304474345594546 
2104	 0.304518685431788 
2105	 0.304558860579996 
2106	 0.304586424467723 
2107	 0.304589522364614 
2108	 0.304586587545201 
2109	 0.304553856559669 
2110	 0.304488803211834 
2111	 0.304407046442903 
2112	 0.304284936294198 
2113	 0.304179498292177 
2114	 0.304074098000238 
2115	 0.303945744783366 
2116	 0.303807660854157 
2117	 0.303682825099826 
2118	 0.303522458551806 
2119	 0.303334860205546 
2120	 0.30312787612903 
2121	 0.302905503639666 
2122	 0.302665247760667 
2123	 0.302408509796191 
2124	 0.302109885486114 
2125	 0.301808230225597 
2126	 0.301443631307099 
2127	 0.301022912920415 
2128	 0.300569627481751 
2129	 0.300076483532685 
2130	 0.29954111835869 
2131	 0.298963122277193 
2132	 0.298346650093685 
2133	 0.297708195299473 
2134	 0.297005683549806 
2135	 0.296200850188911 
2136	 0.295380251412389 
2137	 0.294503491295997 
2138	 0.293529426955111 
2139	 0.292584892264554 
2140	 0.291626818304278 
2141	 0.290643798139199 
2142	 0.289664518882841 
2143	 0.288613776751132 
2144	 0.287515410929576 
2145	 0.286403347305605 
2146	 0.285192863035513 
2147	 0.284055461239328 
2148	 0.28295691929156 
2149	 0.281825692278165 
2150	 0.280752324379698 
2151	 0.279594237933305 
2152	 0.278338626624748 
2153	 0.277130108994569 
2154	 0.275901113860934 
2155	 0.274631086662002 
2156	 0.273415950769951 
2157	 0.272225738870842 
2158	 0.271051311091595 
2159	 0.269888295420278 
2160	 0.268751607670942 
2161	 0.267622181142958 
2162	 0.266570715190533 
2163	 0.265516344162121 
2164	 0.264590265102044 
2165	 0.263760150248749 
2166	 0.262984533841896 
2167	 0.262299886934875 
2168	 0.261668939046344 
2169	 0.261095967873176 
2170	 0.260596235559637 
2171	 0.260123893569737 
2172	 0.259785149859122 
2173	 0.259565173682376 
2174	 0.259410559139533 
2175	 0.25930583463109 
2176	 0.259329892246622 
2177	 0.259387416839561 
2178	 0.25946907799731 
2179	 0.25966969529489 
2180	 0.259986762249057 
2181	 0.260334724431084 
2182	 0.260753383931063 
2183	 0.261227303593817 
2184	 0.261769381812536 
2185	 0.262357964947341 
2186	 0.263005461739928 
2187	 0.263704460611213 
2188	 0.264490169886572 
2189	 0.265263808540977 
2190	 0.266099145465047 
2191	 0.266916662649847 
2192	 0.267693475760789 
2193	 0.268538732814075 
2194	 0.269460747540232 
2195	 0.270332526733382 
2196	 0.271219908865769 
2197	 0.272132336208548 
2198	 0.272929319058205 
2199	 0.273712285155741 
2200	 0.274466270132863 
2201	 0.275174797880597 
2202	 0.275899330147508 
2203	 0.27660766147352 
2204	 0.277298954172669 
2205	 0.277998660486635 
2206	 0.278658606007842 
2207	 0.27928240961516 
2208	 0.279902288613064 
2209	 0.280493072389422 
2210	 0.281090467041212 
2211	 0.281690626084663 
2212	 0.282255067089629 
2213	 0.282818494513115 
2214	 0.283340914781852 
2215	 0.283814632281213 
2216	 0.284286331594669 
2217	 0.284737949249594 
2218	 0.285175978413603 
2219	 0.285621889283821 
2220	 0.286007987528471 
2221	 0.28637699209347 
2222	 0.286687741532997 
2223	 0.286913878018207 
2224	 0.287111442393867 
2225	 0.287247624605 
2226	 0.287321426070537 
2227	 0.287290391076477 
2228	 0.287199527442397 
2229	 0.286979113046548 
2230	 0.286627378962021 
2231	 0.286220524572939 
2232	 0.285751750776455 
2233	 0.285119759465521 
2234	 0.284435842757651 
2235	 0.283507255741025 
2236	 0.282367294600227 
2237	 0.281127266421273 
2238	 0.279658028887991 
2239	 0.278167074633218 
2240	 0.276608737005482 
2241	 0.27489649085921 
2242	 0.273117711924316 
2243	 0.271152659592933 
2244	 0.268972687969417 
2245	 0.266745478275842 
2246	 0.264329068177384 
2247	 0.261904404355074 
2248	 0.259397062970726 
2249	 0.25686652936288 
2250	 0.254284015003669 
2251	 0.251711931168456 
2252	 0.248969051832319 
2253	 0.246348828172716 
2254	 0.24370268049866 
2255	 0.241050214009593 
2256	 0.238654924000387 
2257	 0.236301548571314 
2258	 0.234118874467858 
2259	 0.232114347970031 
2260	 0.230149417368309 
2261	 0.228268434296356 
2262	 0.226546070503434 
2263	 0.224889939335667 
2264	 0.223435172797596 
2265	 0.222227561784818 
2266	 0.221005357432123 
2267	 0.219938734422689 
2268	 0.21884718305361 
2269	 0.217788886011262 
2270	 0.2167641925845 
2271	 0.215785646890901 
2272	 0.214804267711301 
2273	 0.213845582628495 
2274	 0.212907051187669 
2275	 0.212019648923651 
2276	 0.21107915634769 
2277	 0.210110892092664 
2278	 0.209184844247126 
2279	 0.20818530706894 
2280	 0.207300315863235 
2281	 0.206535124298264 
2282	 0.205743666115512 
2283	 0.204978483997415 
2284	 0.204273815519917 
2285	 0.203482061017133 
2286	 0.20276150177513 
2287	 0.202081179619984 
2288	 0.201395019658098 
2289	 0.200867704499933 
2290	 0.200356656022976 
2291	 0.199838553569128 
2292	 0.199368820542957 
2293	 0.198807874911661 
2294	 0.198271500380675 
2295	 0.197835976736405 
2296	 0.197440609977323 
2297	 0.197163669996256 
2298	 0.197021484454061 
2299	 0.1968819808367 
2300	 0.196783070840646 
2301	 0.196807419708713 
2302	 0.196854632687245 
2303	 0.197120624712286 
2304	 0.197576568803609 
2305	 0.198093110497092 
2306	 0.198760046182167 
2307	 0.199499055320559 
2308	 0.200287492091083 
2309	 0.201276405303363 
2310	 0.202461835582266 
2311	 0.203657756040372 
2312	 0.205094164595121 
2313	 0.206353356763135 
2314	 0.207578752685779 
2315	 0.208807437855129 
2316	 0.210022941577694 
2317	 0.211128705898578 
2318	 0.212252165279572 
2319	 0.213199361525819 
2320	 0.214024525022408 
2321	 0.214706707364572 
2322	 0.215239141547215 
2323	 0.21567800901517 
2324	 0.215962868279854 
2325	 0.21615121289498 
2326	 0.21621079382366 
2327	 0.21620200872282 
2328	 0.216069530471605 
2329	 0.215873186414246 
2330	 0.21560038803401 
2331	 0.21526894140182 
2332	 0.214820923894199 
2333	 0.214248092983687 
2334	 0.213586958043838 
2335	 0.212858249686172 
2336	 0.212063407623199 
2337	 0.211198839500335 
2338	 0.210318196263048 
2339	 0.209419377790262 
2340	 0.208570993119235 
2341	 0.207735948808114 
2342	 0.206883594851591 
2343	 0.206182961897883 
2344	 0.205575607466032 
2345	 0.205145618632465 
2346	 0.205036293619948 
2347	 0.205095429051835 
2348	 0.205301733850428 
2349	 0.205769068539862 
2350	 0.206373327618054 
2351	 0.207082982126535 
2352	 0.207892393674541 
2353	 0.208725544963618 
2354	 0.209575993895245 
2355	 0.210457832187972 
2356	 0.211295981536438 
2357	 0.212089766622527 
2358	 0.212796223469625 
2359	 0.213347309599428 
2360	 0.213854201325326 
2361	 0.214297492535578 
2362	 0.214685803676824 
2363	 0.215040428311913 
2364	 0.215329178376595 
2365	 0.215549585304217 
2366	 0.215740244238383 
2367	 0.2158799637019 
2368	 0.21594484629794 
2369	 0.216035318275629 
2370	 0.216169991060447 
2371	 0.216275094496547 
2372	 0.216371716044501 
2373	 0.216473144041963 
2374	 0.216540023647824 
2375	 0.216562557767224 
2376	 0.216628866556822 
2377	 0.216719287206175 
2378	 0.21671907040144 
2379	 0.216796072401844 
2380	 0.216893956640244 
2381	 0.21694336972056 
2382	 0.217090712616852 
2383	 0.217344037601118 
2384	 0.217517395710019 
2385	 0.217692485652021 
2386	 0.217854737522879 
2387	 0.218012257708013 
2388	 0.218131812910971 
2389	 0.218236456510007 
2390	 0.218382028774501 
2391	 0.218491022219673 
2392	 0.218573939439501 
2393	 0.218682242192567 
2394	 0.218778908148424 
2395	 0.218873850418114 
2396	 0.218858315048051 
2397	 0.218796823964011 
2398	 0.218746721773654 
2399	 0.218605179895329 
2400	 0.218538904367521 
2401	 0.218517007876512 
2402	 0.218490903250423 
2403	 0.218422972361852 
2404	 0.218375115202056 
2405	 0.218330077722488 
2406	 0.218270426013026 
2407	 0.218126897139294 
2408	 0.217922986433427 
2409	 0.217787548340768 
2410	 0.217532956686512 
2411	 0.217316997550882 
2412	 0.217140699200113 
2413	 0.216845124103857 
2414	 0.2167090249843 
2415	 0.216583237654629 
2416	 0.216412230263714 
2417	 0.216301515691607 
2418	 0.216015501587573 
2419	 0.215653876771012 
2420	 0.215356584811085 
2421	 0.215062137440694 
2422	 0.214815028268137 
2423	 0.214561314084948 
2424	 0.21418582777085 
2425	 0.213785097870841 
2426	 0.213469917473791 
2427	 0.213100494608268 
2428	 0.212708021796729 
2429	 0.212272295488334 
2430	 0.211718142132212 
2431	 0.211199307145653 
2432	 0.210588031269152 
2433	 0.209876113967975 
2434	 0.209281132597081 
2435	 0.208630562034982 
2436	 0.207872223495004 
2437	 0.207180504371082 
2438	 0.206282847181042 
2439	 0.205186005182045 
2440	 0.204259876635765 
2441	 0.203382270199312 
2442	 0.202422490917643 
2443	 0.201624809756475 
2444	 0.200880349092233 
2445	 0.199952566429062 
2446	 0.1990899370445 
2447	 0.198222642754727 
2448	 0.197219464430582 
2449	 0.196351353730223 
2450	 0.19556777366226 
2451	 0.194737696466914 
2452	 0.193978537626837 
2453	 0.193123866944313 
2454	 0.1921091875954 
2455	 0.191191477110174 
2456	 0.190265972907468 
2457	 0.189459553697952 
2458	 0.188926185783825 
2459	 0.188269609832035 
2460	 0.187615422756388 
2461	 0.187022128982832 
2462	 0.186291226532947 
2463	 0.18572833501156 
2464	 0.185257528017668 
2465	 0.184713472226505 
2466	 0.184203635474098 
2467	 0.183547431838754 
2468	 0.182827417211235 
2469	 0.182338314358809 
2470	 0.18194920068012 
2471	 0.181699071736904 
2472	 0.181504711853623 
2473	 0.18124061744275 
2474	 0.181003473752134 
2475	 0.180784774695337 
2476	 0.180649796826827 
2477	 0.180309806317849 
2478	 0.179913214195555 
2479	 0.179700984860864 
2480	 0.179729317685273 
2481	 0.17959333063755 
2482	 0.179377929101512 
2483	 0.179013337298007 
2484	 0.178778169877501 
2485	 0.178460509370827 
2486	 0.178146316276072 
2487	 0.178008135430847 
2488	 0.177658567199549 
2489	 0.177202049121833 
2490	 0.177026065131424 
2491	 0.176962367420155 
2492	 0.176943476623171 
2493	 0.177079599030078 
2494	 0.177117165991869 
2495	 0.176682548001961 
2496	 0.17597050518479 
2497	 0.17552968124866 
2498	 0.175238805057526 
2499	 0.175093246478037 
2500	 0.175277181369804 
