Wavelength	spectrum00005.asd
350	 7.00940513828251E-02 
351	 6.60685931348646E-02 
352	 6.33566194812052E-02 
353	 6.28003632691274E-02 
354	 6.03254575039004E-02 
355	 6.03279971965863E-02 
356	 5.95146712408154E-02 
357	 5.54747999742624E-02 
358	 5.29677066692864E-02 
359	 5.25156269505923E-02 
360	 5.30667901184752E-02 
361	 5.28518519346223E-02 
362	 5.20470047989747E-02 
363	 4.99078739104576E-02 
364	 4.71117460250595E-02 
365	 4.61743395619817E-02 
366	 0.047067087943695 
367	 4.71719509274791E-02 
368	 4.51622525913608E-02 
369	 4.59269007225123E-02 
370	 4.66652419028358E-02 
371	 4.64406229636978E-02 
372	 0.045578881597349 
373	 4.49493827083562E-02 
374	 4.47450094535257E-02 
375	 4.46896530072866E-02 
376	 4.39836348426305E-02 
377	 4.41050179978614E-02 
378	 4.38513853737394E-02 
379	 4.23321382154667E-02 
380	 4.21071187945088E-02 
381	 4.23882816969506E-02 
382	 4.22737384087175E-02 
383	 4.11159953571498E-02 
384	 0.040948243989074 
385	 4.10261271865648E-02 
386	 4.06259325702188E-02 
387	 3.95510917761761E-02 
388	 3.87897091584694E-02 
389	 3.86477533140917E-02 
390	 3.89230286331894E-02 
391	 3.84375923951407E-02 
392	 3.84490349877621E-02 
393	 3.86434774411591E-02 
394	 3.78025732137724E-02 
395	 3.69659190510782E-02 
396	 3.68389027716641E-02 
397	 3.73166427990895E-02 
398	 3.71408220475494E-02 
399	 3.62169232883471E-02 
400	 0.03527777676881 
401	 3.50528708555265E-02 
402	 3.51210012091726E-02 
403	 3.50496777656853E-02 
404	 3.46903761696551E-02 
405	 3.41495626415269E-02 
406	 3.38405872552456E-02 
407	 3.36178560031672E-02 
408	 0.033329429220574 
409	 0.032987781618972 
410	 3.25718238362134E-02 
411	 3.23322113071769E-02 
412	 3.24494097343722E-02 
413	 0.032407719663296 
414	 3.18574287845267E-02 
415	 3.11721374987908E-02 
416	 3.12857314482143E-02 
417	 3.14962595970068E-02 
418	 3.15212709023862E-02 
419	 3.12403442138864E-02 
420	 3.06186827421979E-02 
421	 0.030385011653182 
422	 3.04830841277619E-02 
423	 3.05232249356061E-02 
424	 3.04239520159497E-02 
425	 3.02862173536574E-02 
426	 3.01821690321447E-02 
427	 3.01269115443374E-02 
428	 0.030169989720918 
429	 3.01885464020318E-02 
430	 3.00609053842192E-02 
431	 2.97325389824146E-02 
432	 2.97083842685678E-02 
433	 2.98391566815286E-02 
434	 2.96818765911639E-02 
435	 2.98551986213997E-02 
436	 0.029945733436137 
437	 2.97726092325192E-02 
438	 0.029685479579816 
439	 2.95981931178911E-02 
440	 2.95805569197929E-02 
441	 2.96962737584992E-02 
442	 2.98573364248254E-02 
443	 2.98832803598311E-02 
444	 2.98101321172286E-02 
445	 0.029835837193052 
446	 2.97987221131472E-02 
447	 2.98221177091582E-02 
448	 2.99499858219034E-02 
449	 2.99475268466456E-02 
450	 3.00032890337258E-02 
451	 3.01885836515223E-02 
452	 3.04629110326053E-02 
453	 3.04168509964774E-02 
454	 3.04371266836081E-02 
455	 3.05981826681785E-02 
456	 3.05743324719568E-02 
457	 3.06920552747305E-02 
458	 3.08073782725858E-02 
459	 3.08229032396059E-02 
460	 0.031125159130538 
461	 3.12380923174201E-02 
462	 3.12045592047264E-02 
463	 3.13395895347456E-02 
464	 3.15251094958467E-02 
465	 3.17914860190244E-02 
466	 3.20615496040958E-02 
467	 3.20660043224145E-02 
468	 3.21697721444951E-02 
469	 3.24454303714597E-02 
470	 3.28261528722173E-02 
471	 3.30901862872903E-02 
472	 3.33203502161536E-02 
473	 3.35861219244317E-02 
474	 3.39245744021422E-02 
475	 3.41721449277634E-02 
476	 3.44497115656721E-02 
477	 3.48512002920192E-02 
478	 3.53306670424181E-02 
479	 3.56828761766417E-02 
480	 3.60375410927325E-02 
481	 3.65946842662967E-02 
482	 3.70465764407888E-02 
483	 3.75652722003498E-02 
484	 3.81772113555397E-02 
485	 3.87072360031917E-02 
486	 3.94701974260387E-02 
487	 4.02871568949477E-02 
488	 4.09646130034005E-02 
489	 4.16102675640123E-02 
490	 4.24070688329381E-02 
491	 4.33389392793204E-02 
492	 4.42732248311416E-02 
493	 4.52480197192647E-02 
494	 4.62145038389341E-02 
495	 4.71987406308629E-02 
496	 4.83716890911575E-02 
497	 4.94494764746779E-02 
498	 5.05260643222388E-02 
499	 5.17704649781004E-02 
500	 5.31264478561268E-02 
501	 5.44802967013377E-02 
502	 5.58370177010325E-02 
503	 0.057302991266108 
504	 5.87835556442149E-02 
505	 6.02681127770442E-02 
506	 0.061802829720692 
507	 0.06353912082325 
508	 6.53207781668946E-02 
509	 6.71057291277725E-02 
510	 6.89087493829247E-02 
511	 7.07492041623522E-02 
512	 7.27223875735487E-02 
513	 7.47972017547488E-02 
514	 7.67815910459515E-02 
515	 7.87920525852535E-02 
516	 8.08730797321772E-02 
517	 8.30530417736104E-02 
518	 8.53797936693743E-02 
519	 0.087662018996765 
520	 8.99243862297732E-02 
521	 9.23337321752524E-02 
522	 9.48083622870448E-02 
523	 9.72308330852989E-02 
524	 9.95978822732056E-02 
525	 0.10214966680571 
526	 0.104702680781846 
527	 0.107286279245714 
528	 0.109968855750831 
529	 0.112596161324623 
530	 0.115242174654817 
531	 0.1179450585715 
532	 0.120683227832676 
533	 0.123447597864756 
534	 0.126272981865402 
535	 0.129165188895787 
536	 0.132035183221014 
537	 0.134931757063854 
538	 0.137837895535419 
539	 0.140710540818556 
540	 0.14358107003921 
541	 0.14650220915693 
542	 0.149458294372537 
543	 0.152316132701076 
544	 0.155212498594185 
545	 0.158095102816839 
546	 0.160888452979236 
547	 0.163695208092777 
548	 0.166528489327113 
549	 0.16935963706355 
550	 0.172130909166024 
551	 0.174942393718945 
552	 0.177750848147641 
553	 0.180517490836919 
554	 0.183269377886055 
555	 0.186031020962675 
556	 0.188825245151055 
557	 0.191653708025297 
558	 0.194420351114034 
559	 0.197174132403824 
560	 0.199921989875995 
561	 0.202593351425104 
562	 0.205211777336619 
563	 0.207806617892511 
564	 0.210402311641544 
565	 0.212997587114926 
566	 0.215555248560099 
567	 0.218054313240612 
568	 0.22049582110842 
569	 0.22297664875253 
570	 0.225454510750318 
571	 0.22789226304843 
572	 0.230314118745422 
573	 0.232694214013519 
574	 0.235009923717717 
575	 0.237256947669208 
576	 0.239498421978202 
577	 0.241716842655308 
578	 0.243910520317378 
579	 0.24609734128557 
580	 0.248339253995537 
581	 0.250581546785189 
582	 0.252779742540267 
583	 0.255004698856106 
584	 0.257237523061773 
585	 0.259460648570822 
586	 0.261669615350213 
587	 0.263930544051338 
588	 0.2661756912816 
589	 0.268394979862157 
590	 0.270705748458108 
591	 0.272923967307086 
592	 0.275073443185651 
593	 0.277230331853203 
594	 0.279398870687846 
595	 0.281583320545361 
596	 0.283737464687438 
597	 0.285777322692531 
598	 0.287904648250101 
599	 0.290061206538555 
600	 0.292177553857231 
601	 0.29426244828908 
602	 0.296341517563779 
603	 0.298432833037749 
604	 0.300538144369679 
605	 0.30260702340501 
606	 0.304665292076623 
607	 0.306730834932728 
608	 0.308799733081885 
609	 0.310800882179615 
610	 0.312773933747478 
611	 0.314764952343206 
612	 0.316714101799877 
613	 0.318682175283716 
614	 0.320660784905357 
615	 0.322604798720889 
616	 0.324568677401487 
617	 0.326502051971015 
618	 0.328387399240798 
619	 0.330292965611495 
620	 0.332249622410044 
621	 0.334183085764267 
622	 0.336018210139196 
623	 0.337866639068409 
624	 0.339715768707931 
625	 0.341572521877221 
626	 0.343464139014962 
627	 0.34532348496455 
628	 0.347129109577114 
629	 0.348901454916249 
630	 0.350737675360697 
631	 0.352586534535579 
632	 0.354396920212694 
633	 0.356139610939546 
634	 0.357970479633345 
635	 0.359750114985793 
636	 0.361449077739708 
637	 0.363198497097062 
638	 0.364923646767032 
639	 0.36666301454739 
640	 0.368430131074919 
641	 0.370058142440156 
642	 0.371745086777825 
643	 0.373485073987254 
644	 0.375155336629386 
645	 0.376833481692004 
646	 0.378483502434579 
647	 0.380107273695494 
648	 0.381793158575774 
649	 0.383474797904147 
650	 0.385100378377983 
651	 0.386659595940359 
652	 0.388305827166022 
653	 0.389883290918607 
654	 0.391419400610308 
655	 0.393077994496868 
656	 0.394672197210296 
657	 0.396203228768138 
658	 0.397720086538282 
659	 0.399315122723876 
660	 0.400868701922881 
661	 0.402408777570097 
662	 0.403985581430085 
663	 0.405450635212306 
664	 0.406956160679528 
665	 0.40851998056702 
666	 0.410008765972628 
667	 0.41146334775009 
668	 0.412882575650227 
669	 0.414290846201595 
670	 0.415807828091639 
671	 0.417291198344002 
672	 0.418708211606203 
673	 0.420091627940397 
674	 0.421517226840766 
675	 0.422929207319375 
676	 0.424325866969846 
677	 0.425782223359649 
678	 0.427129895506746 
679	 0.428420528512131 
680	 0.42974366767687 
681	 0.431133813356656 
682	 0.432514562591367 
683	 0.433853709971875 
684	 0.435151097610186 
685	 0.436409252596912 
686	 0.43775181729102 
687	 0.439166647555996 
688	 0.44044163606504 
689	 0.441650496649381 
690	 0.442892497522514 
691	 0.444226766773524 
692	 0.445546984059995 
693	 0.446826102434546 
694	 0.44803940336979 
695	 0.44918491258693 
696	 0.450453216183948 
697	 0.451756662229969 
698	 0.452985782250012 
699	 0.454049219878603 
700	 0.455245560062212 
701	 0.456500939113603 
702	 0.45767468546263 
703	 0.458820190460221 
704	 0.459995485889679 
705	 0.461175089350921 
706	 0.46228782681819 
707	 0.463445354356965 
708	 0.4645917414061 
709	 0.465684094247263 
710	 0.4667336986122 
711	 0.467832255727035 
712	 0.468915565762955 
713	 0.46992839799342 
714	 0.471064007334183 
715	 0.472167056531152 
716	 0.473161451530631 
717	 0.47405889079388 
718	 0.475074217261935 
719	 0.476180072453155 
720	 0.477285463904194 
721	 0.478258661138569 
722	 0.479165649041618 
723	 0.480103244301223 
724	 0.481126960541021 
725	 0.482088636843841 
726	 0.48309809842221 
727	 0.484108985289974 
728	 0.484981035467156 
729	 0.485843225318698 
730	 0.486718983816398 
731	 0.487606702349285 
732	 0.488487020476071 
733	 0.489407741530318 
734	 0.490330110811598 
735	 0.491205141584727 
736	 0.492043575860101 
737	 0.492867366069725 
738	 0.493710606420665 
739	 0.494601138534875 
740	 0.495460906008705 
741	 0.496258274163094 
742	 0.497016117714191 
743	 0.497825215475304 
744	 0.498748120205353 
745	 0.499621979531666 
746	 0.500317732938286 
747	 0.501021962352232 
748	 0.501805056630327 
749	 0.502630217801499 
750	 0.503398052488736 
751	 0.5040952621776 
752	 0.504721966953077 
753	 0.505365080575212 
754	 0.506208958879782 
755	 0.507007575800936 
756	 0.507751624705163 
757	 0.508462185823582 
758	 0.509055961248764 
759	 0.509715418216064 
760	 0.510426896975623 
761	 0.511099369786431 
762	 0.511831169040112 
763	 0.512490124776921 
764	 0.51308479270362 
765	 0.513780260887065 
766	 0.514367164616554 
767	 0.51498412422625 
768	 0.515729304312958 
769	 0.516466504131935 
770	 0.51711341886188 
771	 0.517687366529306 
772	 0.518252231484767 
773	 0.518847794818562 
774	 0.519489211136847 
775	 0.520116407788692 
776	 0.520631300594649 
777	 0.521209881545359 
778	 0.521808483820546 
779	 0.522384735420955 
780	 0.522954346644693 
781	 0.52350462614463 
782	 0.524067459624936 
783	 0.524664932181508 
784	 0.525243971557659 
785	 0.525805708674362 
786	 0.526324275057763 
787	 0.52677379709779 
788	 0.527229354739547 
789	 0.52773348325499 
790	 0.528281989651817 
791	 0.52882070663675 
792	 0.529284914316737 
793	 0.529704425865208 
794	 0.530130467682526 
795	 0.530612698498993 
796	 0.531067783974594 
797	 0.531536757813205 
798	 0.532070602736948 
799	 0.53254257508971 
800	 0.532942120197807 
801	 0.533335607830588 
802	 0.533822896975863 
803	 0.534249787823966 
804	 0.534659161588359 
805	 0.535082812383782 
806	 0.535495347602929 
807	 0.535939912493034 
808	 0.536318017459004 
809	 0.536601018493612 
810	 0.537062412469959 
811	 0.537565545724182 
812	 0.538028370826228 
813	 0.538414990172788 
814	 0.538805079519466 
815	 0.539193070809891 
816	 0.539581309955201 
817	 0.539980518718222 
818	 0.540382331502026 
819	 0.540729850861193 
820	 0.541039839159336 
821	 0.541455902809032 
822	 0.541858506531232 
823	 0.542246087384597 
824	 0.542627551795307 
825	 0.542926832398316 
826	 0.543385613389576 
827	 0.543872586463212 
828	 0.54415418071404 
829	 0.544508702694052 
830	 0.544865941108224 
831	 0.545169418944216 
832	 0.545407047845819 
833	 0.545704884541122 
834	 0.54605183710767 
835	 0.546417044704552 
836	 0.546776736787349 
837	 0.547100466223571 
838	 0.547375354488086 
839	 0.547623341456857 
840	 0.547945873060391 
841	 0.548231749101492 
842	 0.548524781028904 
843	 0.548882886015644 
844	 0.54910014380319 
845	 0.549380528912434 
846	 0.549715352959615 
847	 0.549946293921375 
848	 0.550182734725893 
849	 0.550419428924242 
850	 0.55064685912877 
851	 0.550866946938155 
852	 0.551132943341952 
853	 0.551429739898452 
854	 0.551722049195072 
855	 0.551968648206208 
856	 0.552169430023085 
857	 0.552390381666566 
858	 0.552689398277274 
859	 0.553023958941412 
860	 0.553323747626747 
861	 0.553562983530201 
862	 0.553757223813089 
863	 0.553987465055955 
864	 0.554180353206087 
865	 0.554372996158921 
866	 0.554675880291443 
867	 0.554833950904716 
868	 0.55502188347235 
869	 0.555327989032417 
870	 0.555637846206497 
871	 0.555815729101694 
872	 0.555948012582278 
873	 0.556120218425814 
874	 0.556285653960423 
875	 0.556556017517225 
876	 0.556883665304491 
877	 0.557171974014178 
878	 0.557360410982597 
879	 0.557476218711448 
880	 0.557602103615384 
881	 0.557805778524413 
882	 0.557933760925479 
883	 0.558059163366492 
884	 0.558223166134968 
885	 0.558424344119059 
886	 0.558614419782782 
887	 0.558816788658607 
888	 0.55899943468177 
889	 0.559075106706064 
890	 0.559283264987175 
891	 0.559437376531858 
892	 0.559435074441546 
893	 0.559447186393049 
894	 0.559467480157051 
895	 0.559579920835228 
896	 0.559792144405371 
897	 0.559883865625382 
898	 0.559930489963927 
899	 0.559931722000058 
900	 0.559884335038364 
901	 0.55983920053452 
902	 0.559875576105821 
903	 0.55995872306423 
904	 0.559999206930045 
905	 0.559960070198596 
906	 0.560002375771533 
907	 0.560179187574074 
908	 0.56042245003017 
909	 0.560502634124225 
910	 0.560555446313401 
911	 0.560648162266315 
912	 0.560744791242925 
913	 0.560953161760253 
914	 0.561103577060242 
915	 0.561165614568178 
916	 0.561341233697338 
917	 0.561407837855912 
918	 0.561499308888616 
919	 0.561687356581916 
920	 0.561798651493929 
921	 0.56193619811794 
922	 0.562129070371003 
923	 0.562356300227545 
924	 0.562520070337414 
925	 0.562727906781204 
926	 0.562994404099409 
927	 0.563270317708948 
928	 0.563403396487178 
929	 0.56361212863618 
930	 0.563897564414251 
931	 0.564163846529339 
932	 0.564346285710901 
933	 0.564626832272372 
934	 0.564970436015777 
935	 0.565234122478102 
936	 0.565418718542417 
937	 0.565675130821823 
938	 0.565989047764341 
939	 0.566248498783763 
940	 0.566582633233516 
941	 0.566824615137201 
942	 0.566985918113146 
943	 0.567238306194394 
944	 0.567559047090348 
945	 0.567828038309012 
946	 0.568016317402388 
947	 0.568196750382195 
948	 0.56828878576151 
949	 0.568360897278481 
950	 0.568498592255492 
951	 0.568753750156353 
952	 0.568800104727326 
953	 0.568858224791413 
954	 0.569024836953084 
955	 0.569074138167585 
956	 0.569099653410774 
957	 0.569158945303858 
958	 0.56924146406223 
959	 0.569236925003443 
960	 0.569204190501887 
961	 0.569224249303663 
962	 0.569317866503398 
963	 0.569383178187145 
964	 0.569340242016332 
965	 0.569280037445536 
966	 0.5692986477465 
967	 0.569392803472682 
968	 0.569316844078973 
969	 0.569255521394039 
970	 0.569393775272541 
971	 0.569597997519832 
972	 0.569579333555525 
973	 0.56950262996715 
974	 0.569584492864169 
975	 0.569747201862247 
976	 0.56986883916108 
977	 0.569954530455279 
978	 0.570034115594269 
979	 0.570050469301371 
980	 0.570145735194584 
981	 0.570246336859774 
982	 0.570278653938876 
983	 0.570419008431326 
984	 0.570570508557923 
985	 0.570706316032785 
986	 0.57081836273027 
987	 0.570875602576418 
988	 0.570939023419096 
989	 0.571003679175713 
990	 0.571033654692335 
991	 0.570966837405172 
992	 0.571043181590731 
993	 0.571204911503693 
994	 0.571337577681373 
995	 0.571577903858259 
996	 0.57158441039819 
997	 0.571519012144414 
998	 0.571589541155191 
999	 0.571471160411147 
1000	 0.571586100726192 
1001	 0.578687035199133 
1002	 0.578816142789197 
1003	 0.578954290174673 
1004	 0.579048503238135 
1005	 0.579119594632189 
1006	 0.579181778398213 
1007	 0.579189131456983 
1008	 0.57926767030754 
1009	 0.579363745796022 
1010	 0.579470861642129 
1011	 0.579649526927859 
1012	 0.579771853914359 
1013	 0.579852688328895 
1014	 0.579952290068993 
1015	 0.580043359795999 
1016	 0.58012315437795 
1017	 0.580264395643629 
1018	 0.580417003690973 
1019	 0.58053246916776 
1020	 0.580648454167679 
1021	 0.580743858775988 
1022	 0.580793916230068 
1023	 0.580869417195206 
1024	 0.580968027699153 
1025	 0.581045624271364 
1026	 0.581090699539694 
1027	 0.581156114538733 
1028	 0.581245937294331 
1029	 0.581299947263689 
1030	 0.581312039176654 
1031	 0.581380254980127 
1032	 0.581422496416077 
1033	 0.581380863597406 
1034	 0.581333098188896 
1035	 0.581355796348984 
1036	 0.581372729886725 
1037	 0.581364744603519 
1038	 0.581407860651458 
1039	 0.581518415638927 
1040	 0.58157142402487 
1041	 0.581621771864954 
1042	 0.581673210543604 
1043	 0.581707871635239 
1044	 0.581733812591405 
1045	 0.581784258378069 
1046	 0.58185836365361 
1047	 0.581968548585601 
1048	 0.582089560770203 
1049	 0.58219467291803 
1050	 0.582331049641906 
1051	 0.582471565997714 
1052	 0.58257848755233 
1053	 0.582730375933655 
1054	 0.58293325331162 
1055	 0.58309801936579 
1056	 0.583263148631063 
1057	 0.583431778751299 
1058	 0.583583496090937 
1059	 0.583732395028784 
1060	 0.58392416688181 
1061	 0.5841541638577 
1062	 0.584375695120373 
1063	 0.584569300313138 
1064	 0.584777912871167 
1065	 0.584970057306827 
1066	 0.585152416603057 
1067	 0.585372105537233 
1068	 0.585566825937066 
1069	 0.585738761529995 
1070	 0.585935740382265 
1071	 0.586148185391215 
1072	 0.586351260704418 
1073	 0.586546528157563 
1074	 0.586754573007536 
1075	 0.586941043244077 
1076	 0.587115944552383 
1077	 0.587326770239357 
1078	 0.58755624148483 
1079	 0.5877986157141 
1080	 0.588040839296416 
1081	 0.588249515667711 
1082	 0.588438999879838 
1083	 0.588579462593928 
1084	 0.588712116270058 
1085	 0.588894132539039 
1086	 0.589057597669075 
1087	 0.589214544837375 
1088	 0.589379389209891 
1089	 0.589540332802839 
1090	 0.589666809113159 
1091	 0.58979961899754 
1092	 0.589932880081755 
1093	 0.59007171915982 
1094	 0.59021975036603 
1095	 0.590351966632183 
1096	 0.590463195777238 
1097	 0.590557643203508 
1098	 0.590635386008779 
1099	 0.590699713362545 
1100	 0.590764085413214 
1101	 0.590822135587878 
1102	 0.590857541268032 
1103	 0.590890809611099 
1104	 0.590910008091008 
1105	 0.590930749441644 
1106	 0.590946007991719 
1107	 0.590945864035016 
1108	 0.590945220216895 
1109	 0.590964742490754 
1110	 0.590990537788265 
1111	 0.591017254229769 
1112	 0.591038371029647 
1113	 0.591019148672728 
1114	 0.590935322674228 
1115	 0.590857306041584 
1116	 0.590791612806797 
1117	 0.59068731674669 
1118	 0.59059219164305 
1119	 0.590522471266732 
1120	 0.590426813312587 
1121	 0.590312126429411 
1122	 0.59019152295415 
1123	 0.590060724201316 
1124	 0.589891736242641 
1125	 0.589675853573048 
1126	 0.589448826052624 
1127	 0.589196587088232 
1128	 0.58889793580609 
1129	 0.588577454785895 
1130	 0.588206517068859 
1131	 0.587823689447372 
1132	 0.587454509728568 
1133	 0.587045723135776 
1134	 0.586636430076929 
1135	 0.586180012776241 
1136	 0.585657559411485 
1137	 0.585145589742175 
1138	 0.584632120399597 
1139	 0.58407816280738 
1140	 0.583481489689977 
1141	 0.582938378392539 
1142	 0.582359301688056 
1143	 0.581747792298813 
1144	 0.581158744086209 
1145	 0.580526077355639 
1146	 0.579883397106524 
1147	 0.579237416437553 
1148	 0.578581369819285 
1149	 0.577955633701025 
1150	 0.577331132029943 
1151	 0.576727708177793 
1152	 0.576090727065234 
1153	 0.575452353849111 
1154	 0.574789661804717 
1155	 0.574104517790324 
1156	 0.573383828348458 
1157	 0.572652578898724 
1158	 0.571913969977527 
1159	 0.571143487252177 
1160	 0.570361614254084 
1161	 0.569577194931227 
1162	 0.568717814895545 
1163	 0.567860195810129 
1164	 0.566983362549615 
1165	 0.56610446184084 
1166	 0.565286184502432 
1167	 0.56445159314752 
1168	 0.563646624006096 
1169	 0.56281498434339 
1170	 0.561985160876359 
1171	 0.561124962339825 
1172	 0.560245980004239 
1173	 0.559344916385384 
1174	 0.558419375207303 
1175	 0.557518695152584 
1176	 0.556596759300056 
1177	 0.555691919478838 
1178	 0.554814182601839 
1179	 0.553900827098937 
1180	 0.553028160408058 
1181	 0.552172279663928 
1182	 0.551325408700261 
1183	 0.550564857887311 
1184	 0.549815727384734 
1185	 0.549115489203727 
1186	 0.548484698477973 
1187	 0.547893660991734 
1188	 0.547398115729571 
1189	 0.546978129159876 
1190	 0.546621063615908 
1191	 0.546361932369689 
1192	 0.546131260523732 
1193	 0.545951101665443 
1194	 0.545813761015796 
1195	 0.545741051649502 
1196	 0.54568457876732 
1197	 0.545673791239275 
1198	 0.545679052645887 
1199	 0.545685119858169 
1200	 0.545701235976269 
1201	 0.545738095154383 
1202	 0.545803239090645 
1203	 0.545902743225221 
1204	 0.54604354654495 
1205	 0.546248178556971 
1206	 0.546479306136063 
1207	 0.546813370971194 
1208	 0.547217359435591 
1209	 0.54770048973126 
1210	 0.548245182235901 
1211	 0.548894411296847 
1212	 0.549626081681234 
1213	 0.550460937300929 
1214	 0.55140283937368 
1215	 0.552431431965336 
1216	 0.553585767255433 
1217	 0.554760395215975 
1218	 0.556017383042952 
1219	 0.557315525836722 
1220	 0.558637578848473 
1221	 0.560034970902084 
1222	 0.561406395117413 
1223	 0.562786123075306 
1224	 0.564107834883165 
1225	 0.565401848683487 
1226	 0.566633013333566 
1227	 0.567836254577294 
1228	 0.568969900563903 
1229	 0.570053831863797 
1230	 0.57107115497777 
1231	 0.572023089729177 
1232	 0.572931496958688 
1233	 0.573761725190465 
1234	 0.574563641176548 
1235	 0.575326808398477 
1236	 0.576047532142446 
1237	 0.576727301010446 
1238	 0.577367449903259 
1239	 0.577962090164067 
1240	 0.578520792857768 
1241	 0.579051737369309 
1242	 0.579518012002831 
1243	 0.579978388543381 
1244	 0.580402247815001 
1245	 0.580825243469128 
1246	 0.58123960640163 
1247	 0.58161468336384 
1248	 0.581971960731651 
1249	 0.58229768334177 
1250	 0.582582237173662 
1251	 0.582853776437502 
1252	 0.583100597599207 
1253	 0.583339923811251 
1254	 0.583564387179365 
1255	 0.583766511284818 
1256	 0.583962144768594 
1257	 0.584126727151844 
1258	 0.584248773354734 
1259	 0.584369961532807 
1260	 0.584471432447692 
1261	 0.58456885928903 
1262	 0.584649058118659 
1263	 0.584738652716561 
1264	 0.584825410279252 
1265	 0.584902203507724 
1266	 0.584992411608974 
1267	 0.58509452861791 
1268	 0.585184864041038 
1269	 0.585265450804657 
1270	 0.585367657938134 
1271	 0.585471314065459 
1272	 0.585585950690336 
1273	 0.585726591251505 
1274	 0.585852760262143 
1275	 0.585969434466325 
1276	 0.586098317482623 
1277	 0.5862192294528 
1278	 0.586363931440575 
1279	 0.586520438344977 
1280	 0.58669305050166 
1281	 0.58689118660368 
1282	 0.587088598197237 
1283	 0.587305260075097 
1284	 0.58751031928 
1285	 0.587712372585641 
1286	 0.587910193004934 
1287	 0.588115600090447 
1288	 0.58831725506689 
1289	 0.588526210963978 
1290	 0.588749381698675 
1291	 0.58895367422024 
1292	 0.589153739820596 
1293	 0.589345606187017 
1294	 0.589529239849763 
1295	 0.589705643760541 
1296	 0.589866912451325 
1297	 0.590040365900572 
1298	 0.59021924457088 
1299	 0.590383840315199 
1300	 0.59055318443832 
1301	 0.590708992636067 
1302	 0.59084280229093 
1303	 0.590981634330593 
1304	 0.59114932591331 
1305	 0.591263223937335 
1306	 0.591343911340083 
1307	 0.591420021825924 
1308	 0.591469990746504 
1309	 0.591495761593144 
1310	 0.591517905583438 
1311	 0.591544233644721 
1312	 0.591538842116126 
1313	 0.591500171855625 
1314	 0.591474749482253 
1315	 0.591445109068106 
1316	 0.591404537340381 
1317	 0.591358351017308 
1318	 0.59130797466553 
1319	 0.591251081819916 
1320	 0.59118220011493 
1321	 0.591123522743142 
1322	 0.591024853709269 
1323	 0.590896344507793 
1324	 0.590763728061272 
1325	 0.590616534888547 
1326	 0.590448369888201 
1327	 0.590280932648644 
1328	 0.590075151863142 
1329	 0.589833011989572 
1330	 0.589578488721887 
1331	 0.589308612779458 
1332	 0.589009849340281 
1333	 0.588693388057454 
1334	 0.588350443902507 
1335	 0.587981598482415 
1336	 0.587585286436586 
1337	 0.587161983369235 
1338	 0.586719948979368 
1339	 0.586239486549675 
1340	 0.585733893846561 
1341	 0.585182044342703 
1342	 0.584595116834012 
1343	 0.583972106886693 
1344	 0.583313950794909 
1345	 0.582610039804521 
1346	 0.58187519059877 
1347	 0.581091618464457 
1348	 0.580252435618613 
1349	 0.579391724640632 
1350	 0.578467061295372 
1351	 0.577562086985552 
1352	 0.576632414930344 
1353	 0.575712259174734 
1354	 0.574793186252952 
1355	 0.57388251591063 
1356	 0.572965135768624 
1357	 0.572061417574353 
1358	 0.571162006395514 
1359	 0.570279349326183 
1360	 0.569436262939278 
1361	 0.568562116031624 
1362	 0.567657283905269 
1363	 0.566801167446804 
1364	 0.56587854722162 
1365	 0.564931846580764 
1366	 0.563936230682862 
1367	 0.562908824625535 
1368	 0.561855149773307 
1369	 0.560755377767927 
1370	 0.559642413396857 
1371	 0.558501618714977 
1372	 0.557371680204831 
1373	 0.556222478960463 
1374	 0.555064955185451 
1375	 0.553893544045006 
1376	 0.552734172381982 
1377	 0.551551670308187 
1378	 0.550381001229803 
1379	 0.549226056423683 
1380	 0.5480738294769 
1381	 0.546921163176277 
1382	 0.545764322246214 
1383	 0.544610115469109 
1384	 0.543465131015285 
1385	 0.542310398515218 
1386	 0.541180378173619 
1387	 0.540033743792072 
1388	 0.538971618220221 
1389	 0.537944262912546 
1390	 0.536966667596792 
1391	 0.536076687971404 
1392	 0.535190876878154 
1393	 0.534390878760105 
1394	 0.533554831219542 
1395	 0.532676964760037 
1396	 0.531839159850011 
1397	 0.53086125922028 
1398	 0.529830132414772 
1399	 0.528658952799185 
1400	 0.527400572578692 
1401	 0.526023470980809 
1402	 0.524522135306493 
1403	 0.522923471818842 
1404	 0.521210143597639 
1405	 0.519450899813425 
1406	 0.51754565000559 
1407	 0.515687259127906 
1408	 0.513718256336916 
1409	 0.51190345641687 
1410	 0.510060257101968 
1411	 0.508418360994495 
1412	 0.506885327527373 
1413	 0.505523726329287 
1414	 0.504316786955196 
1415	 0.503230252177597 
1416	 0.502334851334275 
1417	 0.501476868544418 
1418	 0.500775752052622 
1419	 0.500050407283777 
1420	 0.499376754685005 
1421	 0.498714733131259 
1422	 0.498061503893964 
1423	 0.497426651220097 
1424	 0.496825365860931 
1425	 0.496209257733995 
1426	 0.495642023815373 
1427	 0.495121881310705 
1428	 0.494654952614194 
1429	 0.494271637401427 
1430	 0.493916098858363 
1431	 0.493609381957406 
1432	 0.493343481743988 
1433	 0.49312423191953 
1434	 0.492939407770231 
1435	 0.49279701389668 
1436	 0.492692396129732 
1437	 0.492628595407822 
1438	 0.492597854874333 
1439	 0.492605153982903 
1440	 0.492648577773563 
1441	 0.492738645640357 
1442	 0.492835552140408 
1443	 0.492972824334192 
1444	 0.4931062917846 
1445	 0.493237949049249 
1446	 0.493405009871806 
1447	 0.493581611783804 
1448	 0.493800370517434 
1449	 0.494063717683751 
1450	 0.494332594346051 
1451	 0.494640577877661 
1452	 0.494941262493434 
1453	 0.495262950216768 
1454	 0.495561298562812 
1455	 0.495848252028592 
1456	 0.49614050769545 
1457	 0.496425157427923 
1458	 0.496707237353297 
1459	 0.496987610789196 
1460	 0.497277509060806 
1461	 0.497560606604393 
1462	 0.497851521833591 
1463	 0.498163580910175 
1464	 0.498465885833978 
1465	 0.498751211726094 
1466	 0.499059982176428 
1467	 0.499365376680987 
1468	 0.49968481290215 
1469	 0.500021970099178 
1470	 0.500348063244993 
1471	 0.500679299512222 
1472	 0.501014780567847 
1473	 0.501344008946068 
1474	 0.501678371500714 
1475	 0.501991905370545 
1476	 0.502303901131448 
1477	 0.502584544366795 
1478	 0.502839687476294 
1479	 0.503092218733853 
1480	 0.503323528097543 
1481	 0.503556832990899 
1482	 0.503787470062106 
1483	 0.504009026196422 
1484	 0.504228869240262 
1485	 0.504426155583654 
1486	 0.504609558418539 
1487	 0.504782513666294 
1488	 0.504928279832553 
1489	 0.505086994492023 
1490	 0.505233263405725 
1491	 0.505403670611947 
1492	 0.505581859461266 
1493	 0.505771445209488 
1494	 0.505981486629782 
1495	 0.506189069769495 
1496	 0.506408876882205 
1497	 0.506618606969256 
1498	 0.50682959711818 
1499	 0.507036998034542 
1500	 0.507229817285559 
1501	 0.507436766880501 
1502	 0.507649954070456 
1503	 0.507863159433412 
1504	 0.508079418968651 
1505	 0.508303583963713 
1506	 0.508530742053488 
1507	 0.508762700251283 
1508	 0.509014759969372 
1509	 0.509250012203171 
1510	 0.509485570577609 
1511	 0.509706287417573 
1512	 0.509905045173717 
1513	 0.510110114551311 
1514	 0.510316615233544 
1515	 0.510510981595524 
1516	 0.510700973083353 
1517	 0.510887276711799 
1518	 0.511060549173031 
1519	 0.51123134699032 
1520	 0.511400481275033 
1521	 0.511571275993213 
1522	 0.511716873322237 
1523	 0.511861295689214 
1524	 0.51202379624184 
1525	 0.512185710926718 
1526	 0.512356660218529 
1527	 0.512546010170896 
1528	 0.51272807770874 
1529	 0.51291004555358 
1530	 0.51308529362579 
1531	 0.513268025150266 
1532	 0.513430570739934 
1533	 0.513573443334173 
1534	 0.513730953086287 
1535	 0.513887998247741 
1536	 0.514040492466225 
1537	 0.514200248446616 
1538	 0.514343364297671 
1539	 0.514477067913422 
1540	 0.514602106912663 
1541	 0.514723653761769 
1542	 0.514824929181794 
1543	 0.514914412639666 
1544	 0.514985791631329 
1545	 0.515040449978408 
1546	 0.515079887506152 
1547	 0.515103973034706 
1548	 0.515111747573656 
1549	 0.515095037011958 
1550	 0.515082985796832 
1551	 0.515057139597562 
1552	 0.515034087041974 
1553	 0.515014480092489 
1554	 0.514983079977464 
1555	 0.51494148377463 
1556	 0.514901516798843 
1557	 0.514859829467775 
1558	 0.514809064077666 
1559	 0.51474672977718 
1560	 0.514697450854405 
1561	 0.514626897481837 
1562	 0.514602419486286 
1563	 0.514599220136312 
1564	 0.514620683011913 
1565	 0.514684033268969 
1566	 0.514738862769625 
1567	 0.51480883737793 
1568	 0.514881777834354 
1569	 0.514963524992778 
1570	 0.515039543637432 
1571	 0.515127004196481 
1572	 0.515200038886811 
1573	 0.515254828996376 
1574	 0.515323733087023 
1575	 0.51539855029287 
1576	 0.51546567038313 
1577	 0.515530237563131 
1578	 0.515602564903586 
1579	 0.515674265012981 
1580	 0.515744569227572 
1581	 0.515823753312711 
1582	 0.515898957529511 
1583	 0.515972259655562 
1584	 0.516035973211558 
1585	 0.516091154219868 
1586	 0.516155870617113 
1587	 0.516206322538188 
1588	 0.516277012328963 
1589	 0.516377872208932 
1590	 0.516458961192609 
1591	 0.516539388073353 
1592	 0.516615032420463 
1593	 0.516685831873577 
1594	 0.516744809207524 
1595	 0.516793428128871 
1596	 0.516846970617924 
1597	 0.516886223743516 
1598	 0.516935190619638 
1599	 0.517010682763343 
1600	 0.517052693482925 
1601	 0.517087459249298 
1602	 0.517102642754698 
1603	 0.517076133317658 
1604	 0.517070475221572 
1605	 0.517065779585512 
1606	 0.517054964074249 
1607	 0.517061115193298 
1608	 0.517041029355067 
1609	 0.517008572308047 
1610	 0.516957527240046 
1611	 0.516893881517336 
1612	 0.516805079163787 
1613	 0.51668622021603 
1614	 0.516563230457409 
1615	 0.516421416647336 
1616	 0.516269751973225 
1617	 0.516121376861799 
1618	 0.515940421081445 
1619	 0.515730505593757 
1620	 0.515514498075335 
1621	 0.515266122949452 
1622	 0.515026922139903 
1623	 0.5147972867409 
1624	 0.514543135901184 
1625	 0.514273350100963 
1626	 0.514000864037218 
1627	 0.513705856790211 
1628	 0.513420909901181 
1629	 0.513125874142606 
1630	 0.512858142290155 
1631	 0.51259526959642 
1632	 0.512350790836131 
1633	 0.512139882406503 
1634	 0.511927015705049 
1635	 0.511726686745955 
1636	 0.511526978633996 
1637	 0.511336652894713 
1638	 0.511138476538589 
1639	 0.510940466753709 
1640	 0.510737384365722 
1641	 0.510557765828336 
1642	 0.510322386310151 
1643	 0.510061686566248 
1644	 0.50977896443178 
1645	 0.50945793157139 
1646	 0.509107042149673 
1647	 0.508741191953197 
1648	 0.508337602156921 
1649	 0.507906108751819 
1650	 0.507416682258739 
1651	 0.506894501571637 
1652	 0.506320226804599 
1653	 0.505701983384536 
1654	 0.505006042040454 
1655	 0.50425171357436 
1656	 0.503428995379859 
1657	 0.502536271286325 
1658	 0.501561230704705 
1659	 0.500528112424233 
1660	 0.499413191502342 
1661	 0.498232729430059 
1662	 0.496923662541137 
1663	 0.495531374233317 
1664	 0.493993871334866 
1665	 0.492333381068555 
1666	 0.490514818919771 
1667	 0.488568909481379 
1668	 0.486488886288436 
1669	 0.484263500199605 
1670	 0.481887879775312 
1671	 0.479332844935162 
1672	 0.476684485969924 
1673	 0.473886887697358 
1674	 0.470983175118526 
1675	 0.467964054899958 
1676	 0.464922283212486 
1677	 0.461767019901103 
1678	 0.458581948724347 
1679	 0.455310482503763 
1680	 0.452045751986325 
1681	 0.448710404005651 
1682	 0.445401348241883 
1683	 0.4421096850562 
1684	 0.438882778272704 
1685	 0.435650395218621 
1686	 0.432478471237661 
1687	 0.429319108507009 
1688	 0.4262619995357 
1689	 0.423249602554722 
1690	 0.420325738963727 
1691	 0.417537697194911 
1692	 0.414829522478157 
1693	 0.41217254785081 
1694	 0.409631972526686 
1695	 0.407193770411644 
1696	 0.404811139938061 
1697	 0.402529299338508 
1698	 0.400269729292835 
1699	 0.398080056278326 
1700	 0.395992076798013 
1701	 0.393952129287714 
1702	 0.392009639409824 
1703	 0.390149812494172 
1704	 0.388393817268195 
1705	 0.38671127521269 
1706	 0.385130032229121 
1707	 0.383744218488381 
1708	 0.382430199004827 
1709	 0.381205062837932 
1710	 0.380086009130269 
1711	 0.378990514425503 
1712	 0.377997142405276 
1713	 0.377032757136643 
1714	 0.376101609707895 
1715	 0.375280931577319 
1716	 0.374440508330457 
1717	 0.373644757875453 
1718	 0.372901170561268 
1719	 0.372158041770698 
1720	 0.371510232133036 
1721	 0.370951483942598 
1722	 0.370479696099366 
1723	 0.370157029949181 
1724	 0.369965836290365 
1725	 0.369922265776862 
1726	 0.370096134670836 
1727	 0.370477565101005 
1728	 0.371018519946204 
1729	 0.37175594169278 
1730	 0.37267745164407 
1731	 0.373662948118169 
1732	 0.374811821081334 
1733	 0.376045922375761 
1734	 0.377315173151177 
1735	 0.378655227088278 
1736	 0.379905263342101 
1737	 0.381065346309899 
1738	 0.382101768691006 
1739	 0.382987376433525 
1740	 0.383772669238163 
1741	 0.384399188097064 
1742	 0.384840621742658 
1743	 0.385212600482406 
1744	 0.385424357488183 
1745	 0.385630912466746 
1746	 0.385719177223423 
1747	 0.385857337182203 
1748	 0.385965568392148 
1749	 0.386103103069178 
1750	 0.386251062664651 
1751	 0.386451590679651 
1752	 0.386648992438574 
1753	 0.386953549980652 
1754	 0.387307672964391 
1755	 0.387776540830776 
1756	 0.388314088363389 
1757	 0.388985476403129 
1758	 0.389815651866881 
1759	 0.390697216362649 
1760	 0.391736172107353 
1761	 0.392937036897081 
1762	 0.394168243103909 
1763	 0.395593998556327 
1764	 0.397151632781392 
1765	 0.398768073872773 
1766	 0.400547410338225 
1767	 0.402363177763392 
1768	 0.404239240351912 
1769	 0.406139119371303 
1770	 0.407912982194914 
1771	 0.409638601853075 
1772	 0.411258117482986 
1773	 0.412779525004334 
1774	 0.414285673510727 
1775	 0.415661450606923 
1776	 0.416974902284512 
1777	 0.418181529887632 
1778	 0.419196872189033 
1779	 0.420181574814411 
1780	 0.421074196733716 
1781	 0.421835237144348 
1782	 0.422602032613315 
1783	 0.423291782960927 
1784	 0.42387313145428 
1785	 0.424395327993078 
1786	 0.424840529167281 
1787	 0.425162223032911 
1788	 0.425487737068565 
1789	 0.425769835142667 
1790	 0.426038354432453 
1791	 0.426274197703024 
1792	 0.426502323417038 
1793	 0.426701268179531 
1794	 0.426865522518846 
1795	 0.427045774292458 
1796	 0.42720902151976 
1797	 0.427389333607887 
1798	 0.42760627002428 
1799	 0.427833954932372 
1800	 0.428053825080955 
1801	 0.428304385271259 
1802	 0.428536832652703 
1803	 0.428740822350161 
1804	 0.428926560324237 
1805	 0.429117792303859 
1806	 0.429297709287261 
1807	 0.429458846445448 
1808	 0.429635808286668 
1809	 0.429813325028562 
1810	 0.429994156236707 
1811	 0.430177018037999 
1812	 0.430365475013155 
1813	 0.430558758814392 
1814	 0.430759346575771 
1815	 0.430945700746981 
1816	 0.431150432992596 
1817	 0.43136138109566 
1818	 0.431560600414442 
1819	 0.431796090971628 
1820	 0.432063771058915 
1821	 0.432322713091481 
1822	 0.4325975517655 
1823	 0.432881407467997 
1824	 0.433135422587087 
1825	 0.433396026903793 
1826	 0.433645357180913 
1827	 0.433875165288006 
1828	 0.434116281548327 
1829	 0.434352608483682 
1830	 0.434603570139491 
1831	 0.434856103666103 
1832	 0.435130322443882 
1833	 0.435396809624471 
1834	 0.435658161315056 
1835	 0.43594314341046 
1836	 0.436226744253004 
1837	 0.436517563273752 
1838	 0.436832836214373 
1839	 0.437125706984498 
1840	 0.437404586140637 
1841	 0.437699582661334 
1842	 0.437991507943014 
1843	 0.438297674140952 
1844	 0.438622447879618 
1845	 0.438902858221595 
1846	 0.439182007089541 
1847	 0.439458171994395 
1848	 0.439700227795814 
1849	 0.439926301959742 
1850	 0.440125780928187 
1851	 0.440300962059002 
1852	 0.440447390793787 
1853	 0.440585613813498 
1854	 0.440704926312724 
1855	 0.440802034618497 
1856	 0.440866082426951 
1857	 0.440892052858762 
1858	 0.440893709429545 
1859	 0.440856440423318 
1860	 0.440787157189895 
1861	 0.440680134928046 
1862	 0.440537118665264 
1863	 0.440365606482319 
1864	 0.44014883248467 
1865	 0.439898026856602 
1866	 0.439594981157591 
1867	 0.439207675847957 
1868	 0.438818439592225 
1869	 0.438362151253605 
1870	 0.437841377786295 
1871	 0.437299005173325 
1872	 0.436682746185381 
1873	 0.43599086233782 
1874	 0.435240594828556 
1875	 0.434462963228494 
1876	 0.433533420508999 
1877	 0.432549433283614 
1878	 0.431468176853155 
1879	 0.430250884110316 
1880	 0.428994246323006 
1881	 0.42759010463672 
1882	 0.426058103944082 
1883	 0.424429404002642 
1884	 0.422657097131116 
1885	 0.420630575578248 
1886	 0.418509390716156 
1887	 0.41617922688054 
1888	 0.413645910009308 
1889	 0.411163485006987 
1890	 0.408492061722998 
1891	 0.405802441510331 
1892	 0.403116277229231 
1893	 0.400330215828508 
1894	 0.397400156158533 
1895	 0.3945923712282 
1896	 0.391747963060562 
1897	 0.388909021726476 
1898	 0.386317675381555 
1899	 0.38373658942246 
1900	 0.381258056081895 
1901	 0.378907781621838 
1902	 0.376476978687878 
1903	 0.374216390658853 
1904	 0.372045890476908 
1905	 0.369930076131395 
1906	 0.367905003880367 
1907	 0.366155472064441 
1908	 0.364429516559333 
1909	 0.362800769307454 
1910	 0.361311856402798 
1911	 0.359804293674605 
1912	 0.358430090076702 
1913	 0.357130027828869 
1914	 0.355879561628825 
1915	 0.354746522007977 
1916	 0.353749372794184 
1917	 0.352757585842958 
1918	 0.35184582265641 
1919	 0.351025826693464 
1920	 0.350189459317127 
1921	 0.349427562425398 
1922	 0.348717472586914 
1923	 0.348045647126113 
1924	 0.347483769932691 
1925	 0.346962579458946 
1926	 0.34649128157894 
1927	 0.34608822280263 
1928	 0.345719361821057 
1929	 0.345386005285961 
1930	 0.345113067608381 
1931	 0.344889670521046 
1932	 0.344682429443188 
1933	 0.34454217176164 
1934	 0.344453158471319 
1935	 0.344395005692038 
1936	 0.344395589897147 
1937	 0.344445091423404 
1938	 0.344538858215707 
1939	 0.34467947122428 
1940	 0.344876064502265 
1941	 0.345121877110517 
1942	 0.34537590156598 
1943	 0.345659970431003 
1944	 0.34597995769266 
1945	 0.346328069648946 
1946	 0.3467359240043 
1947	 0.34717481166354 
1948	 0.347625759654804 
1949	 0.34811204672251 
1950	 0.348594672113665 
1951	 0.349078214427062 
1952	 0.349582205175892 
1953	 0.350102629819026 
1954	 0.350628852410152 
1955	 0.35119499893119 
1956	 0.351736830973229 
1957	 0.352276788761177 
1958	 0.352825935365156 
1959	 0.353324828752165 
1960	 0.353843696204861 
1961	 0.354359736251996 
1962	 0.354870095493884 
1963	 0.355384636452701 
1964	 0.355905606090477 
1965	 0.356414706242068 
1966	 0.356925841757759 
1967	 0.357439101535504 
1968	 0.357918358487894 
1969	 0.358408848844969 
1970	 0.358885142818088 
1971	 0.359339969000928 
1972	 0.359824188856137 
1973	 0.360304254012276 
1974	 0.360779745496363 
1975	 0.361277679477332 
1976	 0.361741965170633 
1977	 0.362172349480343 
1978	 0.362620513978261 
1979	 0.363063388582914 
1980	 0.363504282984715 
1981	 0.363958481497991 
1982	 0.364410122312135 
1983	 0.364867937658466 
1984	 0.365322976447643 
1985	 0.365737613156716 
1986	 0.36614982069728 
1987	 0.366539914505986 
1988	 0.366889700966186 
1989	 0.367243297921189 
1990	 0.367605390327876 
1991	 0.367929257299328 
1992	 0.368228008600292 
1993	 0.368522384547105 
1994	 0.368771580946406 
1995	 0.36900982638274 
1996	 0.369231296574785 
1997	 0.369423927583378 
1998	 0.369623654552535 
1999	 0.369825555571948 
2000	 0.369994686111731 
2001	 0.370156572588185 
2002	 0.370289310099837 
2003	 0.370390911428519 
2004	 0.370478879341567 
2005	 0.370542618566988 
2006	 0.370598360127028 
2007	 0.370643643453501 
2008	 0.370663291662396 
2009	 0.370660742791161 
2010	 0.370655208285495 
2011	 0.370620040491826 
2012	 0.370559354194542 
2013	 0.370472292149546 
2014	 0.370374442664871 
2015	 0.37022328437674 
2016	 0.370038191934298 
2017	 0.369811796795539 
2018	 0.369526661957497 
2019	 0.369233831291644 
2020	 0.368922616094586 
2021	 0.368561426828334 
2022	 0.368186839740791 
2023	 0.367795450168957 
2024	 0.367332239720919 
2025	 0.366877144071825 
2026	 0.366384517155706 
2027	 0.365841666158503 
2028	 0.365310112834782 
2029	 0.364749698446227 
2030	 0.36420115257829 
2031	 0.363672599738867 
2032	 0.363113428697079 
2033	 0.362520358810022 
2034	 0.361962607341332 
2035	 0.361394627422108 
2036	 0.360818234131283 
2037	 0.360326021256132 
2038	 0.359878911280956 
2039	 0.35946354423094 
2040	 0.359098564301676 
2041	 0.358754502553243 
2042	 0.35842872348431 
2043	 0.358162718896213 
2044	 0.35795366582819 
2045	 0.357749456117204 
2046	 0.357584299844801 
2047	 0.357445927886631 
2048	 0.357316662591613 
2049	 0.357229232847803 
2050	 0.357194467108896 
2051	 0.357176183572152 
2052	 0.357170264650231 
2053	 0.357193853873867 
2054	 0.35721443944442 
2055	 0.357245569741156 
2056	 0.357286698871914 
2057	 0.35733030894359 
2058	 0.357395124727637 
2059	 0.35748959882877 
2060	 0.357569998325811 
2061	 0.357664119259896 
2062	 0.357748907663591 
2063	 0.357818249415723 
2064	 0.357899458616596 
2065	 0.357990856621726 
2066	 0.358082754667134 
2067	 0.358153225854007 
2068	 0.35820629176236 
2069	 0.35825787595236 
2070	 0.358291751480943 
2071	 0.358318380374956 
2072	 0.358350418973672 
2073	 0.358358142480691 
2074	 0.358345342452092 
2075	 0.358320057873574 
2076	 0.358281211511439 
2077	 0.358230478435595 
2078	 0.358146608700356 
2079	 0.358079778016473 
2080	 0.358011222311889 
2081	 0.357943264962946 
2082	 0.357882814031768 
2083	 0.357829061209644 
2084	 0.357750890681355 
2085	 0.357653132691702 
2086	 0.357537903208756 
2087	 0.357394050270816 
2088	 0.357252960858475 
2089	 0.35710678098206 
2090	 0.356939756743778 
2091	 0.356772142844654 
2092	 0.356569736224499 
2093	 0.356334573399292 
2094	 0.356090265973655 
2095	 0.355814673005303 
2096	 0.355543000758615 
2097	 0.35525946809797 
2098	 0.35497462602534 
2099	 0.354709788909468 
2100	 0.354405079133604 
2101	 0.354068753057289 
2102	 0.353719700231528 
2103	 0.353331674258554 
2104	 0.352886998075068 
2105	 0.352452050328629 
2106	 0.352001502578364 
2107	 0.351536480509564 
2108	 0.351060564678097 
2109	 0.350564201972916 
2110	 0.350053567326182 
2111	 0.349523631251351 
2112	 0.34894805725161 
2113	 0.348399557623392 
2114	 0.347854154431952 
2115	 0.347296958753435 
2116	 0.346738100470099 
2117	 0.346199929291808 
2118	 0.34563215845714 
2119	 0.345039894704776 
2120	 0.344459139964989 
2121	 0.343865467263051 
2122	 0.343296654996468 
2123	 0.342736747160509 
2124	 0.342181514160035 
2125	 0.341654969554357 
2126	 0.341098663079642 
2127	 0.340530725187969 
2128	 0.339964077255477 
2129	 0.339367993276713 
2130	 0.338804594416044 
2131	 0.338266588720798 
2132	 0.337715843621328 
2133	 0.337169292156401 
2134	 0.336637585721339 
2135	 0.336080182098176 
2136	 0.335529889166545 
2137	 0.334981756381613 
2138	 0.334419164418095 
2139	 0.333905825391045 
2140	 0.333408993445422 
2141	 0.332932327993432 
2142	 0.332493451640996 
2143	 0.332063267545356 
2144	 0.331627708725084 
2145	 0.331242002906054 
2146	 0.330897755244698 
2147	 0.330565639302574 
2148	 0.330266432177216 
2149	 0.32998064727543 
2150	 0.329730219496419 
2151	 0.329463369870174 
2152	 0.329185313645764 
2153	 0.328951739649519 
2154	 0.32869964139309 
2155	 0.328463329417624 
2156	 0.328227510803651 
2157	 0.328020674056566 
2158	 0.327772813587926 
2159	 0.327502996366946 
2160	 0.327240843631957 
2161	 0.326957581023662 
2162	 0.326705737705677 
2163	 0.326454575707484 
2164	 0.326234543597794 
2165	 0.326039406543233 
2166	 0.32585481243041 
2167	 0.325690739550397 
2168	 0.325538270285049 
2169	 0.32537477917196 
2170	 0.325269791786705 
2171	 0.325211148263981 
2172	 0.325158773763494 
2173	 0.325146427752885 
2174	 0.325154055083813 
2175	 0.3251203849584 
2176	 0.325126408499202 
2177	 0.325155675406128 
2178	 0.325203565663898 
2179	 0.325260309911947 
2180	 0.325354147378584 
2181	 0.325430611300363 
2182	 0.32551386742745 
2183	 0.325583724350465 
2184	 0.325635585033485 
2185	 0.325718866270403 
2186	 0.325808719675736 
2187	 0.325900613486035 
2188	 0.326033858378516 
2189	 0.326132125811907 
2190	 0.326211503356662 
2191	 0.326283492869869 
2192	 0.326328278018397 
2193	 0.326388691288757 
2194	 0.326467669520278 
2195	 0.326515667436137 
2196	 0.326542920423702 
2197	 0.326598194165573 
2198	 0.326615336945591 
2199	 0.326578282674959 
2200	 0.326555406755385 
2201	 0.326529171336299 
2202	 0.326479373368811 
2203	 0.326415029200309 
2204	 0.326335734684456 
2205	 0.326243162312176 
2206	 0.326124411905731 
2207	 0.325987552233752 
2208	 0.325826256445876 
2209	 0.325634722185297 
2210	 0.3254349731488 
2211	 0.325240899761516 
2212	 0.32498309848116 
2213	 0.32468601672745 
2214	 0.324367975013084 
2215	 0.323998668556812 
2216	 0.323611499562944 
2217	 0.323248085328455 
2218	 0.322787799755976 
2219	 0.32226880793103 
2220	 0.321698391607121 
2221	 0.321063926136612 
2222	 0.320358100088647 
2223	 0.319628115032953 
2224	 0.31881183214211 
2225	 0.317978536390573 
2226	 0.317066271932169 
2227	 0.31602716121183 
2228	 0.314917963300207 
2229	 0.313688137200182 
2230	 0.312284602530876 
2231	 0.310896795342667 
2232	 0.309478170994264 
2233	 0.307906497901951 
2234	 0.30631048882161 
2235	 0.304490496128036 
2236	 0.302470429280873 
2237	 0.300389208992208 
2238	 0.298096862571281 
2239	 0.295833410166463 
2240	 0.293570228793915 
2241	 0.29113148489028 
2242	 0.288642927499287 
2243	 0.285999569480358 
2244	 0.283131837957648 
2245	 0.280264066565203 
2246	 0.277236547784156 
2247	 0.274263302239359 
2248	 0.271276208741082 
2249	 0.26825807164412 
2250	 0.265237641224045 
2251	 0.262254878256526 
2252	 0.259040978012088 
2253	 0.255947328238097 
2254	 0.25280927168851 
2255	 0.249632916870927 
2256	 0.246773052044066 
2257	 0.243933913917883 
2258	 0.241214762157644 
2259	 0.238695255775955 
2260	 0.23610324368235 
2261	 0.233474716539454 
2262	 0.231083411539206 
2263	 0.228713034491935 
2264	 0.226603985285273 
2265	 0.224773224097229 
2266	 0.222939649709879 
2267	 0.221291030075405 
2268	 0.219624012487926 
2269	 0.217992082295331 
2270	 0.216457446330466 
2271	 0.214956167463081 
2272	 0.213567279521684 
2273	 0.212361857407048 
2274	 0.211074116605283 
2275	 0.209876110839448 
2276	 0.208587347106037 
2277	 0.207253235194535 
2278	 0.205883423108388 
2279	 0.204439056867182 
2280	 0.203003461275645 
2281	 0.201575576678966 
2282	 0.200064470973721 
2283	 0.198508938263276 
2284	 0.19695594746371 
2285	 0.195250115910072 
2286	 0.193556701886197 
2287	 0.191838500432377 
2288	 0.190103830001347 
2289	 0.188495033134548 
2290	 0.186855543471615 
2291	 0.185293448393686 
2292	 0.183823961214847 
2293	 0.182281980737102 
2294	 0.180831798249545 
2295	 0.179500316118387 
2296	 0.178247104698102 
2297	 0.177222591430668 
2298	 0.176391280415856 
2299	 0.175729171706242 
2300	 0.175228879103955 
2301	 0.174957181875475 
2302	 0.174889925696697 
2303	 0.175036042301733 
2304	 0.175433773483134 
2305	 0.175975041692028 
2306	 0.176721840763813 
2307	 0.177657798177158 
2308	 0.178775180618339 
2309	 0.180101210949327 
2310	 0.18171529239481 
2311	 0.183358402716996 
2312	 0.185266037548412 
2313	 0.187073047545842 
2314	 0.188976353305319 
2315	 0.190779700944165 
2316	 0.192567888307223 
2317	 0.194245708339334 
2318	 0.195899584729996 
2319	 0.19736799665179 
2320	 0.198786187365143 
2321	 0.199930171837435 
2322	 0.200812402465193 
2323	 0.201624306681776 
2324	 0.202233229251626 
2325	 0.202718022830575 
2326	 0.20308733507658 
2327	 0.203306531198817 
2328	 0.203309890918029 
2329	 0.203251441344561 
2330	 0.203078226045169 
2331	 0.202823371333491 
2332	 0.202446906607339 
2333	 0.20193118094702 
2334	 0.201305371315495 
2335	 0.200608930398214 
2336	 0.199873996358955 
2337	 0.199116991912173 
2338	 0.1983111803425 
2339	 0.197499611439325 
2340	 0.196718766407249 
2341	 0.195956888235852 
2342	 0.195285021416274 
2343	 0.194747683747019 
2344	 0.194346168503788 
2345	 0.194121325111096 
2346	 0.194100833784718 
2347	 0.194298379512268 
2348	 0.19467461875656 
2349	 0.195315795126564 
2350	 0.19618379042616 
2351	 0.197160642184492 
2352	 0.198207439815282 
2353	 0.199349018598322 
2354	 0.200449319836675 
2355	 0.201541630195935 
2356	 0.202623677525676 
2357	 0.203542443271373 
2358	 0.204398793190994 
2359	 0.205100709576091 
2360	 0.205714071069514 
2361	 0.20619539223822 
2362	 0.20643751083943 
2363	 0.206662745111756 
2364	 0.20684625326714 
2365	 0.206972187607614 
2366	 0.207199670423906 
2367	 0.207429793839349 
2368	 0.207590822126643 
2369	 0.207689830564424 
2370	 0.20770501109208 
2371	 0.207749952060802 
2372	 0.207861005151208 
2373	 0.208051955535038 
2374	 0.208273502383523 
2375	 0.208373938833608 
2376	 0.208352271552368 
2377	 0.208304182974029 
2378	 0.208265183423046 
2379	 0.208264376236901 
2380	 0.208348760203898 
2381	 0.208419925669009 
2382	 0.208467038451124 
2383	 0.208521624542019 
2384	 0.208526439569085 
2385	 0.208466713288633 
2386	 0.208464680343145 
2387	 0.208467633080224 
2388	 0.208477684221886 
2389	 0.208514795585458 
2390	 0.208552830557933 
2391	 0.208589684446837 
2392	 0.208563749499864 
2393	 0.208508217651887 
2394	 0.208535588623461 
2395	 0.208539511732624 
2396	 0.208563545172583 
2397	 0.208690108546202 
2398	 0.208757926351093 
2399	 0.208776026874498 
2400	 0.208822717089122 
2401	 0.208865643698046 
2402	 0.208920057652307 
2403	 0.209033913725979 
2404	 0.209104861334173 
2405	 0.209244337506915 
2406	 0.209334976105606 
2407	 0.209303084380994 
2408	 0.209425712205027 
2409	 0.209610456363458 
2410	 0.209712682413561 
2411	 0.209842385682221 
2412	 0.209981689443167 
2413	 0.210047832349473 
2414	 0.210095908041935 
2415	 0.210213450698131 
2416	 0.210391179879485 
2417	 0.210500342520003 
2418	 0.210510817277998 
2419	 0.210537707633075 
2420	 0.210568488156206 
2421	 0.210674826649776 
2422	 0.210898705123227 
2423	 0.211078569775654 
2424	 0.21117647981067 
2425	 0.211282057588212 
2426	 0.21133663588558 
2427	 0.211349622085491 
2428	 0.211428833573575 
2429	 0.211460022060677 
2430	 0.211425745215502 
2431	 0.211518575625049 
2432	 0.211601810561958 
2433	 0.211382287159178 
2434	 0.211199531238009 
2435	 0.211118467747595 
2436	 0.210802468755778 
2437	 0.210552443942018 
2438	 0.210404771298724 
2439	 0.210205471470625 
2440	 0.21008917143676 
2441	 0.210003924124187 
2442	 0.209887279426346 
2443	 0.20960869256079 
2444	 0.209217603055347 
2445	 0.20888512416055 
2446	 0.20859802337448 
2447	 0.208335565747191 
2448	 0.208100760485782 
2449	 0.207857269689806 
2450	 0.207441137849097 
2451	 0.206994213960222 
2452	 0.206679372747367 
2453	 0.206317823303484 
2454	 0.206032196247677 
2455	 0.205843639983972 
2456	 0.205584009196057 
2457	 0.205410291107239 
2458	 0.205157029879424 
2459	 0.204733971289244 
2460	 0.204451031409503 
2461	 0.204287512735829 
2462	 0.204180225065303 
2463	 0.204118699278405 
2464	 0.203980546810993 
2465	 0.203834612612782 
2466	 0.203713391531121 
2467	 0.20365816981973 
2468	 0.203858262034684 
2469	 0.203900628744454 
2470	 0.203750225530665 
2471	 0.203712397522822 
2472	 0.203501522240758 
2473	 0.203357229154191 
2474	 0.203391284534332 
2475	 0.203557521927357 
2476	 0.203761817153558 
2477	 0.203766728500699 
2478	 0.203989227689515 
2479	 0.204333058442728 
2480	 0.204544140514138 
2481	 0.204727907105666 
2482	 0.204836200432559 
2483	 0.204929686929403 
2484	 0.205031329598998 
2485	 0.205240913534797 
2486	 0.205281335679413 
2487	 0.205329603569637 
2488	 0.205611520835063 
2489	 0.205794139118008 
2490	 0.205914619908718 
2491	 0.206032253278187 
2492	 0.206224944985174 
2493	 0.206652676227444 
2494	 0.206952519785447 
2495	 0.207273493875445 
2496	 0.207526756470487 
2497	 0.207715749784555 
2498	 0.208262979848357 
2499	 0.208714190183422 
2500	 0.209034631446786 
