Wavelength	Tablay400017.asd
350	 0.215008792929966 
351	 0.233270982299683 
352	 0.253392045096771 
353	 0.228345762032772 
354	 0.251523064446458 
355	 0.271168132825291 
356	 0.278515179607427 
357	 0.274951087420822 
358	 0.262961839702669 
359	 0.255619230796358 
360	 0.244071685958348 
361	 0.216016939469239 
362	 0.218588583876247 
363	 0.218891824863027 
364	 0.206069500082063 
365	 0.208659550564442 
366	 0.184916707280974 
367	 0.172611741581486 
368	 0.195439351290782 
369	 0.17811138176373 
370	 0.159134213730792 
371	 0.162506493165902 
372	 0.195924227130442 
373	 0.187740584089829 
374	 0.163424329305139 
375	 0.148452587660577 
376	 0.158903383932847 
377	 0.15031029663446 
378	 0.147243343617674 
379	 0.167940967710309 
380	 0.142603130575129 
381	 0.142298075534686 
382	 0.157699723708654 
383	 0.136633011675953 
384	 0.129382281280663 
385	 0.132617283041938 
386	 0.135772841054202 
387	 0.126255266002286 
388	 0.126481512665215 
389	 0.131506874911797 
390	 0.131741694292641 
391	 0.128913059182208 
392	 0.122097772148873 
393	 0.115315103378598 
394	 0.1137986799489 
395	 0.104168792873453 
396	 0.100735002681358 
397	 0.107790195369761 
398	 0.108044248811637 
399	 0.10508719833354 
400	 0.103970842745449 
401	 0.106855305872345 
402	 0.102414971934287 
403	 9.27874354338385E-02 
404	 8.67385794864581E-02 
405	 9.50593000095471E-02 
406	 9.60831249376606E-02 
407	 9.27678184545398E-02 
408	 8.91693622213276E-02 
409	 8.32648661945492E-02 
410	 8.58508066841528E-02 
411	 0.091321815278478 
412	 9.04238677147891E-02 
413	 8.38041971987609E-02 
414	 7.99914477016237E-02 
415	 8.18491140197293E-02 
416	 8.65161480072395E-02 
417	 8.18826389138108E-02 
418	 7.65254376185826E-02 
419	 7.67437413845812E-02 
420	 7.60671023168689E-02 
421	 7.35492908481841E-02 
422	 7.08365414663191E-02 
423	 7.00130600618319E-02 
424	 6.71982965208953E-02 
425	 6.83271471531434E-02 
426	 7.19708936726968E-02 
427	 6.82644191732143E-02 
428	 6.72921148566446E-02 
429	 6.68609537117791E-02 
430	 6.46029197850171E-02 
431	 6.57057815156061E-02 
432	 6.63102623684429E-02 
433	 6.62724607684915E-02 
434	 6.71045749512316E-02 
435	 6.55045357623158E-02 
436	 6.40592265656473E-02 
437	 6.41766089103289E-02 
438	 6.47020089842369E-02 
439	 6.32671843277527E-02 
440	 6.21798880081728E-02 
441	 0.063615988042926 
442	 6.37559792567969E-02 
443	 6.27086497334083E-02 
444	 6.15833189319147E-02 
445	 6.18977727441363E-02 
446	 6.04545946588716E-02 
447	 0.059920280873377 
448	 6.14292838736914E-02 
449	 6.09914138726562E-02 
450	 6.09918833292293E-02 
451	 6.06785460754329E-02 
452	 5.89389989336722E-02 
453	 5.91569728838139E-02 
454	 5.95848696659142E-02 
455	 5.94581204930713E-02 
456	 5.94327834050384E-02 
457	 0.059778955677985 
458	 5.96941221257588E-02 
459	 5.88249427240807E-02 
460	 0.058631803065585 
461	 5.95602905808438E-02 
462	 6.03738990970217E-02 
463	 5.92697290824013E-02 
464	 5.78136803068323E-02 
465	 5.74101119067731E-02 
466	 5.81145638882776E-02 
467	 5.80940966654005E-02 
468	 5.82817463755515E-02 
469	 0.058530058327542 
470	 5.84964956646991E-02 
471	 0.058099217602034 
472	 0.05841165780409 
473	 5.91531111360527E-02 
474	 5.90687138103083E-02 
475	 5.87882928726683E-02 
476	 5.88707597295946E-02 
477	 0.059501118911834 
478	 6.02445040961177E-02 
479	 6.01043788739449E-02 
480	 6.00124992504104E-02 
481	 0.061086864365387 
482	 0.06055184644633 
483	 6.07239609927572E-02 
484	 6.20242796821764E-02 
485	 6.24559702071719E-02 
486	 6.29332663534241E-02 
487	 6.39204259117547E-02 
488	 6.53174548638826E-02 
489	 0.065582555150848 
490	 6.62934348554961E-02 
491	 6.73667327479197E-02 
492	 6.78944183732436E-02 
493	 6.87473115390052E-02 
494	 7.04721974392626E-02 
495	 7.27323900761006E-02 
496	 7.38760483977277E-02 
497	 7.52575920906521E-02 
498	 7.64736963723052E-02 
499	 7.70879250531554E-02 
500	 7.88190425088285E-02 
501	 0.080671583332227 
502	 0.082317449447888 
503	 8.40983868397848E-02 
504	 8.59482532091788E-02 
505	 8.80806491333606E-02 
506	 9.04196358883103E-02 
507	 9.20664589008092E-02 
508	 9.40754157312361E-02 
509	 9.63399637736837E-02 
510	 0.098330846725415 
511	 0.100415003182599 
512	 0.102622960906927 
513	 0.104969732710696 
514	 0.107498916950699 
515	 0.109722181457533 
516	 0.111928545638451 
517	 0.114367072862404 
518	 0.116397021599519 
519	 0.11862373158496 
520	 0.121090872766079 
521	 0.123463072942791 
522	 0.125885729489797 
523	 0.128320274773079 
524	 0.130822188174977 
525	 0.133754671933706 
526	 0.136083919528028 
527	 0.13828939605336 
528	 0.141111090966228 
529	 0.143536243822929 
530	 0.145878689141113 
531	 0.148328336030228 
532	 0.150852361074 
533	 0.153374221875448 
534	 0.155707485340984 
535	 0.157882470022683 
536	 0.160603003391379 
537	 0.163278756081534 
538	 0.165669582749088 
539	 0.167835454232748 
540	 0.170616490239216 
541	 0.173163659172634 
542	 0.175193208975325 
543	 0.177590073206468 
544	 0.179990521274943 
545	 0.182396511706578 
546	 0.184821744648532 
547	 0.186893768110099 
548	 0.188995358459114 
549	 0.191226690251239 
550	 0.193414295493508 
551	 0.195696061959609 
552	 0.197858370475121 
553	 0.199803893058231 
554	 0.201867631654853 
555	 0.203882164383246 
556	 0.205814769848009 
557	 0.207705489694356 
558	 0.209700835530538 
559	 0.211530059225136 
560	 0.213159915132334 
561	 0.214929835523591 
562	 0.216731588815415 
563	 0.218600332448336 
564	 0.220536552233036 
565	 0.222298061852723 
566	 0.224147478533171 
567	 0.226024873120599 
568	 0.227662606963159 
569	 0.229391766854411 
570	 0.231204897769692 
571	 0.233037256391078 
572	 0.234820515838944 
573	 0.236594682647756 
574	 0.238292812438928 
575	 0.239863631605927 
576	 0.241562250717274 
577	 0.243104357352384 
578	 0.244518914110723 
579	 0.246211516245514 
580	 0.247750866855742 
581	 0.24915908759058 
582	 0.250565721862495 
583	 0.252094018493763 
584	 0.253512214381971 
585	 0.254779796999775 
586	 0.256003646333068 
587	 0.257448800104294 
588	 0.258855614364273 
589	 0.260136272112831 
590	 0.261580581433381 
591	 0.263049231469624 
592	 0.264452496882385 
593	 0.265770734076829 
594	 0.267251125119943 
595	 0.26854262939538 
596	 0.269649382968467 
597	 0.270887864663728 
598	 0.272159522920869 
599	 0.273464649403009 
600	 0.2747722506428 
601	 0.27593204859035 
602	 0.27704820333029 
603	 0.27819579761968 
604	 0.279417842556017 
605	 0.280646340043948 
606	 0.281839459583493 
607	 0.282994714407709 
608	 0.284150306996231 
609	 0.285262157589097 
610	 0.28630985811702 
611	 0.287312768998825 
612	 0.288378303902932 
613	 0.289536292622417 
614	 0.290675231175235 
615	 0.291634748608919 
616	 0.29273320617142 
617	 0.293757825630918 
618	 0.294639494342127 
619	 0.295697194229071 
620	 0.296637680629454 
621	 0.297543944268816 
622	 0.298563500090174 
623	 0.299540784243439 
624	 0.300421639298554 
625	 0.301263344844042 
626	 0.302209944546589 
627	 0.303087339377692 
628	 0.303921454334912 
629	 0.304761916375977 
630	 0.305628418364261 
631	 0.306421290125315 
632	 0.307160033381145 
633	 0.307924141262915 
634	 0.308802642605843 
635	 0.309617454311174 
636	 0.310318983483637 
637	 0.311042132100332 
638	 0.311694376898186 
639	 0.312376711573078 
640	 0.313146714293154 
641	 0.313771479425541 
642	 0.314445879925406 
643	 0.315168624176453 
644	 0.315816767195757 
645	 0.316351030395654 
646	 0.316900272432824 
647	 0.317522007986727 
648	 0.318127660846573 
649	 0.318679060836913 
650	 0.319203475187013 
651	 0.319747730575253 
652	 0.320339275743105 
653	 0.320878012729662 
654	 0.321378460141555 
655	 0.321939767335078 
656	 0.322450443902159 
657	 0.322930788040602 
658	 0.323434414095949 
659	 0.324060662624466 
660	 0.324528572080726 
661	 0.324911789028212 
662	 0.325393776484213 
663	 0.325946985763197 
664	 0.326474765982927 
665	 0.326981304039907 
666	 0.32756607602913 
667	 0.327988036697133 
668	 0.328394245715033 
669	 0.32891239975732 
670	 0.329413375852542 
671	 0.32999423143555 
672	 0.330517938514827 
673	 0.330822427022646 
674	 0.331310028261169 
675	 0.331826019180261 
676	 0.332286218384654 
677	 0.332749459094458 
678	 0.333166318600985 
679	 0.333596429005874 
680	 0.33407594518447 
681	 0.334491398314026 
682	 0.334958689806226 
683	 0.335398275162108 
684	 0.335681951041074 
685	 0.336199612773269 
686	 0.336731251161071 
687	 0.337142695753909 
688	 0.337511831397292 
689	 0.337918103061218 
690	 0.33833302058082 
691	 0.338716701612463 
692	 0.339110499941074 
693	 0.339442313215257 
694	 0.339785384862229 
695	 0.3402716609067 
696	 0.340678512734784 
697	 0.341068985054297 
698	 0.341462495925387 
699	 0.341753535481724 
700	 0.342115360743759 
701	 0.342508657956565 
702	 0.342845651697937 
703	 0.343087655368545 
704	 0.343464126334981 
705	 0.343915202533282 
706	 0.344203563287673 
707	 0.344504767122767 
708	 0.344822474300007 
709	 0.345152107090838 
710	 0.345514759187796 
711	 0.34581316173604 
712	 0.346138341457563 
713	 0.346558210620347 
714	 0.346812885208784 
715	 0.34708446185912 
716	 0.347415726889073 
717	 0.347740718688801 
718	 0.348053925800746 
719	 0.348347153272851 
720	 0.348639537146776 
721	 0.348996754497124 
722	 0.349323361725538 
723	 0.349599442368328 
724	 0.349852397666358 
725	 0.35019231555259 
726	 0.350526552858597 
727	 0.350822012262071 
728	 0.351099183050758 
729	 0.351419568323434 
730	 0.351768429654812 
731	 0.352107498027836 
732	 0.352376504903395 
733	 0.352703543960516 
734	 0.3530621565681 
735	 0.353392750953328 
736	 0.353702220132442 
737	 0.353969219421183 
738	 0.354230519125221 
739	 0.354552548911849 
740	 0.354910988731301 
741	 0.355261993854486 
742	 0.355552031505147 
743	 0.355715638334679 
744	 0.356011604740093 
745	 0.356371668113423 
746	 0.356682129561398 
747	 0.357006851794575 
748	 0.357328254509528 
749	 0.357676573349427 
750	 0.358089945734976 
751	 0.35845205075976 
752	 0.358789039617399 
753	 0.359131260592164 
754	 0.359493490284985 
755	 0.359852299405755 
756	 0.360244006011697 
757	 0.360680597802149 
758	 0.361058629102152 
759	 0.361513620353286 
760	 0.361967416996081 
761	 0.362293774319783 
762	 0.362745415873554 
763	 0.363253175891349 
764	 0.363711345127686 
765	 0.364020629119698 
766	 0.364416517332217 
767	 0.364837116626873 
768	 0.365239250939419 
769	 0.365775211648681 
770	 0.366221291961402 
771	 0.36661547246251 
772	 0.367063923197042 
773	 0.367477179859179 
774	 0.367954544890782 
775	 0.368464267174104 
776	 0.368880589524515 
777	 0.369353040506126 
778	 0.369805004076628 
779	 0.370210516515483 
780	 0.370680077993759 
781	 0.371152087842379 
782	 0.371646086091178 
783	 0.372170790562101 
784	 0.37262458474152 
785	 0.373047157064668 
786	 0.373484509762686 
787	 0.373967865791448 
788	 0.374399693544274 
789	 0.37485971916982 
790	 0.375348870914591 
791	 0.375764002221887 
792	 0.376223218496936 
793	 0.37670451846468 
794	 0.377162647767062 
795	 0.37756052228933 
796	 0.378003483624463 
797	 0.378470232173125 
798	 0.378898870283758 
799	 0.379282719040223 
800	 0.379743244721001 
801	 0.380275611653394 
802	 0.38076827525112 
803	 0.381126203950107 
804	 0.381517973077079 
805	 0.382007828385548 
806	 0.382452134115736 
807	 0.382883883896706 
808	 0.383282668838716 
809	 0.383660886452577 
810	 0.384169728361034 
811	 0.384555955886483 
812	 0.384874191157653 
813	 0.385289201996966 
814	 0.385717851558401 
815	 0.386069393068116 
816	 0.386391588500102 
817	 0.386832497856149 
818	 0.387206620709489 
819	 0.387546030118646 
820	 0.387877791055792 
821	 0.388164314940391 
822	 0.388536277049876 
823	 0.388894189875848 
824	 0.389158304446212 
825	 0.389517746290001 
826	 0.389801207565408 
827	 0.39002644203851 
828	 0.390299531776355 
829	 0.390686587037093 
830	 0.390969531428472 
831	 0.391129095369009 
832	 0.391335259126656 
833	 0.391639649845373 
834	 0.391938889135164 
835	 0.392179060128046 
836	 0.392422795843378 
837	 0.392668748347029 
838	 0.392873960820801 
839	 0.393022063556235 
840	 0.393190239497963 
841	 0.393446834226366 
842	 0.393682754633648 
843	 0.39377541141905 
844	 0.393920478123212 
845	 0.394104301834013 
846	 0.394319817847416 
847	 0.394561526429395 
848	 0.394768054918056 
849	 0.394926148565092 
850	 0.395027272405969 
851	 0.395067685921376 
852	 0.395262030189356 
853	 0.39546516434626 
854	 0.395578520064489 
855	 0.395772687467332 
856	 0.395885588968259 
857	 0.395955669426945 
858	 0.396068732701211 
859	 0.396236005393228 
860	 0.396430606160063 
861	 0.39656702339618 
862	 0.3965791635358 
863	 0.396670938843222 
864	 0.396796045549539 
865	 0.396880529771695 
866	 0.396869074342445 
867	 0.396985137620484 
868	 0.397060907437796 
869	 0.397052204184459 
870	 0.397149425733042 
871	 0.397233990556956 
872	 0.397261857276656 
873	 0.397261036313607 
874	 0.397382998692509 
875	 0.397454394771864 
876	 0.39746304297396 
877	 0.397459299735595 
878	 0.397511314605097 
879	 0.397560049734093 
880	 0.39761979246154 
881	 0.397705213352176 
882	 0.397629275585453 
883	 0.397579864135956 
884	 0.397601529631747 
885	 0.39761773405098 
886	 0.3976778300614 
887	 0.397704188155419 
888	 0.397680313787026 
889	 0.397672644586465 
890	 0.397674775227874 
891	 0.39768152174333 
892	 0.397684044784319 
893	 0.39766969125961 
894	 0.39770604386527 
895	 0.397723013737266 
896	 0.397682092237676 
897	 0.397719475734941 
898	 0.397721305855881 
899	 0.397742240598469 
900	 0.39783480425285 
901	 0.397828903975012 
902	 0.397787182222614 
903	 0.397805056067995 
904	 0.397934626456832 
905	 0.397940330058982 
906	 0.397924353113119 
907	 0.397941729119015 
908	 0.397989471312671 
909	 0.398007411173465 
910	 0.398078725493555 
911	 0.398210447932336 
912	 0.398317513012012 
913	 0.398334251250932 
914	 0.398330738677794 
915	 0.398369087649115 
916	 0.398460620883422 
917	 0.398473353953911 
918	 0.398537526436345 
919	 0.398676141506494 
920	 0.398621154893101 
921	 0.398734925030721 
922	 0.398903100444027 
923	 0.398980623963362 
924	 0.399082064737582 
925	 0.399098805401705 
926	 0.399088399045554 
927	 0.399156963857788 
928	 0.399382032429255 
929	 0.399602101373384 
930	 0.39972560357203 
931	 0.399743790810667 
932	 0.399806376725855 
933	 0.399996532416358 
934	 0.400143226525498 
935	 0.400074532038879 
936	 0.400385586247241 
937	 0.400599023142773 
938	 0.400660078504779 
939	 0.400825414572995 
940	 0.401032682881812 
941	 0.401167059432244 
942	 0.401201942217331 
943	 0.401212095791066 
944	 0.40137293953655 
945	 0.401529814086949 
946	 0.401632504189626 
947	 0.401773579175342 
948	 0.401864596197772 
949	 0.401935585621896 
950	 0.402021237646983 
951	 0.402140384772582 
952	 0.402372768241363 
953	 0.402514050501343 
954	 0.402518635060237 
955	 0.402631288988877 
956	 0.402656367117395 
957	 0.402674808197101 
958	 0.402758386402902 
959	 0.402865308191268 
960	 0.402989131950896 
961	 0.403075096288213 
962	 0.403116006883234 
963	 0.403211677330582 
964	 0.403275814594018 
965	 0.403309960908823 
966	 0.403363847702853 
967	 0.403536212462535 
968	 0.403705087340562 
969	 0.403837929373629 
970	 0.403965095476537 
971	 0.404211562545981 
972	 0.404203221425702 
973	 0.404206891711635 
974	 0.404479657874303 
975	 0.404691284557571 
976	 0.404777084918838 
977	 0.404726433115864 
978	 0.404659246216337 
979	 0.404993271502768 
980	 0.405071923899413 
981	 0.405026221707102 
982	 0.405154394776915 
983	 0.405379240825763 
984	 0.405315478612409 
985	 0.405314379196106 
986	 0.405714224285198 
987	 0.405921765404498 
988	 0.405856941735202 
989	 0.40599354566554 
990	 0.406581227213323 
991	 0.40643353785122 
992	 0.406311775429861 
993	 0.406359407969739 
994	 0.40648358228536 
995	 0.406650559727289 
996	 0.406515689747998 
997	 0.406483733869664 
998	 0.406912007245409 
999	 0.407080343651435 
1000	 0.407151222805046 
1001	 0.403818416597336 
1002	 0.403881073635299 
1003	 0.403997585094253 
1004	 0.404144032246841 
1005	 0.404381515416769 
1006	 0.404508261823627 
1007	 0.404652850909754 
1008	 0.404717566857097 
1009	 0.404629775988022 
1010	 0.40468534400998 
1011	 0.40484369956012 
1012	 0.404850516125762 
1013	 0.404820324233395 
1014	 0.404861656598927 
1015	 0.404853562920392 
1016	 0.404791382997112 
1017	 0.404845428112419 
1018	 0.404943014995946 
1019	 0.405032537201764 
1020	 0.405003128718608 
1021	 0.405141069959572 
1022	 0.405454552276339 
1023	 0.405608619972654 
1024	 0.405810119639733 
1025	 0.405898699374451 
1026	 0.405762551971297 
1027	 0.405779746013756 
1028	 0.40577222163438 
1029	 0.405913838152922 
1030	 0.406159914203505 
1031	 0.40638460167639 
1032	 0.406522130305703 
1033	 0.406601907350604 
1034	 0.406573274336824 
1035	 0.406567384956802 
1036	 0.406609059044415 
1037	 0.406652051449405 
1038	 0.406736459163777 
1039	 0.406907322449443 
1040	 0.40701279531852 
1041	 0.407058260921926 
1042	 0.407231977303526 
1043	 0.407475965488377 
1044	 0.407660362147699 
1045	 0.407847664979519 
1046	 0.407997050344848 
1047	 0.408035797273295 
1048	 0.408073169659554 
1049	 0.408265310111974 
1050	 0.408430317336115 
1051	 0.408454715122006 
1052	 0.408600082140754 
1053	 0.408695643297952 
1054	 0.408680934884257 
1055	 0.408764602078137 
1056	 0.408930369619804 
1057	 0.409009832745 
1058	 0.409062417581071 
1059	 0.409161212349691 
1060	 0.409176816874115 
1061	 0.409217437905926 
1062	 0.409298128573398 
1063	 0.409352835722014 
1064	 0.409410325996283 
1065	 0.409529068991815 
1066	 0.409515634854307 
1067	 0.409475674778019 
1068	 0.409541940004429 
1069	 0.409503733054761 
1070	 0.40949099551436 
1071	 0.409484716475778 
1072	 0.409540623377086 
1073	 0.40949121172372 
1074	 0.409435642325662 
1075	 0.409405552860848 
1076	 0.409352692631741 
1077	 0.409326433352732 
1078	 0.409423406288365 
1079	 0.40955855777657 
1080	 0.409584163281652 
1081	 0.409614503537733 
1082	 0.409609868387877 
1083	 0.40960079485667 
1084	 0.409687170494415 
1085	 0.409739593184745 
1086	 0.409759434835382 
1087	 0.409758647124535 
1088	 0.409751287255508 
1089	 0.409764376765289 
1090	 0.40977728131981 
1091	 0.409861294887446 
1092	 0.409937986992853 
1093	 0.409896599309652 
1094	 0.409945755353152 
1095	 0.41006946568823 
1096	 0.410197558978027 
1097	 0.410367063899125 
1098	 0.410508085063067 
1099	 0.410633417554311 
1100	 0.410738409835301 
1101	 0.41080457337871 
1102	 0.41088186934935 
1103	 0.410978368253003 
1104	 0.411063923418075 
1105	 0.411142431128143 
1106	 0.411315288925056 
1107	 0.411516384637127 
1108	 0.411675648666615 
1109	 0.411867373006805 
1110	 0.412012160533673 
1111	 0.412137109685902 
1112	 0.41227462282576 
1113	 0.4124043726969 
1114	 0.412541741151644 
1115	 0.412661998163767 
1116	 0.412851922795559 
1117	 0.41310280815578 
1118	 0.413312476844953 
1119	 0.413534001652951 
1120	 0.413741403932734 
1121	 0.413938922877632 
1122	 0.41409860541438 
1123	 0.414274121404503 
1124	 0.414526429714422 
1125	 0.414729426377796 
1126	 0.41491426780913 
1127	 0.415138089067829 
1128	 0.415285160462845 
1129	 0.415468438682375 
1130	 0.415728248523959 
1131	 0.415942180553889 
1132	 0.416171433749532 
1133	 0.416432375951449 
1134	 0.416583536713367 
1135	 0.416759503410159 
1136	 0.416956460687435 
1137	 0.417118815813906 
1138	 0.417265538698169 
1139	 0.417397981704723 
1140	 0.417523351928607 
1141	 0.417557765146274 
1142	 0.417634650669088 
1143	 0.417681506692141 
1144	 0.417742889609247 
1145	 0.417843663808475 
1146	 0.417911493090165 
1147	 0.417994789393601 
1148	 0.418045531295919 
1149	 0.418099768134168 
1150	 0.418181878984048 
1151	 0.418211101903014 
1152	 0.418228705816725 
1153	 0.418228786062637 
1154	 0.418238700316046 
1155	 0.418213777253171 
1156	 0.418212196033478 
1157	 0.418256905496003 
1158	 0.418253941217458 
1159	 0.418231105893963 
1160	 0.418203926646861 
1161	 0.418128597587744 
1162	 0.418016929079553 
1163	 0.417919762272253 
1164	 0.417854412803724 
1165	 0.417826612573863 
1166	 0.417775888771377 
1167	 0.417688011204394 
1168	 0.417607703824326 
1169	 0.417500438361428 
1170	 0.417353197310908 
1171	 0.417236087507435 
1172	 0.417114114414682 
1173	 0.416997044052611 
1174	 0.416908586420101 
1175	 0.416806621263512 
1176	 0.416683497458169 
1177	 0.416574747079592 
1178	 0.416485850155291 
1179	 0.416356704546866 
1180	 0.416238629038092 
1181	 0.416152595173174 
1182	 0.416042942039077 
1183	 0.415903594885863 
1184	 0.415765008261789 
1185	 0.415610007713987 
1186	 0.415475815547815 
1187	 0.415332065814905 
1188	 0.415231152495059 
1189	 0.415158140992296 
1190	 0.415086357143449 
1191	 0.415017963745848 
1192	 0.414989744115557 
1193	 0.414988082408915 
1194	 0.414990585755002 
1195	 0.415033749601591 
1196	 0.415071217616459 
1197	 0.415099380414547 
1198	 0.415132290885058 
1199	 0.415216758863582 
1200	 0.415322106518996 
1201	 0.415486154347166 
1202	 0.415690109996655 
1203	 0.415887161473053 
1204	 0.416090956624798 
1205	 0.416312922554797 
1206	 0.416493947270864 
1207	 0.416801193452361 
1208	 0.4171680192517 
1209	 0.417578109855308 
1210	 0.418040882645704 
1211	 0.418582902347442 
1212	 0.41918040491457 
1213	 0.419840053764292 
1214	 0.420589576422261 
1215	 0.421387194538141 
1216	 0.422241339362501 
1217	 0.423121969269298 
1218	 0.424085513839327 
1219	 0.425039432221379 
1220	 0.426000600744288 
1221	 0.427049935884475 
1222	 0.42805162905693 
1223	 0.429051579163536 
1224	 0.430054759050302 
1225	 0.431082738811994 
1226	 0.431996283064281 
1227	 0.432876667490364 
1228	 0.433738955419129 
1229	 0.434495712709204 
1230	 0.435308063384927 
1231	 0.436170053430382 
1232	 0.436971287044677 
1233	 0.437739474861593 
1234	 0.438490487834783 
1235	 0.439217389060765 
1236	 0.439927876469851 
1237	 0.440633077465271 
1238	 0.441299649477599 
1239	 0.441928030609576 
1240	 0.442535728062163 
1241	 0.443157730782186 
1242	 0.443767490523533 
1243	 0.444366802425276 
1244	 0.44498537845147 
1245	 0.445553671031409 
1246	 0.446067169579526 
1247	 0.446622102486217 
1248	 0.447189075936286 
1249	 0.447733249935552 
1250	 0.448278044729073 
1251	 0.448813063244567 
1252	 0.449317956190674 
1253	 0.449839510018683 
1254	 0.450369172281034 
1255	 0.450904761692347 
1256	 0.451468536240709 
1257	 0.451986935722856 
1258	 0.452479258487122 
1259	 0.452982279655363 
1260	 0.453444399109348 
1261	 0.453933681341738 
1262	 0.454443632320795 
1263	 0.454976364802696 
1264	 0.455494629429339 
1265	 0.456019850419006 
1266	 0.456534531672748 
1267	 0.457044041149479 
1268	 0.45755213840496 
1269	 0.45805726803108 
1270	 0.458553497424814 
1271	 0.459050195038671 
1272	 0.459536854554961 
1273	 0.460024101010248 
1274	 0.460482338815297 
1275	 0.460929067957367 
1276	 0.461350266037183 
1277	 0.461713122081221 
1278	 0.462116892898009 
1279	 0.462570760367869 
1280	 0.462947931656882 
1281	 0.463286738465004 
1282	 0.463639044372909 
1283	 0.463921460928884 
1284	 0.464234322615866 
1285	 0.464565222255759 
1286	 0.464953747376495 
1287	 0.465260330948207 
1288	 0.465535198893345 
1289	 0.465821844468583 
1290	 0.466080533918987 
1291	 0.466351374801347 
1292	 0.4666435749755 
1293	 0.466897678161135 
1294	 0.467129972231759 
1295	 0.467356195435223 
1296	 0.46756148622483 
1297	 0.467769803957081 
1298	 0.467955272952455 
1299	 0.468169365568108 
1300	 0.468393035485378 
1301	 0.468619911239909 
1302	 0.468855680459978 
1303	 0.469105163399667 
1304	 0.469375528139505 
1305	 0.469626312468088 
1306	 0.469907795290501 
1307	 0.470144042984675 
1308	 0.470314904899176 
1309	 0.470510590905141 
1310	 0.470735025143491 
1311	 0.470959868521685 
1312	 0.471187857620823 
1313	 0.471458366835603 
1314	 0.471686987866703 
1315	 0.47187882977564 
1316	 0.472097490235076 
1317	 0.472306933397449 
1318	 0.472557062819652 
1319	 0.472842376824566 
1320	 0.473098671026243 
1321	 0.4733671314312 
1322	 0.4736309663956 
1323	 0.473871592501315 
1324	 0.474123981369938 
1325	 0.474406078074588 
1326	 0.474657531238301 
1327	 0.474880464588795 
1328	 0.475117346369142 
1329	 0.47537936613576 
1330	 0.475591700409724 
1331	 0.475778963542866 
1332	 0.475962661264907 
1333	 0.476069491928727 
1334	 0.476239186020833 
1335	 0.476431601336164 
1336	 0.47667077809539 
1337	 0.476844790973034 
1338	 0.477035137510177 
1339	 0.477170870803505 
1340	 0.477248552884175 
1341	 0.477343309588981 
1342	 0.47742082514789 
1343	 0.477514638499251 
1344	 0.477624149046072 
1345	 0.477689552645148 
1346	 0.477765055201012 
1347	 0.477785036745987 
1348	 0.47773625485445 
1349	 0.477711751229506 
1350	 0.477682557324445 
1351	 0.477634082388452 
1352	 0.477590722977293 
1353	 0.477512871210242 
1354	 0.477376740311236 
1355	 0.477279203244846 
1356	 0.477209634559938 
1357	 0.477095871971668 
1358	 0.476987270791661 
1359	 0.476851721489898 
1360	 0.476677741230379 
1361	 0.476475171927916 
1362	 0.476279495207762 
1363	 0.476097157454322 
1364	 0.475869110470245 
1365	 0.475621139453822 
1366	 0.475350971617211 
1367	 0.475055356932613 
1368	 0.474739666185056 
1369	 0.474422332424726 
1370	 0.474041413810482 
1371	 0.473630427523685 
1372	 0.47317274967587 
1373	 0.472663170751343 
1374	 0.472127485225822 
1375	 0.471565129463691 
1376	 0.470946040637139 
1377	 0.470265749556618 
1378	 0.469577258865316 
1379	 0.468836547393978 
1380	 0.468096466409808 
1381	 0.467371782009524 
1382	 0.466578443738235 
1383	 0.465730711224569 
1384	 0.4648794342703 
1385	 0.464015441259641 
1386	 0.463099196740984 
1387	 0.46210677842068 
1388	 0.461186888536007 
1389	 0.460218272349312 
1390	 0.45932316594842 
1391	 0.458508001072176 
1392	 0.457709181983763 
1393	 0.457025625135919 
1394	 0.456324465776194 
1395	 0.455599502190665 
1396	 0.454940968475836 
1397	 0.454171721264578 
1398	 0.453349671451046 
1399	 0.452456130321956 
1400	 0.451553547044551 
1401	 0.450486294124182 
1402	 0.449310753957083 
1403	 0.448046327166204 
1404	 0.446654783778877 
1405	 0.445236803569523 
1406	 0.443750542707979 
1407	 0.442196254389457 
1408	 0.440512652071593 
1409	 0.438905735186527 
1410	 0.437258284784361 
1411	 0.43563645491614 
1412	 0.434027135899019 
1413	 0.432491496152454 
1414	 0.430950559432081 
1415	 0.429479795233627 
1416	 0.42811197988097 
1417	 0.426735705912977 
1418	 0.425378870197847 
1419	 0.424043699652768 
1420	 0.422698274486162 
1421	 0.421443726212778 
1422	 0.420245771890244 
1423	 0.419072860213139 
1424	 0.417977502138189 
1425	 0.416873902327071 
1426	 0.415860845937649 
1427	 0.414874896313167 
1428	 0.413945330099184 
1429	 0.413104972456661 
1430	 0.412177741295441 
1431	 0.411239684772571 
1432	 0.410278890735727 
1433	 0.409292387137717 
1434	 0.408281349589112 
1435	 0.407266829275904 
1436	 0.406183262018505 
1437	 0.405037541882547 
1438	 0.403917073343049 
1439	 0.402740605843912 
1440	 0.401625986922224 
1441	 0.400466477232099 
1442	 0.399483484507444 
1443	 0.398482230355463 
1444	 0.397766102535939 
1445	 0.397170959376961 
1446	 0.3968801068059 
1447	 0.396768811232698 
1448	 0.396993231244484 
1449	 0.397566060983878 
1450	 0.398295804313778 
1451	 0.399371434153491 
1452	 0.400488058532881 
1453	 0.401828864173667 
1454	 0.403142942721615 
1455	 0.404599374855346 
1456	 0.405986114547816 
1457	 0.407410475315883 
1458	 0.408757994077876 
1459	 0.410083397104299 
1460	 0.411334055484688 
1461	 0.412527520946453 
1462	 0.413645545500129 
1463	 0.414652268441976 
1464	 0.415666694602897 
1465	 0.41661786064 
1466	 0.417578466171198 
1467	 0.418498264561176 
1468	 0.419438274316698 
1469	 0.420362511737371 
1470	 0.421182526800395 
1471	 0.422060041045315 
1472	 0.422962950849764 
1473	 0.423780020835835 
1474	 0.424582171331886 
1475	 0.425336786171966 
1476	 0.426019914206633 
1477	 0.426706877046776 
1478	 0.427388319371589 
1479	 0.428005769680203 
1480	 0.428606581803945 
1481	 0.429107670240327 
1482	 0.429544676335258 
1483	 0.429931690856087 
1484	 0.430219322995587 
1485	 0.430516534343461 
1486	 0.430751458450344 
1487	 0.431028691735415 
1488	 0.431242289661206 
1489	 0.431600051862547 
1490	 0.432002877739757 
1491	 0.432503740230766 
1492	 0.433089610321724 
1493	 0.433778703183167 
1494	 0.434547114195278 
1495	 0.435412623155844 
1496	 0.436438279841767 
1497	 0.437446163224783 
1498	 0.438523272695293 
1499	 0.439616343948817 
1500	 0.440733474068486 
1501	 0.441874307969956 
1502	 0.443119317210271 
1503	 0.444246066729298 
1504	 0.445368527486131 
1505	 0.446406648090713 
1506	 0.447345762119657 
1507	 0.44825853163954 
1508	 0.449106914155898 
1509	 0.44994235020778 
1510	 0.450760373789841 
1511	 0.451509797371387 
1512	 0.452210751508095 
1513	 0.452885557442434 
1514	 0.453503943144843 
1515	 0.454090739129113 
1516	 0.454676333878155 
1517	 0.455192957330211 
1518	 0.45565169794077 
1519	 0.456056857439781 
1520	 0.456389075230832 
1521	 0.456690620832867 
1522	 0.456985888370431 
1523	 0.457253106368411 
1524	 0.457464123759351 
1525	 0.457649708997624 
1526	 0.457816718705133 
1527	 0.45791829990511 
1528	 0.458038949174763 
1529	 0.458180348511191 
1530	 0.458261068736711 
1531	 0.458272426605013 
1532	 0.458365911003516 
1533	 0.458457177918907 
1534	 0.458585875472947 
1535	 0.458758744454164 
1536	 0.458949155628052 
1537	 0.459131556086279 
1538	 0.459399440713482 
1539	 0.459720700016082 
1540	 0.460088184921322 
1541	 0.460492255707467 
1542	 0.460989248644061 
1543	 0.461565410959467 
1544	 0.462160806069083 
1545	 0.462834723409916 
1546	 0.463515901610121 
1547	 0.46421607509154 
1548	 0.464948288594811 
1549	 0.465737348837341 
1550	 0.46651050295592 
1551	 0.467299255913454 
1552	 0.468080894128557 
1553	 0.468877359819875 
1554	 0.46964827625991 
1555	 0.470406394951289 
1556	 0.471163672645318 
1557	 0.4719116375721 
1558	 0.4726504299777 
1559	 0.473404495604216 
1560	 0.474107663232688 
1561	 0.474767040271219 
1562	 0.475440758364222 
1563	 0.476092519836714 
1564	 0.476743551049394 
1565	 0.477400021216663 
1566	 0.478048587433023 
1567	 0.478681362087021 
1568	 0.479314690427055 
1569	 0.479958145548077 
1570	 0.480581371352988 
1571	 0.481191141604014 
1572	 0.48179071001355 
1573	 0.482365824097883 
1574	 0.482960059191209 
1575	 0.483572567319324 
1576	 0.484147812238387 
1577	 0.484718877276784 
1578	 0.485274271801668 
1579	 0.485780454592262 
1580	 0.486312488119285 
1581	 0.486854386546851 
1582	 0.487394343466585 
1583	 0.487948329290881 
1584	 0.488481239087868 
1585	 0.489010212559988 
1586	 0.489526361630742 
1587	 0.490005703546039 
1588	 0.490513692471268 
1589	 0.491035043620123 
1590	 0.491547479029057 
1591	 0.49207317453675 
1592	 0.49259050412549 
1593	 0.493093341146012 
1594	 0.493601498911681 
1595	 0.494120157138923 
1596	 0.49462107205363 
1597	 0.49510967723933 
1598	 0.495600267735717 
1599	 0.496094533452291 
1600	 0.496568111509874 
1601	 0.497019605899533 
1602	 0.497488377154276 
1603	 0.497946877582116 
1604	 0.498408763988642 
1605	 0.498888760483774 
1606	 0.499363104154575 
1607	 0.499838041138933 
1608	 0.500299841091354 
1609	 0.500757927374785 
1610	 0.501213439315721 
1611	 0.501678627776654 
1612	 0.502095637522011 
1613	 0.502481659272414 
1614	 0.502872913352091 
1615	 0.503250646701343 
1616	 0.503590533373676 
1617	 0.503929921936729 
1618	 0.504236412821279 
1619	 0.504482309527014 
1620	 0.504723492939411 
1621	 0.504941781983435 
1622	 0.505168461348664 
1623	 0.505381032998637 
1624	 0.50559311990698 
1625	 0.505826395583742 
1626	 0.506030375428185 
1627	 0.50622220419382 
1628	 0.506386604936563 
1629	 0.506514303601752 
1630	 0.506652559751099 
1631	 0.506751588256439 
1632	 0.506890267269463 
1633	 0.507075480343804 
1634	 0.507224599450302 
1635	 0.507357297302999 
1636	 0.507515947159351 
1637	 0.507672076084943 
1638	 0.507826811355998 
1639	 0.508029455219514 
1640	 0.508180301112251 
1641	 0.50830932885969 
1642	 0.508401381524899 
1643	 0.508461231086059 
1644	 0.508495741760954 
1645	 0.508500265228633 
1646	 0.508472425929822 
1647	 0.508387704048648 
1648	 0.508325560523796 
1649	 0.508262796602618 
1650	 0.508162074814383 
1651	 0.50805869799244 
1652	 0.50793365830392 
1653	 0.507800506168075 
1654	 0.507596434666439 
1655	 0.507343295725843 
1656	 0.507086634231052 
1657	 0.506814107265056 
1658	 0.506432052810189 
1659	 0.505996464480656 
1660	 0.505536628966694 
1661	 0.504996201572101 
1662	 0.504408711056689 
1663	 0.503814471206567 
1664	 0.503144426099452 
1665	 0.502405760115057 
1666	 0.501554352432937 
1667	 0.500666184655952 
1668	 0.499656506126899 
1669	 0.498508768226468 
1670	 0.497291724130266 
1671	 0.495981988979181 
1672	 0.494573564156893 
1673	 0.493072396000316 
1674	 0.491466151714435 
1675	 0.48975689065358 
1676	 0.488001952734406 
1677	 0.486178364097085 
1678	 0.484237469542261 
1679	 0.482180960991729 
1680	 0.480076348219139 
1681	 0.477882853647091 
1682	 0.475584791550498 
1683	 0.473243856011798 
1684	 0.470810378772927 
1685	 0.468260040944883 
1686	 0.465625238154924 
1687	 0.462884503018626 
1688	 0.460086257460091 
1689	 0.45716140207922 
1690	 0.454208785668183 
1691	 0.451235465385527 
1692	 0.448249156836826 
1693	 0.445240394018853 
1694	 0.442143469620268 
1695	 0.438955049380896 
1696	 0.435747432462072 
1697	 0.43247737255392 
1698	 0.429131899702992 
1699	 0.425781733356971 
1700	 0.422427812271189 
1701	 0.41895127068748 
1702	 0.415580560199347 
1703	 0.412168746544821 
1704	 0.408971150043875 
1705	 0.405809201578889 
1706	 0.402826318643384 
1707	 0.400219693350236 
1708	 0.39771206463344 
1709	 0.395347778517105 
1710	 0.393211487815869 
1711	 0.391112222404337 
1712	 0.389192416139278 
1713	 0.387354733604562 
1714	 0.385542310764815 
1715	 0.383906186673639 
1716	 0.382238444084872 
1717	 0.380627925548981 
1718	 0.379129206930665 
1719	 0.37761528235674 
1720	 0.376224633860586 
1721	 0.374934413340361 
1722	 0.373739295371699 
1723	 0.372754424415463 
1724	 0.371879608134629 
1725	 0.371165828257963 
1726	 0.37073289194093 
1727	 0.370488602385917 
1728	 0.370427407441912 
1729	 0.370686773157613 
1730	 0.371242255820267 
1731	 0.371979823994071 
1732	 0.373034447272071 
1733	 0.374226649093528 
1734	 0.375460295230146 
1735	 0.37683925140468 
1736	 0.378200023814731 
1737	 0.379486059020273 
1738	 0.380722572731964 
1739	 0.381639734785799 
1740	 0.382337111524922 
1741	 0.382874244720484 
1742	 0.383186404694793 
1743	 0.383316417152069 
1744	 0.383208687674483 
1745	 0.383078995480048 
1746	 0.382704347107395 
1747	 0.382409193764632 
1748	 0.382088146317224 
1749	 0.381819100253381 
1750	 0.381496158401584 
1751	 0.381352520075016 
1752	 0.381298445852966 
1753	 0.381348372898046 
1754	 0.38148312881965 
1755	 0.381806307985339 
1756	 0.382257834201564 
1757	 0.382882912673739 
1758	 0.38364638243227 
1759	 0.384545746651664 
1760	 0.38566295828794 
1761	 0.386940394528612 
1762	 0.388309967220988 
1763	 0.389876264376151 
1764	 0.391504225737064 
1765	 0.393290638063828 
1766	 0.395327931410281 
1767	 0.397319945648165 
1768	 0.399425935048916 
1769	 0.401607518755026 
1770	 0.403624755357572 
1771	 0.405720985291885 
1772	 0.407716729573478 
1773	 0.409525689348516 
1774	 0.411383931924795 
1775	 0.413055884597872 
1776	 0.414649129400704 
1777	 0.416259301180824 
1778	 0.417643786438436 
1779	 0.418954202009545 
1780	 0.42017296626119 
1781	 0.421273503318627 
1782	 0.422403299516302 
1783	 0.423452298419159 
1784	 0.424513285748814 
1785	 0.425404011055587 
1786	 0.426227390167482 
1787	 0.427005249933682 
1788	 0.427760570548159 
1789	 0.428436182697921 
1790	 0.429160040439349 
1791	 0.429908103944163 
1792	 0.430595559949761 
1793	 0.431247877282053 
1794	 0.431842013138355 
1795	 0.432414614038224 
1796	 0.43295771269379 
1797	 0.433544511054476 
1798	 0.434159028951401 
1799	 0.434760272883707 
1800	 0.435300803970151 
1801	 0.430211369913759 
1802	 0.430734629710409 
1803	 0.431226079833488 
1804	 0.43166691152403 
1805	 0.432134856962429 
1806	 0.432622947131215 
1807	 0.433121583088726 
1808	 0.43360928732326 
1809	 0.434148341640904 
1810	 0.434621021307742 
1811	 0.435051606848952 
1812	 0.435483775233641 
1813	 0.435874943909166 
1814	 0.436284195191053 
1815	 0.436717121682948 
1816	 0.437204907596487 
1817	 0.437670494802459 
1818	 0.438129053190627 
1819	 0.438642776313831 
1820	 0.439156235446887 
1821	 0.439700440030082 
1822	 0.440283296722514 
1823	 0.44095962294114 
1824	 0.441557778434074 
1825	 0.442111893366257 
1826	 0.442626375181081 
1827	 0.443101343231451 
1828	 0.443553101962259 
1829	 0.44391618103985 
1830	 0.44436203057418 
1831	 0.444833292206357 
1832	 0.445303978740777 
1833	 0.445750317512925 
1834	 0.446194891854162 
1835	 0.446611380768577 
1836	 0.447023323167609 
1837	 0.44744652383476 
1838	 0.447894034097492 
1839	 0.448313532183317 
1840	 0.448740896060416 
1841	 0.449114272823319 
1842	 0.449424012492855 
1843	 0.449814640445002 
1844	 0.450165563984363 
1845	 0.450449471014494 
1846	 0.450787343343687 
1847	 0.451094827302867 
1848	 0.451317882136974 
1849	 0.451486788490715 
1850	 0.451636126383177 
1851	 0.451760250418073 
1852	 0.451792017967558 
1853	 0.451721685956866 
1854	 0.451595195410809 
1855	 0.451373273008297 
1856	 0.451063199248173 
1857	 0.450770963037335 
1858	 0.450444958451801 
1859	 0.450044296427475 
1860	 0.449606422779383 
1861	 0.449053385176505 
1862	 0.448418531391465 
1863	 0.447738189962079 
1864	 0.446915254939665 
1865	 0.446037068904911 
1866	 0.445110029056296 
1867	 0.444021159929418 
1868	 0.442921120156717 
1869	 0.441644440661855 
1870	 0.440247991960865 
1871	 0.438735510803124 
1872	 0.437170255864174 
1873	 0.43547998489858 
1874	 0.433748926096347 
1875	 0.431970488000727 
1876	 0.429974144940951 
1877	 0.427948228248464 
1878	 0.425745610042732 
1879	 0.423344176713479 
1880	 0.420985207581728 
1881	 0.418465539446631 
1882	 0.415779581864443 
1883	 0.413025592150313 
1884	 0.410149178987654 
1885	 0.40694716070036 
1886	 0.403677405147394 
1887	 0.400201409134441 
1888	 0.396556817242204 
1889	 0.393011519826402 
1890	 0.389231725304757 
1891	 0.385432721751209 
1892	 0.381628797179218 
1893	 0.377658493023062 
1894	 0.373486662417073 
1895	 0.369470639054699 
1896	 0.365322578845661 
1897	 0.361067813938036 
1898	 0.357179055762171 
1899	 0.353171260383197 
1900	 0.349224514279928 
1901	 0.345484736400095 
1902	 0.341542247774212 
1903	 0.337784627467106 
1904	 0.334083983013137 
1905	 0.330407517395002 
1906	 0.326783171988918 
1907	 0.323549154618874 
1908	 0.320344154950808 
1909	 0.317308911551498 
1910	 0.314477579722591 
1911	 0.311531004815529 
1912	 0.308768611102011 
1913	 0.306073029959903 
1914	 0.303404117394467 
1915	 0.300942223045821 
1916	 0.298706198414033 
1917	 0.296418226389336 
1918	 0.294224032779474 
1919	 0.292155758525343 
1920	 0.28995657218226 
1921	 0.287851447618608 
1922	 0.285783013740887 
1923	 0.283734725559732 
1924	 0.281913441844676 
1925	 0.280099800834497 
1926	 0.278335504059543 
1927	 0.276688590079862 
1928	 0.275030409458259 
1929	 0.273339294845642 
1930	 0.27177373539056 
1931	 0.270291697924836 
1932	 0.268887155129113 
1933	 0.267715637077974 
1934	 0.266632060054846 
1935	 0.265690470941104 
1936	 0.264941179743311 
1937	 0.264278975203417 
1938	 0.263716825085744 
1939	 0.263326295573653 
1940	 0.263077134417091 
1941	 0.262944467805747 
1942	 0.262966924069363 
1943	 0.263122277134603 
1944	 0.263346701601992 
1945	 0.263689215107795 
1946	 0.264178328663775 
1947	 0.264654266767541 
1948	 0.265292731642011 
1949	 0.266098504184524 
1950	 0.26697723897948 
1951	 0.267961920648373 
1952	 0.269095984712331 
1953	 0.270355712606217 
1954	 0.271686289596181 
1955	 0.273213360560985 
1956	 0.274755029056696 
1957	 0.276379794165257 
1958	 0.278071349064681 
1959	 0.279607519525539 
1960	 0.281126062763487 
1961	 0.282539632249851 
1962	 0.283840415266511 
1963	 0.285076012757924 
1964	 0.286276242900997 
1965	 0.287328093853774 
1966	 0.288269594077048 
1967	 0.289124819785904 
1968	 0.289878209650588 
1969	 0.290644405848776 
1970	 0.291385862171772 
1971	 0.292111618817201 
1972	 0.292862704800272 
1973	 0.2936067150615 
1974	 0.294392822467118 
1975	 0.29520726623058 
1976	 0.296065033738885 
1977	 0.296956381120444 
1978	 0.297874904474963 
1979	 0.298823071502242 
1980	 0.299810355058053 
1981	 0.30085439070998 
1982	 0.301882121063136 
1983	 0.302991488789685 
1984	 0.304129951046586 
1985	 0.305232908243868 
1986	 0.306389774953431 
1987	 0.307621514509819 
1988	 0.308805428058107 
1989	 0.310240211216372 
1990	 0.311810621618422 
1991	 0.313496914156279 
1992	 0.315358533726744 
1993	 0.317360451322609 
1994	 0.319292946152527 
1995	 0.321414115018995 
1996	 0.323554875501912 
1997	 0.325691123418899 
1998	 0.327906083407372 
1999	 0.330244049372934 
2000	 0.332443230663957 
2001	 0.334733188623507 
2002	 0.33681905741905 
2003	 0.338822701894257 
2004	 0.340709086361959 
2005	 0.342403588745064 
2006	 0.344080586499178 
2007	 0.345730192466712 
2008	 0.347199527585242 
2009	 0.348607538709274 
2010	 0.349995263037116 
2011	 0.351155629754897 
2012	 0.352241986033338 
2013	 0.35325218535591 
2014	 0.35415288249997 
2015	 0.355003552194092 
2016	 0.355778167439822 
2017	 0.356483027262838 
2018	 0.357151812794877 
2019	 0.357689872455918 
2020	 0.358100830644683 
2021	 0.358485329271295 
2022	 0.358784409477526 
2023	 0.35899048934261 
2024	 0.359135000138049 
2025	 0.359197958577096 
2026	 0.359237477479572 
2027	 0.359192273397887 
2028	 0.359127983292154 
2029	 0.35904730717429 
2030	 0.358915367453174 
2031	 0.358696765978318 
2032	 0.35848258993901 
2033	 0.358234148353043 
2034	 0.357990854419326 
2035	 0.357706275426653 
2036	 0.357470865599438 
2037	 0.357240057162865 
2038	 0.356984962021795 
2039	 0.356731773449937 
2040	 0.356478678916797 
2041	 0.356217505380057 
2042	 0.355933220001045 
2043	 0.355688495979689 
2044	 0.355446980981955 
2045	 0.35522624613859 
2046	 0.355032137939728 
2047	 0.354847320438019 
2048	 0.354711163289969 
2049	 0.354532505994374 
2050	 0.354338618505571 
2051	 0.354145263020455 
2052	 0.353952235877801 
2053	 0.353716972922592 
2054	 0.353538977247844 
2055	 0.353417565254233 
2056	 0.353240962709583 
2057	 0.353065171100203 
2058	 0.352871659851084 
2059	 0.352646768703024 
2060	 0.35243008244438 
2061	 0.352194615732073 
2062	 0.351987403975769 
2063	 0.3517827667625 
2064	 0.351589984887775 
2065	 0.351424423769025 
2066	 0.351253459698752 
2067	 0.351091861156577 
2068	 0.350920834349409 
2069	 0.350745751193844 
2070	 0.350564098264204 
2071	 0.350403751197003 
2072	 0.350254680618324 
2073	 0.350082133221513 
2074	 0.349900603597875 
2075	 0.349733397918881 
2076	 0.349588909758046 
2077	 0.349392796511059 
2078	 0.349196324617186 
2079	 0.348977619035807 
2080	 0.34867770812696 
2081	 0.348412318658965 
2082	 0.348176271970783 
2083	 0.347926791564943 
2084	 0.347651524441009 
2085	 0.347355056326806 
2086	 0.347046362891388 
2087	 0.346696207202864 
2088	 0.346372164361614 
2089	 0.34604477061557 
2090	 0.345725383485088 
2091	 0.3454501819754 
2092	 0.345102875418496 
2093	 0.344699876515436 
2094	 0.344338832141139 
2095	 0.343954727362602 
2096	 0.343570503447006 
2097	 0.343219640104638 
2098	 0.34286378705959 
2099	 0.342466209908754 
2100	 0.342056119148755 
2101	 0.34161439742448 
2102	 0.341174684073662 
2103	 0.340664058722152 
2104	 0.340073822357135 
2105	 0.339526022270466 
2106	 0.338949131624278 
2107	 0.338379988457033 
2108	 0.337859972836596 
2109	 0.33726553680267 
2110	 0.336623912542067 
2111	 0.335984146267672 
2112	 0.335317108114939 
2113	 0.334621916828252 
2114	 0.333901376401195 
2115	 0.333175164687315 
2116	 0.332415035310246 
2117	 0.331672353401901 
2118	 0.330887727163733 
2119	 0.33009109791075 
2120	 0.329290504221995 
2121	 0.328420490492218 
2122	 0.327647239610222 
2123	 0.326907754403119 
2124	 0.326191339418391 
2125	 0.325540930468207 
2126	 0.324865130164943 
2127	 0.324203775676293 
2128	 0.323536401023306 
2129	 0.322848526227062 
2130	 0.322190411989423 
2131	 0.321520412755358 
2132	 0.320902766232191 
2133	 0.320321014108538 
2134	 0.319797654323873 
2135	 0.319170694345568 
2136	 0.318595602837783 
2137	 0.318066688131773 
2138	 0.317524688849023 
2139	 0.316998873177215 
2140	 0.316571484798348 
2141	 0.316077973354943 
2142	 0.315497769171696 
2143	 0.315030683813314 
2144	 0.314602821610541 
2145	 0.314211231689707 
2146	 0.313897814539975 
2147	 0.313552904583485 
2148	 0.313204265682844 
2149	 0.312904636566176 
2150	 0.312646368267022 
2151	 0.312360899577091 
2152	 0.312102345783 
2153	 0.311836800826858 
2154	 0.311532044555996 
2155	 0.311292585922103 
2156	 0.311074130584754 
2157	 0.31090854932767 
2158	 0.31071716681629 
2159	 0.310556895100061 
2160	 0.310343795930404 
2161	 0.31012255292663 
2162	 0.309884205419612 
2163	 0.309592046065215 
2164	 0.309331215247214 
2165	 0.309066455232864 
2166	 0.308819036102493 
2167	 0.308599489640681 
2168	 0.308362365697764 
2169	 0.308132112494167 
2170	 0.307886074486822 
2171	 0.307602273511358 
2172	 0.307351014251515 
2173	 0.307087161345241 
2174	 0.306870408983964 
2175	 0.30668223351922 
2176	 0.306514102884516 
2177	 0.306361314107667 
2178	 0.306240341072493 
2179	 0.306116187929935 
2180	 0.305999548650928 
2181	 0.305892660231672 
2182	 0.30578792117246 
2183	 0.305711591353931 
2184	 0.305694974074462 
2185	 0.305597193057067 
2186	 0.305464307459985 
2187	 0.3053657429263 
2188	 0.305251026629888 
2189	 0.305108840435756 
2190	 0.305031732999301 
2191	 0.304855554532079 
2192	 0.304557140226604 
2193	 0.304302278879095 
2194	 0.304017381421245 
2195	 0.303747263518058 
2196	 0.303485391769734 
2197	 0.303236465752716 
2198	 0.302971851922508 
2199	 0.302702652719994 
2200	 0.302395116376333 
2201	 0.302051892728064 
2202	 0.301727548994704 
2203	 0.301389375777851 
2204	 0.301044621654481 
2205	 0.300727439987477 
2206	 0.300337622804452 
2207	 0.299912458020199 
2208	 0.29945885023026 
2209	 0.298898278597396 
2210	 0.298467514973113 
2211	 0.298108709574 
2212	 0.297678651566635 
2213	 0.297283954855438 
2214	 0.296864391449954 
2215	 0.296300995048968 
2216	 0.295894701520994 
2217	 0.295613749654479 
2218	 0.295299179184902 
2219	 0.295022866782792 
2220	 0.294776875063528 
2221	 0.29450544449311 
2222	 0.294299603112685 
2223	 0.294250334379978 
2224	 0.294083768879075 
2225	 0.293862893988634 
2226	 0.29366009297517 
2227	 0.293346848711269 
2228	 0.292931521233332 
2229	 0.292506644938631 
2230	 0.292052350028021 
2231	 0.291496861585599 
2232	 0.290925865060711 
2233	 0.290149373207909 
2234	 0.289286727196154 
2235	 0.28821875115404 
2236	 0.286940564468938 
2237	 0.285587058515492 
2238	 0.284055539473911 
2239	 0.282455126333879 
2240	 0.280743454064686 
2241	 0.278930744445713 
2242	 0.277053796461028 
2243	 0.275012950815161 
2244	 0.272858209084744 
2245	 0.270561505500447 
2246	 0.267985154052851 
2247	 0.265451269048931 
2248	 0.26286116575284 
2249	 0.260184615459884 
2250	 0.25743073502579 
2251	 0.254737625292839 
2252	 0.25176525780579 
2253	 0.248782346724003 
2254	 0.245808727694356 
2255	 0.242808553156283 
2256	 0.240080907384527 
2257	 0.237356999287349 
2258	 0.234661497630229 
2259	 0.232095294481505 
2260	 0.229413168037001 
2261	 0.226650588642289 
2262	 0.224045846005796 
2263	 0.221382080465924 
2264	 0.218991105290838 
2265	 0.216807419381291 
2266	 0.214607262940307 
2267	 0.212600856249024 
2268	 0.210521108344817 
2269	 0.208455644046279 
2270	 0.206413163078884 
2271	 0.204310211315121 
2272	 0.202378727691848 
2273	 0.200581322366795 
2274	 0.198711043356107 
2275	 0.196996692865311 
2276	 0.19514425816527 
2277	 0.193131549214445 
2278	 0.191217273494486 
2279	 0.189284504805615 
2280	 0.187376664848283 
2281	 0.185578678581297 
2282	 0.183653177193786 
2283	 0.181696117497147 
2284	 0.179731314313316 
2285	 0.177435502927749 
2286	 0.175128101322731 
2287	 0.172774925055398 
2288	 0.170355793125354 
2289	 0.168220452049115 
2290	 0.165990857181651 
2291	 0.16370671219843 
2292	 0.161430426705271 
2293	 0.158927653277472 
2294	 0.156611726280344 
2295	 0.154416743471191 
2296	 0.152159990863141 
2297	 0.150275563168999 
2298	 0.148603449043518 
2299	 0.147180656070674 
2300	 0.14604934857335 
2301	 0.145155160823742 
2302	 0.144462187639393 
2303	 0.144098213204407 
2304	 0.144096824050079 
2305	 0.144152320767043 
2306	 0.144472739879433 
2307	 0.144980375223093 
2308	 0.145530809179774 
2309	 0.146534584014632 
2310	 0.147952719508623 
2311	 0.149472366550801 
2312	 0.15145998334179 
2313	 0.153262015655358 
2314	 0.155153063352069 
2315	 0.157029928473382 
2316	 0.158849535543319 
2317	 0.160721105281572 
2318	 0.162808377500502 
2319	 0.164543341848327 
2320	 0.166299116026744 
2321	 0.167651564047566 
2322	 0.168616971280606 
2323	 0.16946852350972 
2324	 0.170032103470488 
2325	 0.170482239836681 
2326	 0.170790992066328 
2327	 0.170897588417424 
2328	 0.17081798100779 
2329	 0.170556247850213 
2330	 0.170059827058847 
2331	 0.169430075348998 
2332	 0.168705741694566 
2333	 0.167803747566085 
2334	 0.166754212326543 
2335	 0.165633338866861 
2336	 0.164282370216239 
2337	 0.162845261781059 
2338	 0.161427043646839 
2339	 0.15984866232434 
2340	 0.158363723855951 
2341	 0.156917999049278 
2342	 0.155448769505361 
2343	 0.154181202317605 
2344	 0.153062000645718 
2345	 0.152206413969923 
2346	 0.151737509695404 
2347	 0.151696753068375 
2348	 0.151839271490805 
2349	 0.152109062037916 
2350	 0.152759872081757 
2351	 0.153650979625549 
2352	 0.154728552822602 
2353	 0.156167727964742 
2354	 0.157454106423092 
2355	 0.158555081137388 
2356	 0.159810965765573 
2357	 0.160921372669259 
2358	 0.16192476440183 
2359	 0.162797629750441 
2360	 0.163348841796293 
2361	 0.163731352443669 
2362	 0.163973998189265 
2363	 0.164066592225554 
2364	 0.164119779816625 
2365	 0.16398190859163 
2366	 0.163737148882774 
2367	 0.163505406120149 
2368	 0.163259484606725 
2369	 0.163083278973863 
2370	 0.16294755707435 
2371	 0.162798500673608 
2372	 0.162515855641959 
2373	 0.162293815287305 
2374	 0.162159742886165 
2375	 0.162012360921431 
2376	 0.162111690221657 
2377	 0.162217932451499 
2378	 0.162125361544967 
2379	 0.162026759824045 
2380	 0.161938812873577 
2381	 0.161795708294645 
2382	 0.161695066238211 
2383	 0.161712354175201 
2384	 0.161663724594104 
2385	 0.161528170823754 
2386	 0.161436068529739 
2387	 0.16141016861101 
2388	 0.161377838956386 
2389	 0.161327256325019 
2390	 0.161349016794422 
2391	 0.161473883004916 
2392	 0.161332181988731 
2393	 0.1610829251702 
2394	 0.160818224489568 
2395	 0.160346658902254 
2396	 0.160168366874599 
2397	 0.160086843361972 
2398	 0.160065248357307 
2399	 0.160209588682762 
2400	 0.16015321214559 
2401	 0.160164662113997 
2402	 0.160021518942237 
2403	 0.159866019190936 
2404	 0.159934328004251 
2405	 0.159608703058828 
2406	 0.159221239519094 
2407	 0.159085740285932 
2408	 0.159055688819557 
2409	 0.158874006534235 
2410	 0.158871579082455 
2411	 0.159134051712559 
2412	 0.158981604494179 
2413	 0.158821978243847 
2414	 0.158702090538349 
2415	 0.158428329028397 
2416	 0.158174311535945 
2417	 0.158033142347312 
2418	 0.157996047749724 
2419	 0.157754305431727 
2420	 0.15774804027473 
2421	 0.157817776906734 
2422	 0.157680266595383 
2423	 0.157537816125285 
2424	 0.157162724700971 
2425	 0.156771876094359 
2426	 0.156615059390586 
2427	 0.15670926202386 
2428	 0.156865059658474 
2429	 0.15688150701739 
2430	 0.156851604581525 
2431	 0.156601539866123 
2432	 0.156211416964592 
2433	 0.155970127834939 
2434	 0.155688274981755 
2435	 0.155588425515247 
2436	 0.155527847630245 
2437	 0.155151849596956 
2438	 0.154699115290185 
2439	 0.154217720541939 
2440	 0.153814860827775 
2441	 0.15337638844506 
2442	 0.153203213838364 
2443	 0.153343466658606 
2444	 0.153368527953141 
2445	 0.153480069148143 
2446	 0.153520978195933 
2447	 0.15313368673643 
2448	 0.152518212496526 
2449	 0.152231441831708 
2450	 0.152097412951263 
2451	 0.15176227867805 
2452	 0.151393295316679 
2453	 0.150908777948041 
2454	 0.150282287836633 
2455	 0.149803063489409 
2456	 0.14956387287207 
2457	 0.14921011191865 
2458	 0.149022488100429 
2459	 0.148804495299451 
2460	 0.147936684155208 
2461	 0.147264876043592 
2462	 0.147013161880519 
2463	 0.146585311249911 
2464	 0.146524501024488 
2465	 0.146760091626195 
2466	 0.146451286388579 
2467	 0.146180522203533 
2468	 0.145770448602525 
2469	 0.145028302807743 
2470	 0.144576873865452 
2471	 0.143886932160169 
2472	 0.14369716102921 
2473	 0.143917375604431 
2474	 0.143592764736395 
2475	 0.143556021118838 
2476	 0.143457705199172 
2477	 0.143303621933212 
2478	 0.143591104646853 
2479	 0.143681385185137 
2480	 0.143505794331966 
2481	 0.143394304878201 
2482	 0.142837119827548 
2483	 0.142915590214662 
2484	 0.143539133952745 
2485	 0.143178714186299 
2486	 0.142794659427038 
2487	 0.142750338692988 
2488	 0.142256797738132 
2489	 0.142420819150736 
2490	 0.142863316666193 
2491	 0.142610774622693 
2492	 0.142720152399268 
2493	 0.143008179376552 
2494	 0.143060346339946 
2495	 0.14367746464132 
2496	 0.144129131127201 
2497	 0.144495457600107 
2498	 0.145442169460693 
2499	 0.1459451439237 
2500	 0.146276983293871 
