Wavelength	Tablay400067.asd
350	 0.186748530558509 
351	 0.226215515156257 
352	 0.241065328373256 
353	 0.219678367610379 
354	 0.264120898323374 
355	 0.278525576402187 
356	 0.210484571554458 
357	 0.100944967613192 
358	 0.177917920548509 
359	 0.219806763091031 
360	 0.209959433202477 
361	 0.233686190239282 
362	 0.152659823185349 
363	 0.133430577274741 
364	 0.215683495409577 
365	 0.198869579446014 
366	 0.176713576230819 
367	 0.168858015019245 
368	 0.171975244850217 
369	 0.165122066082533 
370	 0.133909356693355 
371	 0.127203449286619 
372	 0.205617474379907 
373	 0.197808889200947 
374	 0.150443200896918 
375	 0.11049485316669 
376	 0.101190360141432 
377	 0.112755264630821 
378	 0.132282999438786 
379	 0.140752766225041 
380	 8.54798201982313E-02 
381	 0.1058411786403 
382	 0.160327705020242 
383	 0.119441781320699 
384	 9.16118347810585E-02 
385	 9.67740333782479E-02 
386	 0.12102683279822 
387	 0.115646277601474 
388	 0.116516444077455 
389	 0.109246548555099 
390	 0.087480036371197 
391	 0.115915610870227 
392	 0.133731238693579 
393	 0.115160337133358 
394	 6.90289181765542E-02 
395	 8.47913526456446E-02 
396	 9.78826739339973E-02 
397	 7.58192242964154E-02 
398	 6.84875200103383E-02 
399	 8.41510152425067E-02 
400	 9.99868304746682E-02 
401	 9.46487241838199E-02 
402	 0.092076047494029 
403	 8.70985659388076E-02 
404	 8.35373648063835E-02 
405	 9.06069170130393E-02 
406	 9.56054178255806E-02 
407	 9.13424470779317E-02 
408	 7.89411812080645E-02 
409	 0.071506589581323 
410	 7.33041206377286E-02 
411	 8.07911566974717E-02 
412	 8.67206614189011E-02 
413	 8.15553129262016E-02 
414	 7.39989931956669E-02 
415	 7.17595766153473E-02 
416	 8.04521334310792E-02 
417	 8.52149040850074E-02 
418	 7.97689594579494E-02 
419	 6.78265779890922E-02 
420	 0.072355100033212 
421	 6.91615710800648E-02 
422	 6.39736072363009E-02 
423	 6.98068825907233E-02 
424	 6.41603952556479E-02 
425	 5.97402291980464E-02 
426	 6.14008656257042E-02 
427	 6.27907419234125E-02 
428	 6.81476756935779E-02 
429	 0.067868700881231 
430	 5.84516255935352E-02 
431	 6.21787713387792E-02 
432	 6.29465583470472E-02 
433	 6.06043745378133E-02 
434	 6.23871190156644E-02 
435	 0.058186107059785 
436	 5.92511453842299E-02 
437	 6.59891194607511E-02 
438	 5.95246121972736E-02 
439	 5.77018692148961E-02 
440	 5.89847638226093E-02 
441	 5.80063100143637E-02 
442	 5.69795147846411E-02 
443	 5.71440437135864E-02 
444	 5.81036619379269E-02 
445	 5.83428312636096E-02 
446	 5.95224932980601E-02 
447	 5.85108941405871E-02 
448	 5.55991232553631E-02 
449	 6.06532880614406E-02 
450	 5.86729302041475E-02 
451	 5.46189896157687E-02 
452	 5.80332106224359E-02 
453	 0.058278777839107 
454	 5.51918215044334E-02 
455	 5.27311883616214E-02 
456	 5.80528153211758E-02 
457	 5.62886109956627E-02 
458	 5.32189649338925E-02 
459	 5.47988735786223E-02 
460	 5.40684003900161E-02 
461	 5.31296826877788E-02 
462	 5.27795314482073E-02 
463	 5.30312010765644E-02 
464	 5.31063051435727E-02 
465	 5.34930539272972E-02 
466	 5.37990982418898E-02 
467	 5.20162729358103E-02 
468	 5.21475820324388E-02 
469	 5.32897551629212E-02 
470	 5.34989436510132E-02 
471	 5.26807348290189E-02 
472	 5.27499259845027E-02 
473	 5.33558575199811E-02 
474	 5.25627768699083E-02 
475	 5.26843551399625E-02 
476	 5.17354674626799E-02 
477	 4.94539251213832E-02 
478	 5.07829924324985E-02 
479	 5.16869380552577E-02 
480	 5.12979853628984E-02 
481	 0.050310324267113 
482	 5.11837473562308E-02 
483	 5.16220463312622E-02 
484	 5.09766530271291E-02 
485	 5.07525125679367E-02 
486	 5.00625800293434E-02 
487	 5.02855142866177E-02 
488	 5.15899930160744E-02 
489	 4.88766860039867E-02 
490	 4.80532475574916E-02 
491	 0.049229761682238 
492	 4.93340705961104E-02 
493	 0.049502476453834 
494	 4.98310269053674E-02 
495	 5.01442438382868E-02 
496	 4.99770995769587E-02 
497	 4.99831440766951E-02 
498	 4.94786052507368E-02 
499	 4.80437362425017E-02 
500	 4.81646098422556E-02 
501	 4.83049527384232E-02 
502	 0.048126843734235 
503	 4.83943218595557E-02 
504	 4.81032838704859E-02 
505	 0.047971841272546 
506	 4.83367887847108E-02 
507	 4.78293611971705E-02 
508	 4.83289081635146E-02 
509	 4.87424458416506E-02 
510	 4.73389944883362E-02 
511	 4.73865915771174E-02 
512	 0.04796872238201 
513	 4.81112747662306E-02 
514	 0.04722709694455 
515	 4.72237135432849E-02 
516	 4.73662134917097E-02 
517	 4.68120108579568E-02 
518	 4.68039992489369E-02 
519	 0.04667377987579 
520	 4.64811887146308E-02 
521	 4.67380810071554E-02 
522	 4.70229151975192E-02 
523	 4.70073534391479E-02 
524	 4.66496879356282E-02 
525	 4.63819798669047E-02 
526	 4.62373033812284E-02 
527	 0.046076636365009 
528	 4.58310768131336E-02 
529	 4.63009746135656E-02 
530	 4.64156186993495E-02 
531	 4.61690337024206E-02 
532	 4.67248058770087E-02 
533	 4.69410122574031E-02 
534	 4.67114185856718E-02 
535	 4.62990893468292E-02 
536	 4.63338543239357E-02 
537	 4.63620234199132E-02 
538	 4.63248620759315E-02 
539	 4.63703348863242E-02 
540	 4.64565547981161E-02 
541	 4.63148316102111E-02 
542	 4.59489107907389E-02 
543	 4.57976185361821E-02 
544	 4.60556257143396E-02 
545	 4.61844002783039E-02 
546	 4.57445904236766E-02 
547	 4.58018861420008E-02 
548	 4.58795333565395E-02 
549	 4.57848128705483E-02 
550	 4.56307088752212E-02 
551	 0.045446780380858 
552	 4.54241506773164E-02 
553	 4.56139728372745E-02 
554	 4.56892225398099E-02 
555	 4.56364894491358E-02 
556	 4.55481715351431E-02 
557	 4.55225506340516E-02 
558	 4.51839474298416E-02 
559	 4.49566143816603E-02 
560	 4.50737051408269E-02 
561	 4.54168213096168E-02 
562	 4.53384241704829E-02 
563	 4.53156942945039E-02 
564	 4.57421124907332E-02 
565	 4.54316386554673E-02 
566	 0.045214847543555 
567	 4.53047882178869E-02 
568	 4.54147965924138E-02 
569	 4.54302157323647E-02 
570	 4.53547514872577E-02 
571	 4.52499637592625E-02 
572	 4.52176316116737E-02 
573	 4.54677255011298E-02 
574	 4.57193635895635E-02 
575	 4.56118187392719E-02 
576	 4.55485331352024E-02 
577	 4.54522327720597E-02 
578	 4.54549861746367E-02 
579	 4.59347407010033E-02 
580	 4.61876079834535E-02 
581	 4.61344010790989E-02 
582	 4.59538575437919E-02 
583	 4.60852448251076E-02 
584	 4.63861820836836E-02 
585	 4.67021908462705E-02 
586	 4.68760204828213E-02 
587	 4.68481456589453E-02 
588	 4.68024119915124E-02 
589	 4.68745377717591E-02 
590	 4.70727413454581E-02 
591	 4.73715896796095E-02 
592	 4.77696679092248E-02 
593	 4.81974922270697E-02 
594	 4.82430391549851E-02 
595	 4.84592905556278E-02 
596	 4.89225916425009E-02 
597	 4.92878927782488E-02 
598	 0.049837719792831 
599	 5.03250098171395E-02 
600	 5.06398341653162E-02 
601	 5.11975796780811E-02 
602	 5.18618878004953E-02 
603	 5.25733931120954E-02 
604	 5.33110439868838E-02 
605	 5.41751112800685E-02 
606	 5.50069133051303E-02 
607	 0.055873132451006 
608	 5.71335226083637E-02 
609	 5.82625929539541E-02 
610	 5.93307253530457E-02 
611	 0.060528447283537 
612	 6.18946008268638E-02 
613	 0.063366990117919 
614	 6.48696402974077E-02 
615	 6.63532082940758E-02 
616	 0.068064759218604 
617	 6.99102383405096E-02 
618	 7.17561256715474E-02 
619	 7.34714457660207E-02 
620	 7.54283695796665E-02 
621	 7.75231917980772E-02 
622	 7.95420897602342E-02 
623	 8.15445001535182E-02 
624	 8.38267718274594E-02 
625	 8.63077184692362E-02 
626	 8.85725508979111E-02 
627	 9.08960715724013E-02 
628	 9.32107936791969E-02 
629	 0.095536689157927 
630	 9.83050346877772E-02 
631	 0.100839357104554 
632	 0.103159233633567 
633	 0.105579624512656 
634	 0.108100115849823 
635	 0.110772630041318 
636	 0.113479501336804 
637	 0.115894334122368 
638	 0.118374586369515 
639	 0.120963307714322 
640	 0.123603643509492 
641	 0.126211577946009 
642	 0.12874236476806 
643	 0.131235567750633 
644	 0.133768220015598 
645	 0.136139485281699 
646	 0.138613355183177 
647	 0.141225997895471 
648	 0.143559847190235 
649	 0.145941439923824 
650	 0.148297634832655 
651	 0.150516384948511 
652	 0.152832173162584 
653	 0.155106277450417 
654	 0.157350741349985 
655	 0.159686609309517 
656	 0.16194933977837 
657	 0.164140234921966 
658	 0.166265607122198 
659	 0.16826806252519 
660	 0.170289344684231 
661	 0.172436685200389 
662	 0.174705269984321 
663	 0.176610961982404 
664	 0.178489937306533 
665	 0.180495332678464 
666	 0.182532589995178 
667	 0.184308931647114 
668	 0.186025103430366 
669	 0.187880558860427 
670	 0.189824488829068 
671	 0.191634932708998 
672	 0.193302375189951 
673	 0.194930329049268 
674	 0.196562596815947 
675	 0.198273185720641 
676	 0.200023464811542 
677	 0.201652264267131 
678	 0.20320727038479 
679	 0.204732017516794 
680	 0.206262455358522 
681	 0.207805134444998 
682	 0.209370330716013 
683	 0.210924131992636 
684	 0.212417330355827 
685	 0.213867004309291 
686	 0.215329437495181 
687	 0.216788263484047 
688	 0.218131845019044 
689	 0.219465781630895 
690	 0.220835877435249 
691	 0.222249911916369 
692	 0.223659387312311 
693	 0.224863183047527 
694	 0.226047558589611 
695	 0.227557545324705 
696	 0.228768744441021 
697	 0.229941624328626 
698	 0.231207960585423 
699	 0.232325316753074 
700	 0.233566462454541 
701	 0.234834080748692 
702	 0.235978230091878 
703	 0.237064525782783 
704	 0.238159418191937 
705	 0.239288176925668 
706	 0.240438107955455 
707	 0.241530797263611 
708	 0.242558670832044 
709	 0.243527969347668 
710	 0.244434280917284 
711	 0.245487154554696 
712	 0.246557717894466 
713	 0.247499967796134 
714	 0.248547514395003 
715	 0.249533457730964 
716	 0.250401073562691 
717	 0.25120057141594 
718	 0.25213232036077 
719	 0.253143357274066 
720	 0.254118083733614 
721	 0.254893506413568 
722	 0.255808972135946 
723	 0.256739476151661 
724	 0.257516223274805 
725	 0.258394737720504 
726	 0.259283118506526 
727	 0.260129604516913 
728	 0.260928235666734 
729	 0.261777285589644 
730	 0.262564565242019 
731	 0.263292386692987 
732	 0.264196299079959 
733	 0.264969481962572 
734	 0.26573791394703 
735	 0.266636731102138 
736	 0.267333175963515 
737	 0.268062320797771 
738	 0.26886571265362 
739	 0.269642831918654 
740	 0.270329403201095 
741	 0.271041930555676 
742	 0.271820599135122 
743	 0.272561168201801 
744	 0.273310366600097 
745	 0.274007393763216 
746	 0.274626211681682 
747	 0.275340926880245 
748	 0.276074299188889 
749	 0.276800233920312 
750	 0.277515083894353 
751	 0.278140611901534 
752	 0.278799305794065 
753	 0.279545720962323 
754	 0.280321470016721 
755	 0.281123254589628 
756	 0.281842322191719 
757	 0.282456634911748 
758	 0.283256276178512 
759	 0.283900120672216 
760	 0.284469022412475 
761	 0.285204557900229 
762	 0.285989362054816 
763	 0.286702829132894 
764	 0.287338258434025 
765	 0.28800931727342 
766	 0.288692733942196 
767	 0.289330075757982 
768	 0.289929400228148 
769	 0.290666239066783 
770	 0.291449252240033 
771	 0.292136161326946 
772	 0.292642133760334 
773	 0.293261820311461 
774	 0.293820992979679 
775	 0.294360221079458 
776	 0.295077387235359 
777	 0.29568806027095 
778	 0.296307806585789 
779	 0.297010734740697 
780	 0.297704731401189 
781	 0.29830855118013 
782	 0.298960354840833 
783	 0.299736418213374 
784	 0.300269450794001 
785	 0.300748371846936 
786	 0.30131196581357 
787	 0.302022357879098 
788	 0.302660634189203 
789	 0.303231670928934 
790	 0.303757608446477 
791	 0.304257193983264 
792	 0.304890137387683 
793	 0.305556673833821 
794	 0.30616778837164 
795	 0.306813440936051 
796	 0.307340123478879 
797	 0.307830691101473 
798	 0.308413859625134 
799	 0.30897159408112 
800	 0.309593930290437 
801	 0.310236205452116 
802	 0.310762494689931 
803	 0.311263060591343 
804	 0.31176987517343 
805	 0.312322832237421 
806	 0.31298341708747 
807	 0.31350722645667 
808	 0.31399132707985 
809	 0.314543580711923 
810	 0.315025350375005 
811	 0.315515637482533 
812	 0.31597911148801 
813	 0.316384374166483 
814	 0.317021415586895 
815	 0.31754424939406 
816	 0.317930054650625 
817	 0.318450620572912 
818	 0.318901082686745 
819	 0.31933584205338 
820	 0.319796598533951 
821	 0.320243276349032 
822	 0.320682422919966 
823	 0.321129183845024 
824	 0.321602887290633 
825	 0.322152142061153 
826	 0.322487364253013 
827	 0.322704109657077 
828	 0.323065934802956 
829	 0.323635825666785 
830	 0.324155279442348 
831	 0.324498799221385 
832	 0.324708356049326 
833	 0.325025854420157 
834	 0.325402546429838 
835	 0.325796048549521 
836	 0.326249596278235 
837	 0.326519952264031 
838	 0.326793624029358 
839	 0.327235783524865 
840	 0.327652132750132 
841	 0.32791091722765 
842	 0.328173078011905 
843	 0.328630000070259 
844	 0.328975935643516 
845	 0.329187656252057 
846	 0.329379141916115 
847	 0.329727722564352 
848	 0.330121906148832 
849	 0.330423488369962 
850	 0.33063585053533 
851	 0.330929866168394 
852	 0.331145228391221 
853	 0.331318535373688 
854	 0.33153885089024 
855	 0.331926352280327 
856	 0.332195440663974 
857	 0.332406042823838 
858	 0.332680950550209 
859	 0.332950194425766 
860	 0.333065029999789 
861	 0.333217435237582 
862	 0.333643251248746 
863	 0.333726182656482 
864	 0.333929766872154 
865	 0.334232140815279 
866	 0.334210833465749 
867	 0.334446728320553 
868	 0.334631793973764 
869	 0.334689835016787 
870	 0.33500708743315 
871	 0.335335113911978 
872	 0.335486725395809 
873	 0.335452442797748 
874	 0.335561957500237 
875	 0.335731950371782 
876	 0.336031703735582 
877	 0.336414226966137 
878	 0.336285517934433 
879	 0.33636588956116 
880	 0.336555571344854 
881	 0.336495913473409 
882	 0.336818008585838 
883	 0.337110143980823 
884	 0.337172506719671 
885	 0.337075321553337 
886	 0.337249305823637 
887	 0.337434077756415 
888	 0.337473014920898 
889	 0.337449515439004 
890	 0.33776882565403 
891	 0.338086351732715 
892	 0.338187820459848 
893	 0.338323320645895 
894	 0.33820157251942 
895	 0.338185452120091 
896	 0.338480859284631 
897	 0.338467430967917 
898	 0.33858889853599 
899	 0.338760538766707 
900	 0.338846147813274 
901	 0.33924309921073 
902	 0.339325733544355 
903	 0.339215337646775 
904	 0.339339506409096 
905	 0.339509370841799 
906	 0.339688807970906 
907	 0.339815001483289 
908	 0.339839827246756 
909	 0.33995668190411 
910	 0.340038445050782 
911	 0.340116879730941 
912	 0.340377401388836 
913	 0.340513788040448 
914	 0.340697022247467 
915	 0.340968354069434 
916	 0.341105010370939 
917	 0.341089077602312 
918	 0.341080080242023 
919	 0.341230343719145 
920	 0.341600520660284 
921	 0.341748179298706 
922	 0.341729888430454 
923	 0.341783344946594 
924	 0.34225214511947 
925	 0.342283353958681 
926	 0.342192211654531 
927	 0.342435617965828 
928	 0.342551203501608 
929	 0.342698134223219 
930	 0.342850714457199 
931	 0.342957717841023 
932	 0.343176958379708 
933	 0.343505345263145 
934	 0.343746440870219 
935	 0.343706742605621 
936	 0.343740012696362 
937	 0.343837984733685 
938	 0.344093774561659 
939	 0.3445631618913 
940	 0.344558099369684 
941	 0.344536321209425 
942	 0.344669244188727 
943	 0.344809509875367 
944	 0.345158681612696 
945	 0.345370645181693 
946	 0.345300715882104 
947	 0.345134989300543 
948	 0.345517555681215 
949	 0.345844124016719 
950	 0.345901378745427 
951	 0.346176133925196 
952	 0.346412894464766 
953	 0.346511338028141 
954	 0.346564737106545 
955	 0.346881417755479 
956	 0.347228120757569 
957	 0.347315778669686 
958	 0.347148300547933 
959	 0.347215872079793 
960	 0.347564615736912 
961	 0.347707107785142 
962	 0.347475477983484 
963	 0.347561526858386 
964	 0.347862119349304 
965	 0.348058461224353 
966	 0.347992102092501 
967	 0.347997947669831 
968	 0.348204263368123 
969	 0.348522666466043 
970	 0.348783006817229 
971	 0.348813877312145 
972	 0.348958620750093 
973	 0.349050591362591 
974	 0.349014777438643 
975	 0.349517008076344 
976	 0.349380522356109 
977	 0.34913732238228 
978	 0.349466417087231 
979	 0.349747239010681 
980	 0.34971196241793 
981	 0.349662923425776 
982	 0.349936105957144 
983	 0.350290294131938 
984	 0.350282719563891 
985	 0.350278924660517 
986	 0.35064382348412 
987	 0.350704515481603 
988	 0.35087689333406 
989	 0.351041199474541 
990	 0.350997462002433 
991	 0.350914101673442 
992	 0.351041909908731 
993	 0.35141808926031 
994	 0.351798911608422 
995	 0.351322463091229 
996	 0.351596374374721 
997	 0.352014116635714 
998	 0.351687732158181 
999	 0.351624561473211 
1000	 0.352017922166534 
1001	 0.354385572189592 
1002	 0.354481104491778 
1003	 0.354932558243875 
1004	 0.35506877678246 
1005	 0.355169031614908 
1006	 0.355199105733231 
1007	 0.355041235764558 
1008	 0.354976498986607 
1009	 0.354925491178112 
1010	 0.354935968612276 
1011	 0.355009819526305 
1012	 0.355053859927055 
1013	 0.355045787234332 
1014	 0.355084001255904 
1015	 0.35509491128395 
1016	 0.35524842062758 
1017	 0.355267742333065 
1018	 0.355411261043098 
1019	 0.355690442912051 
1020	 0.355736492292679 
1021	 0.355779890828862 
1022	 0.355846689521735 
1023	 0.355934409628821 
1024	 0.355930655466501 
1025	 0.35598284116615 
1026	 0.356114556005108 
1027	 0.35620193557316 
1028	 0.356265949726282 
1029	 0.356249113932156 
1030	 0.356304593358565 
1031	 0.356502981510079 
1032	 0.356566362534174 
1033	 0.356432766574055 
1034	 0.356610715013761 
1035	 0.356897250455356 
1036	 0.356984926700593 
1037	 0.357116786031257 
1038	 0.357303591653551 
1039	 0.357304415329558 
1040	 0.3573443865902 
1041	 0.357566513753742 
1042	 0.35765224718343 
1043	 0.357523260387994 
1044	 0.357641500726996 
1045	 0.35786824438279 
1046	 0.357894534968642 
1047	 0.358008925341936 
1048	 0.358223817529777 
1049	 0.358284615167342 
1050	 0.358395403293058 
1051	 0.358566250247028 
1052	 0.358426437383425 
1053	 0.358441848603732 
1054	 0.358523285006934 
1055	 0.358587554670167 
1056	 0.358721005685576 
1057	 0.358791324026825 
1058	 0.358801996872821 
1059	 0.358770163046562 
1060	 0.358779379792907 
1061	 0.358769204565228 
1062	 0.358954916764911 
1063	 0.358918601249733 
1064	 0.358801285042677 
1065	 0.35883052442365 
1066	 0.358549001724804 
1067	 0.358323101846105 
1068	 0.358259799378836 
1069	 0.358195632014824 
1070	 0.358175579638733 
1071	 0.358280173323963 
1072	 0.358281992499481 
1073	 0.35823413424211 
1074	 0.358206219065265 
1075	 0.358111337518192 
1076	 0.358106052240536 
1077	 0.35801505355484 
1078	 0.357772519595755 
1079	 0.357657397393658 
1080	 0.357557879453526 
1081	 0.357453853977762 
1082	 0.357518016862943 
1083	 0.357550676004002 
1084	 0.357566944814187 
1085	 0.357644216267252 
1086	 0.357625646836757 
1087	 0.357549221250533 
1088	 0.357416471104827 
1089	 0.357324744352017 
1090	 0.357269104835014 
1091	 0.357304524906535 
1092	 0.357390582944437 
1093	 0.35733802392127 
1094	 0.357315859356163 
1095	 0.357368724448745 
1096	 0.357349564235471 
1097	 0.357325185627546 
1098	 0.357273204801415 
1099	 0.357254674594185 
1100	 0.357195806631804 
1101	 0.357259365726098 
1102	 0.357438506637782 
1103	 0.357494912017422 
1104	 0.357460878894412 
1105	 0.357506614768601 
1106	 0.357607207797756 
1107	 0.357688586560861 
1108	 0.357831583280167 
1109	 0.357966770397562 
1110	 0.358032752408017 
1111	 0.358064679084681 
1112	 0.358278714847698 
1113	 0.358535132684948 
1114	 0.358642004450244 
1115	 0.358767317319431 
1116	 0.35892588405182 
1117	 0.359113087030068 
1118	 0.359314677650112 
1119	 0.359666244505914 
1120	 0.359903027688048 
1121	 0.360101596512497 
1122	 0.360204890402706 
1123	 0.360297511763611 
1124	 0.360425396159921 
1125	 0.360630033311279 
1126	 0.360866741811602 
1127	 0.361160390585073 
1128	 0.361440332113653 
1129	 0.361633269797415 
1130	 0.361875983317443 
1131	 0.362111183387721 
1132	 0.362379903867481 
1133	 0.362599228068547 
1134	 0.362632999934034 
1135	 0.362766045516779 
1136	 0.362887586893676 
1137	 0.363040809692968 
1138	 0.36325520101377 
1139	 0.363433640324448 
1140	 0.363625901385313 
1141	 0.363745443993838 
1142	 0.363783917172721 
1143	 0.363902147806497 
1144	 0.364081923687306 
1145	 0.364225766128209 
1146	 0.364358775169416 
1147	 0.364494591074877 
1148	 0.364528918768877 
1149	 0.364494865520307 
1150	 0.364495290078467 
1151	 0.364543561195445 
1152	 0.36453816651337 
1153	 0.364478364592534 
1154	 0.364458861187362 
1155	 0.364442577821613 
1156	 0.364424023237121 
1157	 0.364443855280751 
1158	 0.364436683526436 
1159	 0.364418343998514 
1160	 0.364337642055379 
1161	 0.364333386762156 
1162	 0.364397286039971 
1163	 0.364429002519487 
1164	 0.364492507900752 
1165	 0.364475361987363 
1166	 0.364383469025597 
1167	 0.364285768279381 
1168	 0.364128640057614 
1169	 0.364045597800361 
1170	 0.363982641969096 
1171	 0.363941747343472 
1172	 0.363995672367591 
1173	 0.363942629451992 
1174	 0.363797670792434 
1175	 0.363730328209806 
1176	 0.363656249586713 
1177	 0.363601413118206 
1178	 0.363642299722447 
1179	 0.36361389341634 
1180	 0.363473641259493 
1181	 0.363315243616769 
1182	 0.363157385701377 
1183	 0.363024493049169 
1184	 0.362969334681219 
1185	 0.362934554794849 
1186	 0.362874248279816 
1187	 0.362830522581273 
1188	 0.362754398978234 
1189	 0.362630958224007 
1190	 0.362545046682287 
1191	 0.362416863022675 
1192	 0.362400108711271 
1193	 0.362502487583714 
1194	 0.362526040356645 
1195	 0.362565255422779 
1196	 0.362579842491455 
1197	 0.362504603820413 
1198	 0.362522779964184 
1199	 0.362554641860406 
1200	 0.362599712530873 
1201	 0.362725682409763 
1202	 0.362787285165942 
1203	 0.36286051599584 
1204	 0.36304838609334 
1205	 0.363189245852437 
1206	 0.363299705225187 
1207	 0.363489924839671 
1208	 0.363674712887532 
1209	 0.363964589054011 
1210	 0.364337831297495 
1211	 0.364740350429904 
1212	 0.365260709258716 
1213	 0.365717193950827 
1214	 0.366123890323649 
1215	 0.366632031705089 
1216	 0.367163597805698 
1217	 0.367727343689863 
1218	 0.36835664468363 
1219	 0.369065073342344 
1220	 0.369721664756792 
1221	 0.370356672420816 
1222	 0.371003040515012 
1223	 0.371630009510308 
1224	 0.372291064555722 
1225	 0.372955747336789 
1226	 0.373627371820157 
1227	 0.374364908583632 
1228	 0.374998159040711 
1229	 0.375590634601456 
1230	 0.376152383387915 
1231	 0.376645219905466 
1232	 0.377167358890326 
1233	 0.377657678754175 
1234	 0.37816789651451 
1235	 0.378739140555872 
1236	 0.379218935972554 
1237	 0.379663331231202 
1238	 0.380097433085496 
1239	 0.380493470255031 
1240	 0.380806949739819 
1241	 0.381203725796889 
1242	 0.381659356418442 
1243	 0.382078160455584 
1244	 0.382522966101966 
1245	 0.382932366297429 
1246	 0.383318781805577 
1247	 0.383696466934361 
1248	 0.384057848046066 
1249	 0.38443704004119 
1250	 0.38481515629655 
1251	 0.38517782482659 
1252	 0.38554808360183 
1253	 0.385909621522849 
1254	 0.386227830594949 
1255	 0.386587285917814 
1256	 0.387003244228078 
1257	 0.387362988124298 
1258	 0.387687911433346 
1259	 0.3880435959219 
1260	 0.388362371973551 
1261	 0.388718583780572 
1262	 0.389104315862847 
1263	 0.38956731047736 
1264	 0.389912569565493 
1265	 0.390203074361111 
1266	 0.390569102863291 
1267	 0.390916149338013 
1268	 0.391253964163186 
1269	 0.391645220735832 
1270	 0.392009235354914 
1271	 0.392343291085679 
1272	 0.392652870378295 
1273	 0.392972121649758 
1274	 0.39327458524825 
1275	 0.39347917881494 
1276	 0.393769912394189 
1277	 0.394147406313639 
1278	 0.394467139123223 
1279	 0.39481488563764 
1280	 0.395105352439998 
1281	 0.395327190112933 
1282	 0.395563455228613 
1283	 0.395763877713753 
1284	 0.395980949835279 
1285	 0.396204302848702 
1286	 0.396446033822653 
1287	 0.396653770197988 
1288	 0.396854114827612 
1289	 0.397048254647036 
1290	 0.397234672233037 
1291	 0.397390526233886 
1292	 0.397531251782962 
1293	 0.397668716016241 
1294	 0.397759619362212 
1295	 0.397893330605119 
1296	 0.398089027509359 
1297	 0.398194640230613 
1298	 0.398260536686982 
1299	 0.398335262835493 
1300	 0.398345489908373 
1301	 0.398395143276017 
1302	 0.398465648177981 
1303	 0.398549610721075 
1304	 0.398619077843643 
1305	 0.398733263443531 
1306	 0.398909191796223 
1307	 0.39906112082468 
1308	 0.39923528181624 
1309	 0.399398261588503 
1310	 0.399535842980464 
1311	 0.399641940088795 
1312	 0.399773412914338 
1313	 0.399879286941423 
1314	 0.40005124471219 
1315	 0.400280456363208 
1316	 0.400448331028926 
1317	 0.400618396780079 
1318	 0.400794597404559 
1319	 0.400922344502943 
1320	 0.401100493996489 
1321	 0.401304747727701 
1322	 0.401542480372999 
1323	 0.401804079462689 
1324	 0.40207216120884 
1325	 0.402415943973778 
1326	 0.402687727235259 
1327	 0.402888423713102 
1328	 0.403149759604873 
1329	 0.403427701947313 
1330	 0.403688193391392 
1331	 0.403992344178535 
1332	 0.404264449456262 
1333	 0.404526366798082 
1334	 0.404713067264674 
1335	 0.404956441762854 
1336	 0.405208451697581 
1337	 0.405456032171642 
1338	 0.405722283581829 
1339	 0.405950897709218 
1340	 0.406149911510164 
1341	 0.406379915301352 
1342	 0.406593077301093 
1343	 0.406840460485043 
1344	 0.407155131342039 
1345	 0.407382382389528 
1346	 0.407560904716425 
1347	 0.407783394439894 
1348	 0.408001697517578 
1349	 0.408189735108126 
1350	 0.408436421913687 
1351	 0.40858693280275 
1352	 0.408620896173083 
1353	 0.408712902881646 
1354	 0.408776527187376 
1355	 0.408876047489915 
1356	 0.409032173414287 
1357	 0.40914869482027 
1358	 0.409267967127225 
1359	 0.409372106503042 
1360	 0.409476832435863 
1361	 0.409521094118179 
1362	 0.409581901138488 
1363	 0.409630115268312 
1364	 0.409684503054048 
1365	 0.409749397396838 
1366	 0.409748185608647 
1367	 0.409725880541528 
1368	 0.409697176108379 
1369	 0.409618644357088 
1370	 0.409549365851647 
1371	 0.409516527190841 
1372	 0.409397004828158 
1373	 0.409219908389402 
1374	 0.409047209653962 
1375	 0.408838415717982 
1376	 0.408625329650964 
1377	 0.408418013963689 
1378	 0.408161228297897 
1379	 0.407869852740062 
1380	 0.407560986505314 
1381	 0.407199735507016 
1382	 0.406860861473329 
1383	 0.406523160270916 
1384	 0.40617542908063 
1385	 0.40583570544392 
1386	 0.405476577866051 
1387	 0.405068011673661 
1388	 0.404707650757397 
1389	 0.404335781902071 
1390	 0.404019207349506 
1391	 0.403779588192568 
1392	 0.403515583327493 
1393	 0.403264178250604 
1394	 0.403054769454293 
1395	 0.402825912577051 
1396	 0.40259496526598 
1397	 0.402358217198386 
1398	 0.402168566844443 
1399	 0.401852496689363 
1400	 0.401536823502337 
1401	 0.401038082991981 
1402	 0.400411773481175 
1403	 0.399731386523592 
1404	 0.39890273610731 
1405	 0.398110945829916 
1406	 0.397304124787328 
1407	 0.396418512505991 
1408	 0.395457135960736 
1409	 0.394519143524195 
1410	 0.393534447401475 
1411	 0.392549733404447 
1412	 0.39158009460439 
1413	 0.390598942295157 
1414	 0.389547103780996 
1415	 0.388569881713263 
1416	 0.387615085908665 
1417	 0.386697261888045 
1418	 0.385822074058112 
1419	 0.384968136941288 
1420	 0.384168208736421 
1421	 0.383354584720488 
1422	 0.382549293130963 
1423	 0.381754859063223 
1424	 0.380919902219137 
1425	 0.380162384966256 
1426	 0.379467280075309 
1427	 0.378755409480604 
1428	 0.378120690576465 
1429	 0.377502506282611 
1430	 0.376868626723981 
1431	 0.376231650691153 
1432	 0.375621489855526 
1433	 0.375012154412342 
1434	 0.3744218511318 
1435	 0.373865851890848 
1436	 0.373287845431383 
1437	 0.372694443071689 
1438	 0.372143426176299 
1439	 0.37158366180555 
1440	 0.371085082358752 
1441	 0.37062938276159 
1442	 0.370203142890477 
1443	 0.369758010227526 
1444	 0.369467635986887 
1445	 0.369201134053079 
1446	 0.36912492564934 
1447	 0.36921175124358 
1448	 0.369381300251094 
1449	 0.369667411212456 
1450	 0.370076157646782 
1451	 0.370612158283197 
1452	 0.371233512992089 
1453	 0.372034449876944 
1454	 0.372808893103606 
1455	 0.373670481107854 
1456	 0.374497579397738 
1457	 0.37537176537502 
1458	 0.376177919154631 
1459	 0.376926353502949 
1460	 0.377692619801899 
1461	 0.378439423664365 
1462	 0.379157795179621 
1463	 0.379890154135185 
1464	 0.38059101813025 
1465	 0.381222741858383 
1466	 0.381888274827391 
1467	 0.382511536480943 
1468	 0.383146828742594 
1469	 0.38379591305045 
1470	 0.38437581421614 
1471	 0.384981389711781 
1472	 0.385585273008172 
1473	 0.386190444168321 
1474	 0.386803038573119 
1475	 0.387372299272577 
1476	 0.38795172344251 
1477	 0.388464252863865 
1478	 0.388914766697373 
1479	 0.389367092289816 
1480	 0.389784631390853 
1481	 0.39019760986816 
1482	 0.390610391549707 
1483	 0.390980309043619 
1484	 0.391323876738729 
1485	 0.391648320689825 
1486	 0.391908636776879 
1487	 0.392224207464835 
1488	 0.392535030327526 
1489	 0.392887421893788 
1490	 0.393255898798679 
1491	 0.393682989096506 
1492	 0.394140950331196 
1493	 0.394646216458302 
1494	 0.395237708782463 
1495	 0.395793966038227 
1496	 0.396326986250109 
1497	 0.396947599846632 
1498	 0.397618662775118 
1499	 0.398288376348933 
1500	 0.399065366596791 
1501	 0.399753816043004 
1502	 0.400363495764437 
1503	 0.401013320922218 
1504	 0.401680780935064 
1505	 0.402308564955208 
1506	 0.402945965002832 
1507	 0.403550225635148 
1508	 0.404100446242953 
1509	 0.404650136110181 
1510	 0.405211464081604 
1511	 0.405721399456358 
1512	 0.406200543690434 
1513	 0.406649809027329 
1514	 0.407036504953612 
1515	 0.407435307604028 
1516	 0.407838487401938 
1517	 0.408204765487441 
1518	 0.408538157230638 
1519	 0.408880742061357 
1520	 0.409214093070519 
1521	 0.40951871835524 
1522	 0.409837440401208 
1523	 0.410141282600181 
1524	 0.410395125910747 
1525	 0.410607445148368 
1526	 0.410803357453909 
1527	 0.410969941621386 
1528	 0.411115441150274 
1529	 0.411207981089967 
1530	 0.411378067244211 
1531	 0.411562334176185 
1532	 0.41173527695374 
1533	 0.411957066262368 
1534	 0.412125427704239 
1535	 0.4122479556782 
1536	 0.41239030782426 
1537	 0.412510481510674 
1538	 0.412699801555885 
1539	 0.412880348787438 
1540	 0.413158555738578 
1541	 0.413541690109129 
1542	 0.413877752242758 
1543	 0.414252170011774 
1544	 0.414604223426681 
1545	 0.414911093808566 
1546	 0.415302705369681 
1547	 0.415740148478965 
1548	 0.416173757680573 
1549	 0.416667001945417 
1550	 0.41710977867616 
1551	 0.417502513084657 
1552	 0.417966741021202 
1553	 0.418469251439299 
1554	 0.418937932363315 
1555	 0.419437528468482 
1556	 0.41991009505803 
1557	 0.42032497979742 
1558	 0.420791265261145 
1559	 0.421324333106676 
1560	 0.421767710322579 
1561	 0.42218187243182 
1562	 0.422586975496777 
1563	 0.42293069639026 
1564	 0.423298354454802 
1565	 0.423654479052092 
1566	 0.424054625536154 
1567	 0.424463800702659 
1568	 0.424889163876347 
1569	 0.425388396718014 
1570	 0.425820890666315 
1571	 0.426227179359366 
1572	 0.426622103491739 
1573	 0.42697214437927 
1574	 0.427352301277683 
1575	 0.427732394547284 
1576	 0.428122251405942 
1577	 0.42852489143151 
1578	 0.428934475199199 
1579	 0.429353559927068 
1580	 0.429768467714926 
1581	 0.430227732887401 
1582	 0.430610840575327 
1583	 0.43093791884136 
1584	 0.431287494021132 
1585	 0.431575605139071 
1586	 0.431921368721552 
1587	 0.432312060369329 
1588	 0.432700502580494 
1589	 0.433106101524502 
1590	 0.433517084783507 
1591	 0.433983551826243 
1592	 0.434367796746164 
1593	 0.434683201480238 
1594	 0.435052462830259 
1595	 0.435381178414219 
1596	 0.435746577994706 
1597	 0.436210166014643 
1598	 0.436599902460708 
1599	 0.436921282798971 
1600	 0.437301401670181 
1601	 0.437663284892545 
1602	 0.438072114613872 
1603	 0.43861120406207 
1604	 0.439015915220804 
1605	 0.439345269051119 
1606	 0.439710635721875 
1607	 0.439998082141263 
1608	 0.440334198274712 
1609	 0.440768921686165 
1610	 0.44112381201388 
1611	 0.44144946630849 
1612	 0.441745562986326 
1613	 0.441985067588514 
1614	 0.442233057052198 
1615	 0.44245154264648 
1616	 0.442684488003378 
1617	 0.442948325662624 
1618	 0.443161478237841 
1619	 0.443345113385917 
1620	 0.443535353255434 
1621	 0.443674699827129 
1622	 0.443855006192543 
1623	 0.444070111115722 
1624	 0.444271087163175 
1625	 0.444527444587035 
1626	 0.44469532750778 
1627	 0.444785308606154 
1628	 0.444913324125528 
1629	 0.444983347048896 
1630	 0.445095155132262 
1631	 0.445250353921806 
1632	 0.445418732619083 
1633	 0.445582680434011 
1634	 0.445790035934892 
1635	 0.446085598488165 
1636	 0.446308907425782 
1637	 0.446536185614857 
1638	 0.446722267594444 
1639	 0.446852063551115 
1640	 0.446972431632775 
1641	 0.447042584760724 
1642	 0.447145594039628 
1643	 0.447262408392837 
1644	 0.447346385461577 
1645	 0.447467632633024 
1646	 0.447532530822074 
1647	 0.447495715496587 
1648	 0.447523136195375 
1649	 0.44760194288312 
1650	 0.447596756395964 
1651	 0.447606386350768 
1652	 0.447547261021405 
1653	 0.447403345603636 
1654	 0.447229180252914 
1655	 0.447033834385474 
1656	 0.446770513453282 
1657	 0.446381412579983 
1658	 0.446062578307837 
1659	 0.445744055789317 
1660	 0.445411288208043 
1661	 0.44512857941351 
1662	 0.444785023388588 
1663	 0.44446888617433 
1664	 0.443982149377439 
1665	 0.443385074867317 
1666	 0.4427532555881 
1667	 0.441976805029229 
1668	 0.44119359443007 
1669	 0.440452212146424 
1670	 0.439574251336624 
1671	 0.438587157319659 
1672	 0.437529806205394 
1673	 0.436411150616635 
1674	 0.435163510396551 
1675	 0.43381797420835 
1676	 0.432399753515878 
1677	 0.430837305287647 
1678	 0.42925056612605 
1679	 0.427630964255244 
1680	 0.425897363729659 
1681	 0.424049795017293 
1682	 0.422193238277319 
1683	 0.420287208008725 
1684	 0.418315871884961 
1685	 0.41635808382321 
1686	 0.414229484042012 
1687	 0.411899519521736 
1688	 0.409586082996499 
1689	 0.407182404134615 
1690	 0.404789432285234 
1691	 0.402402841092363 
1692	 0.400019374789996 
1693	 0.397641668270032 
1694	 0.39515547480365 
1695	 0.392626831272283 
1696	 0.390028591827303 
1697	 0.38733035254356 
1698	 0.384601350065329 
1699	 0.381847657331656 
1700	 0.379094210970001 
1701	 0.376234945012349 
1702	 0.373509659381962 
1703	 0.370764799831673 
1704	 0.368189371147866 
1705	 0.36568512213796 
1706	 0.363277280636883 
1707	 0.361195434374478 
1708	 0.359252690640116 
1709	 0.357451841318394 
1710	 0.355729448641877 
1711	 0.354023813089223 
1712	 0.352545789401519 
1713	 0.35105920360266 
1714	 0.349671855158811 
1715	 0.348555184825425 
1716	 0.347365917567782 
1717	 0.346199705369246 
1718	 0.345150301304981 
1719	 0.344015145438134 
1720	 0.34297056459691 
1721	 0.342062945743479 
1722	 0.341210983335773 
1723	 0.340589818553775 
1724	 0.34002529980245 
1725	 0.339548505556345 
1726	 0.339319257078624 
1727	 0.339244581694273 
1728	 0.339382053479947 
1729	 0.33985113607152 
1730	 0.340608838475562 
1731	 0.341474044063419 
1732	 0.342552597257877 
1733	 0.343771480593663 
1734	 0.345038385478408 
1735	 0.346465966254412 
1736	 0.347912920519557 
1737	 0.349250183155373 
1738	 0.350396188412238 
1739	 0.351344328027253 
1740	 0.352141992926657 
1741	 0.352696380014629 
1742	 0.353021098105842 
1743	 0.353274828089115 
1744	 0.353296848692596 
1745	 0.3532971025352 
1746	 0.353181128733015 
1747	 0.353044449299796 
1748	 0.352783326482164 
1749	 0.35260262022669 
1750	 0.352436364786339 
1751	 0.352303775092213 
1752	 0.352143364399471 
1753	 0.352140849226445 
1754	 0.352158721287546 
1755	 0.352390853616155 
1756	 0.352798906826636 
1757	 0.353292115920993 
1758	 0.353951913250138 
1759	 0.354701853325826 
1760	 0.355617323062308 
1761	 0.356675874931065 
1762	 0.35773811744543 
1763	 0.358976185313308 
1764	 0.360346395230885 
1765	 0.361831249513641 
1766	 0.363522569815127 
1767	 0.365198727753011 
1768	 0.366965434747914 
1769	 0.368841956482758 
1770	 0.370725103888644 
1771	 0.372635074939555 
1772	 0.374346065340221 
1773	 0.375987055530423 
1774	 0.377494468062642 
1775	 0.378812311911203 
1776	 0.380226768660076 
1777	 0.381424080789803 
1778	 0.382549629439576 
1779	 0.383745053891733 
1780	 0.384736656159838 
1781	 0.385743323925412 
1782	 0.386655559651813 
1783	 0.387392655559388 
1784	 0.388223823474223 
1785	 0.388891668475794 
1786	 0.389589823733198 
1787	 0.390296925031206 
1788	 0.390937417166446 
1789	 0.391587319637632 
1790	 0.392163002016958 
1791	 0.392687793864558 
1792	 0.393199020300966 
1793	 0.393625872421694 
1794	 0.394144386827922 
1795	 0.394509737555937 
1796	 0.394883097427446 
1797	 0.395338336962465 
1798	 0.395653307509509 
1799	 0.396012186105868 
1800	 0.396470936668037 
1801	 0.387353815551356 
1802	 0.387914594568224 
1803	 0.388357199462076 
1804	 0.388710592178664 
1805	 0.389065910321262 
1806	 0.38945217165246 
1807	 0.389819133640423 
1808	 0.390203896022619 
1809	 0.390668036963972 
1810	 0.391030005388706 
1811	 0.391297934399559 
1812	 0.391631606391029 
1813	 0.391937539417558 
1814	 0.392286100564434 
1815	 0.392666548249826 
1816	 0.393093391377444 
1817	 0.393520045866498 
1818	 0.393997033495945 
1819	 0.394397302859404 
1820	 0.394720580419263 
1821	 0.395153175149584 
1822	 0.395633383378008 
1823	 0.396051659525698 
1824	 0.396482156016304 
1825	 0.39702196932611 
1826	 0.397512899691625 
1827	 0.397928227536063 
1828	 0.398413738826334 
1829	 0.3990181615063 
1830	 0.399491838858233 
1831	 0.3998815688988 
1832	 0.400344513897643 
1833	 0.400755375165664 
1834	 0.401055643796795 
1835	 0.401444136904394 
1836	 0.401786564119562 
1837	 0.40217909311515 
1838	 0.402644008109486 
1839	 0.403033899480421 
1840	 0.40338790207679 
1841	 0.40379791646067 
1842	 0.404214716279253 
1843	 0.404558246134374 
1844	 0.405022716184265 
1845	 0.405450421457158 
1846	 0.405842210683361 
1847	 0.406252419245919 
1848	 0.406562476809313 
1849	 0.406828000645049 
1850	 0.40704246118755 
1851	 0.407183698278491 
1852	 0.407280019434549 
1853	 0.40738196186867 
1854	 0.407451845625431 
1855	 0.407423358154958 
1856	 0.407392709275281 
1857	 0.407367809408386 
1858	 0.407269932285874 
1859	 0.407095450333422 
1860	 0.406878657028774 
1861	 0.406617715669877 
1862	 0.406254175570776 
1863	 0.405876417346976 
1864	 0.405590746320357 
1865	 0.405199589020156 
1866	 0.404771461485457 
1867	 0.404298918908098 
1868	 0.403656001668268 
1869	 0.402957292492457 
1870	 0.402178520921637 
1871	 0.401274754297111 
1872	 0.40037082398213 
1873	 0.399444770054222 
1874	 0.398440861875533 
1875	 0.397367165383861 
1876	 0.396162986299352 
1877	 0.394900660863809 
1878	 0.393497898291707 
1879	 0.39196950313494 
1880	 0.390408564580455 
1881	 0.388706365161566 
1882	 0.38683689894316 
1883	 0.384959103565164 
1884	 0.382961168855684 
1885	 0.380729210175757 
1886	 0.378516415899283 
1887	 0.376069691920599 
1888	 0.373394292262028 
1889	 0.370832944266486 
1890	 0.368089270635735 
1891	 0.365275952181022 
1892	 0.36245186540473 
1893	 0.359493088950228 
1894	 0.356367673289031 
1895	 0.353306342158031 
1896	 0.350140986788029 
1897	 0.346953085448819 
1898	 0.344047718862407 
1899	 0.341013113213683 
1900	 0.33801574575423 
1901	 0.335173830410665 
1902	 0.332131443297456 
1903	 0.329229942004932 
1904	 0.326429663722049 
1905	 0.323696538822765 
1906	 0.320978078378744 
1907	 0.318576426792261 
1908	 0.31625073339832 
1909	 0.314013319736513 
1910	 0.311930657193813 
1911	 0.30982179916893 
1912	 0.307841790437206 
1913	 0.305892924390904 
1914	 0.304043289194514 
1915	 0.302315258281154 
1916	 0.300738559534604 
1917	 0.299118985602896 
1918	 0.29768829225334 
1919	 0.296345015049271 
1920	 0.294929898380588 
1921	 0.293662339704426 
1922	 0.292415722048795 
1923	 0.291183352253846 
1924	 0.290142103051079 
1925	 0.289157411057846 
1926	 0.288199390403198 
1927	 0.287280371805925 
1928	 0.286420421813254 
1929	 0.285574216755101 
1930	 0.284872381237488 
1931	 0.284234167620474 
1932	 0.283636086165316 
1933	 0.283195856190471 
1934	 0.282728481904779 
1935	 0.282290322205996 
1936	 0.28207668085561 
1937	 0.28192803231504 
1938	 0.281866577694342 
1939	 0.281898463637231 
1940	 0.282052903407421 
1941	 0.282259957793432 
1942	 0.28254619183092 
1943	 0.282913768299607 
1944	 0.283312398060847 
1945	 0.283747238076144 
1946	 0.284310471408101 
1947	 0.284928049696971 
1948	 0.285612153965801 
1949	 0.286328753015071 
1950	 0.287063124612462 
1951	 0.287755218006113 
1952	 0.28857982062199 
1953	 0.28944459246385 
1954	 0.290439656324581 
1955	 0.291611121286158 
1956	 0.29271667412617 
1957	 0.293808726326342 
1958	 0.294937456521782 
1959	 0.295933432221283 
1960	 0.296935153404889 
1961	 0.297920718639041 
1962	 0.298935628879574 
1963	 0.299857695226715 
1964	 0.30070933439701 
1965	 0.301530536941271 
1966	 0.302319082038826 
1967	 0.303044397741176 
1968	 0.3037296139419 
1969	 0.304520785428588 
1970	 0.305235777918621 
1971	 0.305970087229696 
1972	 0.306719462095976 
1973	 0.307340659255485 
1974	 0.308070896529785 
1975	 0.308855044246943 
1976	 0.309623414115546 
1977	 0.310458667802324 
1978	 0.311238274182781 
1979	 0.311980635420309 
1980	 0.312698409824448 
1981	 0.313451549082803 
1982	 0.314234928684982 
1983	 0.315102096379003 
1984	 0.31595507600441 
1985	 0.316734981775344 
1986	 0.317545826058703 
1987	 0.318419364160516 
1988	 0.319264665040861 
1989	 0.320216062622683 
1990	 0.321269802364309 
1991	 0.322366429085639 
1992	 0.323536307746471 
1993	 0.324740804061328 
1994	 0.325904697912747 
1995	 0.327136567325162 
1996	 0.328266288673036 
1997	 0.329404558590465 
1998	 0.330659281444528 
1999	 0.332029706877353 
2000	 0.333256014564804 
2001	 0.334593879180715 
2002	 0.335731784244314 
2003	 0.336672917036245 
2004	 0.337656345709247 
2005	 0.338603168655308 
2006	 0.339485427578159 
2007	 0.340326579741091 
2008	 0.341149641132694 
2009	 0.341888324244914 
2010	 0.342485580395202 
2011	 0.343107042860675 
2012	 0.343684094854974 
2013	 0.344143631781791 
2014	 0.344537718299218 
2015	 0.344882647255589 
2016	 0.345084654577405 
2017	 0.345297507867011 
2018	 0.345505406321857 
2019	 0.345644695277102 
2020	 0.345746620388289 
2021	 0.345781139969216 
2022	 0.345737015685929 
2023	 0.345606829434804 
2024	 0.345369244241474 
2025	 0.345117256257959 
2026	 0.344848032625563 
2027	 0.344522844751106 
2028	 0.34423022031326 
2029	 0.343978329148214 
2030	 0.343610538703625 
2031	 0.343207412549293 
2032	 0.342781494084414 
2033	 0.342227364096755 
2034	 0.341742946008568 
2035	 0.341312748421695 
2036	 0.340809735501407 
2037	 0.340372813080313 
2038	 0.339883594670377 
2039	 0.339379744363119 
2040	 0.338866075178345 
2041	 0.338352462282221 
2042	 0.337788722546129 
2043	 0.33728807389379 
2044	 0.336780450061276 
2045	 0.336340917765467 
2046	 0.335943633613233 
2047	 0.335582791899327 
2048	 0.335334014748688 
2049	 0.335017496444648 
2050	 0.33470219272343 
2051	 0.334388740862577 
2052	 0.33398606255939 
2053	 0.333533480741191 
2054	 0.333155968619606 
2055	 0.332759857018428 
2056	 0.332426155888646 
2057	 0.332209076166568 
2058	 0.331886247676317 
2059	 0.331519504050089 
2060	 0.331189747894556 
2061	 0.330808213611742 
2062	 0.330482649861467 
2063	 0.330241927249766 
2064	 0.329942327306873 
2065	 0.329600920655143 
2066	 0.32930774701726 
2067	 0.329005945405486 
2068	 0.328767428152105 
2069	 0.328503880766719 
2070	 0.328264928884047 
2071	 0.328037324596588 
2072	 0.327799826527843 
2073	 0.327580399665501 
2074	 0.327436489121234 
2075	 0.327210602032394 
2076	 0.326918392927765 
2077	 0.326673008010644 
2078	 0.326427918328167 
2079	 0.326172401494526 
2080	 0.325957065921163 
2081	 0.32568775339587 
2082	 0.325365670726128 
2083	 0.325045594987641 
2084	 0.324701752802447 
2085	 0.324430684241611 
2086	 0.324152055482561 
2087	 0.323887693794311 
2088	 0.323641295729735 
2089	 0.323437726097243 
2090	 0.323189507597579 
2091	 0.322942025369042 
2092	 0.322695137211445 
2093	 0.322409668610341 
2094	 0.32214990379696 
2095	 0.321932373906057 
2096	 0.321675961304552 
2097	 0.321434835954905 
2098	 0.321135553270088 
2099	 0.320767130679766 
2100	 0.320430827844319 
2101	 0.320101337696 
2102	 0.319759536783792 
2103	 0.319424118310333 
2104	 0.319121406837417 
2105	 0.318782978999281 
2106	 0.31840289962106 
2107	 0.318043267980486 
2108	 0.317729203820863 
2109	 0.317335595516069 
2110	 0.316877416432685 
2111	 0.316471739212176 
2112	 0.316017186937479 
2113	 0.315596559774958 
2114	 0.315304488040397 
2115	 0.314887039221212 
2116	 0.314329101084481 
2117	 0.31389966362 
2118	 0.313446125401158 
2119	 0.312944634682871 
2120	 0.312494004984038 
2121	 0.312128067482182 
2122	 0.311675074144049 
2123	 0.311155224081262 
2124	 0.310695884270216 
2125	 0.310209952594827 
2126	 0.309797551678723 
2127	 0.309442770251981 
2128	 0.309095895335454 
2129	 0.308821220273955 
2130	 0.308504860329025 
2131	 0.308182574847557 
2132	 0.307858463490095 
2133	 0.307452738753502 
2134	 0.307159130479362 
2135	 0.306929480881982 
2136	 0.306746201681835 
2137	 0.306588285453502 
2138	 0.306530936106538 
2139	 0.306412225545178 
2140	 0.306269122914177 
2141	 0.306159354264859 
2142	 0.306088119708706 
2143	 0.305976057235212 
2144	 0.305810826820241 
2145	 0.30575332193912 
2146	 0.305701668779415 
2147	 0.305696953632961 
2148	 0.305828392306855 
2149	 0.305892197673087 
2150	 0.305936045456514 
2151	 0.30600089177453 
2152	 0.306063189829676 
2153	 0.306115385097704 
2154	 0.306257569073395 
2155	 0.306350372863923 
2156	 0.30647814542122 
2157	 0.306669914460088 
2158	 0.306764616690657 
2159	 0.306828225541245 
2160	 0.306863520482225 
2161	 0.306842275908335 
2162	 0.306822656158463 
2163	 0.306767783301981 
2164	 0.306749087467906 
2165	 0.306685575001435 
2166	 0.306706098889033 
2167	 0.306853575849953 
2168	 0.306883566196158 
2169	 0.306912620932921 
2170	 0.30690943695961 
2171	 0.306787768340544 
2172	 0.306716567971947 
2173	 0.306660420069325 
2174	 0.306615147726417 
2175	 0.306548673704627 
2176	 0.306586090392421 
2177	 0.306653821256251 
2178	 0.306788756868954 
2179	 0.30688648078626 
2180	 0.307039916776476 
2181	 0.307125437910207 
2182	 0.307173970090904 
2183	 0.307219981072933 
2184	 0.307227265148331 
2185	 0.307272068955276 
2186	 0.307357972460591 
2187	 0.307370292268384 
2188	 0.307382154661408 
2189	 0.307355707379634 
2190	 0.307197598659084 
2191	 0.307141534285455 
2192	 0.307141050838895 
2193	 0.307117621389984 
2194	 0.30717662586409 
2195	 0.307150091279448 
2196	 0.307076196576897 
2197	 0.306961011417378 
2198	 0.306845985404709 
2199	 0.30662972405563 
2200	 0.30647875182878 
2201	 0.306371461955781 
2202	 0.306148210105143 
2203	 0.305893563099644 
2204	 0.305612606868882 
2205	 0.305188094520596 
2206	 0.304898414625948 
2207	 0.304711403868138 
2208	 0.304413740216153 
2209	 0.304096327195224 
2210	 0.303798606409211 
2211	 0.303433330531802 
2212	 0.303113686994828 
2213	 0.302830293207911 
2214	 0.302568825726441 
2215	 0.302331792180439 
2216	 0.302072364934814 
2217	 0.301935175836964 
2218	 0.301623675010871 
2219	 0.301120823435835 
2220	 0.300724734287464 
2221	 0.300277689151666 
2222	 0.299863737734915 
2223	 0.29953524699362 
2224	 0.299143451615828 
2225	 0.298739637417492 
2226	 0.298297942290735 
2227	 0.297773890031316 
2228	 0.297271984829258 
2229	 0.29658211617017 
2230	 0.295715945461125 
2231	 0.294852138174344 
2232	 0.293919728394323 
2233	 0.292899597196169 
2234	 0.291897107922533 
2235	 0.290653291600502 
2236	 0.289265379165927 
2237	 0.287726124088528 
2238	 0.285919096064182 
2239	 0.28414188895575 
2240	 0.28226553776704 
2241	 0.280330498193575 
2242	 0.278486422110401 
2243	 0.276310539018271 
2244	 0.273875047784914 
2245	 0.271432021779949 
2246	 0.268693635347195 
2247	 0.266033511898938 
2248	 0.263416815896993 
2249	 0.260714031976281 
2250	 0.25793868239462 
2251	 0.255199573456925 
2252	 0.252216018533479 
2253	 0.249369941352785 
2254	 0.246383353272761 
2255	 0.243321288775979 
2256	 0.240561163249063 
2257	 0.237682986595345 
2258	 0.234961422021485 
2259	 0.232401759718338 
2260	 0.229782997551475 
2261	 0.227170665503369 
2262	 0.224644537866123 
2263	 0.222098952975532 
2264	 0.219724973459355 
2265	 0.217482538459275 
2266	 0.215272869393914 
2267	 0.213256412368893 
2268	 0.211093650498974 
2269	 0.208858955555716 
2270	 0.206786349899809 
2271	 0.204629875053579 
2272	 0.202715993202856 
2273	 0.201139115024802 
2274	 0.199352120219806 
2275	 0.197634170676587 
2276	 0.195853946889279 
2277	 0.193926234077481 
2278	 0.192063471515077 
2279	 0.190234167522578 
2280	 0.188347045624771 
2281	 0.186426468258045 
2282	 0.184516873569074 
2283	 0.182584538615222 
2284	 0.18072161915274 
2285	 0.178649175378243 
2286	 0.176623299460928 
2287	 0.174437244673071 
2288	 0.172045052523717 
2289	 0.169962491918814 
2290	 0.167795500002482 
2291	 0.165527608068426 
2292	 0.163426736223269 
2293	 0.161144037253757 
2294	 0.158943806218881 
2295	 0.156916438505589 
2296	 0.154851364718035 
2297	 0.153072663536301 
2298	 0.151379228508592 
2299	 0.149972079857529 
2300	 0.148844563944609 
2301	 0.147978319662763 
2302	 0.147293318872925 
2303	 0.146952064300595 
2304	 0.14695828749908 
2305	 0.147179016555751 
2306	 0.147741166036486 
2307	 0.1484519502326 
2308	 0.149398464647232 
2309	 0.150555871779849 
2310	 0.151952742107369 
2311	 0.153496124066902 
2312	 0.155423295077203 
2313	 0.157206127693787 
2314	 0.159054184194385 
2315	 0.160899510596491 
2316	 0.162737423372859 
2317	 0.164560941872416 
2318	 0.166614913219706 
2319	 0.168268459149076 
2320	 0.169832628989422 
2321	 0.171068166116405 
2322	 0.171850337083393 
2323	 0.172647293494746 
2324	 0.173370500887017 
2325	 0.173831482634902 
2326	 0.174101590446239 
2327	 0.17419941204342 
2328	 0.173978402777111 
2329	 0.173650181228569 
2330	 0.173157402854224 
2331	 0.172620960143351 
2332	 0.171955141908357 
2333	 0.171089634620059 
2334	 0.17000893789667 
2335	 0.168934146880426 
2336	 0.167575282973838 
2337	 0.166178181880949 
2338	 0.164942693995732 
2339	 0.163485762411493 
2340	 0.162227951071623 
2341	 0.160935543635605 
2342	 0.159386250351202 
2343	 0.158188065884193 
2344	 0.157081287720544 
2345	 0.156113928268358 
2346	 0.155714172351903 
2347	 0.155651882644428 
2348	 0.155809198354691 
2349	 0.156429752252633 
2350	 0.157498787033363 
2351	 0.158690161103057 
2352	 0.159913335802617 
2353	 0.161295947081027 
2354	 0.162360477021284 
2355	 0.163529710217031 
2356	 0.165071646421123 
2357	 0.166279109190218 
2358	 0.167420292254591 
2359	 0.168342284634671 
2360	 0.168632865850209 
2361	 0.16902036475182 
2362	 0.169438381757347 
2363	 0.169414834644404 
2364	 0.169682766723416 
2365	 0.169723407572022 
2366	 0.169422984524822 
2367	 0.169487728943244 
2368	 0.169209245550184 
2369	 0.168887785482287 
2370	 0.168786396784386 
2371	 0.16849067091638 
2372	 0.168509909185137 
2373	 0.168793252777466 
2374	 0.169047645928195 
2375	 0.169251150026716 
2376	 0.168955042065721 
2377	 0.168551062756284 
2378	 0.168726494103082 
2379	 0.168820645347817 
2380	 0.168964354112154 
2381	 0.169396601858396 
2382	 0.169479406152338 
2383	 0.168994491984764 
2384	 0.168999425423789 
2385	 0.169272456058733 
2386	 0.169303176890325 
2387	 0.169146117552874 
2388	 0.169419655682964 
2389	 0.169784383011758 
2390	 0.170106888074912 
2391	 0.171068189912087 
2392	 0.17121514982106 
2393	 0.170745726194564 
2394	 0.170704688775238 
2395	 0.170395057612078 
2396	 0.170398605190815 
2397	 0.170737223797443 
2398	 0.170952725107599 
2399	 0.171283444220554 
2400	 0.1712595733325 
2401	 0.171037921738476 
2402	 0.170775925877818 
2403	 0.170884705738533 
2404	 0.170991283266714 
2405	 0.171083167417191 
2406	 0.171207019046916 
2407	 0.170864449082063 
2408	 0.170673311761055 
2409	 0.170805629751823 
2410	 0.171149525932959 
2411	 0.171525055899136 
2412	 0.171324470150397 
2413	 0.171487819293902 
2414	 0.171390893381438 
2415	 0.170777694875905 
2416	 0.171164099417231 
2417	 0.171270972328353 
2418	 0.171227567842611 
2419	 0.171621720426799 
2420	 0.171553761380497 
2421	 0.171562221531008 
2422	 0.171518186371843 
2423	 0.171113973126014 
2424	 0.171040406748549 
2425	 0.171349198581505 
2426	 0.171330328096766 
2427	 0.171047358561681 
2428	 0.170614820531775 
2429	 0.170132271135799 
2430	 0.170194654617438 
2431	 0.170439365735476 
2432	 0.170827141379004 
2433	 0.170719757863306 
2434	 0.169734839464092 
2435	 0.169499342421175 
2436	 0.16955977786239 
2437	 0.169347190121527 
2438	 0.169448547218095 
2439	 0.169388465506633 
2440	 0.169212818126848 
2441	 0.168896321635686 
2442	 0.16848650311391 
2443	 0.16821604207028 
2444	 0.167933397896532 
2445	 0.167769046512029 
2446	 0.167558626174963 
2447	 0.167278258320321 
2448	 0.166888968237838 
2449	 0.166338224901674 
2450	 0.166064754004341 
2451	 0.165505950363582 
2452	 0.164291035439217 
2453	 0.163520510573427 
2454	 0.163147420132505 
2455	 0.162645931615429 
2456	 0.162503765731818 
2457	 0.162233686651614 
2458	 0.162093655506993 
2459	 0.162544120286967 
2460	 0.162423091237878 
2461	 0.162486140512198 
2462	 0.162517880996725 
2463	 0.161201400934507 
2464	 0.160870476161933 
2465	 0.161107293420548 
2466	 0.160191761132372 
2467	 0.159867410815665 
2468	 0.159501525588886 
2469	 0.158140570750181 
2470	 0.156666441995049 
2471	 0.155851571872402 
2472	 0.155834177069347 
2473	 0.156298482793363 
2474	 0.157679179806577 
2475	 0.158843579230908 
2476	 0.158516820582382 
2477	 0.158296308972027 
2478	 0.158397495096056 
2479	 0.158094267382363 
2480	 0.158331990239372 
2481	 0.158506862469918 
2482	 0.158266607040327 
2483	 0.158412532306166 
2484	 0.158589200362465 
2485	 0.158487587904064 
2486	 0.158372151754745 
2487	 0.158318819228786 
2488	 0.158039954283926 
2489	 0.157501397494745 
2490	 0.157257312835773 
2491	 0.15726503738505 
2492	 0.157990926913505 
2493	 0.158823025728352 
2494	 0.158658164522194 
2495	 0.158728634407936 
2496	 0.15924947822591 
2497	 0.159907391086151 
2498	 0.161050839252097 
2499	 0.162484557124673 
2500	 0.161834585158724 
