Wavelength	Tablay400126.asd
350	 0.494646179868683 
351	 0.376453214887451 
352	 0.314743369160033 
353	 0.396740926913665 
354	 0.382710845688583 
355	 0.347923782307943 
356	 0.323352975930946 
357	 0.31249251325035 
358	 0.267204522464718 
359	 0.299131720908676 
360	 0.356464092964917 
361	 0.318136651134471 
362	 0.311683677591345 
363	 0.334704736787401 
364	 0.365282374978846 
365	 0.366674488769195 
366	 0.333600497067638 
367	 0.317356958368514 
368	 0.342805937374753 
369	 0.333814889442054 
370	 0.323159272885096 
371	 0.319342561597253 
372	 0.317106820736993 
373	 0.277654519128666 
374	 0.264497738330617 
375	 0.29314931118846 
376	 0.281903900460592 
377	 0.268708653025063 
378	 0.275103802800286 
379	 0.293324055398334 
380	 0.235625747677062 
381	 0.228182046079125 
382	 0.262907051131859 
383	 0.252898125288006 
384	 0.244476377520167 
385	 0.258779236803365 
386	 0.288460209105033 
387	 0.286274418858516 
388	 0.259670214070906 
389	 0.243087671236863 
390	 0.258459926456062 
391	 0.254579534083278 
392	 0.250111747021158 
393	 0.256054178665124 
394	 0.272929459578468 
395	 0.245941979409489 
396	 0.237858684153244 
397	 0.266825251083116 
398	 0.258825551670458 
399	 0.256843753075516 
400	 0.256313817289919 
401	 0.246319554079127 
402	 0.243169809279262 
403	 0.241610999250162 
404	 0.24535191682368 
405	 0.262785857477951 
406	 0.273928604818713 
407	 0.274811369517316 
408	 0.268761550468459 
409	 0.266811797884629 
410	 0.267391846545223 
411	 0.270369940470245 
412	 0.273777167593026 
413	 0.267076680346992 
414	 0.25555582887471 
415	 0.250501669834403 
416	 0.264748185459937 
417	 0.272633730644526 
418	 0.270146168209887 
419	 0.262418718647757 
420	 0.266199326770272 
421	 0.26325628032918 
422	 0.263532174712211 
423	 0.280476332777497 
424	 0.276626782243325 
425	 0.273754145877875 
426	 0.276278442283645 
427	 0.265262108101058 
428	 0.271237417023649 
429	 0.278914324690968 
430	 0.273958892336574 
431	 0.272802116120959 
432	 0.275995386355246 
433	 0.280915258051 
434	 0.283652663229596 
435	 0.287464802174104 
436	 0.289615177837167 
437	 0.288677017219458 
438	 0.285836400801587 
439	 0.286373883066454 
440	 0.28930093499358 
441	 0.292076082369557 
442	 0.295081953146646 
443	 0.295301427976845 
444	 0.293606045860361 
445	 0.293794921477177 
446	 0.295816063507652 
447	 0.299008334466466 
448	 0.302338149935802 
449	 0.30458817706338 
450	 0.304179684724243 
451	 0.303948974724813 
452	 0.307201247773616 
453	 0.309616932706676 
454	 0.309479692452312 
455	 0.308547918195682 
456	 0.311805263950616 
457	 0.312754824857059 
458	 0.312939549172628 
459	 0.31440310036253 
460	 0.315516122697239 
461	 0.316587628693186 
462	 0.318098712496637 
463	 0.32055001007765 
464	 0.32395463915621 
465	 0.324872444045121 
466	 0.323493430337678 
467	 0.325749162471058 
468	 0.32782134532236 
469	 0.329340097696016 
470	 0.330894618498098 
471	 0.333265934501762 
472	 0.333602506678757 
473	 0.332544454326204 
474	 0.333369924956383 
475	 0.336580074069387 
476	 0.338152349978514 
477	 0.336975022518564 
478	 0.339648844748282 
479	 0.341430744139226 
480	 0.342575692513332 
481	 0.344487650059076 
482	 0.343585307821043 
483	 0.34427863856169 
484	 0.346745384874431 
485	 0.346084785452881 
486	 0.347231149911819 
487	 0.3497250464992 
488	 0.351954773971599 
489	 0.352644259755022 
490	 0.352863896033911 
491	 0.35361125893207 
492	 0.355476608265276 
493	 0.355869666335976 
494	 0.357062519831239 
495	 0.359354764312187 
496	 0.358949925509455 
497	 0.35966089798116 
498	 0.361353638951548 
499	 0.362813487459871 
500	 0.363569554377117 
501	 0.365376203127576 
502	 0.367651109301076 
503	 0.3679568664961 
504	 0.368832027002359 
505	 0.369864357368982 
506	 0.37071917720518 
507	 0.372694296584876 
508	 0.373358424095497 
509	 0.374136118828099 
510	 0.377234452063904 
511	 0.37800101373365 
512	 0.378277680276439 
513	 0.37935321989513 
514	 0.381122476313881 
515	 0.382024170810922 
516	 0.3827978862108 
517	 0.384363299639786 
518	 0.386205922609918 
519	 0.387477115500729 
520	 0.388164967000859 
521	 0.388877817446964 
522	 0.390199232968315 
523	 0.391682890885029 
524	 0.393071793255619 
525	 0.394877293324297 
526	 0.396128526420314 
527	 0.396869395155664 
528	 0.397570894012339 
529	 0.398760477526256 
530	 0.400010511693617 
531	 0.401317214073438 
532	 0.403142083405648 
533	 0.404294567228157 
534	 0.405179229129467 
535	 0.406292007486443 
536	 0.407350880306565 
537	 0.408273083923226 
538	 0.409329137715502 
539	 0.410810695234152 
540	 0.411331893655882 
541	 0.41193521593046 
542	 0.413145873783504 
543	 0.41427610434559 
544	 0.4151573322874 
545	 0.415835937637548 
546	 0.416490619985635 
547	 0.417437684897028 
548	 0.418431040244012 
549	 0.419183328938462 
550	 0.419454296043468 
551	 0.420295057632593 
552	 0.421198475282818 
553	 0.421758243205605 
554	 0.422608401861356 
555	 0.423071929832977 
556	 0.423484202721213 
557	 0.424509551831927 
558	 0.425438946108104 
559	 0.426199619233108 
560	 0.426827992554439 
561	 0.427423494848996 
562	 0.427901821088058 
563	 0.428398006611729 
564	 0.42908687253432 
565	 0.43012573699797 
566	 0.430884285614288 
567	 0.431297174788652 
568	 0.431746074766687 
569	 0.432526061441975 
570	 0.432756675829495 
571	 0.432227502024517 
572	 0.432464186160304 
573	 0.432840817324196 
574	 0.433169436549445 
575	 0.433427587993988 
576	 0.433805312541845 
577	 0.434002945798529 
578	 0.434045521489622 
579	 0.434346165090906 
580	 0.434843466712892 
581	 0.435137787633154 
582	 0.43505011991975 
583	 0.435278420040935 
584	 0.435832599394067 
585	 0.436336483764853 
586	 0.436311943538911 
587	 0.436681363929262 
588	 0.436954306150217 
589	 0.436883438862283 
590	 0.43686189327213 
591	 0.437206672732967 
592	 0.437524502578195 
593	 0.437428892021858 
594	 0.437626027797235 
595	 0.437844253949991 
596	 0.437974521858679 
597	 0.438076396332674 
598	 0.43814661286282 
599	 0.438267465831588 
600	 0.438444663684209 
601	 0.438474619371137 
602	 0.43840909142018 
603	 0.438411568069954 
604	 0.438617562291379 
605	 0.438611253126246 
606	 0.438512156783388 
607	 0.438539256975903 
608	 0.438969074631703 
609	 0.438988499317386 
610	 0.438777692059807 
611	 0.438663535750965 
612	 0.438526662820443 
613	 0.438551189984168 
614	 0.438715826634078 
615	 0.438852143400301 
616	 0.438788613782154 
617	 0.438693789144195 
618	 0.438645088033016 
619	 0.438449732274232 
620	 0.438585872899437 
621	 0.438756490976461 
622	 0.438558051563134 
623	 0.438388303526518 
624	 0.438426334494012 
625	 0.438532376862743 
626	 0.438316163546657 
627	 0.438269512902033 
628	 0.438261139229509 
629	 0.438160784403285 
630	 0.438132597388684 
631	 0.438154937390117 
632	 0.438103260075025 
633	 0.437877004788642 
634	 0.437875128806213 
635	 0.437963026345162 
636	 0.437936701248405 
637	 0.43757466234891 
638	 0.437614643743621 
639	 0.43765858917019 
640	 0.437318633084305 
641	 0.437194025229687 
642	 0.437066501868619 
643	 0.436982248526151 
644	 0.437084390449016 
645	 0.436830188546544 
646	 0.436709176670109 
647	 0.436860313131557 
648	 0.436651599467606 
649	 0.436375460435178 
650	 0.436227604980342 
651	 0.436271957403622 
652	 0.436130229368423 
653	 0.435979202461492 
654	 0.435828808543218 
655	 0.435564534765153 
656	 0.435451319067805 
657	 0.435449256367025 
658	 0.4353999848678 
659	 0.434970291104658 
660	 0.434740332041976 
661	 0.434654325614499 
662	 0.434466912545853 
663	 0.434339513307727 
664	 0.434109316318083 
665	 0.433849900359304 
666	 0.43386119377511 
667	 0.433705937857272 
668	 0.433447765182101 
669	 0.433199560287185 
670	 0.432906290618527 
671	 0.432790975737402 
672	 0.432712974956222 
673	 0.432427704134883 
674	 0.432237936384392 
675	 0.432020504251565 
676	 0.431782986448242 
677	 0.431723190439404 
678	 0.431461137179093 
679	 0.431143553161548 
680	 0.430977449293144 
681	 0.430992304128106 
682	 0.430788155012545 
683	 0.430437954283177 
684	 0.430241183631903 
685	 0.42997004480927 
686	 0.429758557727479 
687	 0.429616235260091 
688	 0.429331302546989 
689	 0.429169660335957 
690	 0.428990994084843 
691	 0.428666001145768 
692	 0.428478830823455 
693	 0.428303592726617 
694	 0.428109190300872 
695	 0.427921722439526 
696	 0.427700640373416 
697	 0.427415321109784 
698	 0.427073864239095 
699	 0.426729536830911 
700	 0.426629624049723 
701	 0.426543769174813 
702	 0.426246894459889 
703	 0.426103837941643 
704	 0.425897268316277 
705	 0.425640944431914 
706	 0.425493601584414 
707	 0.425303073716769 
708	 0.425127318989976 
709	 0.424965159747256 
710	 0.424666006899547 
711	 0.424498973639297 
712	 0.424403598091563 
713	 0.424245303212965 
714	 0.424012757527321 
715	 0.423899031469418 
716	 0.423816034146857 
717	 0.423516932671131 
718	 0.423369538953718 
719	 0.423275135232285 
720	 0.423128163733948 
721	 0.422913329930188 
722	 0.422867495601923 
723	 0.422823311568288 
724	 0.422594363964855 
725	 0.422421080095148 
726	 0.422390787843609 
727	 0.422388806374532 
728	 0.422202123223142 
729	 0.422155695735531 
730	 0.422103380750226 
731	 0.421961554377566 
732	 0.42184703377311 
733	 0.42178124232074 
734	 0.421740218515024 
735	 0.421695687404749 
736	 0.421680116718657 
737	 0.421617834374068 
738	 0.42151842837032 
739	 0.421458723722089 
740	 0.421550577933866 
741	 0.42169520666272 
742	 0.421788694611128 
743	 0.421762153188919 
744	 0.421810276446605 
745	 0.421919575654967 
746	 0.422031638951876 
747	 0.422163147721845 
748	 0.422189912310995 
749	 0.42220697043808 
750	 0.422389784745792 
751	 0.42247436794129 
752	 0.422524633725671 
753	 0.422598805496454 
754	 0.422702675272537 
755	 0.422951669875544 
756	 0.423163788753709 
757	 0.423217391105762 
758	 0.423355503286314 
759	 0.423523065906778 
760	 0.423719379896147 
761	 0.423953893987725 
762	 0.424169463774214 
763	 0.424369017836532 
764	 0.424574665616815 
765	 0.424819647133738 
766	 0.425037862724348 
767	 0.425319209363819 
768	 0.42568934907651 
769	 0.425961466836956 
770	 0.426217481909586 
771	 0.426505527398399 
772	 0.426833019678425 
773	 0.427047172116524 
774	 0.427372773288619 
775	 0.427787951359734 
776	 0.428078417336961 
777	 0.428411167407442 
778	 0.428687994120146 
779	 0.428932920125499 
780	 0.429436973609986 
781	 0.42979164326121 
782	 0.430055623021359 
783	 0.430390598084542 
784	 0.430821565795048 
785	 0.431150741956565 
786	 0.431436715843598 
787	 0.43184366377896 
788	 0.432095152537298 
789	 0.432503599366639 
790	 0.433070397180804 
791	 0.433392256264253 
792	 0.433808403576408 
793	 0.434232890628926 
794	 0.434567817166592 
795	 0.434890452452238 
796	 0.435234836326286 
797	 0.435604217760121 
798	 0.435972300328738 
799	 0.436260639018223 
800	 0.436550559129843 
801	 0.43687321088391 
802	 0.437215926311419 
803	 0.437614370358782 
804	 0.43798086879856 
805	 0.438288655602644 
806	 0.438624768017638 
807	 0.438815671924483 
808	 0.43907211563266 
809	 0.439552164718518 
810	 0.440006117342689 
811	 0.440241826590762 
812	 0.440412515585175 
813	 0.440770710009086 
814	 0.441124740745752 
815	 0.441298954949211 
816	 0.441418664440402 
817	 0.44181489916906 
818	 0.441954385768941 
819	 0.442159798382143 
820	 0.442551192480085 
821	 0.442713276778687 
822	 0.442943345725629 
823	 0.443128025361932 
824	 0.443196040724669 
825	 0.443547812695264 
826	 0.443788602207501 
827	 0.443952472760216 
828	 0.444226554446481 
829	 0.444442383994099 
830	 0.444562385261048 
831	 0.444644148415995 
832	 0.444806941409392 
833	 0.444971128448494 
834	 0.445080796570912 
835	 0.445148205525114 
836	 0.445280826315062 
837	 0.44549348608151 
838	 0.445568391787129 
839	 0.445432608301211 
840	 0.445575719368859 
841	 0.445663565510412 
842	 0.445714240732913 
843	 0.445838295475251 
844	 0.445872498658406 
845	 0.445901241103497 
846	 0.445961604879742 
847	 0.446031185909752 
848	 0.445968784946918 
849	 0.445892970790853 
850	 0.445878109314464 
851	 0.445899178886886 
852	 0.44589914421317 
853	 0.445842642667742 
854	 0.445776640209491 
855	 0.445916288233234 
856	 0.445869165729745 
857	 0.445659128181901 
858	 0.445476928287128 
859	 0.44557997143306 
860	 0.445592254498669 
861	 0.44544097551233 
862	 0.445247296979812 
863	 0.445170601740733 
864	 0.445150252811377 
865	 0.445118315185207 
866	 0.445028503509353 
867	 0.444946743715801 
868	 0.444933199472649 
869	 0.444940881820866 
870	 0.444793594919752 
871	 0.444719357447753 
872	 0.444645108104005 
873	 0.444481974352888 
874	 0.444245312536116 
875	 0.444102531131896 
876	 0.444064707675073 
877	 0.444048841862651 
878	 0.443861065078105 
879	 0.4436880690844 
880	 0.443657783517558 
881	 0.443754648083039 
882	 0.443406983199637 
883	 0.443317586874589 
884	 0.443371406116467 
885	 0.442920960013115 
886	 0.442820789437586 
887	 0.442915210759943 
888	 0.442945074636555 
889	 0.442710719505613 
890	 0.442629774182213 
891	 0.44250163024442 
892	 0.4422672492603 
893	 0.442290054388022 
894	 0.442063539997481 
895	 0.441751159159445 
896	 0.441628174773855 
897	 0.441829007780126 
898	 0.441760168562872 
899	 0.441499401892744 
900	 0.441317901526282 
901	 0.441209003788993 
902	 0.441085118126493 
903	 0.440959613553642 
904	 0.440873330081589 
905	 0.440718256002402 
906	 0.440544244145693 
907	 0.440318639367842 
908	 0.440020839958418 
909	 0.440232711028898 
910	 0.440248831785286 
911	 0.439939550075441 
912	 0.439852921455925 
913	 0.439864757941564 
914	 0.43987281960765 
915	 0.439802386511863 
916	 0.439633299460027 
917	 0.439494789384734 
918	 0.439381025224839 
919	 0.439322109224441 
920	 0.439471651338376 
921	 0.43917712397365 
922	 0.438995706033111 
923	 0.439317207379035 
924	 0.439282063806762 
925	 0.439536825187199 
926	 0.439612541620676 
927	 0.439136152779699 
928	 0.439250350823592 
929	 0.439208579648564 
930	 0.439105766121101 
931	 0.439246155839011 
932	 0.43922644845928 
933	 0.439180807424565 
934	 0.439150820176169 
935	 0.439142714116801 
936	 0.439312264147632 
937	 0.439306620940604 
938	 0.439181573989625 
939	 0.439270389860805 
940	 0.439610972376137 
941	 0.439733941879458 
942	 0.439613826599692 
943	 0.439618489638978 
944	 0.439627940933058 
945	 0.439785638437409 
946	 0.439949918646934 
947	 0.439729668788584 
948	 0.439526251431715 
949	 0.439621196186717 
950	 0.439909900603614 
951	 0.439889146744531 
952	 0.43997048744947 
953	 0.439934600188629 
954	 0.439762106266424 
955	 0.439849148234588 
956	 0.439806658764951 
957	 0.439852737625494 
958	 0.440070073382967 
959	 0.44011437742189 
960	 0.439859860724085 
961	 0.439822629066013 
962	 0.440189379792507 
963	 0.440223300901255 
964	 0.440136725253754 
965	 0.439968573828006 
966	 0.439798069479033 
967	 0.439840047869856 
968	 0.440152010692017 
969	 0.440197603302717 
970	 0.439861324873553 
971	 0.440493633836348 
972	 0.440553702529329 
973	 0.440272736507281 
974	 0.440233250316696 
975	 0.440389116611825 
976	 0.440338105579729 
977	 0.440072492099077 
978	 0.439825582009729 
979	 0.440081603169086 
980	 0.440291139521799 
981	 0.440314934009258 
982	 0.440230334788408 
983	 0.440296298097898 
984	 0.440245931844113 
985	 0.440244088178141 
986	 0.440439937437552 
987	 0.44042419976916 
988	 0.440443120745119 
989	 0.440525537266769 
990	 0.440573080537217 
991	 0.440318226312021 
992	 0.440413687194776 
993	 0.440522352057972 
994	 0.44027943299728 
995	 0.440529089667557 
996	 0.440630451097752 
997	 0.440815621609969 
998	 0.44121628183489 
999	 0.440521111802027 
1000	 0.440597607718121 
1001	 0.442140866086746 
1002	 0.442297022674482 
1003	 0.442678226763331 
1004	 0.442735819973976 
1005	 0.442515014667783 
1006	 0.442614572696009 
1007	 0.442823080512018 
1008	 0.442805509555116 
1009	 0.442851369796567 
1010	 0.4428079271108 
1011	 0.442426685075761 
1012	 0.442360219691324 
1013	 0.442539409248908 
1014	 0.442567934754062 
1015	 0.442552553140621 
1016	 0.442672578925528 
1017	 0.442672076701706 
1018	 0.44259041030075 
1019	 0.442754938434457 
1020	 0.442841317884758 
1021	 0.442806565092176 
1022	 0.442651376080078 
1023	 0.442642823091404 
1024	 0.44265584607425 
1025	 0.442600267769459 
1026	 0.442642500779922 
1027	 0.442646926488783 
1028	 0.442617194235899 
1029	 0.442315178533828 
1030	 0.442273281573143 
1031	 0.442363839602693 
1032	 0.442263080117071 
1033	 0.44227057761756 
1034	 0.442417269521177 
1035	 0.442403516097096 
1036	 0.442363048834288 
1037	 0.442337578849084 
1038	 0.442291674340944 
1039	 0.442117957953477 
1040	 0.44207199766534 
1041	 0.442112354547855 
1042	 0.442073791686776 
1043	 0.441989416386559 
1044	 0.442063249172873 
1045	 0.441901959260653 
1046	 0.4418404403285 
1047	 0.441899139976166 
1048	 0.441646216832289 
1049	 0.441584700321667 
1050	 0.441774141064744 
1051	 0.44184041474746 
1052	 0.441947978729164 
1053	 0.441987310076977 
1054	 0.441892837075022 
1055	 0.441877735681134 
1056	 0.44195897226126 
1057	 0.441982052019286 
1058	 0.44196148020251 
1059	 0.441974461982247 
1060	 0.442123300585803 
1061	 0.441996528517608 
1062	 0.442070958627205 
1063	 0.442265943966609 
1064	 0.442297412930087 
1065	 0.442315979200853 
1066	 0.442191824621282 
1067	 0.44216039759317 
1068	 0.442226832017771 
1069	 0.442272580108739 
1070	 0.442434002198338 
1071	 0.442796571594284 
1072	 0.442950668399441 
1073	 0.44296350825955 
1074	 0.443130399734656 
1075	 0.443066202302869 
1076	 0.443044307957078 
1077	 0.443166294332088 
1078	 0.443269960420732 
1079	 0.443404217033512 
1080	 0.443491104970154 
1081	 0.443623674177226 
1082	 0.443800599628498 
1083	 0.443917817665361 
1084	 0.444058099439187 
1085	 0.444373897552961 
1086	 0.44454409260157 
1087	 0.444630791694982 
1088	 0.444620116019464 
1089	 0.444754602800377 
1090	 0.444759502787378 
1091	 0.444802953661094 
1092	 0.445041453074308 
1093	 0.44516451801302 
1094	 0.44526978886695 
1095	 0.445437862843083 
1096	 0.445519583894089 
1097	 0.44566257880446 
1098	 0.445895762803345 
1099	 0.445977574319251 
1100	 0.446033434602993 
1101	 0.446191580042218 
1102	 0.446220439962526 
1103	 0.446286736251669 
1104	 0.446349960287961 
1105	 0.446549318253547 
1106	 0.446602591498035 
1107	 0.44670198816357 
1108	 0.446929850579591 
1109	 0.447037232816995 
1110	 0.447211028022966 
1111	 0.447512843063891 
1112	 0.447632980860258 
1113	 0.447713011409158 
1114	 0.447820705371745 
1115	 0.44777293546284 
1116	 0.447817412332667 
1117	 0.447893225501124 
1118	 0.447971687691265 
1119	 0.448107495557753 
1120	 0.448222010405816 
1121	 0.448292010326886 
1122	 0.448435203838013 
1123	 0.448679054970788 
1124	 0.448820718059678 
1125	 0.448921397587895 
1126	 0.449060590344382 
1127	 0.449186650715293 
1128	 0.449267901302591 
1129	 0.449383429796236 
1130	 0.449580071630649 
1131	 0.449736031104734 
1132	 0.449817790244303 
1133	 0.449920634041322 
1134	 0.449999346116566 
1135	 0.450116711920506 
1136	 0.450221838610355 
1137	 0.450334890259585 
1138	 0.45054195832866 
1139	 0.450656144205182 
1140	 0.450655699899075 
1141	 0.450737539751574 
1142	 0.450956754751846 
1143	 0.451101963513838 
1144	 0.4512757362815 
1145	 0.451425504060692 
1146	 0.451473567016299 
1147	 0.451518804003359 
1148	 0.451544048623924 
1149	 0.45161151185942 
1150	 0.451730306650302 
1151	 0.451871790258173 
1152	 0.451992099928108 
1153	 0.452160824422038 
1154	 0.452279994659891 
1155	 0.452344961262087 
1156	 0.452419561749033 
1157	 0.452522163810436 
1158	 0.452598871612779 
1159	 0.452646036377539 
1160	 0.452662589148784 
1161	 0.452752139920363 
1162	 0.452941316824443 
1163	 0.453120956281428 
1164	 0.453268091331463 
1165	 0.453391805468917 
1166	 0.453356969683124 
1167	 0.453379077369936 
1168	 0.453529633217353 
1169	 0.453595571414699 
1170	 0.453644424618887 
1171	 0.453747228757256 
1172	 0.453821719596299 
1173	 0.453929374914949 
1174	 0.454099271313255 
1175	 0.45424675936596 
1176	 0.454378422893588 
1177	 0.4545427545999 
1178	 0.454751024986425 
1179	 0.454958357757953 
1180	 0.455064678600073 
1181	 0.45512622063495 
1182	 0.455238785240913 
1183	 0.455369442791566 
1184	 0.45545626596161 
1185	 0.455588740201569 
1186	 0.455724730315839 
1187	 0.455775216739498 
1188	 0.455927574456926 
1189	 0.456176506298313 
1190	 0.456395629207961 
1191	 0.456623233202769 
1192	 0.456853157531 
1193	 0.45710210601106 
1194	 0.457357483092059 
1195	 0.457601747779742 
1196	 0.457861443024754 
1197	 0.458119435072182 
1198	 0.458453185453929 
1199	 0.458732186394539 
1200	 0.458955664999045 
1201	 0.45924456114629 
1202	 0.459535091466997 
1203	 0.459830729689865 
1204	 0.460194625505859 
1205	 0.460611192132863 
1206	 0.46105806664527 
1207	 0.461536865371794 
1208	 0.462124504204253 
1209	 0.462644538377126 
1210	 0.463105625540937 
1211	 0.463660784340555 
1212	 0.464247674127845 
1213	 0.464856196974574 
1214	 0.465501419895013 
1215	 0.466207253204393 
1216	 0.466960718284818 
1217	 0.46770797876449 
1218	 0.468548753460406 
1219	 0.469319368086057 
1220	 0.470029160698051 
1221	 0.470863564373492 
1222	 0.471698245392769 
1223	 0.472553108787145 
1224	 0.473401427483247 
1225	 0.474298474879353 
1226	 0.47509565771204 
1227	 0.475839411623579 
1228	 0.476612112338678 
1229	 0.477364065090169 
1230	 0.478093941359856 
1231	 0.478827199691734 
1232	 0.479539037559393 
1233	 0.480195956875116 
1234	 0.480882454020338 
1235	 0.481605775848516 
1236	 0.482288251329465 
1237	 0.4829437177154 
1238	 0.483595919241769 
1239	 0.484204157399487 
1240	 0.484869007351496 
1241	 0.485474150514432 
1242	 0.48605273501214 
1243	 0.48668104362835 
1244	 0.487289027546677 
1245	 0.487941282857399 
1246	 0.488689062270359 
1247	 0.489322350658854 
1248	 0.489893100555133 
1249	 0.490516252590543 
1250	 0.491131074811397 
1251	 0.491717669452072 
1252	 0.49233526251594 
1253	 0.492919673378723 
1254	 0.493468018232529 
1255	 0.493988988864943 
1256	 0.494489165817077 
1257	 0.494988002823717 
1258	 0.495429410232935 
1259	 0.495894153056581 
1260	 0.496394174970612 
1261	 0.496879143149767 
1262	 0.497324198771234 
1263	 0.497800761046488 
1264	 0.49832799653647 
1265	 0.498899137725758 
1266	 0.499415003383761 
1267	 0.499947035398516 
1268	 0.500488306187911 
1269	 0.500993892331156 
1270	 0.501521351979622 
1271	 0.502110934812731 
1272	 0.50264213906319 
1273	 0.503081982648727 
1274	 0.503633243820577 
1275	 0.504261180951263 
1276	 0.504824600130294 
1277	 0.505403402597106 
1278	 0.50598451652998 
1279	 0.506513347943787 
1280	 0.507072689495847 
1281	 0.507691822748121 
1282	 0.508277568287039 
1283	 0.5088265440981 
1284	 0.509393049493227 
1285	 0.509963292231549 
1286	 0.51051875469115 
1287	 0.511133640348585 
1288	 0.511767502114851 
1289	 0.512438338123297 
1290	 0.513190557754751 
1291	 0.513849725991897 
1292	 0.514491885536579 
1293	 0.515129830404389 
1294	 0.515704715453665 
1295	 0.516335653664404 
1296	 0.517047955125497 
1297	 0.517647857083457 
1298	 0.51816123630302 
1299	 0.518754810879984 
1300	 0.519297193871161 
1301	 0.519908264374519 
1302	 0.520655638219503 
1303	 0.521314218357999 
1304	 0.521967212574686 
1305	 0.522572097270345 
1306	 0.523086399460227 
1307	 0.523649323141338 
1308	 0.524186742840444 
1309	 0.524782442232233 
1310	 0.525301158824294 
1311	 0.52580078991914 
1312	 0.526365963846832 
1313	 0.526917349589174 
1314	 0.527463731340016 
1315	 0.528096190574214 
1316	 0.528628613852093 
1317	 0.529088530240896 
1318	 0.52953992039387 
1319	 0.529955741579786 
1320	 0.53039860468942 
1321	 0.530816427517681 
1322	 0.531234980021546 
1323	 0.531680333462741 
1324	 0.532105409624585 
1325	 0.532500422100491 
1326	 0.532903205504758 
1327	 0.533325891080557 
1328	 0.533719452390386 
1329	 0.534089718048933 
1330	 0.534454956125682 
1331	 0.534823744872675 
1332	 0.53515741823083 
1333	 0.535436453587553 
1334	 0.535765257807494 
1335	 0.536060497717233 
1336	 0.53631965332069 
1337	 0.536625500799338 
1338	 0.536980258036176 
1339	 0.537231167724095 
1340	 0.53744929532153 
1341	 0.537674646981165 
1342	 0.537864666418077 
1343	 0.538022569278753 
1344	 0.538167448824276 
1345	 0.538327528868645 
1346	 0.538472903762468 
1347	 0.53856189979959 
1348	 0.538626987463472 
1349	 0.538729621342574 
1350	 0.538798358364621 
1351	 0.53886176557637 
1352	 0.538985165968311 
1353	 0.539067633852286 
1354	 0.539055079082243 
1355	 0.539105748435245 
1356	 0.539214280370314 
1357	 0.539292442709692 
1358	 0.539354334036631 
1359	 0.539437513418924 
1360	 0.539512909482508 
1361	 0.53961310312811 
1362	 0.539726026490394 
1363	 0.539848621903485 
1364	 0.539879828111589 
1365	 0.539860993240018 
1366	 0.539850457315538 
1367	 0.539780594725042 
1368	 0.539755073143041 
1369	 0.539759698296587 
1370	 0.539727579774532 
1371	 0.539697177812582 
1372	 0.539616958999663 
1373	 0.53951945001483 
1374	 0.539384336362192 
1375	 0.539175376410978 
1376	 0.539025352682335 
1377	 0.538891910885809 
1378	 0.538724745267006 
1379	 0.538554611307292 
1380	 0.538388930561848 
1381	 0.538227049743717 
1382	 0.538012507223178 
1383	 0.5378222118832 
1384	 0.537558260507884 
1385	 0.537136113557444 
1386	 0.536833163591263 
1387	 0.536560898846065 
1388	 0.536298138752949 
1389	 0.536129864746704 
1390	 0.535910866259059 
1391	 0.535632310663393 
1392	 0.535382570052087 
1393	 0.535171219422585 
1394	 0.53499677142853 
1395	 0.53490608909029 
1396	 0.534923710484858 
1397	 0.534876254035846 
1398	 0.534908212997082 
1399	 0.534779652110036 
1400	 0.534620958101754 
1401	 0.534324419703571 
1402	 0.533907724841058 
1403	 0.533447947809004 
1404	 0.532914221844034 
1405	 0.532292406273671 
1406	 0.531594183884947 
1407	 0.530840176363301 
1408	 0.529951983445363 
1409	 0.529105002893319 
1410	 0.528195541553345 
1411	 0.527355021385949 
1412	 0.526546578767882 
1413	 0.525734620149283 
1414	 0.524959734512636 
1415	 0.524166009639188 
1416	 0.523308616598783 
1417	 0.522540220546079 
1418	 0.521868086571654 
1419	 0.521122895121559 
1420	 0.520373633124161 
1421	 0.519644400414889 
1422	 0.518839281567532 
1423	 0.518104280302842 
1424	 0.5174503837618 
1425	 0.516786536975107 
1426	 0.516160522630802 
1427	 0.515523259698102 
1428	 0.514890396352838 
1429	 0.514320698457151 
1430	 0.513657872205131 
1431	 0.512994326213059 
1432	 0.512233706374166 
1433	 0.511383914606043 
1434	 0.510547400875595 
1435	 0.509692343157267 
1436	 0.508747137889739 
1437	 0.507775313274353 
1438	 0.506735896522439 
1439	 0.505566142046723 
1440	 0.504466039926298 
1441	 0.503275255554294 
1442	 0.502278274579518 
1443	 0.501264394030689 
1444	 0.500514364832187 
1445	 0.49987642715044 
1446	 0.49952961908413 
1447	 0.499330534164281 
1448	 0.49949304046157 
1449	 0.500008526066024 
1450	 0.500676030207397 
1451	 0.501646601285507 
1452	 0.50275585796441 
1453	 0.504121585327154 
1454	 0.505498433759778 
1455	 0.507101665359051 
1456	 0.508644458063729 
1457	 0.510264782400946 
1458	 0.511790320160925 
1459	 0.513311952583834 
1460	 0.514765221344863 
1461	 0.51614361598248 
1462	 0.517456227292637 
1463	 0.518710471879681 
1464	 0.519929434697379 
1465	 0.521030135274474 
1466	 0.522188512760217 
1467	 0.523337413288695 
1468	 0.524394245185381 
1469	 0.525389954182565 
1470	 0.526322987365447 
1471	 0.527273285559963 
1472	 0.528166406784851 
1473	 0.52907048920309 
1474	 0.530012157301461 
1475	 0.530862635482233 
1476	 0.531648294133797 
1477	 0.532447571963736 
1478	 0.533250917211736 
1479	 0.533941720704282 
1480	 0.534605033264646 
1481	 0.535168524583067 
1482	 0.535631440780867 
1483	 0.536043453531645 
1484	 0.536371252942886 
1485	 0.536695387093741 
1486	 0.53692732811616 
1487	 0.537205619163108 
1488	 0.53743857176172 
1489	 0.537785762256194 
1490	 0.538127897686921 
1491	 0.538616038181107 
1492	 0.539215026245724 
1493	 0.539896797914164 
1494	 0.540683039341928 
1495	 0.541527820445785 
1496	 0.542475631802477 
1497	 0.54345467008059 
1498	 0.544517700948633 
1499	 0.545590313198221 
1500	 0.546697497590031 
1501	 0.547838656193901 
1502	 0.549067479064958 
1503	 0.550211851650736 
1504	 0.551402236080426 
1505	 0.552484867999022 
1506	 0.553478588356751 
1507	 0.554428161337595 
1508	 0.555312421432727 
1509	 0.556156239000525 
1510	 0.556970292768627 
1511	 0.557692185348942 
1512	 0.558315900314435 
1513	 0.558930117412997 
1514	 0.559472675683613 
1515	 0.559998990126222 
1516	 0.560489474777163 
1517	 0.560992364279898 
1518	 0.561504477944884 
1519	 0.56195623103155 
1520	 0.562369822697834 
1521	 0.562799849551056 
1522	 0.563208367969999 
1523	 0.563570884981417 
1524	 0.563878140742297 
1525	 0.564184983725488 
1526	 0.564432317803713 
1527	 0.564585069104635 
1528	 0.564752964382402 
1529	 0.564916889099618 
1530	 0.565064167342381 
1531	 0.565164915032803 
1532	 0.565286249677795 
1533	 0.565402732839375 
1534	 0.56556184102161 
1535	 0.565710377819917 
1536	 0.565916682755498 
1537	 0.566166707624462 
1538	 0.566461532416912 
1539	 0.566751844808323 
1540	 0.567183970228792 
1541	 0.567707847839746 
1542	 0.568287663078402 
1543	 0.568991060748949 
1544	 0.569661317177199 
1545	 0.570348248222229 
1546	 0.571099647879659 
1547	 0.571877444736293 
1548	 0.572710626769336 
1549	 0.573651454322241 
1550	 0.574518473895338 
1551	 0.57540773097664 
1552	 0.576240052862115 
1553	 0.577002254013048 
1554	 0.577822011391607 
1555	 0.578646507851992 
1556	 0.579466032450626 
1557	 0.580308134834291 
1558	 0.581142503692963 
1559	 0.581991354962517 
1560	 0.582774519551317 
1561	 0.583546582537462 
1562	 0.584285851179983 
1563	 0.584952875884467 
1564	 0.585632312178068 
1565	 0.586278693670562 
1566	 0.586981975974309 
1567	 0.587708441699102 
1568	 0.588412743119992 
1569	 0.589182843082156 
1570	 0.589868650753017 
1571	 0.590476675976032 
1572	 0.591105587401046 
1573	 0.591719917124773 
1574	 0.592319714473428 
1575	 0.592868455114286 
1576	 0.593494747516522 
1577	 0.594177920028617 
1578	 0.594803054706128 
1579	 0.595457686208987 
1580	 0.596082591914666 
1581	 0.59661252940587 
1582	 0.597212895906643 
1583	 0.597916992419556 
1584	 0.598503404851614 
1585	 0.599028151111457 
1586	 0.599578656036637 
1587	 0.600045303887987 
1588	 0.600577012353226 
1589	 0.601171162333852 
1590	 0.601752509549215 
1591	 0.602357974587461 
1592	 0.602935669465114 
1593	 0.60347838510053 
1594	 0.604078043242862 
1595	 0.604697484153596 
1596	 0.605304174325393 
1597	 0.605962671547945 
1598	 0.606583220555576 
1599	 0.607160819130975 
1600	 0.607753472854463 
1601	 0.608366243501241 
1602	 0.608945410547362 
1603	 0.60949081141643 
1604	 0.610051191061723 
1605	 0.610607863836598 
1606	 0.611150087356828 
1607	 0.611722254279898 
1608	 0.612237305215065 
1609	 0.612664789218278 
1610	 0.613163287326617 
1611	 0.613671457169508 
1612	 0.614179205448405 
1613	 0.614752676367232 
1614	 0.615270330751881 
1615	 0.615747568206628 
1616	 0.616224477075903 
1617	 0.61671550414996 
1618	 0.617150053061371 
1619	 0.61754427912569 
1620	 0.617917030763784 
1621	 0.618214468600352 
1622	 0.61854738557215 
1623	 0.618887424013527 
1624	 0.619231023535625 
1625	 0.619583120047973 
1626	 0.61993906734134 
1627	 0.620320005857331 
1628	 0.620659161534507 
1629	 0.620961075396696 
1630	 0.621293493959068 
1631	 0.621642322300653 
1632	 0.62194274644559 
1633	 0.622241232743914 
1634	 0.622534044005936 
1635	 0.622752217430061 
1636	 0.623018079483292 
1637	 0.623294553960383 
1638	 0.623618533905228 
1639	 0.624013259340185 
1640	 0.624357643165493 
1641	 0.624739117730206 
1642	 0.62507434458372 
1643	 0.625363864259608 
1644	 0.625617355194371 
1645	 0.6258890815374 
1646	 0.626053720962974 
1647	 0.626102366825962 
1648	 0.62616721247369 
1649	 0.626143843806455 
1650	 0.626176487582783 
1651	 0.626268695497848 
1652	 0.62630031559156 
1653	 0.626349162963214 
1654	 0.62631230555391 
1655	 0.626228039125383 
1656	 0.626069465578578 
1657	 0.625787436201366 
1658	 0.625559824906176 
1659	 0.625351473582854 
1660	 0.625044341098161 
1661	 0.624752585340183 
1662	 0.624351455706298 
1663	 0.623781949002482 
1664	 0.623234529880309 
1665	 0.622685901528697 
1666	 0.622043008665613 
1667	 0.621416935320819 
1668	 0.62061553671596 
1669	 0.61968582442527 
1670	 0.618666861661511 
1671	 0.617471651226892 
1672	 0.61626408760153 
1673	 0.615033324307809 
1674	 0.61363355523559 
1675	 0.61217076985875 
1676	 0.610575669311261 
1677	 0.608789539494801 
1678	 0.607007626645669 
1679	 0.605109634486023 
1680	 0.603187435675427 
1681	 0.601278951197954 
1682	 0.599194998332924 
1683	 0.59704380214091 
1684	 0.594800930428468 
1685	 0.592400105685474 
1686	 0.589972032443915 
1687	 0.587463020486758 
1688	 0.584885671157345 
1689	 0.582225846844677 
1690	 0.579483604521239 
1691	 0.57669293293952 
1692	 0.57385480568953 
1693	 0.57096829853876 
1694	 0.567980101411212 
1695	 0.564879049681681 
1696	 0.561737686896158 
1697	 0.558499860593044 
1698	 0.555197170205637 
1699	 0.551856645858033 
1700	 0.548555493005433 
1701	 0.545157269650063 
1702	 0.541890845678154 
1703	 0.538614663885666 
1704	 0.53549734079178 
1705	 0.532447309518446 
1706	 0.529402942107475 
1707	 0.526755753043525 
1708	 0.524211900107013 
1709	 0.521756391578602 
1710	 0.51964592968386 
1711	 0.517612039757046 
1712	 0.515684667751205 
1713	 0.513951362714775 
1714	 0.512313735641374 
1715	 0.510760952885299 
1716	 0.509162461901799 
1717	 0.50762149119206 
1718	 0.506076535497706 
1719	 0.504473618925043 
1720	 0.503047254091191 
1721	 0.501684284186731 
1722	 0.50034777944944 
1723	 0.49922943951884 
1724	 0.498235593243585 
1725	 0.497444515336351 
1726	 0.49696899394515 
1727	 0.496641193044115 
1728	 0.496528461156227 
1729	 0.49666972878152 
1730	 0.497016675720527 
1731	 0.497658527992238 
1732	 0.498586153978821 
1733	 0.499606605254779 
1734	 0.500746124134938 
1735	 0.501990984506878 
1736	 0.503220659176377 
1737	 0.504411070632493 
1738	 0.50546177695596 
1739	 0.506281995364562 
1740	 0.506933181123765 
1741	 0.507361629081062 
1742	 0.507559134151527 
1743	 0.507625910164443 
1744	 0.507418219134347 
1745	 0.507208881386378 
1746	 0.506881899694884 
1747	 0.506598799190423 
1748	 0.506212154322751 
1749	 0.505958243540536 
1750	 0.505637616102018 
1751	 0.505586445324637 
1752	 0.505691858992209 
1753	 0.505989378074266 
1754	 0.506539241299227 
1755	 0.507110235928639 
1756	 0.507812766563725 
1757	 0.508488533631429 
1758	 0.509402061353696 
1759	 0.510490364451221 
1760	 0.511682639942895 
1761	 0.513109412959888 
1762	 0.514540458448964 
1763	 0.516077764811991 
1764	 0.517717630285885 
1765	 0.5195514746404 
1766	 0.521631809912723 
1767	 0.523677931033078 
1768	 0.525939581087507 
1769	 0.528230457585596 
1770	 0.530349594862098 
1771	 0.532497337451975 
1772	 0.534465776400701 
1773	 0.53635693390018 
1774	 0.538210216117865 
1775	 0.539992550395022 
1776	 0.541753148582433 
1777	 0.543232618050691 
1778	 0.54457440775024 
1779	 0.545916566299842 
1780	 0.547080284972095 
1781	 0.548292300163785 
1782	 0.549548809292669 
1783	 0.550507081916255 
1784	 0.551576156232746 
1785	 0.5526615880979 
1786	 0.553633344204747 
1787	 0.554783110225354 
1788	 0.555663679839544 
1789	 0.556234798567106 
1790	 0.55695220753091 
1791	 0.557652393729672 
1792	 0.558301799235655 
1793	 0.558930481834596 
1794	 0.559629835339721 
1795	 0.560268187381365 
1796	 0.560915758440722 
1797	 0.561576009252008 
1798	 0.562215819949161 
1799	 0.562838590453831 
1800	 0.563548909007469 
1801	 0.570145189332893 
1802	 0.570902340814144 
1803	 0.571531902377347 
1804	 0.572121024082992 
1805	 0.572729600028102 
1806	 0.573292749738066 
1807	 0.573753128606172 
1808	 0.574314535593717 
1809	 0.574927289508161 
1810	 0.575506064448525 
1811	 0.576110145344364 
1812	 0.576690677393965 
1813	 0.57720736975346 
1814	 0.577809189828864 
1815	 0.578439984303509 
1816	 0.579009782715807 
1817	 0.579641658121639 
1818	 0.580312775650071 
1819	 0.580980798781639 
1820	 0.581719522920822 
1821	 0.58237193414066 
1822	 0.58297941216741 
1823	 0.583618753500125 
1824	 0.584191148224157 
1825	 0.584722542019031 
1826	 0.585301128711721 
1827	 0.585904766997906 
1828	 0.586445550776864 
1829	 0.586982666899541 
1830	 0.587522564361769 
1831	 0.588000770097739 
1832	 0.588575941319702 
1833	 0.589159666844949 
1834	 0.589642764169848 
1835	 0.590090097837637 
1836	 0.590498213774886 
1837	 0.590912637443223 
1838	 0.591250063982852 
1839	 0.59168139613239 
1840	 0.592186359779865 
1841	 0.592613816297754 
1842	 0.593041161530881 
1843	 0.593481643566608 
1844	 0.593807103110103 
1845	 0.594136206549821 
1846	 0.594489889685907 
1847	 0.594800263797752 
1848	 0.595045644786039 
1849	 0.595282525394758 
1850	 0.595427661518972 
1851	 0.59551406753586 
1852	 0.59548475883611 
1853	 0.595471890849376 
1854	 0.595419294270187 
1855	 0.595266205137431 
1856	 0.595076676174172 
1857	 0.594716448255101 
1858	 0.594242080466146 
1859	 0.59375962663307 
1860	 0.593214150918745 
1861	 0.592584105218818 
1862	 0.591895561235438 
1863	 0.591219219578275 
1864	 0.590354679481629 
1865	 0.589435777353774 
1866	 0.588456121277603 
1867	 0.587241586505337 
1868	 0.586058848388017 
1869	 0.584813641271641 
1870	 0.583442053850243 
1871	 0.582067305349408 
1872	 0.580517907913196 
1873	 0.578827282902138 
1874	 0.577025497909087 
1875	 0.575116471504591 
1876	 0.57297921699113 
1877	 0.570817712925258 
1878	 0.568569979293392 
1879	 0.5662069160964 
1880	 0.563948681290326 
1881	 0.561450453811805 
1882	 0.558814850889688 
1883	 0.556014671258608 
1884	 0.553136441097438 
1885	 0.54988772489454 
1886	 0.54666498378867 
1887	 0.543304705449815 
1888	 0.539644061197399 
1889	 0.536144641027973 
1890	 0.532440428799431 
1891	 0.528687235628419 
1892	 0.524993945513506 
1893	 0.5211325277533 
1894	 0.517091174894309 
1895	 0.513146399278001 
1896	 0.509050861831311 
1897	 0.504888417900658 
1898	 0.501103385391552 
1899	 0.497267172294299 
1900	 0.49355773726579 
1901	 0.489966699309416 
1902	 0.486039235336946 
1903	 0.482277495905583 
1904	 0.478650964734433 
1905	 0.475043311122131 
1906	 0.471585085191024 
1907	 0.468535931816197 
1908	 0.465382602850499 
1909	 0.462422298885239 
1910	 0.459656841630302 
1911	 0.456752486058031 
1912	 0.454121694020779 
1913	 0.451505847476451 
1914	 0.448862832080219 
1915	 0.446403411379425 
1916	 0.444127761100985 
1917	 0.441826116208313 
1918	 0.439655546742909 
1919	 0.437515155081841 
1920	 0.435198557385046 
1921	 0.43302899485697 
1922	 0.430779450230804 
1923	 0.428473693493504 
1924	 0.42635067603557 
1925	 0.424098512454414 
1926	 0.421944688162431 
1927	 0.419862407334237 
1928	 0.417737659072923 
1929	 0.41554362771591 
1930	 0.413620160546392 
1931	 0.41164039444607 
1932	 0.409674779235241 
1933	 0.408086968309055 
1934	 0.406455928338513 
1935	 0.404969727123094 
1936	 0.403878908009535 
1937	 0.402880577585926 
1938	 0.402010738363269 
1939	 0.401402879510379 
1940	 0.401030832493103 
1941	 0.400784068398755 
1942	 0.400677250467652 
1943	 0.400742331735406 
1944	 0.400948825012918 
1945	 0.401291972565937 
1946	 0.401860350426456 
1947	 0.402542997176931 
1948	 0.403336900443858 
1949	 0.404256105790838 
1950	 0.405372756879838 
1951	 0.406720386557931 
1952	 0.408139807795072 
1953	 0.409676109039598 
1954	 0.411377353929844 
1955	 0.413320206788485 
1956	 0.415285889864339 
1957	 0.417445436604668 
1958	 0.419748486507265 
1959	 0.421831780325427 
1960	 0.423855114318365 
1961	 0.425735842488315 
1962	 0.427543931408476 
1963	 0.4291338051093 
1964	 0.430579404620268 
1965	 0.431836446459742 
1966	 0.432914090794467 
1967	 0.433833324261821 
1968	 0.434574672929483 
1969	 0.435326619311899 
1970	 0.436034978038455 
1971	 0.436773581061074 
1972	 0.43761167159403 
1973	 0.438479094603054 
1974	 0.439385794568746 
1975	 0.440328794746961 
1976	 0.441335483667452 
1977	 0.442405559536737 
1978	 0.44349991952784 
1979	 0.444633053229605 
1980	 0.445834415807512 
1981	 0.447100127295319 
1982	 0.448274030862864 
1983	 0.449516856323331 
1984	 0.450830518917483 
1985	 0.452093719455916 
1986	 0.453484313143676 
1987	 0.454943521594902 
1988	 0.45634795596277 
1989	 0.458086425310308 
1990	 0.460003062642969 
1991	 0.462036549373731 
1992	 0.464280705902439 
1993	 0.466761662010887 
1994	 0.46908398666387 
1995	 0.471701275797123 
1996	 0.474452871474847 
1997	 0.477132212603919 
1998	 0.479955108833686 
1999	 0.482997658181324 
2000	 0.48582849121169 
2001	 0.488792575430576 
2002	 0.491447989650167 
2003	 0.493913307321342 
2004	 0.4962913880701 
2005	 0.498474111541401 
2006	 0.500592994353984 
2007	 0.502689467956593 
2008	 0.504545503852144 
2009	 0.506328909594255 
2010	 0.508020813912562 
2011	 0.509495278278815 
2012	 0.510984668541147 
2013	 0.512324048476744 
2014	 0.513543079181526 
2015	 0.514648005283025 
2016	 0.515611797600637 
2017	 0.516514457165715 
2018	 0.517303417235732 
2019	 0.518033066312488 
2020	 0.518655031799464 
2021	 0.519295930855972 
2022	 0.51983082353231 
2023	 0.520293620621178 
2024	 0.520671673851736 
2025	 0.520904855942094 
2026	 0.52108002890543 
2027	 0.521118605233629 
2028	 0.521134992407198 
2029	 0.521055119406094 
2030	 0.521008985277746 
2031	 0.520937798192301 
2032	 0.520844795230002 
2033	 0.520733858246456 
2034	 0.52061573483274 
2035	 0.520481965090932 
2036	 0.520294469452927 
2037	 0.520137627961414 
2038	 0.519970315169265 
2039	 0.519777477771957 
2040	 0.519516884032143 
2041	 0.519366884107804 
2042	 0.519244178917741 
2043	 0.519147579941405 
2044	 0.519146373121362 
2045	 0.519075179676953 
2046	 0.518960098046459 
2047	 0.518893826154927 
2048	 0.518892238911548 
2049	 0.518812687659258 
2050	 0.518740239125452 
2051	 0.518595352813032 
2052	 0.518416105232361 
2053	 0.51821499319829 
2054	 0.518104097731097 
2055	 0.518068172093626 
2056	 0.51799475819899 
2057	 0.517960322588823 
2058	 0.517883664096387 
2059	 0.517801814021594 
2060	 0.517684583946226 
2061	 0.517522944929899 
2062	 0.517389413347242 
2063	 0.517198284650036 
2064	 0.517075405548323 
2065	 0.517011879491704 
2066	 0.516946017665196 
2067	 0.516869873171961 
2068	 0.516848503572399 
2069	 0.516772899200485 
2070	 0.516678230365182 
2071	 0.516571247649894 
2072	 0.516426580431121 
2073	 0.516315308964408 
2074	 0.516192760215194 
2075	 0.516098855278899 
2076	 0.516106765833786 
2077	 0.515983458673797 
2078	 0.51578026984601 
2079	 0.51559689147646 
2080	 0.515368734707245 
2081	 0.515112508479293 
2082	 0.514862329097904 
2083	 0.514608153032375 
2084	 0.514229687972228 
2085	 0.513920421505857 
2086	 0.513629693039492 
2087	 0.513368993764567 
2088	 0.513095942845883 
2089	 0.512849864296612 
2090	 0.512570209952636 
2091	 0.512300168764502 
2092	 0.511981081206004 
2093	 0.511661774105217 
2094	 0.511282320655145 
2095	 0.510795274988878 
2096	 0.510366605535989 
2097	 0.509950299659483 
2098	 0.50950622029898 
2099	 0.5090751078115 
2100	 0.508608274666113 
2101	 0.508045952361541 
2102	 0.507363239806132 
2103	 0.506751253261644 
2104	 0.506092222180123 
2105	 0.505481572596336 
2106	 0.504931808548098 
2107	 0.504330263779947 
2108	 0.503748176818674 
2109	 0.50307974059375 
2110	 0.502381287655299 
2111	 0.501619198224044 
2112	 0.500686579002212 
2113	 0.499890387581787 
2114	 0.499151373219313 
2115	 0.49836166508686 
2116	 0.497640961722913 
2117	 0.496910316683074 
2118	 0.496033652049755 
2119	 0.495015210849438 
2120	 0.494086451417661 
2121	 0.49304524687414 
2122	 0.492189333641465 
2123	 0.491455177890862 
2124	 0.490680862659258 
2125	 0.489977521032001 
2126	 0.489262360075063 
2127	 0.488471816333424 
2128	 0.487808182972678 
2129	 0.487210001557177 
2130	 0.486673315772113 
2131	 0.486283632694727 
2132	 0.485830751910785 
2133	 0.485399440163565 
2134	 0.484958480863462 
2135	 0.484503591247258 
2136	 0.484035565499584 
2137	 0.483633949676456 
2138	 0.483274240814276 
2139	 0.482937524776702 
2140	 0.482649371374604 
2141	 0.482340387477083 
2142	 0.482061201982762 
2143	 0.48174965588931 
2144	 0.481349972469511 
2145	 0.481106998227092 
2146	 0.480953538460156 
2147	 0.480783226499128 
2148	 0.480746563089678 
2149	 0.480603859496975 
2150	 0.480379193301855 
2151	 0.480165647120078 
2152	 0.479859265423602 
2153	 0.47968208466123 
2154	 0.479542100996089 
2155	 0.479456083264138 
2156	 0.47932814313377 
2157	 0.479258487938693 
2158	 0.479125840783533 
2159	 0.478930081705518 
2160	 0.478766142083695 
2161	 0.478651033598265 
2162	 0.478448157629874 
2163	 0.478180886433708 
2164	 0.477942709296094 
2165	 0.477676898440622 
2166	 0.47739923962391 
2167	 0.477178868318651 
2168	 0.476855194840207 
2169	 0.476360587256492 
2170	 0.47603172697812 
2171	 0.475743624860901 
2172	 0.475457439114201 
2173	 0.475285147382786 
2174	 0.475071494131468 
2175	 0.47484269159996 
2176	 0.474562327487671 
2177	 0.474361148808354 
2178	 0.474214601180758 
2179	 0.474052605879352 
2180	 0.473943281036761 
2181	 0.473731096144666 
2182	 0.473446975094993 
2183	 0.473235620017815 
2184	 0.472982330322476 
2185	 0.47278303495882 
2186	 0.472714158908283 
2187	 0.472519070612117 
2188	 0.472241230695374 
2189	 0.47201157712502 
2190	 0.471807647910865 
2191	 0.471508878027993 
2192	 0.471197265482423 
2193	 0.470841217325938 
2194	 0.470400210146752 
2195	 0.46992774507899 
2196	 0.46938288183849 
2197	 0.468879335811937 
2198	 0.468442468066183 
2199	 0.467935699776932 
2200	 0.467447072372513 
2201	 0.467065968319069 
2202	 0.466503212513209 
2203	 0.465850915132389 
2204	 0.465138534141639 
2205	 0.464284903448393 
2206	 0.463559607632892 
2207	 0.462865308933743 
2208	 0.462060723213556 
2209	 0.461283944315966 
2210	 0.460448519446066 
2211	 0.459406661342705 
2212	 0.458539866261844 
2213	 0.457732703687192 
2214	 0.456993567192775 
2215	 0.456336853655133 
2216	 0.455690754193583 
2217	 0.455101974446172 
2218	 0.454550704417926 
2219	 0.454064197237562 
2220	 0.453559277841444 
2221	 0.453029177246351 
2222	 0.452609010965675 
2223	 0.452249125430019 
2224	 0.451774841425202 
2225	 0.451456470538458 
2226	 0.450992286987192 
2227	 0.450450114505836 
2228	 0.449864595970946 
2229	 0.449082268074107 
2230	 0.448180058174583 
2231	 0.44717089939619 
2232	 0.446005412180467 
2233	 0.444706704767593 
2234	 0.443365633190292 
2235	 0.441725450063418 
2236	 0.439821674952478 
2237	 0.437861574133786 
2238	 0.435671945506622 
2239	 0.433426714545623 
2240	 0.431185460096906 
2241	 0.428609012714549 
2242	 0.425864581292015 
2243	 0.422918544365746 
2244	 0.419627439599776 
2245	 0.416305339476256 
2246	 0.412675176148663 
2247	 0.409157587988146 
2248	 0.405657007328791 
2249	 0.402062515431662 
2250	 0.398442894298319 
2251	 0.394903787655375 
2252	 0.390995078365445 
2253	 0.387180222542023 
2254	 0.383314301821143 
2255	 0.379432072502405 
2256	 0.375988120824374 
2257	 0.372393886122876 
2258	 0.3688766029591 
2259	 0.365560220319837 
2260	 0.362073659684125 
2261	 0.358439187355988 
2262	 0.354977622713335 
2263	 0.351476359459707 
2264	 0.348181788575232 
2265	 0.344971244315502 
2266	 0.341976281664568 
2267	 0.339307238189689 
2268	 0.336444710828556 
2269	 0.333652054284226 
2270	 0.330884625808397 
2271	 0.327959021731464 
2272	 0.325283543254742 
2273	 0.322854612202028 
2274	 0.320330485220851 
2275	 0.317962281551593 
2276	 0.315422909114436 
2277	 0.312729818496615 
2278	 0.310141029873857 
2279	 0.307551545232921 
2280	 0.304879663984007 
2281	 0.30226186500896 
2282	 0.29956015483671 
2283	 0.296828898257102 
2284	 0.293892885649751 
2285	 0.290804476554108 
2286	 0.28767836890764 
2287	 0.284376630571953 
2288	 0.281062109832452 
2289	 0.277929458046124 
2290	 0.274771554803763 
2291	 0.271543314275776 
2292	 0.268268024382989 
2293	 0.264840877852804 
2294	 0.261423609740798 
2295	 0.258256039531132 
2296	 0.255432576099901 
2297	 0.252965101656511 
2298	 0.250951670905148 
2299	 0.249099838355895 
2300	 0.247451903561446 
2301	 0.246283007042774 
2302	 0.245543814098366 
2303	 0.245032667834593 
2304	 0.24498173246857 
2305	 0.245067647352158 
2306	 0.24520451080918 
2307	 0.245957593689935 
2308	 0.247168258097019 
2309	 0.24864876825299 
2310	 0.250744474000249 
2311	 0.252824243119527 
2312	 0.255188583501632 
2313	 0.257573556586698 
2314	 0.260157421906589 
2315	 0.26270503858678 
2316	 0.265274778459554 
2317	 0.267895056521262 
2318	 0.270833689417294 
2319	 0.27318823737262 
2320	 0.275531632863697 
2321	 0.27738528169616 
2322	 0.278502826688517 
2323	 0.279736923830358 
2324	 0.28089484533842 
2325	 0.281687385080026 
2326	 0.282348273016171 
2327	 0.282730832123177 
2328	 0.282692213804926 
2329	 0.282461346546877 
2330	 0.282062060559735 
2331	 0.281326049398144 
2332	 0.280110377489454 
2333	 0.278959766147143 
2334	 0.277488042568323 
2335	 0.275704780308006 
2336	 0.274091381552632 
2337	 0.272126011697432 
2338	 0.270140731731796 
2339	 0.268198835500966 
2340	 0.266201274728878 
2341	 0.264328534058415 
2342	 0.262609265427341 
2343	 0.261179957881315 
2344	 0.25975063263934 
2345	 0.258789921164288 
2346	 0.258103879514254 
2347	 0.257607053078819 
2348	 0.257811425449444 
2349	 0.258374989922972 
2350	 0.259390935301186 
2351	 0.260879622867671 
2352	 0.262392364971946 
2353	 0.264127334450776 
2354	 0.265968069718246 
2355	 0.267723532377845 
2356	 0.269438309383134 
2357	 0.270921528499526 
2358	 0.272172732484851 
2359	 0.273256577394339 
2360	 0.274056169034498 
2361	 0.274624499282896 
2362	 0.274988072120043 
2363	 0.275140995469658 
2364	 0.275280549620155 
2365	 0.274952757959085 
2366	 0.274410572171275 
2367	 0.273919664110011 
2368	 0.273303557700073 
2369	 0.27301379286085 
2370	 0.272859627248969 
2371	 0.272671994988859 
2372	 0.272553124521526 
2373	 0.272397141375214 
2374	 0.272170963275571 
2375	 0.272049995239942 
2376	 0.271946202866704 
2377	 0.271679239977499 
2378	 0.271613121112673 
2379	 0.271331375449423 
2380	 0.270908665760326 
2381	 0.270843454649204 
2382	 0.27058130658875 
2383	 0.270210896921349 
2384	 0.26999107370789 
2385	 0.269683302970633 
2386	 0.269620404719296 
2387	 0.269685735330116 
2388	 0.269862543883112 
2389	 0.270513157533298 
2390	 0.270500332553397 
2391	 0.2702504661311 
2392	 0.270168692050762 
2393	 0.269642794953594 
2394	 0.269498305266986 
2395	 0.26980604435595 
2396	 0.269625716686418 
2397	 0.269363926063274 
2398	 0.268944176371472 
2399	 0.268037480171666 
2400	 0.267790510440971 
2401	 0.267719912768949 
2402	 0.268091348571463 
2403	 0.268535640057935 
2404	 0.268284209914188 
2405	 0.267409305924884 
2406	 0.266837706592493 
2407	 0.266445698870329 
2408	 0.266058508382272 
2409	 0.266332341650502 
2410	 0.266285946092495 
2411	 0.265372382989018 
2412	 0.264994597844871 
2413	 0.265061243326046 
2414	 0.264790369914243 
2415	 0.264938486358137 
2416	 0.264913402910995 
2417	 0.264640359629606 
2418	 0.264544542978544 
2419	 0.263894616154195 
2420	 0.263784084688177 
2421	 0.263704160080714 
2422	 0.263109341051656 
2423	 0.262919553576647 
2424	 0.26225726217323 
2425	 0.261936475841589 
2426	 0.262036992149763 
2427	 0.262068152778725 
2428	 0.262637650215758 
2429	 0.262288292454045 
2430	 0.261659084124288 
2431	 0.261510107315788 
2432	 0.260923016729595 
2433	 0.260209889892647 
2434	 0.259811817642357 
2435	 0.259828036578618 
2436	 0.2598567266377 
2437	 0.259862728649827 
2438	 0.259470672895964 
2439	 0.259058548673616 
2440	 0.258589780468845 
2441	 0.257730396625406 
2442	 0.257489576902439 
2443	 0.25670092393497 
2444	 0.25523198350349 
2445	 0.254677901388753 
2446	 0.254638635146274 
2447	 0.254693911840784 
2448	 0.255200931218016 
2449	 0.255686889464978 
2450	 0.255217503887739 
2451	 0.254114752345052 
2452	 0.253608346222513 
2453	 0.253567242853569 
2454	 0.253371690469543 
2455	 0.253825858903974 
2456	 0.253971910041093 
2457	 0.253145906233191 
2458	 0.252961175571099 
2459	 0.252514619054748 
2460	 0.251903200863602 
2461	 0.251938826286342 
2462	 0.251658564555681 
2463	 0.251472991137841 
2464	 0.2511233140982 
2465	 0.250620396670884 
2466	 0.250214419542838 
2467	 0.249807677531355 
2468	 0.249755571357953 
2469	 0.249510848094291 
2470	 0.249301020891101 
2471	 0.249308319669096 
2472	 0.249318880871644 
2473	 0.249238066412236 
2474	 0.248978308626143 
2475	 0.248868301803245 
2476	 0.248853806497073 
2477	 0.2495052806883 
2478	 0.250261016866684 
2479	 0.250582471617426 
2480	 0.24994823285858 
2481	 0.249654350939479 
2482	 0.249668873425799 
2483	 0.250629213885942 
2484	 0.251168968571965 
2485	 0.252456184924297 
2486	 0.253067942289947 
2487	 0.252792509965365 
2488	 0.25287573735196 
2489	 0.252974992258994 
2490	 0.253038577684751 
2491	 0.253384605396924 
2492	 0.254595165884749 
2493	 0.255423256276043 
2494	 0.255584702442488 
2495	 0.255804626033401 
2496	 0.255244163340283 
2497	 0.254508606951396 
2498	 0.254567111395819 
2499	 0.255976861185009 
2500	 0.258628980965875 
