Wavelength	Tablay400022.asd
350	 0.293131861229609 
351	 0.283986175226665 
352	 0.281922321577278 
353	 0.284080941086083 
354	 0.299429539600025 
355	 0.29399893503408 
356	 0.268707663149102 
357	 0.244346152326081 
358	 0.290506085505337 
359	 0.279617976736445 
360	 0.240205953536136 
361	 0.263879171984703 
362	 0.25730284052935 
363	 0.236651221323425 
364	 0.222061277797462 
365	 0.217063969315507 
366	 0.199605588509016 
367	 0.198724709037527 
368	 0.227137862257868 
369	 0.214961745206634 
370	 0.195093360681786 
371	 0.198296083367983 
372	 0.241575447152818 
373	 0.216760118124849 
374	 0.186505162375807 
375	 0.184926436708773 
376	 0.18486632274037 
377	 0.16866034056744 
378	 0.172082166578765 
379	 0.207060313651134 
380	 0.168402478418118 
381	 0.148721327218605 
382	 0.162262848345294 
383	 0.169948246600057 
384	 0.162871642551404 
385	 0.152750636943534 
386	 0.149417448181161 
387	 0.159275319597028 
388	 0.151041341121427 
389	 0.140243843283768 
390	 0.144834732238848 
391	 0.144779352068986 
392	 0.146998516203355 
393	 0.143085994592367 
394	 0.119697119883149 
395	 0.12414598103757 
396	 0.125474066382921 
397	 0.108257160895577 
398	 9.63689430676873E-02 
399	 0.116200451452093 
400	 0.131084222027904 
401	 0.1089263340998 
402	 0.111004901722037 
403	 0.114241011041204 
404	 0.112254626132602 
405	 0.112861073971896 
406	 0.113688517488424 
407	 0.111627486861774 
408	 0.105087252235965 
409	 9.46944362434188E-02 
410	 8.53030400820149E-02 
411	 8.66566614720357E-02 
412	 0.101660571495277 
413	 9.58430388262796E-02 
414	 8.99514441633203E-02 
415	 9.10735757584547E-02 
416	 9.16174732068303E-02 
417	 9.02904732878831E-02 
418	 8.76359076857467E-02 
419	 8.49923752886539E-02 
420	 8.49558375196288E-02 
421	 8.17566982435902E-02 
422	 7.87257544981018E-02 
423	 8.06201257620754E-02 
424	 0.076450160786021 
425	 7.56979266936477E-02 
426	 7.91962272055576E-02 
427	 7.70316105430766E-02 
428	 7.62284066088335E-02 
429	 7.67344258530566E-02 
430	 7.72310496582076E-02 
431	 7.74555999252487E-02 
432	 7.64088178969614E-02 
433	 7.48253679531103E-02 
434	 7.41272052750305E-02 
435	 7.25601291794953E-02 
436	 7.30208845023355E-02 
437	 7.49131591838184E-02 
438	 7.16635967432084E-02 
439	 0.070993343606667 
440	 7.28054092504964E-02 
441	 7.45340556485497E-02 
442	 7.36801069268347E-02 
443	 7.12072131222778E-02 
444	 6.96183311300737E-02 
445	 7.17482518977125E-02 
446	 6.87601127607837E-02 
447	 6.70551228267756E-02 
448	 7.03520951741357E-02 
449	 0.072228199733092 
450	 7.15169027489915E-02 
451	 7.02028923627242E-02 
452	 7.08322609349568E-02 
453	 7.01465920960663E-02 
454	 7.00284031874581E-02 
455	 7.07634966545875E-02 
456	 7.06500889432149E-02 
457	 7.16914671519244E-02 
458	 7.24081580446596E-02 
459	 7.16290423794483E-02 
460	 7.10013726436397E-02 
461	 7.12347324407681E-02 
462	 7.20539497530213E-02 
463	 7.27485643530158E-02 
464	 7.43448947539752E-02 
465	 7.50829422276686E-02 
466	 7.44283460565452E-02 
467	 7.39601525103948E-02 
468	 0.074861923489922 
469	 7.62802856581856E-02 
470	 7.69675472106864E-02 
471	 7.65844998920245E-02 
472	 7.83754970088468E-02 
473	 8.06227557840125E-02 
474	 7.84486559781501E-02 
475	 7.97279855733983E-02 
476	 8.24764895164782E-02 
477	 8.43384082886042E-02 
478	 8.56623013393311E-02 
479	 8.59763372928335E-02 
480	 8.64689350463316E-02 
481	 8.84603189335267E-02 
482	 8.99866178036888E-02 
483	 9.17002075545641E-02 
484	 9.38792937576854E-02 
485	 9.61660021491901E-02 
486	 9.67767720403188E-02 
487	 9.77276768443593E-02 
488	 0.100495065543511 
489	 0.102471621680658 
490	 0.104059889089894 
491	 0.10585660299154 
492	 0.108375647494055 
493	 0.110058996168196 
494	 0.112749831081862 
495	 0.116353138464285 
496	 0.116964346370607 
497	 0.118906445598566 
498	 0.121773619638783 
499	 0.124110516450921 
500	 0.126576460766756 
501	 0.129106142033542 
502	 0.131414974189332 
503	 0.133144374366399 
504	 0.135523096017466 
505	 0.138453638562684 
506	 0.141574020130757 
507	 0.144597081086223 
508	 0.147162210776346 
509	 0.149357148074398 
510	 0.151536667051474 
511	 0.154296905263313 
512	 0.157051367790903 
513	 0.159537775538036 
514	 0.162037253401861 
515	 0.164348774192934 
516	 0.166839978133847 
517	 0.169662249531386 
518	 0.171725799273311 
519	 0.174205026706591 
520	 0.177019392720353 
521	 0.179289120013859 
522	 0.181708692464439 
523	 0.184518519252903 
524	 0.187556209201303 
525	 0.190044707868598 
526	 0.192445876457074 
527	 0.194844267093375 
528	 0.197235902417392 
529	 0.199819291750494 
530	 0.202210561315689 
531	 0.204469121901418 
532	 0.207110253027325 
533	 0.209443570842576 
534	 0.211806620873365 
535	 0.214469989132837 
536	 0.216914796843766 
537	 0.219120626085328 
538	 0.221227488417594 
539	 0.223430508483249 
540	 0.225474898492166 
541	 0.227496728225171 
542	 0.229633945410165 
543	 0.231978267680918 
544	 0.2341191773566 
545	 0.236020616211521 
546	 0.237855686558321 
547	 0.240119860005407 
548	 0.242369390640155 
549	 0.244348098151202 
550	 0.246036632540651 
551	 0.248140743290409 
552	 0.250257052549211 
553	 0.252094545017539 
554	 0.25417911015586 
555	 0.256259615083169 
556	 0.258259386208717 
557	 0.260179852795739 
558	 0.262014286943525 
559	 0.263863124356752 
560	 0.265703008094148 
561	 0.267329238614164 
562	 0.269018575790995 
563	 0.270684906586647 
564	 0.27222457593608 
565	 0.273855843253932 
566	 0.275499645916319 
567	 0.276971058296023 
568	 0.278079569728204 
569	 0.279488569213261 
570	 0.28090092551046 
571	 0.282132794874218 
572	 0.283552573971683 
573	 0.285026178610861 
574	 0.286410165379513 
575	 0.287576188385125 
576	 0.288547701056132 
577	 0.289529594188802 
578	 0.290648664252187 
579	 0.291924169136296 
580	 0.293069442949149 
581	 0.294148538205914 
582	 0.29528544759283 
583	 0.296500302756976 
584	 0.297715882102788 
585	 0.298928430012522 
586	 0.300171547297049 
587	 0.301399477391166 
588	 0.302519617650827 
589	 0.303530728465891 
590	 0.304572964949667 
591	 0.305629523743595 
592	 0.306838550194875 
593	 0.308251683738025 
594	 0.309394445852822 
595	 0.310456689057572 
596	 0.311508187468052 
597	 0.312498001471361 
598	 0.313518405805933 
599	 0.314508323525294 
600	 0.31544105220363 
601	 0.316441793747479 
602	 0.317345300012302 
603	 0.318233787582447 
604	 0.319243763765351 
605	 0.320110555523533 
606	 0.320944996174676 
607	 0.321813083913946 
608	 0.322683717872508 
609	 0.323437387851125 
610	 0.324201515437489 
611	 0.32508407825563 
612	 0.325914807864891 
613	 0.326702472757687 
614	 0.327450489204285 
615	 0.328159789311379 
616	 0.328784819905148 
617	 0.329487635895206 
618	 0.330310004040798 
619	 0.331056283116222 
620	 0.331598339749315 
621	 0.332136884335852 
622	 0.332893469496858 
623	 0.333594438055493 
624	 0.334234192413048 
625	 0.3348709561205 
626	 0.335597832934436 
627	 0.336178276185807 
628	 0.336657014462963 
629	 0.337145314224147 
630	 0.337784130602248 
631	 0.338413098611633 
632	 0.338984091313674 
633	 0.339508432972335 
634	 0.340035645215854 
635	 0.340574624553969 
636	 0.341115051245475 
637	 0.34162697243039 
638	 0.342061719227838 
639	 0.342524780982152 
640	 0.343082337333111 
641	 0.343555636546902 
642	 0.343971914042541 
643	 0.344389093042565 
644	 0.344869321790539 
645	 0.345303539179933 
646	 0.345766341219459 
647	 0.346247934479923 
648	 0.346557351189327 
649	 0.347010760280575 
650	 0.347441255815717 
651	 0.34766829736071 
652	 0.348110628545854 
653	 0.348566075909418 
654	 0.348962350035511 
655	 0.349345722269327 
656	 0.349690930681862 
657	 0.349988425854931 
658	 0.350255702298779 
659	 0.350556200872311 
660	 0.350895261456716 
661	 0.351273002234935 
662	 0.351645832930573 
663	 0.35175441485179 
664	 0.352028974780362 
665	 0.352503432619341 
666	 0.352787625101304 
667	 0.353028045847994 
668	 0.353278785654244 
669	 0.353560311307206 
670	 0.353842755128446 
671	 0.35415270405876 
672	 0.354434234698661 
673	 0.354618308879022 
674	 0.354801666211473 
675	 0.354999288638469 
676	 0.355224788817589 
677	 0.355497608428348 
678	 0.355771442218441 
679	 0.355988449675539 
680	 0.356134452335476 
681	 0.35631896578249 
682	 0.35652435428117 
683	 0.356788096099278 
684	 0.357128872988808 
685	 0.357191535343705 
686	 0.357207346136377 
687	 0.357333320036855 
688	 0.357532263130041 
689	 0.357774912230486 
690	 0.357989722306272 
691	 0.358137350523584 
692	 0.358315107942853 
693	 0.358487098199727 
694	 0.358599000974826 
695	 0.35861528634266 
696	 0.358759265635624 
697	 0.358994931226518 
698	 0.359222858196272 
699	 0.359298919875495 
700	 0.359449641984947 
701	 0.359589672187628 
702	 0.3596171069346 
703	 0.35970918747342 
704	 0.359875148502176 
705	 0.360074631129772 
706	 0.360235366246966 
707	 0.360337382727798 
708	 0.360388045185994 
709	 0.360453840656799 
710	 0.360695599293681 
711	 0.360851073412752 
712	 0.360885814022255 
713	 0.360875392205454 
714	 0.361003316065879 
715	 0.36121611340051 
716	 0.361421870203296 
717	 0.36151766213419 
718	 0.361533787112662 
719	 0.361578615626382 
720	 0.361699075999457 
721	 0.361819513272807 
722	 0.362049925002368 
723	 0.362234231623041 
724	 0.362239830582099 
725	 0.362336163852075 
726	 0.362498201664821 
727	 0.362679831663453 
728	 0.362831639971174 
729	 0.363022998068971 
730	 0.363118039416449 
731	 0.363113751345272 
732	 0.363261786227489 
733	 0.363357623368102 
734	 0.363471804775793 
735	 0.363684023614986 
736	 0.363803488226258 
737	 0.363973908401953 
738	 0.36419765381481 
739	 0.364385977476439 
740	 0.364576888703785 
741	 0.364767265694772 
742	 0.364935491751268 
743	 0.365036172123791 
744	 0.365275826499521 
745	 0.36551946475586 
746	 0.365627870713889 
747	 0.365766516324617 
748	 0.365978013723586 
749	 0.366207238848945 
750	 0.366372224842415 
751	 0.366683477683936 
752	 0.366954523069762 
753	 0.367119683114408 
754	 0.367318914092547 
755	 0.367565593456337 
756	 0.367791785904994 
757	 0.367969494450979 
758	 0.368246989299924 
759	 0.368536136045159 
760	 0.36880942445569 
761	 0.369072186175138 
762	 0.369352224077186 
763	 0.369585892217788 
764	 0.369798667293934 
765	 0.3701103118577 
766	 0.370460019960694 
767	 0.370811809875234 
768	 0.371133598516605 
769	 0.371380865950248 
770	 0.371689011311219 
771	 0.372051574476095 
772	 0.372406110451887 
773	 0.372713321525667 
774	 0.373033019578574 
775	 0.373364501922294 
776	 0.373664590907333 
777	 0.374049834298105 
778	 0.374380762402913 
779	 0.374625230709443 
780	 0.37498795478812 
781	 0.375412157665274 
782	 0.375786589223243 
783	 0.376054673489409 
784	 0.376407146227474 
785	 0.376782454518621 
786	 0.377138998252204 
787	 0.37746096450788 
788	 0.37783896480743 
789	 0.378163211786357 
790	 0.378448924214547 
791	 0.378869199338713 
792	 0.379256087565113 
793	 0.379599613832543 
794	 0.379940598736726 
795	 0.380370864750213 
796	 0.380691266532515 
797	 0.380964960766079 
798	 0.381314806408228 
799	 0.381626460353709 
800	 0.381971289910163 
801	 0.382354339768227 
802	 0.382722521143576 
803	 0.38303656602707 
804	 0.383348336973586 
805	 0.383675048043244 
806	 0.383963729403163 
807	 0.384235738096516 
808	 0.384530799723143 
809	 0.384885068011894 
810	 0.38533440599255 
811	 0.385612293852165 
812	 0.385787856105588 
813	 0.386064539582209 
814	 0.386425249514723 
815	 0.38672069339584 
816	 0.386946257173392 
817	 0.387225856055078 
818	 0.387514150280443 
819	 0.38776746902568 
820	 0.387985817937437 
821	 0.388238780390399 
822	 0.38856221367116 
823	 0.388822810213111 
824	 0.388945570979109 
825	 0.38917269669102 
826	 0.389417535711284 
827	 0.389641703553868 
828	 0.389834651176347 
829	 0.390017102877998 
830	 0.390242446531676 
831	 0.390467688494269 
832	 0.39058531321448 
833	 0.390767607582543 
834	 0.390899963882726 
835	 0.390955857830087 
836	 0.391102500666787 
837	 0.39135917271478 
838	 0.391614990590161 
839	 0.391761147872779 
840	 0.391778517553126 
841	 0.39191711230143 
842	 0.392102768382921 
843	 0.392181916844359 
844	 0.392342759869054 
845	 0.392523117573376 
846	 0.392649089865714 
847	 0.392673235947474 
848	 0.392767961862005 
849	 0.392873055866796 
850	 0.392940157924922 
851	 0.392975715849756 
852	 0.39309150982476 
853	 0.393147066636967 
854	 0.39309656440999 
855	 0.39320420958408 
856	 0.393277815461497 
857	 0.393336187434611 
858	 0.393420288506497 
859	 0.393404233980941 
860	 0.393421047424185 
861	 0.393516774046586 
862	 0.393655074061759 
863	 0.393644969750588 
864	 0.39364668634151 
865	 0.393678609652694 
866	 0.393631070471388 
867	 0.393617976065798 
868	 0.393590962647108 
869	 0.393567949543772 
870	 0.3936755902582 
871	 0.393693882943704 
872	 0.393666596923935 
873	 0.393647837913271 
874	 0.393573055149223 
875	 0.393566304059749 
876	 0.393620699938322 
877	 0.393673202778253 
878	 0.39363190406674 
879	 0.393619333654594 
880	 0.393596333299283 
881	 0.393491329442803 
882	 0.39350911629601 
883	 0.39358403402714 
884	 0.393568407702515 
885	 0.393336111512664 
886	 0.393336034712998 
887	 0.39336373950796 
888	 0.393361569259412 
889	 0.393501250592933 
890	 0.393393663632358 
891	 0.393302200752029 
892	 0.393356184078583 
893	 0.393260137328102 
894	 0.393163927591686 
895	 0.393164914277982 
896	 0.393267148982034 
897	 0.393285629443595 
898	 0.393180936981187 
899	 0.393073391498003 
900	 0.393084635860228 
901	 0.39311283691175 
902	 0.393017086698275 
903	 0.392939332203908 
904	 0.393054134901621 
905	 0.392887310473962 
906	 0.392871834697726 
907	 0.392999982040456 
908	 0.392950437042258 
909	 0.392862158977641 
910	 0.392790702050927 
911	 0.392780336879693 
912	 0.392854784001478 
913	 0.392913004965935 
914	 0.393011239546704 
915	 0.393096610374436 
916	 0.392960429642333 
917	 0.39291647124449 
918	 0.392960391439806 
919	 0.393013259067667 
920	 0.39299535114158 
921	 0.392896580874686 
922	 0.392893075799634 
923	 0.393071965512618 
924	 0.39318954732557 
925	 0.393222417165009 
926	 0.393272052232713 
927	 0.393394186556115 
928	 0.393323880348125 
929	 0.39329646846371 
930	 0.393333714663323 
931	 0.393383698632517 
932	 0.393509892236341 
933	 0.393673431921521 
934	 0.393763685425104 
935	 0.393714690861521 
936	 0.393864033034355 
937	 0.394062143338673 
938	 0.394178076649805 
939	 0.394157893893962 
940	 0.394183900264239 
941	 0.394292601842164 
942	 0.394414555947814 
943	 0.394427172138972 
944	 0.394453701630426 
945	 0.394447270925325 
946	 0.394479442785059 
947	 0.394713645477782 
948	 0.394732039467211 
949	 0.394791815889939 
950	 0.395013699417934 
951	 0.395214149986693 
952	 0.395229850857696 
953	 0.395191361139207 
954	 0.39516870291634 
955	 0.395068942466164 
956	 0.395300961652893 
957	 0.395496762665987 
958	 0.395447479408063 
959	 0.395495480862222 
960	 0.395736632817084 
961	 0.395875204011052 
962	 0.395759985112981 
963	 0.395712483014282 
964	 0.395602058042418 
965	 0.395634285134547 
966	 0.395850710555193 
967	 0.395762232857305 
968	 0.395875262484046 
969	 0.395989417586758 
970	 0.395956210261877 
971	 0.396272320015501 
972	 0.396461729436447 
973	 0.39647310732285 
974	 0.396411194472241 
975	 0.39640990957477 
976	 0.396402965182717 
977	 0.396355265773672 
978	 0.39631294109202 
979	 0.396544530314597 
980	 0.396634656145935 
981	 0.396723707241916 
982	 0.396938316794065 
983	 0.396719852444053 
984	 0.396568676840034 
985	 0.396789336845227 
986	 0.397309769932262 
987	 0.397148928237341 
988	 0.397157085997349 
989	 0.397314177214186 
990	 0.3973517587503 
991	 0.397285978990421 
992	 0.397531430316767 
993	 0.397861755007022 
994	 0.397920022878106 
995	 0.397786407146607 
996	 0.397690853356038 
997	 0.39776948519531 
998	 0.397977373690626 
999	 0.397860905995675 
1000	 0.397917738847872 
1001	 0.390246858520463 
1002	 0.390336543787369 
1003	 0.390559311106698 
1004	 0.390716110024511 
1005	 0.390972283024812 
1006	 0.39108770227065 
1007	 0.391129928114614 
1008	 0.391155195155693 
1009	 0.391136638753878 
1010	 0.391117378831365 
1011	 0.390974792172689 
1012	 0.391008803124903 
1013	 0.391210288784649 
1014	 0.391267504227816 
1015	 0.391285903646511 
1016	 0.391404947329314 
1017	 0.39147113714448 
1018	 0.391412572865618 
1019	 0.391694033045908 
1020	 0.391890211864794 
1021	 0.391919542312022 
1022	 0.391805479366392 
1023	 0.391837845600892 
1024	 0.391816650113598 
1025	 0.391833147063966 
1026	 0.391984081797397 
1027	 0.391988307145 
1028	 0.391889822099738 
1029	 0.391761164772398 
1030	 0.391709237067325 
1031	 0.391873782963302 
1032	 0.391967509178529 
1033	 0.39196717023456 
1034	 0.392068660593715 
1035	 0.392104561866999 
1036	 0.392179588045873 
1037	 0.392408618178722 
1038	 0.392447730340035 
1039	 0.392327880197154 
1040	 0.392345612992859 
1041	 0.392288843504695 
1042	 0.392377336397246 
1043	 0.392607718974265 
1044	 0.392845669118959 
1045	 0.392997437592347 
1046	 0.393059605621295 
1047	 0.393004452070383 
1048	 0.39296045225914 
1049	 0.393017338234697 
1050	 0.393173107136893 
1051	 0.393407628758309 
1052	 0.393502725722562 
1053	 0.393513375503428 
1054	 0.393298396394192 
1055	 0.393367209061944 
1056	 0.393532543641983 
1057	 0.393636123161599 
1058	 0.393856237792169 
1059	 0.394059122265565 
1060	 0.394102669019974 
1061	 0.39408044491451 
1062	 0.39414090316896 
1063	 0.394267054936925 
1064	 0.394330394778056 
1065	 0.394380088392101 
1066	 0.394442839163895 
1067	 0.394359544559856 
1068	 0.394196691253825 
1069	 0.394174169223384 
1070	 0.394215653538322 
1071	 0.394317114701289 
1072	 0.394442436492638 
1073	 0.394589643096692 
1074	 0.394622393290122 
1075	 0.394561389142869 
1076	 0.394607308688527 
1077	 0.39473255810488 
1078	 0.394770849233625 
1079	 0.394795320789787 
1080	 0.394804594076799 
1081	 0.394787628792691 
1082	 0.394831065620893 
1083	 0.394939470647102 
1084	 0.395105137219237 
1085	 0.395185401412074 
1086	 0.395263147502717 
1087	 0.395349796012848 
1088	 0.395468250731397 
1089	 0.395458963701547 
1090	 0.395485585571514 
1091	 0.395546530974663 
1092	 0.395496187691657 
1093	 0.395447954076564 
1094	 0.395498353001264 
1095	 0.395667159635088 
1096	 0.395931960055166 
1097	 0.396163436002431 
1098	 0.396285720598696 
1099	 0.39631879697434 
1100	 0.396299905860805 
1101	 0.396310303373487 
1102	 0.39637490506909 
1103	 0.39650445969291 
1104	 0.396687818400802 
1105	 0.39690095144315 
1106	 0.397071311536878 
1107	 0.397235029865633 
1108	 0.397339493019464 
1109	 0.397361676779947 
1110	 0.397497210387674 
1111	 0.397677488777586 
1112	 0.397779865461109 
1113	 0.397909665949042 
1114	 0.398071529489851 
1115	 0.398203460357658 
1116	 0.398345109255755 
1117	 0.398524692599158 
1118	 0.398665887236647 
1119	 0.398705460072175 
1120	 0.398858326446989 
1121	 0.399071795353883 
1122	 0.39925409757119 
1123	 0.399496737240749 
1124	 0.399752637175928 
1125	 0.399917663733414 
1126	 0.400079919702937 
1127	 0.400222644236722 
1128	 0.40032490539964 
1129	 0.400416293501473 
1130	 0.400522026713877 
1131	 0.400654394032605 
1132	 0.40077424642532 
1133	 0.40089574251471 
1134	 0.401066059452061 
1135	 0.401218312777686 
1136	 0.401372813832669 
1137	 0.401475236835703 
1138	 0.401543304702614 
1139	 0.401645476652659 
1140	 0.401734783792432 
1141	 0.401799276707639 
1142	 0.40191242281863 
1143	 0.402027021462782 
1144	 0.402057232214921 
1145	 0.402145610105767 
1146	 0.402229506009373 
1147	 0.402269665800631 
1148	 0.402337076919074 
1149	 0.40234097468667 
1150	 0.402370236722838 
1151	 0.402465260240782 
1152	 0.402486962893853 
1153	 0.40247469309574 
1154	 0.402478729161036 
1155	 0.402451475437336 
1156	 0.402415172023933 
1157	 0.402390502992881 
1158	 0.402362357138494 
1159	 0.402315138749539 
1160	 0.40227205735771 
1161	 0.402213554267962 
1162	 0.402148653192883 
1163	 0.402119381748432 
1164	 0.402064588646284 
1165	 0.402023604093534 
1166	 0.402050644225969 
1167	 0.401994715178776 
1168	 0.401894566787087 
1169	 0.401809586820117 
1170	 0.401688492207525 
1171	 0.401589821952829 
1172	 0.401499627569152 
1173	 0.401431259480224 
1174	 0.401394014270506 
1175	 0.401333899531826 
1176	 0.401257084632571 
1177	 0.401206027718707 
1178	 0.401159310843108 
1179	 0.401118399615972 
1180	 0.401063416310159 
1181	 0.401015140789217 
1182	 0.400942563196213 
1183	 0.400849256590743 
1184	 0.400824733982014 
1185	 0.400792459843382 
1186	 0.400728070386153 
1187	 0.400627858941067 
1188	 0.400581491606969 
1189	 0.400516603301741 
1190	 0.400515027308619 
1191	 0.400577432056205 
1192	 0.400638936249398 
1193	 0.400750872149417 
1194	 0.400803424092821 
1195	 0.400838122183315 
1196	 0.400888036459621 
1197	 0.400897068584547 
1198	 0.40093040843908 
1199	 0.401047071819754 
1200	 0.401166926540431 
1201	 0.401292642771426 
1202	 0.401474834997558 
1203	 0.401667896930804 
1204	 0.401863448535983 
1205	 0.402111606279588 
1206	 0.402411575059303 
1207	 0.402714984780118 
1208	 0.403007439950611 
1209	 0.403405448783369 
1210	 0.403848082616454 
1211	 0.404338132169636 
1212	 0.404941834574631 
1213	 0.405526318183031 
1214	 0.406081681326159 
1215	 0.406738597162359 
1216	 0.407462129752996 
1217	 0.408198475164663 
1218	 0.408994508401346 
1219	 0.409857009757978 
1220	 0.410622968715789 
1221	 0.411441163306721 
1222	 0.412311182493707 
1223	 0.413149310995394 
1224	 0.413969170170666 
1225	 0.4148230901079 
1226	 0.415600380709164 
1227	 0.41628602039996 
1228	 0.4170447387182 
1229	 0.41784067649508 
1230	 0.418574447352055 
1231	 0.419310911684453 
1232	 0.420015687123718 
1233	 0.420672410878595 
1234	 0.42130863115536 
1235	 0.421924637286783 
1236	 0.422533731086 
1237	 0.423101179406756 
1238	 0.423678159214935 
1239	 0.424274913971467 
1240	 0.424841374242606 
1241	 0.425427600718772 
1242	 0.425919616682218 
1243	 0.426427733338334 
1244	 0.426902542381055 
1245	 0.427426200071526 
1246	 0.427968840326539 
1247	 0.428465763742706 
1248	 0.4289699598089 
1249	 0.429457908449737 
1250	 0.429897166015235 
1251	 0.430352862738883 
1252	 0.430852644518992 
1253	 0.431285336056654 
1254	 0.431669486844142 
1255	 0.43205881250991 
1256	 0.432395733266049 
1257	 0.432778789120091 
1258	 0.433185729427517 
1259	 0.433577075251129 
1260	 0.433963002964069 
1261	 0.434380359598534 
1262	 0.434800596941985 
1263	 0.435241965911539 
1264	 0.435679824352653 
1265	 0.436162547178229 
1266	 0.436593965176486 
1267	 0.436985155922607 
1268	 0.437414835598925 
1269	 0.437851537810507 
1270	 0.438280310006973 
1271	 0.438731513023134 
1272	 0.439152819529534 
1273	 0.439550599223986 
1274	 0.439955251517599 
1275	 0.440359460385454 
1276	 0.440744829875173 
1277	 0.441103594510342 
1278	 0.44148800583233 
1279	 0.441880805619521 
1280	 0.442259577214989 
1281	 0.442644981123346 
1282	 0.443032171199719 
1283	 0.443407738164073 
1284	 0.443776104211401 
1285	 0.44414338216288 
1286	 0.444536104557244 
1287	 0.44486469694811 
1288	 0.445139587942868 
1289	 0.445471340163661 
1290	 0.445792529955206 
1291	 0.44613051798931 
1292	 0.446525380928547 
1293	 0.446852531588589 
1294	 0.447121922167772 
1295	 0.447447482394793 
1296	 0.44779546571078 
1297	 0.448105072690061 
1298	 0.448429911391696 
1299	 0.448731880378238 
1300	 0.448997982093846 
1301	 0.449251478444654 
1302	 0.449472576628531 
1303	 0.449735742581827 
1304	 0.449997016828487 
1305	 0.45025878388689 
1306	 0.450564491371014 
1307	 0.450852697901363 
1308	 0.451107412790254 
1309	 0.451375342034884 
1310	 0.451657130571169 
1311	 0.45196842280527 
1312	 0.45222663378702 
1313	 0.452453289459622 
1314	 0.452731974038213 
1315	 0.453029622346006 
1316	 0.453267735761346 
1317	 0.45352073999578 
1318	 0.453745946490014 
1319	 0.45385987684185 
1320	 0.454093160498052 
1321	 0.454425067604958 
1322	 0.454676981508129 
1323	 0.454938800576195 
1324	 0.455174503000129 
1325	 0.455356258412992 
1326	 0.455553279608503 
1327	 0.455755713305591 
1328	 0.45595319116605 
1329	 0.456113332897203 
1330	 0.456317576302944 
1331	 0.456585063864831 
1332	 0.456794802197387 
1333	 0.457006838222697 
1334	 0.457202676855866 
1335	 0.457343152915063 
1336	 0.457408480363607 
1337	 0.457530376304297 
1338	 0.457654440054561 
1339	 0.457755623175918 
1340	 0.457876700260889 
1341	 0.457943566624801 
1342	 0.457972432846801 
1343	 0.457992664163544 
1344	 0.457968754810235 
1345	 0.457985483545715 
1346	 0.458001740451486 
1347	 0.458022385865865 
1348	 0.458088610764702 
1349	 0.458098237532371 
1350	 0.458095592462214 
1351	 0.45805373763121 
1352	 0.457966454273856 
1353	 0.45788020766154 
1354	 0.457735924671611 
1355	 0.457642561557059 
1356	 0.457580413848278 
1357	 0.457503636547694 
1358	 0.457444935132631 
1359	 0.457380970211658 
1360	 0.457331902199935 
1361	 0.457233417330298 
1362	 0.457130078970167 
1363	 0.457020368927501 
1364	 0.456875676065858 
1365	 0.456708249076321 
1366	 0.456483611090672 
1367	 0.456221739016767 
1368	 0.455956347008054 
1369	 0.455643635001069 
1370	 0.455327831302853 
1371	 0.455027044901306 
1372	 0.454673583555991 
1373	 0.454277915565557 
1374	 0.453868572675556 
1375	 0.4534429196491 
1376	 0.452976898241995 
1377	 0.452466226358221 
1378	 0.451951660390294 
1379	 0.451420361167192 
1380	 0.450855450781218 
1381	 0.450302861524578 
1382	 0.449664341251967 
1383	 0.448933535240534 
1384	 0.448221723245269 
1385	 0.44746967659611 
1386	 0.446715496775199 
1387	 0.445934819033446 
1388	 0.445206481625375 
1389	 0.444486480312486 
1390	 0.443777138200415 
1391	 0.443119566492335 
1392	 0.442439882916294 
1393	 0.441805204480405 
1394	 0.441165936501512 
1395	 0.440525807664446 
1396	 0.439933510461854 
1397	 0.439269654550484 
1398	 0.438603730182328 
1399	 0.437823452931785 
1400	 0.43703609361733 
1401	 0.43606459321171 
1402	 0.434953071745837 
1403	 0.433782186743713 
1404	 0.432480298168888 
1405	 0.431169289976128 
1406	 0.429802208210858 
1407	 0.428386480092078 
1408	 0.42687109196866 
1409	 0.425397997925828 
1410	 0.423895483433884 
1411	 0.422404141039033 
1412	 0.420907483625282 
1413	 0.419463505004455 
1414	 0.418029968022198 
1415	 0.416607061603727 
1416	 0.415181294949333 
1417	 0.41383833583492 
1418	 0.412532913557859 
1419	 0.411250531424727 
1420	 0.410043181278066 
1421	 0.408863681808453 
1422	 0.407675528187727 
1423	 0.406542728056666 
1424	 0.405480939166729 
1425	 0.404421217983418 
1426	 0.403463242096316 
1427	 0.402504832782316 
1428	 0.401544590563064 
1429	 0.400672600967871 
1430	 0.399771785936719 
1431	 0.398859659834341 
1432	 0.397966920224981 
1433	 0.397126410240206 
1434	 0.396198748605915 
1435	 0.395259277228345 
1436	 0.394241569619947 
1437	 0.393157255488746 
1438	 0.392073546346234 
1439	 0.390905527037255 
1440	 0.389818627698766 
1441	 0.388696993142448 
1442	 0.387701359854358 
1443	 0.386657596444657 
1444	 0.385932481226843 
1445	 0.385298410001448 
1446	 0.384989801287108 
1447	 0.384966643646431 
1448	 0.385134451195339 
1449	 0.385559043785433 
1450	 0.386155479377907 
1451	 0.387007221955042 
1452	 0.387956307775039 
1453	 0.389177477830472 
1454	 0.390333686799093 
1455	 0.39163057978225 
1456	 0.392836089229797 
1457	 0.394035120507591 
1458	 0.395186716742353 
1459	 0.396301629514842 
1460	 0.39737792779948 
1461	 0.398424194288609 
1462	 0.399403737188577 
1463	 0.400339317458165 
1464	 0.40122071567473 
1465	 0.401997306430725 
1466	 0.402798564043443 
1467	 0.403570998201473 
1468	 0.404324176702832 
1469	 0.405082072667306 
1470	 0.405787970862866 
1471	 0.406505152525256 
1472	 0.407208436826714 
1473	 0.407874487231845 
1474	 0.40853940476819 
1475	 0.409153103195639 
1476	 0.409704266207818 
1477	 0.410273793563523 
1478	 0.410842690359654 
1479	 0.411362309904022 
1480	 0.411890600800848 
1481	 0.412312394753365 
1482	 0.412665782467171 
1483	 0.412977166335672 
1484	 0.413181515463489 
1485	 0.413442393676744 
1486	 0.413695417153731 
1487	 0.413928403954947 
1488	 0.414139359406789 
1489	 0.414394188217982 
1490	 0.41457338490107 
1491	 0.414926069996873 
1492	 0.415347982149818 
1493	 0.415889724971969 
1494	 0.41656496687312 
1495	 0.417287934807022 
1496	 0.418123718776899 
1497	 0.418982894226949 
1498	 0.419936947621471 
1499	 0.420864547602088 
1500	 0.421825706479386 
1501	 0.422783908050009 
1502	 0.42374276336274 
1503	 0.424695847356401 
1504	 0.425685502194186 
1505	 0.426620805458174 
1506	 0.427557332715123 
1507	 0.428419781849043 
1508	 0.429251760054539 
1509	 0.430002498959569 
1510	 0.430661779998857 
1511	 0.431289834975672 
1512	 0.431840211289023 
1513	 0.432377269270105 
1514	 0.432888579833813 
1515	 0.433365857495097 
1516	 0.433814358973782 
1517	 0.434226368160715 
1518	 0.434604296779756 
1519	 0.434943914042994 
1520	 0.435251793549452 
1521	 0.435507692878398 
1522	 0.435753542664472 
1523	 0.435985085817769 
1524	 0.436172725010186 
1525	 0.436329977279627 
1526	 0.436491716981492 
1527	 0.436624548847759 
1528	 0.436738300436189 
1529	 0.436851383989348 
1530	 0.43694279498521 
1531	 0.43699229335582 
1532	 0.437054031289214 
1533	 0.437096401451824 
1534	 0.437206149481419 
1535	 0.437328691569728 
1536	 0.437462443240661 
1537	 0.437634218877899 
1538	 0.437840209205633 
1539	 0.43802806532319 
1540	 0.438307404134401 
1541	 0.438647664756991 
1542	 0.439064074738452 
1543	 0.439534129398106 
1544	 0.440064635760908 
1545	 0.440707406194891 
1546	 0.441322958267575 
1547	 0.441971651403219 
1548	 0.442621513302988 
1549	 0.443286727988137 
1550	 0.443960137233675 
1551	 0.444662091960336 
1552	 0.445327316080867 
1553	 0.445997424738459 
1554	 0.446635883152678 
1555	 0.447234391325003 
1556	 0.447846702236912 
1557	 0.44844407632884 
1558	 0.449056255679861 
1559	 0.449693826128698 
1560	 0.450284699842136 
1561	 0.450864680226723 
1562	 0.45142776902189 
1563	 0.451936001808041 
1564	 0.452484747038192 
1565	 0.453059308733564 
1566	 0.45360577967798 
1567	 0.454139394171274 
1568	 0.454691915575159 
1569	 0.455254296557774 
1570	 0.455785151293358 
1571	 0.456348115834482 
1572	 0.456839088164118 
1573	 0.45725570934034 
1574	 0.457687083531395 
1575	 0.458063441490873 
1576	 0.458495867560751 
1577	 0.458971042224205 
1578	 0.45940906570293 
1579	 0.459870043776593 
1580	 0.460293316463008 
1581	 0.460649817993948 
1582	 0.461052966081278 
1583	 0.461469593588072 
1584	 0.461884089096247 
1585	 0.462305593539209 
1586	 0.462742867707654 
1587	 0.463198116082168 
1588	 0.463634655267858 
1589	 0.464082477755325 
1590	 0.46452008881382 
1591	 0.464943298353285 
1592	 0.465352027906376 
1593	 0.465753061513608 
1594	 0.466154915636948 
1595	 0.466536432859368 
1596	 0.466922558892921 
1597	 0.46730566123098 
1598	 0.467708023613354 
1599	 0.468131455505163 
1600	 0.468524929631747 
1601	 0.468911963128882 
1602	 0.469310114949154 
1603	 0.469674474837358 
1604	 0.47007203361899 
1605	 0.470519888053554 
1606	 0.47093874525472 
1607	 0.471369466968402 
1608	 0.471767509941568 
1609	 0.472151665105015 
1610	 0.472505899581987 
1611	 0.472840057374775 
1612	 0.473130821826701 
1613	 0.473350750498656 
1614	 0.473613125606715 
1615	 0.473865369633479 
1616	 0.474118080485402 
1617	 0.474418479818655 
1618	 0.474668476505422 
1619	 0.474894211547644 
1620	 0.475086890461002 
1621	 0.475233016482433 
1622	 0.475387608122873 
1623	 0.475502121217828 
1624	 0.475643972584091 
1625	 0.475819969191045 
1626	 0.475963467926164 
1627	 0.476105007007162 
1628	 0.476228121148626 
1629	 0.476298979619073 
1630	 0.476413192127198 
1631	 0.476560913894387 
1632	 0.476676004908497 
1633	 0.476813858989938 
1634	 0.476912521819825 
1635	 0.476925186384143 
1636	 0.477006854257345 
1637	 0.477097646884267 
1638	 0.477218620212698 
1639	 0.47746349272015 
1640	 0.477578450500754 
1641	 0.477620307191549 
1642	 0.477681881337466 
1643	 0.477660253597406 
1644	 0.477678263399556 
1645	 0.477789533757372 
1646	 0.477797917751908 
1647	 0.477747747437078 
1648	 0.477688021840838 
1649	 0.477574159115942 
1650	 0.477446408798399 
1651	 0.477285910590486 
1652	 0.477144258551964 
1653	 0.477017036038913 
1654	 0.476842676416571 
1655	 0.476678184092478 
1656	 0.476458762306263 
1657	 0.476165525259796 
1658	 0.475853195203404 
1659	 0.47555434328972 
1660	 0.47516503019624 
1661	 0.474705243204635 
1662	 0.474222893220742 
1663	 0.47367254191091 
1664	 0.473082447686049 
1665	 0.472485308142091 
1666	 0.471799591586404 
1667	 0.471064609679495 
1668	 0.470242227381928 
1669	 0.469344894546847 
1670	 0.46837106900417 
1671	 0.467320674284189 
1672	 0.466163374057792 
1673	 0.464907748364889 
1674	 0.463577495984395 
1675	 0.462145245280665 
1676	 0.460676990655957 
1677	 0.459153650473813 
1678	 0.457565488104189 
1679	 0.455896407983457 
1680	 0.454154488996699 
1681	 0.452358884597407 
1682	 0.450460044568325 
1683	 0.448467199987387 
1684	 0.446479548218384 
1685	 0.444445610801394 
1686	 0.442322591076984 
1687	 0.44013780047386 
1688	 0.43786211812976 
1689	 0.435487564896535 
1690	 0.433040491760785 
1691	 0.430519423826652 
1692	 0.428037258322446 
1693	 0.425510305568591 
1694	 0.422943260337721 
1695	 0.420367822319215 
1696	 0.41771508043213 
1697	 0.41499671306831 
1698	 0.412169464404878 
1699	 0.409261459107447 
1700	 0.406449311077258 
1701	 0.403548188082099 
1702	 0.400754861473515 
1703	 0.39802194270832 
1704	 0.395365303557542 
1705	 0.392683184126902 
1706	 0.390153242368833 
1707	 0.387914945966197 
1708	 0.385732910509606 
1709	 0.383703075446807 
1710	 0.381884593993579 
1711	 0.380121543598862 
1712	 0.378540409796908 
1713	 0.377000636964376 
1714	 0.375470210482858 
1715	 0.374059527148614 
1716	 0.372584448894835 
1717	 0.371202654775591 
1718	 0.369928852692985 
1719	 0.368590223018931 
1720	 0.367357047066036 
1721	 0.366212610063077 
1722	 0.365082269021341 
1723	 0.364153405569661 
1724	 0.363379484825903 
1725	 0.362672417454892 
1726	 0.362162145026854 
1727	 0.361865427133965 
1728	 0.361716309375485 
1729	 0.361842025774434 
1730	 0.362282734556604 
1731	 0.362873168665877 
1732	 0.363688913202631 
1733	 0.364613276429025 
1734	 0.365650721352707 
1735	 0.366787407183183 
1736	 0.367873295620851 
1737	 0.368982820454426 
1738	 0.369872904026108 
1739	 0.370569564041962 
1740	 0.371113077516867 
1741	 0.371503777165946 
1742	 0.371735822737285 
1743	 0.37183202822525 
1744	 0.371727406588802 
1745	 0.371575484260828 
1746	 0.371221436884812 
1747	 0.370960576584457 
1748	 0.370651746654244 
1749	 0.370432538799165 
1750	 0.370234416611346 
1751	 0.370147346161274 
1752	 0.370125108702783 
1753	 0.370206449913803 
1754	 0.370359574083933 
1755	 0.370656226812132 
1756	 0.371047934582015 
1757	 0.371555847317324 
1758	 0.372217761818281 
1759	 0.37295085589181 
1760	 0.373934911567663 
1761	 0.375032380189112 
1762	 0.376175173733019 
1763	 0.377490651262462 
1764	 0.378811132405061 
1765	 0.380250772436449 
1766	 0.381938864008498 
1767	 0.38365478922815 
1768	 0.385402981312844 
1769	 0.387203600197909 
1770	 0.388898622564091 
1771	 0.390540209870236 
1772	 0.392087549634776 
1773	 0.39353749866111 
1774	 0.395007888511762 
1775	 0.396333913562002 
1776	 0.397642192085662 
1777	 0.39894335764577 
1778	 0.400028197678878 
1779	 0.40104798973583 
1780	 0.40203198110902 
1781	 0.402909574381391 
1782	 0.403757827422803 
1783	 0.404591069023551 
1784	 0.405390701544162 
1785	 0.406095678583439 
1786	 0.406775977374508 
1787	 0.407426851033612 
1788	 0.408075164248146 
1789	 0.408726089190888 
1790	 0.409304579940838 
1791	 0.409828356735837 
1792	 0.41037622337904 
1793	 0.410851263295833 
1794	 0.411316733573365 
1795	 0.4117851821781 
1796	 0.412200977930884 
1797	 0.412727648078518 
1798	 0.413231788554493 
1799	 0.413704804090294 
1800	 0.414159307662462 
1801	 0.424832813929899 
1802	 0.425334324892662 
1803	 0.42580010398933 
1804	 0.426246581819146 
1805	 0.426604634879041 
1806	 0.426997037894864 
1807	 0.427410621843291 
1808	 0.427795586979996 
1809	 0.428114164579832 
1810	 0.428513501120457 
1811	 0.42894529391121 
1812	 0.429369386387465 
1813	 0.429845474460725 
1814	 0.430301775547789 
1815	 0.430706519614908 
1816	 0.431109459349483 
1817	 0.431537414501504 
1818	 0.431955076118181 
1819	 0.432399493706521 
1820	 0.432881570381588 
1821	 0.43335926976779 
1822	 0.433837158799771 
1823	 0.434339213232061 
1824	 0.434831534905461 
1825	 0.435278292179679 
1826	 0.435722428263392 
1827	 0.436122592879789 
1828	 0.436557007119407 
1829	 0.437030799890433 
1830	 0.43743996392548 
1831	 0.437810369350638 
1832	 0.438231344323797 
1833	 0.438593973603968 
1834	 0.438909899208472 
1835	 0.439291031091454 
1836	 0.439681794603947 
1837	 0.440048989415535 
1838	 0.440416804748723 
1839	 0.440771984537286 
1840	 0.4411154670722 
1841	 0.441434112711673 
1842	 0.441735796706607 
1843	 0.442042751795543 
1844	 0.442309517993316 
1845	 0.442559182022158 
1846	 0.442791696610943 
1847	 0.442980467999275 
1848	 0.44311828343248 
1849	 0.443202989010124 
1850	 0.443283168597765 
1851	 0.443342685958657 
1852	 0.443353085550035 
1853	 0.443298543095703 
1854	 0.443185696484808 
1855	 0.442968808040812 
1856	 0.442663784580289 
1857	 0.442361809965273 
1858	 0.441984739567062 
1859	 0.441525369395277 
1860	 0.440999506891387 
1861	 0.440409881029231 
1862	 0.43972950551771 
1863	 0.439020504202887 
1864	 0.43827224310656 
1865	 0.437411648426396 
1866	 0.436459001909679 
1867	 0.435450859794093 
1868	 0.434392347021774 
1869	 0.433202345234323 
1870	 0.431931694850719 
1871	 0.43062016967153 
1872	 0.429189832943892 
1873	 0.427638821485907 
1874	 0.426056317624251 
1875	 0.424354896600317 
1876	 0.422399343343238 
1877	 0.420442023327321 
1878	 0.418362479772181 
1879	 0.416152576982685 
1880	 0.413973723454922 
1881	 0.411615941206784 
1882	 0.409082406495008 
1883	 0.406516456501585 
1884	 0.403817577974455 
1885	 0.400821606714084 
1886	 0.397854509966523 
1887	 0.394602481652139 
1888	 0.391179577023156 
1889	 0.387952738639771 
1890	 0.384483004994435 
1891	 0.380991199923053 
1892	 0.377478009355664 
1893	 0.373768312417703 
1894	 0.369828278600248 
1895	 0.365988468403934 
1896	 0.362006506059165 
1897	 0.357962260026628 
1898	 0.354195041031636 
1899	 0.350287455295624 
1900	 0.346480158670952 
1901	 0.342778147540569 
1902	 0.338822557444205 
1903	 0.335036144702164 
1904	 0.331283969969387 
1905	 0.327502217844436 
1906	 0.323767540296549 
1907	 0.320416397184531 
1908	 0.317062462881869 
1909	 0.313894958997439 
1910	 0.310884208608516 
1911	 0.307773326336859 
1912	 0.304889387583631 
1913	 0.301994682863879 
1914	 0.299172509415067 
1915	 0.296568556980181 
1916	 0.294200452400324 
1917	 0.291760693090185 
1918	 0.289477191126043 
1919	 0.287324873002259 
1920	 0.285032146800023 
1921	 0.282873958409114 
1922	 0.280735713253324 
1923	 0.278547559232719 
1924	 0.276619869226266 
1925	 0.274741741361708 
1926	 0.272899812651707 
1927	 0.271195829695266 
1928	 0.269480682761854 
1929	 0.267725690771408 
1930	 0.266101137796988 
1931	 0.26459642196387 
1932	 0.263149501344567 
1933	 0.261897463284339 
1934	 0.260733564531788 
1935	 0.259706871571865 
1936	 0.258827421407238 
1937	 0.258075479107583 
1938	 0.257475115967709 
1939	 0.257001947409534 
1940	 0.256627591159357 
1941	 0.256450703980067 
1942	 0.256407704907437 
1943	 0.25646092904333 
1944	 0.256611547410285 
1945	 0.256798097870153 
1946	 0.257120542199769 
1947	 0.257564254685389 
1948	 0.258141650240088 
1949	 0.258875065926354 
1950	 0.259651960054219 
1951	 0.260501235091741 
1952	 0.261473993754928 
1953	 0.262515827271665 
1954	 0.26368250438654 
1955	 0.265047755749457 
1956	 0.266505274106823 
1957	 0.268030470060055 
1958	 0.269624881527257 
1959	 0.271076292301071 
1960	 0.272475176589271 
1961	 0.273779879963563 
1962	 0.274958184329053 
1963	 0.276085976502077 
1964	 0.277183121860971 
1965	 0.278145047043223 
1966	 0.278999375328105 
1967	 0.27979998409865 
1968	 0.280457617658973 
1969	 0.281141059327488 
1970	 0.281841808117171 
1971	 0.282541567918863 
1972	 0.28333897302021 
1973	 0.284132788717118 
1974	 0.284935320586302 
1975	 0.285772456714427 
1976	 0.286602775602018 
1977	 0.287403773007129 
1978	 0.288271736545838 
1979	 0.28916335220545 
1980	 0.290075558001287 
1981	 0.291098547448602 
1982	 0.292047406934016 
1983	 0.293032934055748 
1984	 0.294081219085779 
1985	 0.295043572621862 
1986	 0.296158580578867 
1987	 0.297345366789071 
1988	 0.298524379235985 
1989	 0.299912145237575 
1990	 0.301460665314044 
1991	 0.303074495772371 
1992	 0.304810441624804 
1993	 0.30672859192975 
1994	 0.3085479490273 
1995	 0.310523459416652 
1996	 0.312534622194285 
1997	 0.314493647841055 
1998	 0.316575714253058 
1999	 0.318821799103313 
2000	 0.320870513359296 
2001	 0.323008171624769 
2002	 0.324923227153127 
2003	 0.326612557733006 
2004	 0.328357850229447 
2005	 0.330034775536958 
2006	 0.331654928031134 
2007	 0.333306293629786 
2008	 0.334804220121469 
2009	 0.336207843271315 
2010	 0.337516541917811 
2011	 0.338609123311696 
2012	 0.339698982283371 
2013	 0.340725648776799 
2014	 0.341649796823538 
2015	 0.342523445811381 
2016	 0.343399511006624 
2017	 0.344134844935918 
2018	 0.344741078085813 
2019	 0.345305787610029 
2020	 0.345775709603349 
2021	 0.346187563272883 
2022	 0.346586012799769 
2023	 0.347009751555911 
2024	 0.347390360804438 
2025	 0.347680613926412 
2026	 0.34790962188031 
2027	 0.34805079273311 
2028	 0.348156960190205 
2029	 0.348189635922056 
2030	 0.34821206504559 
2031	 0.34814655792076 
2032	 0.348129026285416 
2033	 0.348112466298522 
2034	 0.348094012947832 
2035	 0.348094504737914 
2036	 0.348090074217854 
2037	 0.348021925334034 
2038	 0.34799569286924 
2039	 0.347964566083982 
2040	 0.34793747036963 
2041	 0.347877094583938 
2042	 0.347802020947614 
2043	 0.347745337054272 
2044	 0.347657532783299 
2045	 0.347614085678987 
2046	 0.347604640105753 
2047	 0.347605838192177 
2048	 0.347642367986702 
2049	 0.347646618914316 
2050	 0.347684840241279 
2051	 0.347665190055492 
2052	 0.347572557416378 
2053	 0.347532129699343 
2054	 0.347500237716612 
2055	 0.347480886478215 
2056	 0.347444215611571 
2057	 0.347425933038405 
2058	 0.347369730710163 
2059	 0.347263909456314 
2060	 0.347200153044566 
2061	 0.347147174582123 
2062	 0.347102063102582 
2063	 0.347075914191496 
2064	 0.34703778679359 
2065	 0.346988764390138 
2066	 0.346955367470036 
2067	 0.34692392615593 
2068	 0.346922844363182 
2069	 0.346916267737082 
2070	 0.346912289269724 
2071	 0.34693174143824 
2072	 0.346998401047484 
2073	 0.346992348425894 
2074	 0.347000113093272 
2075	 0.346946097248954 
2076	 0.346792845709418 
2077	 0.346674781829056 
2078	 0.346542427307468 
2079	 0.346419427356087 
2080	 0.346311353185817 
2081	 0.346190842630377 
2082	 0.34608158008641 
2083	 0.345937635608547 
2084	 0.345760488139685 
2085	 0.345595745762683 
2086	 0.345421768266932 
2087	 0.345234109409756 
2088	 0.345045262910903 
2089	 0.344865867439225 
2090	 0.344652702015517 
2091	 0.344428607499812 
2092	 0.344170416456677 
2093	 0.343861411449978 
2094	 0.343587088307335 
2095	 0.343315746416523 
2096	 0.343025593531082 
2097	 0.342762720015747 
2098	 0.342462138143093 
2099	 0.342103205383502 
2100	 0.341695382742871 
2101	 0.341311040716222 
2102	 0.340913077522582 
2103	 0.340492573860988 
2104	 0.340076680028344 
2105	 0.33962193499878 
2106	 0.339100716248183 
2107	 0.338624460953047 
2108	 0.338201772785504 
2109	 0.337681594245717 
2110	 0.3371248948207 
2111	 0.336553039158182 
2112	 0.335883215509185 
2113	 0.335259035694881 
2114	 0.334671987245194 
2115	 0.334052694535799 
2116	 0.333425281367826 
2117	 0.332791885385299 
2118	 0.332122313007169 
2119	 0.331436342935518 
2120	 0.330725800682097 
2121	 0.329972293499282 
2122	 0.329226474962133 
2123	 0.328427643113718 
2124	 0.327698014585609 
2125	 0.327008298564541 
2126	 0.326298495627445 
2127	 0.325614137718452 
2128	 0.324940890569877 
2129	 0.32418029282814 
2130	 0.323563690181906 
2131	 0.323139545390786 
2132	 0.322562100898569 
2133	 0.321947003577344 
2134	 0.321392247741668 
2135	 0.320722526236904 
2136	 0.32008068352376 
2137	 0.319531943207657 
2138	 0.319089694730878 
2139	 0.318621185777329 
2140	 0.31821400043765 
2141	 0.317717034437651 
2142	 0.317205208724897 
2143	 0.316698353843049 
2144	 0.316103659852074 
2145	 0.31560873177237 
2146	 0.315133286699547 
2147	 0.314736673650272 
2148	 0.314454876359508 
2149	 0.314108378094845 
2150	 0.313796700882601 
2151	 0.313486467947688 
2152	 0.313115945692622 
2153	 0.312776210187453 
2154	 0.312575743806312 
2155	 0.31239814453315 
2156	 0.312217280140049 
2157	 0.312107739561932 
2158	 0.311927981969939 
2159	 0.311698496303664 
2160	 0.31151330695912 
2161	 0.311346566001672 
2162	 0.311155879694618 
2163	 0.310976697706458 
2164	 0.310785018899029 
2165	 0.3105623849165 
2166	 0.310354316443956 
2167	 0.31015077610741 
2168	 0.309949738424693 
2169	 0.309767909983646 
2170	 0.309548848662381 
2171	 0.309286870649164 
2172	 0.309071693050316 
2173	 0.308821991705088 
2174	 0.308637571066902 
2175	 0.308547925867287 
2176	 0.30842328858524 
2177	 0.308295468987999 
2178	 0.308176597684537 
2179	 0.308059476073883 
2180	 0.307925007002447 
2181	 0.307830084854266 
2182	 0.307749935168032 
2183	 0.307698755336518 
2184	 0.307681649416018 
2185	 0.307639979298752 
2186	 0.307666654897371 
2187	 0.307587408115416 
2188	 0.307384367240217 
2189	 0.307294075781021 
2190	 0.307227223264925 
2191	 0.307129813939927 
2192	 0.307093100078245 
2193	 0.307027069476685 
2194	 0.306877771260145 
2195	 0.306767378881482 
2196	 0.30670509923447 
2197	 0.306643452931054 
2198	 0.306505026415093 
2199	 0.306328869994079 
2200	 0.306122987353662 
2201	 0.305865325571646 
2202	 0.305581052321778 
2203	 0.305257839207164 
2204	 0.304959406961041 
2205	 0.304597989410028 
2206	 0.304309476726586 
2207	 0.304087909271534 
2208	 0.303810991361334 
2209	 0.30352862367978 
2210	 0.303266037066849 
2211	 0.302971237612628 
2212	 0.302720734227174 
2213	 0.302517247143 
2214	 0.302300304247968 
2215	 0.302091744033794 
2216	 0.301890789674865 
2217	 0.301669441784567 
2218	 0.301502198986362 
2219	 0.30134133571843 
2220	 0.301238558400233 
2221	 0.301226729689178 
2222	 0.301212031436132 
2223	 0.301128295894208 
2224	 0.301020478415138 
2225	 0.300895077091695 
2226	 0.300751845435029 
2227	 0.300643756013422 
2228	 0.300651515266466 
2229	 0.300440776635036 
2230	 0.300192533379766 
2231	 0.299773382005396 
2232	 0.299202434464827 
2233	 0.29853133713368 
2234	 0.297735490677248 
2235	 0.296852428968732 
2236	 0.295861649769608 
2237	 0.294749589533785 
2238	 0.293498262802986 
2239	 0.29220278486936 
2240	 0.290831307168494 
2241	 0.289313505474705 
2242	 0.287726457296743 
2243	 0.285984963740881 
2244	 0.284049609723214 
2245	 0.282054088196414 
2246	 0.279919662542388 
2247	 0.277751708159124 
2248	 0.275485045005956 
2249	 0.273149699332584 
2250	 0.270767560440358 
2251	 0.26832954138169 
2252	 0.265645250805748 
2253	 0.263009796373484 
2254	 0.260375571844395 
2255	 0.257745685969083 
2256	 0.255357923651447 
2257	 0.25292832980799 
2258	 0.250554298329056 
2259	 0.248294757525653 
2260	 0.24587610560943 
2261	 0.243383692914666 
2262	 0.241021700725062 
2263	 0.238529685901895 
2264	 0.236310943793251 
2265	 0.234333646044122 
2266	 0.232284358095808 
2267	 0.230357898319487 
2268	 0.228383703943377 
2269	 0.226392791213107 
2270	 0.224467811031652 
2271	 0.222533195195666 
2272	 0.220693366458892 
2273	 0.218962779859903 
2274	 0.217181872047301 
2275	 0.215509850028647 
2276	 0.213704715234352 
2277	 0.211803049214329 
2278	 0.209927915299496 
2279	 0.20795274863638 
2280	 0.206052005432558 
2281	 0.204255553378883 
2282	 0.202342538817957 
2283	 0.200421660716379 
2284	 0.198464400713225 
2285	 0.196255849036709 
2286	 0.194088536869282 
2287	 0.191847445153304 
2288	 0.189537117765485 
2289	 0.187461234495642 
2290	 0.185296034561719 
2291	 0.183133267412414 
2292	 0.180932942386418 
2293	 0.178395442485149 
2294	 0.175981739291732 
2295	 0.173713561572423 
2296	 0.171595608118485 
2297	 0.169804117064262 
2298	 0.168408227411683 
2299	 0.16701452207177 
2300	 0.165735854491192 
2301	 0.164760076698897 
2302	 0.163927911443386 
2303	 0.163518631624312 
2304	 0.163519930824475 
2305	 0.163650624998391 
2306	 0.164133374067786 
2307	 0.164676855469125 
2308	 0.165288517609882 
2309	 0.166292295259119 
2310	 0.167650749837905 
2311	 0.169030508590585 
2312	 0.170707690810282 
2313	 0.172424638368091 
2314	 0.174265314334752 
2315	 0.176079292045374 
2316	 0.178051502569696 
2317	 0.17993388389341 
2318	 0.181894768406965 
2319	 0.183546417832379 
2320	 0.185214663939146 
2321	 0.186493482486953 
2322	 0.187306567513107 
2323	 0.188102324449289 
2324	 0.188758111212754 
2325	 0.189216360256692 
2326	 0.189555042880274 
2327	 0.189667117223375 
2328	 0.189479257081175 
2329	 0.189170803547031 
2330	 0.188724791704375 
2331	 0.188015094532733 
2332	 0.187116743303805 
2333	 0.186142857136903 
2334	 0.185034503930224 
2335	 0.183868421792638 
2336	 0.182686675705771 
2337	 0.18139477435587 
2338	 0.179938640718997 
2339	 0.178349634734402 
2340	 0.176827519987781 
2341	 0.175411935964847 
2342	 0.174023323401808 
2343	 0.172824839373862 
2344	 0.171759854053268 
2345	 0.170877402767501 
2346	 0.170400556871177 
2347	 0.17019331448592 
2348	 0.170093484375449 
2349	 0.17022497599729 
2350	 0.170659874364575 
2351	 0.17142481271143 
2352	 0.17256514973471 
2353	 0.173959162341571 
2354	 0.175102102539521 
2355	 0.176208343227247 
2356	 0.17739314299886 
2357	 0.178215460967963 
2358	 0.179063422902198 
2359	 0.179829954016522 
2360	 0.180308032365351 
2361	 0.180754642706466 
2362	 0.180829085934042 
2363	 0.180678372188849 
2364	 0.180544507735325 
2365	 0.1802819777477 
2366	 0.180237005483856 
2367	 0.180274938576423 
2368	 0.180168273700178 
2369	 0.179892740735322 
2370	 0.179522013079591 
2371	 0.179288081688118 
2372	 0.17902847431102 
2373	 0.178852284882966 
2374	 0.178762431716971 
2375	 0.178594383454298 
2376	 0.178471046131422 
2377	 0.178299476792967 
2378	 0.178065381479412 
2379	 0.177852395985613 
2380	 0.177604776711917 
2381	 0.177454953763058 
2382	 0.17736200426056 
2383	 0.177467526278692 
2384	 0.1773249780861 
2385	 0.177085485145637 
2386	 0.176826607067507 
2387	 0.176318422737578 
2388	 0.175988741403494 
2389	 0.175767554459962 
2390	 0.175747475295542 
2391	 0.17599475675318 
2392	 0.175999537923304 
2393	 0.175942341216112 
2394	 0.175885272958686 
2395	 0.175698023780744 
2396	 0.175477408301265 
2397	 0.17542808400691 
2398	 0.175234884083928 
2399	 0.174690665693022 
2400	 0.174472524470044 
2401	 0.174481619568745 
2402	 0.17443508125461 
2403	 0.174275617483558 
2404	 0.174080438834558 
2405	 0.173847383080533 
2406	 0.173577935999454 
2407	 0.173512086347995 
2408	 0.17342567029644 
2409	 0.173073027816632 
2410	 0.172791271440828 
2411	 0.172594804780122 
2412	 0.17249290777495 
2413	 0.172378844714871 
2414	 0.172067909464249 
2415	 0.171711810524849 
2416	 0.171383502214541 
2417	 0.171326539480506 
2418	 0.171509357148873 
2419	 0.171527180391018 
2420	 0.171261353046714 
2421	 0.170852012119535 
2422	 0.170173026532957 
2423	 0.169674123630615 
2424	 0.169478828333038 
2425	 0.169174213039404 
2426	 0.169154435623409 
2427	 0.169220006826364 
2428	 0.169008858649931 
2429	 0.168908028184676 
2430	 0.168826091455211 
2431	 0.168390393879673 
2432	 0.167979878932152 
2433	 0.167777163890118 
2434	 0.167745394508617 
2435	 0.167929302056578 
2436	 0.167986056197294 
2437	 0.167689404108147 
2438	 0.167131301459589 
2439	 0.166363743491399 
2440	 0.165749220256324 
2441	 0.165325298882176 
2442	 0.164764845640313 
2443	 0.164657385112373 
2444	 0.164782126975721 
2445	 0.164961885231584 
2446	 0.165126418083358 
2447	 0.164739560796373 
2448	 0.164449112358361 
2449	 0.163998437627445 
2450	 0.163257903653299 
2451	 0.162908603192985 
2452	 0.162408052647786 
2453	 0.161563167449471 
2454	 0.161102161466713 
2455	 0.160506027508655 
2456	 0.15957287153227 
2457	 0.159248432947523 
2458	 0.159212830323845 
2459	 0.158939311213084 
2460	 0.15833033405318 
2461	 0.157606105132527 
2462	 0.157166299561673 
2463	 0.156688973428947 
2464	 0.156499680982525 
2465	 0.156637350162677 
2466	 0.156044682459452 
2467	 0.155312132454451 
2468	 0.154794921160941 
2469	 0.154273841641748 
2470	 0.154070312245969 
2471	 0.153899804228121 
2472	 0.154177612855754 
2473	 0.154395002023541 
2474	 0.153911953735906 
2475	 0.153829991736467 
2476	 0.153950112105405 
2477	 0.153503342428223 
2478	 0.153037645401063 
2479	 0.152754723142226 
2480	 0.152335665937639 
2481	 0.152008873350864 
2482	 0.152110644239279 
2483	 0.151412785128663 
2484	 0.150619552906316 
2485	 0.151491876512718 
2486	 0.15222080447649 
2487	 0.152785141547628 
2488	 0.153583520338005 
2489	 0.153041466936142 
2490	 0.152726656829722 
2491	 0.152562398541699 
2492	 0.152165649096761 
2493	 0.152133978342619 
2494	 0.152442010067599 
2495	 0.152879987321101 
2496	 0.153778252949021 
2497	 0.155552361180591 
2498	 0.155804834145041 
2499	 0.155619011936069 
2500	 0.156407805455109 
