Wavelength	Tablay400006.asd
350	 0.246853545009509 
351	 0.220864721859023 
352	 0.21642058054127 
353	 0.219060511663316 
354	 0.226720312640927 
355	 0.229567263906987 
356	 0.224297847723505 
357	 0.213383127323277 
358	 0.208665117942846 
359	 0.194824216977808 
360	 0.191109940615922 
361	 0.22079730434607 
362	 0.17694578906565 
363	 0.15591832580071 
364	 0.1871769876347 
365	 0.181983741281345 
366	 0.187674042018864 
367	 0.191597541817603 
368	 0.182275839384389 
369	 0.197535134980286 
370	 0.179261768269965 
371	 0.145632786081057 
372	 0.151589090132799 
373	 0.158241957960593 
374	 0.149574345500426 
375	 0.130435939590872 
376	 0.132121568653903 
377	 0.143460201970235 
378	 0.153531281296686 
379	 0.154368038440738 
380	 0.144830401451807 
381	 0.139677426378055 
382	 0.137534626330559 
383	 0.12868257178493 
384	 0.133364854200072 
385	 0.128556073722425 
386	 0.114438699930964 
387	 0.13290877741268 
388	 0.131107929831505 
389	 0.11840238871647 
390	 0.115478027222584 
391	 0.118465671739437 
392	 0.118725549734417 
393	 0.116239965391342 
394	 0.115766804119592 
395	 0.106728542348421 
396	 0.104803687377582 
397	 0.112922095160047 
398	 0.108954621240318 
399	 0.103840971545821 
400	 0.101393026301368 
401	 0.102092279359017 
402	 0.102359490757285 
403	 9.78153894701229E-02 
404	 9.27908279374059E-02 
405	 9.64023869627361E-02 
406	 9.67932045753209E-02 
407	 9.53189760186765E-02 
408	 9.30497075436464E-02 
409	 8.55285959309483E-02 
410	 8.59247347823105E-02 
411	 9.07526366391764E-02 
412	 9.19853072377284E-02 
413	 0.088894484514488 
414	 0.085096026292327 
415	 8.36102115705635E-02 
416	 8.61585272267833E-02 
417	 0.085599013986421 
418	 8.39469676095856E-02 
419	 8.33404116460502E-02 
420	 0.082564158837383 
421	 0.080308215739447 
422	 7.81502318614937E-02 
423	 0.078303587518479 
424	 7.89360899043965E-02 
425	 8.01602168001813E-02 
426	 8.06425649779037E-02 
427	 7.74167848698026E-02 
428	 7.78068626155976E-02 
429	 7.87353016169133E-02 
430	 7.72227140822386E-02 
431	 7.76035013436183E-02 
432	 7.63322214159877E-02 
433	 7.50581622291756E-02 
434	 0.07726754507853 
435	 7.60840314243235E-02 
436	 7.55945858344883E-02 
437	 7.71622528111702E-02 
438	 7.63716960423586E-02 
439	 0.075660561204647 
440	 7.63750377503426E-02 
441	 7.86870132565153E-02 
442	 0.079708489031005 
443	 7.89369313439852E-02 
444	 7.77041153926401E-02 
445	 7.83722306535947E-02 
446	 7.77013201354768E-02 
447	 7.77612534479614E-02 
448	 7.95596401899852E-02 
449	 8.02219923698986E-02 
450	 8.08425332468428E-02 
451	 8.13845953226149E-02 
452	 8.16474722347629E-02 
453	 8.26814794471602E-02 
454	 8.30926347625594E-02 
455	 8.32126429307406E-02 
456	 8.52556798153954E-02 
457	 8.54995378298413E-02 
458	 8.57214826101731E-02 
459	 8.75376247302974E-02 
460	 8.86114224018784E-02 
461	 9.00215893438114E-02 
462	 9.13143395284386E-02 
463	 9.15799208470521E-02 
464	 9.32966493617018E-02 
465	 9.46390053237808E-02 
466	 9.51560427392675E-02 
467	 9.71040685007987E-02 
468	 9.92484461719874E-02 
469	 0.100776187557482 
470	 0.101500504986728 
471	 0.103165794566716 
472	 0.104962144745619 
473	 0.106717031512084 
474	 0.108791321053267 
475	 0.111096811843825 
476	 0.113222797057924 
477	 0.115156253194174 
478	 0.11794811575067 
479	 0.119723401666848 
480	 0.121450172070722 
481	 0.124593029236811 
482	 0.126634077629864 
483	 0.128577986980072 
484	 0.131023089224365 
485	 0.133827190032766 
486	 0.136686630170195 
487	 0.13925748291466 
488	 0.14152651391707 
489	 0.144483517096075 
490	 0.147100588390707 
491	 0.149413151058237 
492	 0.152002236888662 
493	 0.154397242421087 
494	 0.156991583308275 
495	 0.159780975239355 
496	 0.161948634884877 
497	 0.164645374813546 
498	 0.167242717641395 
499	 0.169071405647889 
500	 0.171704297413822 
501	 0.174357223877237 
502	 0.1766854613108 
503	 0.17881287405864 
504	 0.180847638552564 
505	 0.183137168003511 
506	 0.185711680998729 
507	 0.187814052052436 
508	 0.189744101543755 
509	 0.191875003358375 
510	 0.194400737799533 
511	 0.196026119235005 
512	 0.197788873593243 
513	 0.20002846607142 
514	 0.201974579804114 
515	 0.203806421912039 
516	 0.205670340659015 
517	 0.207609215901595 
518	 0.209267066046952 
519	 0.211031654611494 
520	 0.213013946397228 
521	 0.215082016090885 
522	 0.216699614477846 
523	 0.21828233038041 
524	 0.220105706335455 
525	 0.221924332921391 
526	 0.223824418250877 
527	 0.225683525093833 
528	 0.227372947150085 
529	 0.229124583052332 
530	 0.230713970145904 
531	 0.232156144304476 
532	 0.233727973896987 
533	 0.235532602770898 
534	 0.23714754326619 
535	 0.238381254194579 
536	 0.240014184528359 
537	 0.241635529041981 
538	 0.243221285558455 
539	 0.244918989306415 
540	 0.246414093440807 
541	 0.24778913779327 
542	 0.249180492454996 
543	 0.250736583199334 
544	 0.252252635682222 
545	 0.253739544629098 
546	 0.2552557007759 
547	 0.256762018070254 
548	 0.258264172733068 
549	 0.259781004097983 
550	 0.261339879615177 
551	 0.262944982895592 
552	 0.264568293933301 
553	 0.266177767350672 
554	 0.267752414606579 
555	 0.269204752469824 
556	 0.270540884012652 
557	 0.271820623844696 
558	 0.273112471986316 
559	 0.27431671695941 
560	 0.275452924236963 
561	 0.276728780336582 
562	 0.277803613795108 
563	 0.27879132798491 
564	 0.279842046480483 
565	 0.280735301182924 
566	 0.281626967446374 
567	 0.282559024656117 
568	 0.283505542820225 
569	 0.28475965172001 
570	 0.286131479688884 
571	 0.287456377535399 
572	 0.288797619348255 
573	 0.290010927104656 
574	 0.291070193572124 
575	 0.29201455825732 
576	 0.292926382791544 
577	 0.293730663023832 
578	 0.29442600344447 
579	 0.295103147835994 
580	 0.295693839150714 
581	 0.296257075731428 
582	 0.296868023162825 
583	 0.297567949227481 
584	 0.298248704946286 
585	 0.298926812307137 
586	 0.299681566927436 
587	 0.300447329846229 
588	 0.30108000166084 
589	 0.301651630691707 
590	 0.302595329895715 
591	 0.303523708627532 
592	 0.304410782345744 
593	 0.305346799157471 
594	 0.306438188016442 
595	 0.30745450234648 
596	 0.308334289045111 
597	 0.309175343214802 
598	 0.309976598854283 
599	 0.310642795349842 
600	 0.311171085238053 
601	 0.31181629583651 
602	 0.312437941424209 
603	 0.312969793263824 
604	 0.313402289469895 
605	 0.313889927725876 
606	 0.31443233447863 
607	 0.314955098210099 
608	 0.315313863606704 
609	 0.315721175144707 
610	 0.316205365453541 
611	 0.31672185299961 
612	 0.317144921847893 
613	 0.317647723679089 
614	 0.318176297614739 
615	 0.318557729659695 
616	 0.319006935709872 
617	 0.319507585008708 
618	 0.320002806398121 
619	 0.320423578151311 
620	 0.320768359593793 
621	 0.321158263630575 
622	 0.321680202102653 
623	 0.322050511426097 
624	 0.322419017923566 
625	 0.322834780214605 
626	 0.323234454400728 
627	 0.32357107009461 
628	 0.323838191042471 
629	 0.32409498987556 
630	 0.324553823623372 
631	 0.324918503329363 
632	 0.325168653043628 
633	 0.325410803076206 
634	 0.325671959424511 
635	 0.325966291494559 
636	 0.326273681219792 
637	 0.326536718532933 
638	 0.326758027349982 
639	 0.327050748426486 
640	 0.327443600037664 
641	 0.327596747710151 
642	 0.327828822130228 
643	 0.328133577420209 
644	 0.328321925887007 
645	 0.328530576467259 
646	 0.328755263937746 
647	 0.328982801329858 
648	 0.329218072752149 
649	 0.329334827067585 
650	 0.329464547829052 
651	 0.329733664060591 
652	 0.329897104369681 
653	 0.330005082737285 
654	 0.330122579915922 
655	 0.330311069422103 
656	 0.330518058356924 
657	 0.330667347190641 
658	 0.33074972120123 
659	 0.330900616075707 
660	 0.331045700395121 
661	 0.331209151724221 
662	 0.331407480606124 
663	 0.331418358559821 
664	 0.331523396608151 
665	 0.331735541772612 
666	 0.331784804737042 
667	 0.331954196086869 
668	 0.332081124532449 
669	 0.332063736683037 
670	 0.332174128753724 
671	 0.33233039895138 
672	 0.332454006276664 
673	 0.332482440674254 
674	 0.332476232471508 
675	 0.332522802289118 
676	 0.332634499725129 
677	 0.332733310513132 
678	 0.332815025203374 
679	 0.332871042087074 
680	 0.332890446526376 
681	 0.332836051244652 
682	 0.332838315920484 
683	 0.332935998272067 
684	 0.333080108379929 
685	 0.332996922448324 
686	 0.332927373011184 
687	 0.333004460178037 
688	 0.333134448453948 
689	 0.333241697545487 
690	 0.333238311310423 
691	 0.333129387657188 
692	 0.333216404665554 
693	 0.333294109729011 
694	 0.333317301348523 
695	 0.33333960825212 
696	 0.333283021373446 
697	 0.333269821875501 
698	 0.333352508875249 
699	 0.3334432592621 
700	 0.333511285507511 
701	 0.333517537721893 
702	 0.333449184641155 
703	 0.333357601568658 
704	 0.333379353798197 
705	 0.333490536317582 
706	 0.333552113417322 
707	 0.333497216457043 
708	 0.333421071999982 
709	 0.333398806120414 
710	 0.333434609726648 
711	 0.333456107308033 
712	 0.333477464289695 
713	 0.333510878239448 
714	 0.333439646872244 
715	 0.333407273960308 
716	 0.333452542192783 
717	 0.333523642465736 
718	 0.333519465241013 
719	 0.333517041768691 
720	 0.33354795090592 
721	 0.333519585405539 
722	 0.333558487550543 
723	 0.33366312624559 
724	 0.333774147273792 
725	 0.333775115508431 
726	 0.333805587526962 
727	 0.333864518695841 
728	 0.333866784629342 
729	 0.334008046736142 
730	 0.334108105866385 
731	 0.334087879990981 
732	 0.334106061930217 
733	 0.334257189225969 
734	 0.33443987750824 
735	 0.334538869873681 
736	 0.334655059166963 
737	 0.334644440999752 
738	 0.334586859870574 
739	 0.334679506762963 
740	 0.334724479028861 
741	 0.334757472510963 
742	 0.334805894771559 
743	 0.334843551230989 
744	 0.334865148646209 
745	 0.334883402884496 
746	 0.334922478172926 
747	 0.335026854971042 
748	 0.335134818849356 
749	 0.335228229103959 
750	 0.335316315304547 
751	 0.335394298174393 
752	 0.335489388461482 
753	 0.335611697113417 
754	 0.335745663086553 
755	 0.335882546468991 
756	 0.336018678307059 
757	 0.336159689300308 
758	 0.336329529708723 
759	 0.33652818668114 
760	 0.33670943533193 
761	 0.336836012511852 
762	 0.337072979098328 
763	 0.337302343934575 
764	 0.337451308925901 
765	 0.337529677209954 
766	 0.33773161481383 
767	 0.337938791821001 
768	 0.338070693549234 
769	 0.33828056476658 
770	 0.338507876925173 
771	 0.338728838144867 
772	 0.338931810544181 
773	 0.339111324437183 
774	 0.339292348583743 
775	 0.339464445973056 
776	 0.339598161852546 
777	 0.339802385456283 
778	 0.340029495691978 
779	 0.34024364660243 
780	 0.340470795611982 
781	 0.340658871943859 
782	 0.340821863248967 
783	 0.340986759659064 
784	 0.341146528465704 
785	 0.341338448127661 
786	 0.341534474812396 
787	 0.341680162369268 
788	 0.341829078253585 
789	 0.341984821018424 
790	 0.342149334130275 
791	 0.342326025620941 
792	 0.342438721073435 
793	 0.342609417613574 
794	 0.342891307251028 
795	 0.34307437457998 
796	 0.343255257601156 
797	 0.343453319693131 
798	 0.34365419165756 
799	 0.343802647337503 
800	 0.34400476982958 
801	 0.344263939327684 
802	 0.344502763189425 
803	 0.34474083947725 
804	 0.345004683600178 
805	 0.345269607167407 
806	 0.345435988123511 
807	 0.345654371107199 
808	 0.345888478885313 
809	 0.346089771836436 
810	 0.346318858008098 
811	 0.346577968928431 
812	 0.346803928705646 
813	 0.346939954418208 
814	 0.347145127908185 
815	 0.347302666843647 
816	 0.34743014446802 
817	 0.347657395828211 
818	 0.347800405584942 
819	 0.347945008173712 
820	 0.348128357213102 
821	 0.348241502861247 
822	 0.348411764803832 
823	 0.348574938428669 
824	 0.348657617272311 
825	 0.348713701263349 
826	 0.348808680143368 
827	 0.348929612477453 
828	 0.349029755587963 
829	 0.349123626652672 
830	 0.349188724714076 
831	 0.34923744996098 
832	 0.349310273390486 
833	 0.349395753088246 
834	 0.349454203145878 
835	 0.349466491033746 
836	 0.349450801827701 
837	 0.349577249489848 
838	 0.349724125577622 
839	 0.349758612755103 
840	 0.349728968775247 
841	 0.349751098291386 
842	 0.349790055794279 
843	 0.349787049660787 
844	 0.349916204672392 
845	 0.350016529134364 
846	 0.35003808411535 
847	 0.350040070976235 
848	 0.350149460086263 
849	 0.350300005238792 
850	 0.350433977532669 
851	 0.350539099091147 
852	 0.350632944937101 
853	 0.350716678516036 
854	 0.350800391318724 
855	 0.350919099938949 
856	 0.351051028585508 
857	 0.351169194251078 
858	 0.351255099460273 
859	 0.351326702241501 
860	 0.351385493346565 
861	 0.351447981332406 
862	 0.35151918380816 
863	 0.351493654986784 
864	 0.351488867602029 
865	 0.351556583338215 
866	 0.351660275576669 
867	 0.351629761935031 
868	 0.35158657208289 
869	 0.351611443991292 
870	 0.351666593901012 
871	 0.351664116942288 
872	 0.351615059338999 
873	 0.351560901724092 
874	 0.351545582151305 
875	 0.35163698099495 
876	 0.351692667782093 
877	 0.351584713431457 
878	 0.351472623576251 
879	 0.351413772435111 
880	 0.351382987837198 
881	 0.351327426167743 
882	 0.3513160352478 
883	 0.351233780732881 
884	 0.351111950022507 
885	 0.351079652755017 
886	 0.3510278297604 
887	 0.35101346357643 
888	 0.351048732415861 
889	 0.351070565399917 
890	 0.350966104163366 
891	 0.350807241470452 
892	 0.350693449802815 
893	 0.350699838105968 
894	 0.350740816589366 
895	 0.35075897031611 
896	 0.350741738078562 
897	 0.35077840587647 
898	 0.350674932909216 
899	 0.350582699840166 
900	 0.350677422140329 
901	 0.350752234451544 
902	 0.350852842704379 
903	 0.350923506496464 
904	 0.350902468085311 
905	 0.350951232776432 
906	 0.351056275879108 
907	 0.351191267860136 
908	 0.351324963812451 
909	 0.351412782335842 
910	 0.351570046599567 
911	 0.351761893342779 
912	 0.351807965495984 
913	 0.35180432793095 
914	 0.351881161070831 
915	 0.352067638676705 
916	 0.352247792638785 
917	 0.352325057588926 
918	 0.352374459164985 
919	 0.352437170779636 
920	 0.352418853783816 
921	 0.352407385370319 
922	 0.352472284539489 
923	 0.352607887115226 
924	 0.352639456254546 
925	 0.352744757026991 
926	 0.352850801140513 
927	 0.352871907871431 
928	 0.352966362936115 
929	 0.353011957391779 
930	 0.353058373346724 
931	 0.353180985546843 
932	 0.353243029114333 
933	 0.353274092086307 
934	 0.353321957456178 
935	 0.353414275864823 
936	 0.353425197624666 
937	 0.353523150617192 
938	 0.353600970620644 
939	 0.353452576625965 
940	 0.353618642359744 
941	 0.353715235480947 
942	 0.35371330666921 
943	 0.353904050180771 
944	 0.353977220895977 
945	 0.353973601900927 
946	 0.353951516416283 
947	 0.353951020092437 
948	 0.354117439503549 
949	 0.354225769639806 
950	 0.354219789029886 
951	 0.354303552867662 
952	 0.354215584017039 
953	 0.354269787963995 
954	 0.354538466694023 
955	 0.35461219670427 
956	 0.354522757969932 
957	 0.354539398602996 
958	 0.354741957864716 
959	 0.354806164308586 
960	 0.355035186249966 
961	 0.355261577016044 
962	 0.355343922373607 
963	 0.355409849613074 
964	 0.355532714459701 
965	 0.355644466259696 
966	 0.355727767184594 
967	 0.355965201436208 
968	 0.356298691601291 
969	 0.356513770319112 
970	 0.356532742721982 
971	 0.356714917188415 
972	 0.356968410505658 
973	 0.35717256918835 
974	 0.357279133722236 
975	 0.35748510983073 
976	 0.357547714995147 
977	 0.357665816274972 
978	 0.357984498677123 
979	 0.358045583503318 
980	 0.358178222582041 
981	 0.358434724739749 
982	 0.358739726956087 
983	 0.358956213668146 
984	 0.35902106434851 
985	 0.359051251179003 
986	 0.359171494585861 
987	 0.359282452246468 
988	 0.359495101105896 
989	 0.35970973835756 
990	 0.359806475738939 
991	 0.359864559638847 
992	 0.359922930483315 
993	 0.359957148338218 
994	 0.359986201296189 
995	 0.360275377834532 
996	 0.360394872381862 
997	 0.360303854556215 
998	 0.360212928158913 
999	 0.360625287286831 
1000	 0.360650518010326 
1001	 0.3388370555135 
1002	 0.338878968263966 
1003	 0.338877630604395 
1004	 0.33888184571274 
1005	 0.338931836469133 
1006	 0.338887129848113 
1007	 0.338749931381168 
1008	 0.338711288140092 
1009	 0.338681549966984 
1010	 0.338601818429398 
1011	 0.338552114416198 
1012	 0.338500419977378 
1013	 0.338348652527501 
1014	 0.338294165876022 
1015	 0.338355806503037 
1016	 0.33833561879817 
1017	 0.338242542023612 
1018	 0.338305053449328 
1019	 0.338340582332371 
1020	 0.338303157696953 
1021	 0.338307406556642 
1022	 0.338329282570956 
1023	 0.338355219578971 
1024	 0.338377632766247 
1025	 0.338451918591985 
1026	 0.338565174859998 
1027	 0.338663027810744 
1028	 0.338756867075827 
1029	 0.338876261518473 
1030	 0.339093355818945 
1031	 0.339283796360918 
1032	 0.339477941201847 
1033	 0.339674762943069 
1034	 0.339730104695627 
1035	 0.339800304441748 
1036	 0.339934642570471 
1037	 0.340119023134467 
1038	 0.340261569727947 
1039	 0.340424833984585 
1040	 0.340605868229719 
1041	 0.340815513327116 
1042	 0.340928577296791 
1043	 0.341017281088903 
1044	 0.341097845756585 
1045	 0.341077346828075 
1046	 0.341139007345415 
1047	 0.341299679989961 
1048	 0.341392695280756 
1049	 0.34147259764542 
1050	 0.341537609079992 
1051	 0.34150723188217 
1052	 0.341410254768754 
1053	 0.341319526421041 
1054	 0.341156033675019 
1055	 0.341058486984195 
1056	 0.34101404968349 
1057	 0.340936687153001 
1058	 0.340853195131662 
1059	 0.340780816964044 
1060	 0.340765206497033 
1061	 0.340696468921823 
1062	 0.340604256333439 
1063	 0.340529503691095 
1064	 0.340387022175653 
1065	 0.340174996245982 
1066	 0.340011989767149 
1067	 0.339876124373765 
1068	 0.339648885527809 
1069	 0.339442939123389 
1070	 0.339279101666013 
1071	 0.339146367080066 
1072	 0.338980836642567 
1073	 0.338885107879631 
1074	 0.338758489449668 
1075	 0.338571460504355 
1076	 0.338461773677 
1077	 0.338287563826836 
1078	 0.338100461412243 
1079	 0.337980781518133 
1080	 0.337802370934496 
1081	 0.337719170882293 
1082	 0.337675304999429 
1083	 0.337588661418572 
1084	 0.337492242051968 
1085	 0.337294507162246 
1086	 0.337147837003459 
1087	 0.336995680619962 
1088	 0.336884042846879 
1089	 0.336737176197068 
1090	 0.336657708324916 
1091	 0.336588540034943 
1092	 0.336483255580314 
1093	 0.336476508599639 
1094	 0.336487405074974 
1095	 0.336463304357733 
1096	 0.33642345977129 
1097	 0.33633795604317 
1098	 0.336319102101273 
1099	 0.336285186402187 
1100	 0.336251720490136 
1101	 0.336294641095867 
1102	 0.336318724613694 
1103	 0.336362392778227 
1104	 0.336430383642792 
1105	 0.336500014226809 
1106	 0.336559832288059 
1107	 0.336627074361982 
1108	 0.336635190056786 
1109	 0.336689280603709 
1110	 0.336777357116418 
1111	 0.336829644420786 
1112	 0.336911411862862 
1113	 0.337023319919003 
1114	 0.337120582358083 
1115	 0.337228255190094 
1116	 0.337341236975897 
1117	 0.337473275258851 
1118	 0.337609673217207 
1119	 0.337746698415504 
1120	 0.337879475513581 
1121	 0.338025991815438 
1122	 0.338166266819916 
1123	 0.338283920658638 
1124	 0.338453834202451 
1125	 0.338615286601423 
1126	 0.338740632913225 
1127	 0.338877970983396 
1128	 0.339034190578201 
1129	 0.339203141102418 
1130	 0.339403821701908 
1131	 0.33959614280502 
1132	 0.339746933753099 
1133	 0.339889298496186 
1134	 0.340034403812524 
1135	 0.340187719139892 
1136	 0.340347770349789 
1137	 0.340511712766089 
1138	 0.340692935228888 
1139	 0.3408533085939 
1140	 0.341013004549443 
1141	 0.341153593652911 
1142	 0.341274720418885 
1143	 0.341409233628167 
1144	 0.341546008909537 
1145	 0.341684559029433 
1146	 0.341822847038314 
1147	 0.341930387742921 
1148	 0.342018595917165 
1149	 0.342078471153789 
1150	 0.342155110799186 
1151	 0.34225216911299 
1152	 0.34233023670317 
1153	 0.342396345742885 
1154	 0.342490312194847 
1155	 0.342587428992381 
1156	 0.342683946496153 
1157	 0.342826577747516 
1158	 0.34291129395927 
1159	 0.342969620455667 
1160	 0.342999503453439 
1161	 0.343038562764833 
1162	 0.343093388129935 
1163	 0.343151039160048 
1164	 0.343198755849566 
1165	 0.343226675340541 
1166	 0.343232974135327 
1167	 0.34323697936188 
1168	 0.343279882322523 
1169	 0.343302656407297 
1170	 0.343310327185783 
1171	 0.343336338626136 
1172	 0.343387265371052 
1173	 0.343392342014203 
1174	 0.343391368641541 
1175	 0.343381942983792 
1176	 0.343343088312933 
1177	 0.343300902530974 
1178	 0.343258185919878 
1179	 0.34321149344659 
1180	 0.343135704039444 
1181	 0.343030458775888 
1182	 0.342928931075731 
1183	 0.342833750818569 
1184	 0.342742244911508 
1185	 0.342659340640828 
1186	 0.342580201435929 
1187	 0.342503113417502 
1188	 0.342436249021419 
1189	 0.342386318501913 
1190	 0.342323277605871 
1191	 0.342264663524262 
1192	 0.342205330516569 
1193	 0.342124082367312 
1194	 0.342062591148575 
1195	 0.341997988380919 
1196	 0.341963421768324 
1197	 0.341939122941454 
1198	 0.341957626933125 
1199	 0.341959383747285 
1200	 0.341981330966674 
1201	 0.342024722214714 
1202	 0.342048094280185 
1203	 0.342105370093762 
1204	 0.342214146941847 
1205	 0.342309737344763 
1206	 0.342401517699491 
1207	 0.342529707403903 
1208	 0.342668926976059 
1209	 0.342838635576344 
1210	 0.343034530864562 
1211	 0.343249169681716 
1212	 0.343459632772748 
1213	 0.343756044378466 
1214	 0.344128239354481 
1215	 0.344489610087926 
1216	 0.344916377165578 
1217	 0.345321171141459 
1218	 0.34570472210271 
1219	 0.346095760085571 
1220	 0.346521160678269 
1221	 0.346983700196462 
1222	 0.347445057092112 
1223	 0.347944681898256 
1224	 0.348441115213567 
1225	 0.348968570482237 
1226	 0.349443259353684 
1227	 0.349927664712026 
1228	 0.350356334628621 
1229	 0.350733237620857 
1230	 0.351118002268271 
1231	 0.351471568398817 
1232	 0.351830934358903 
1233	 0.352197145185793 
1234	 0.352531809869306 
1235	 0.35285005843399 
1236	 0.353155226448722 
1237	 0.353443055470678 
1238	 0.353714665990877 
1239	 0.353966382126308 
1240	 0.354208742586619 
1241	 0.354468049568381 
1242	 0.354693644253655 
1243	 0.354939610762412 
1244	 0.355197866164091 
1245	 0.355454905902483 
1246	 0.355713252796068 
1247	 0.355964851563585 
1248	 0.356207688389114 
1249	 0.356480984299169 
1250	 0.356751428649193 
1251	 0.357039580900077 
1252	 0.357356669006299 
1253	 0.357679686111793 
1254	 0.357999827145693 
1255	 0.358349113280158 
1256	 0.358733944321664 
1257	 0.359117622319124 
1258	 0.359538627177856 
1259	 0.359921084501462 
1260	 0.360276777520907 
1261	 0.360648753984885 
1262	 0.361006390679928 
1263	 0.361378781462832 
1264	 0.361729064824655 
1265	 0.362084286121778 
1266	 0.362443802002365 
1267	 0.362805936372424 
1268	 0.363114443407724 
1269	 0.363431876818779 
1270	 0.36369709953489 
1271	 0.363887457485679 
1272	 0.364091675848855 
1273	 0.364294564153637 
1274	 0.364468491164193 
1275	 0.364634364413844 
1276	 0.364744830729381 
1277	 0.364809686273508 
1278	 0.364869890620809 
1279	 0.364874468773167 
1280	 0.364891872219474 
1281	 0.364924724589051 
1282	 0.364930135148039 
1283	 0.364917290073685 
1284	 0.364892064004929 
1285	 0.3648521756348 
1286	 0.364786466427536 
1287	 0.364741269868203 
1288	 0.364694030288933 
1289	 0.364642796227366 
1290	 0.364604062288219 
1291	 0.364539772905508 
1292	 0.364464012790543 
1293	 0.364373518050504 
1294	 0.364257967896263 
1295	 0.364160554169692 
1296	 0.36403992882184 
1297	 0.363959585410756 
1298	 0.363900229394361 
1299	 0.363854480301161 
1300	 0.363847956694927 
1301	 0.36381744116605 
1302	 0.363766719946443 
1303	 0.363753758157379 
1304	 0.363756598850753 
1305	 0.363755940946362 
1306	 0.363762422711562 
1307	 0.363799445846439 
1308	 0.36385490203408 
1309	 0.36389976332224 
1310	 0.363961418902952 
1311	 0.364060156681407 
1312	 0.364138592043238 
1313	 0.364188099338898 
1314	 0.364291650111388 
1315	 0.364425249009102 
1316	 0.364556765351021 
1317	 0.364708113748088 
1318	 0.36486216071087 
1319	 0.365007497261086 
1320	 0.365188999415736 
1321	 0.36539011706768 
1322	 0.365607158590397 
1323	 0.365859097399098 
1324	 0.366099071758074 
1325	 0.366349937026732 
1326	 0.366595945772738 
1327	 0.366839524037196 
1328	 0.367082725135538 
1329	 0.367315519377063 
1330	 0.367566691434886 
1331	 0.367823056774448 
1332	 0.368086581215177 
1333	 0.368368631815437 
1334	 0.368646720827101 
1335	 0.368933257565411 
1336	 0.369222292173702 
1337	 0.369518412844919 
1338	 0.36982848668119 
1339	 0.370119489692051 
1340	 0.370411704324265 
1341	 0.370689539751729 
1342	 0.370960588161762 
1343	 0.371215352781644 
1344	 0.371450254996107 
1345	 0.371696698345904 
1346	 0.371941169722011 
1347	 0.372171350257504 
1348	 0.37240953249582 
1349	 0.372625748854602 
1350	 0.372820342255911 
1351	 0.373010109988629 
1352	 0.37321082484282 
1353	 0.373367936005569 
1354	 0.373480325972627 
1355	 0.373609752122541 
1356	 0.373706102621584 
1357	 0.37382705541749 
1358	 0.373984035365014 
1359	 0.374117353662788 
1360	 0.374234850966088 
1361	 0.374362221910896 
1362	 0.374497791970882 
1363	 0.374639430968611 
1364	 0.374804077063649 
1365	 0.375005647043048 
1366	 0.375175464318442 
1367	 0.375353366270113 
1368	 0.375499222097046 
1369	 0.375627938521556 
1370	 0.375747305749165 
1371	 0.375857469474889 
1372	 0.375935622750619 
1373	 0.375991788822271 
1374	 0.376043285803954 
1375	 0.376085447035176 
1376	 0.376089285658516 
1377	 0.3760966146804 
1378	 0.376041934460252 
1379	 0.37590434811029 
1380	 0.375798623125862 
1381	 0.375663449918172 
1382	 0.375548288124707 
1383	 0.37544389205565 
1384	 0.375345707921292 
1385	 0.375256553720678 
1386	 0.375163619449967 
1387	 0.375072937806141 
1388	 0.374990201363906 
1389	 0.374903654837941 
1390	 0.374828295370519 
1391	 0.374748906916829 
1392	 0.374699256937662 
1393	 0.374681667343487 
1394	 0.374672351824955 
1395	 0.374680469701989 
1396	 0.374740580929527 
1397	 0.374736521795935 
1398	 0.374730923116003 
1399	 0.374672641052959 
1400	 0.374593687073182 
1401	 0.374448583826139 
1402	 0.374267579011341 
1403	 0.374021490017469 
1404	 0.37370479373279 
1405	 0.373370636933548 
1406	 0.372982161568159 
1407	 0.372583299652066 
1408	 0.372145270737016 
1409	 0.371708536289033 
1410	 0.371242994876091 
1411	 0.37079101702439 
1412	 0.370325205047558 
1413	 0.369891721816866 
1414	 0.369452116685018 
1415	 0.369059098854448 
1416	 0.368706002357446 
1417	 0.368359854631738 
1418	 0.368043620964542 
1419	 0.367735699957648 
1420	 0.367435605723988 
1421	 0.367155482934112 
1422	 0.366899711751866 
1423	 0.366648251354059 
1424	 0.366419011522473 
1425	 0.366173367579581 
1426	 0.365960521767174 
1427	 0.365754197994898 
1428	 0.365541643941696 
1429	 0.365346629780184 
1430	 0.365142663028549 
1431	 0.364926388157432 
1432	 0.36473134467224 
1433	 0.364545929832549 
1434	 0.364366456834277 
1435	 0.364208994095646 
1436	 0.364018744946663 
1437	 0.363818577893519 
1438	 0.363624067410736 
1439	 0.363403503323894 
1440	 0.36321227012558 
1441	 0.363022323816733 
1442	 0.362875429613957 
1443	 0.362725477722702 
1444	 0.362652819293269 
1445	 0.362617495489446 
1446	 0.362654808703942 
1447	 0.36274050526063 
1448	 0.362907883236148 
1449	 0.363155359818737 
1450	 0.363454228838401 
1451	 0.363828782571446 
1452	 0.364247840763729 
1453	 0.364747896870489 
1454	 0.365244793793653 
1455	 0.365791731968259 
1456	 0.366337974728767 
1457	 0.366893875521301 
1458	 0.367460284612563 
1459	 0.368068959048196 
1460	 0.368644374756298 
1461	 0.369204467211347 
1462	 0.369761796131 
1463	 0.370294792569156 
1464	 0.370836897195848 
1465	 0.371380414701673 
1466	 0.371940727525612 
1467	 0.372465414812446 
1468	 0.372999385848393 
1469	 0.37353240501774 
1470	 0.374017989048088 
1471	 0.374522313267471 
1472	 0.37501561497428 
1473	 0.375538910567697 
1474	 0.376083461545342 
1475	 0.376591908433827 
1476	 0.377122538703221 
1477	 0.377593312894482 
1478	 0.37801213892672 
1479	 0.37843304298117 
1480	 0.378831325763018 
1481	 0.379229533225848 
1482	 0.379621797112484 
1483	 0.379990771246629 
1484	 0.380343224012249 
1485	 0.380694118492424 
1486	 0.381017616267859 
1487	 0.381355647860316 
1488	 0.381698536664338 
1489	 0.382043478875254 
1490	 0.382368564657779 
1491	 0.382741632677818 
1492	 0.383131227667885 
1493	 0.383547717526985 
1494	 0.384016937776078 
1495	 0.384462967124264 
1496	 0.384913656182243 
1497	 0.385369778169145 
1498	 0.385819238289332 
1499	 0.386285238549433 
1500	 0.386775584412424 
1501	 0.387252676219325 
1502	 0.387734567840671 
1503	 0.388205701260069 
1504	 0.388682037488362 
1505	 0.38912748922486 
1506	 0.389563428180674 
1507	 0.389976577136422 
1508	 0.390348487115565 
1509	 0.390726823355106 
1510	 0.391098822159553 
1511	 0.391456643751068 
1512	 0.391823099300203 
1513	 0.392152053283081 
1514	 0.392445465235654 
1515	 0.392737151354165 
1516	 0.393009860128221 
1517	 0.393267911888049 
1518	 0.393505176653003 
1519	 0.393748457406679 
1520	 0.393987349935005 
1521	 0.394209999200014 
1522	 0.394412605133876 
1523	 0.394666001750293 
1524	 0.394865492149056 
1525	 0.395044637125636 
1526	 0.395201144343341 
1527	 0.395329859503163 
1528	 0.395476353777421 
1529	 0.395608710708329 
1530	 0.395744220710781 
1531	 0.395893588124135 
1532	 0.396022291191061 
1533	 0.396120471610932 
1534	 0.396262274598939 
1535	 0.396425475397862 
1536	 0.396568883765653 
1537	 0.396718079789186 
1538	 0.396874591966572 
1539	 0.397016905262796 
1540	 0.397180130493082 
1541	 0.397348814836927 
1542	 0.397566433252847 
1543	 0.397804052064527 
1544	 0.398056957118949 
1545	 0.398354683821187 
1546	 0.398655428935868 
1547	 0.398968118553007 
1548	 0.399272684559103 
1549	 0.399610420169972 
1550	 0.399911105685099 
1551	 0.400170806373501 
1552	 0.400464055335842 
1553	 0.400762016339046 
1554	 0.401066446281547 
1555	 0.40139540383984 
1556	 0.401698116688547 
1557	 0.40199019859592 
1558	 0.402284667040683 
1559	 0.40256776582465 
1560	 0.402855164594978 
1561	 0.403144883102663 
1562	 0.403436497402526 
1563	 0.403710594951446 
1564	 0.40402107842654 
1565	 0.404378226418534 
1566	 0.40468338245296 
1567	 0.404979972684766 
1568	 0.405278826446297 
1569	 0.405530832649908 
1570	 0.405823694156938 
1571	 0.406153608659462 
1572	 0.406470163290017 
1573	 0.406776625584106 
1574	 0.40710973525852 
1575	 0.407464143127814 
1576	 0.407810053574529 
1577	 0.408189714364123 
1578	 0.408525461579248 
1579	 0.408826227047672 
1580	 0.409137747939019 
1581	 0.40941625812571 
1582	 0.40973139810112 
1583	 0.410071550645293 
1584	 0.41040916490443 
1585	 0.41076598822361 
1586	 0.411114084616848 
1587	 0.411462715214448 
1588	 0.41180367689298 
1589	 0.412135948187809 
1590	 0.412475971143157 
1591	 0.41281345445306 
1592	 0.413154010621495 
1593	 0.413495313184705 
1594	 0.41384912678775 
1595	 0.414216593116473 
1596	 0.414570734726335 
1597	 0.414926643230907 
1598	 0.415284485259899 
1599	 0.415643990611968 
1600	 0.415985610287291 
1601	 0.416323580092518 
1602	 0.416659515000846 
1603	 0.41697149260855 
1604	 0.417291302828901 
1605	 0.417623614321214 
1606	 0.417946316198993 
1607	 0.418265309846013 
1608	 0.418576612201786 
1609	 0.418891185315943 
1610	 0.419186176837715 
1611	 0.419468570972149 
1612	 0.419735947414013 
1613	 0.419980237309744 
1614	 0.420224366321879 
1615	 0.420461597008829 
1616	 0.420689817595826 
1617	 0.420916373324238 
1618	 0.421128050154307 
1619	 0.421306052627997 
1620	 0.421508959014456 
1621	 0.421729979452785 
1622	 0.421924274873527 
1623	 0.422143544146996 
1624	 0.422313919905107 
1625	 0.422417027762485 
1626	 0.422551051925386 
1627	 0.422672011120931 
1628	 0.422797696488934 
1629	 0.422931511631723 
1630	 0.423077243764063 
1631	 0.423226247633488 
1632	 0.423379171045993 
1633	 0.423551228837623 
1634	 0.423718070940322 
1635	 0.423889202786026 
1636	 0.424043612655081 
1637	 0.424191001040375 
1638	 0.424335171345528 
1639	 0.424468337204753 
1640	 0.424599984502674 
1641	 0.424729423185445 
1642	 0.42486030481332 
1643	 0.424999034034112 
1644	 0.425104196608165 
1645	 0.425187715001345 
1646	 0.42527622417097 
1647	 0.425358292041205 
1648	 0.425417448585432 
1649	 0.425483569794056 
1650	 0.425520491401038 
1651	 0.425517170910718 
1652	 0.425500215656884 
1653	 0.425468598975588 
1654	 0.425425044502547 
1655	 0.425362549201378 
1656	 0.425284251029291 
1657	 0.425207900683129 
1658	 0.425082864448322 
1659	 0.424939904014888 
1660	 0.424744874184982 
1661	 0.424504385777391 
1662	 0.42422534188206 
1663	 0.423894819339601 
1664	 0.423530847519598 
1665	 0.423165551697864 
1666	 0.422688038630931 
1667	 0.422139359172916 
1668	 0.421533535304195 
1669	 0.420836465522691 
1670	 0.420088020684521 
1671	 0.419289259686096 
1672	 0.418423682120128 
1673	 0.417482130550126 
1674	 0.416482484722885 
1675	 0.415421598564362 
1676	 0.414333570550152 
1677	 0.413212525640889 
1678	 0.411993821175123 
1679	 0.410695043626715 
1680	 0.409359018161931 
1681	 0.407948550102701 
1682	 0.406473035290863 
1683	 0.404987445682039 
1684	 0.403406907040337 
1685	 0.401720741608946 
1686	 0.399976517389673 
1687	 0.39814156244273 
1688	 0.396269271218308 
1689	 0.394325331825039 
1690	 0.392337669960565 
1691	 0.39030774917008 
1692	 0.388290839751458 
1693	 0.386248526357906 
1694	 0.384137196772262 
1695	 0.382000394722536 
1696	 0.379802971083703 
1697	 0.377509290969404 
1698	 0.375208778108695 
1699	 0.372893625368816 
1700	 0.370603917810522 
1701	 0.368260924797426 
1702	 0.365997007716818 
1703	 0.363714066150147 
1704	 0.361575179939732 
1705	 0.359483429763543 
1706	 0.35750925336156 
1707	 0.355771009672901 
1708	 0.354132286173438 
1709	 0.352616497474867 
1710	 0.351289270024805 
1711	 0.350014277140737 
1712	 0.348844982721332 
1713	 0.347748422108801 
1714	 0.346688655842373 
1715	 0.345708838925727 
1716	 0.344772371269757 
1717	 0.343894431028642 
1718	 0.343042609504055 
1719	 0.342229730271521 
1720	 0.341491625746066 
1721	 0.340787731085563 
1722	 0.340194379067539 
1723	 0.339781746395292 
1724	 0.339490682979724 
1725	 0.339340284268809 
1726	 0.339330555308108 
1727	 0.339474593898163 
1728	 0.339795852629837 
1729	 0.340317713759044 
1730	 0.341059653308521 
1731	 0.341958390738625 
1732	 0.34305229746129 
1733	 0.344193996290054 
1734	 0.345413517170086 
1735	 0.346706748458233 
1736	 0.347915617133306 
1737	 0.349113100626913 
1738	 0.350217319277286 
1739	 0.351114453719117 
1740	 0.351883825800048 
1741	 0.352479010805099 
1742	 0.352877717327735 
1743	 0.353175714459092 
1744	 0.353300346533038 
1745	 0.353354268368683 
1746	 0.353244968603256 
1747	 0.353159110190211 
1748	 0.352983479129211 
1749	 0.352867436563032 
1750	 0.352706409486733 
1751	 0.352670320522996 
1752	 0.35266606552921 
1753	 0.352784476448798 
1754	 0.353028120058858 
1755	 0.353329803600254 
1756	 0.353692175528334 
1757	 0.35415991922906 
1758	 0.354721749503555 
1759	 0.355356177127401 
1760	 0.356204133639005 
1761	 0.357212257335415 
1762	 0.358288077717254 
1763	 0.359525000987964 
1764	 0.360833219824111 
1765	 0.362208926478658 
1766	 0.363767192563372 
1767	 0.365346825126697 
1768	 0.366989288869475 
1769	 0.368733923862513 
1770	 0.370331802337076 
1771	 0.371961758681133 
1772	 0.373576827738829 
1773	 0.374993547663895 
1774	 0.37646731000213 
1775	 0.377843896877714 
1776	 0.379083756596872 
1777	 0.380294570639792 
1778	 0.381351105791284 
1779	 0.382348150540843 
1780	 0.383272048605653 
1781	 0.384118058241589 
1782	 0.384971839900881 
1783	 0.385742593980764 
1784	 0.386513577858916 
1785	 0.387218816267873 
1786	 0.38785487408387 
1787	 0.388429783983848 
1788	 0.388956189471949 
1789	 0.389428282695549 
1790	 0.389878193771196 
1791	 0.390279638668654 
1792	 0.390690146510822 
1793	 0.39105632796186 
1794	 0.391398457126029 
1795	 0.39177251650713 
1796	 0.392140735922455 
1797	 0.392549913602842 
1798	 0.392937702848749 
1799	 0.393273656031089 
1800	 0.393613984456599 
1801	 0.402541151100936 
1802	 0.403061436302718 
1803	 0.403543969456397 
1804	 0.40401765976237 
1805	 0.404523851626489 
1806	 0.404971955538272 
1807	 0.405407502440302 
1808	 0.405808023907599 
1809	 0.406167473903987 
1810	 0.406519961863762 
1811	 0.406842536779325 
1812	 0.407170496769577 
1813	 0.407467782772656 
1814	 0.407800760414356 
1815	 0.408160388781383 
1816	 0.408475179814955 
1817	 0.408816952236716 
1818	 0.409165232853122 
1819	 0.409532345184012 
1820	 0.409902485513819 
1821	 0.410290562489634 
1822	 0.410696210417201 
1823	 0.411127502114788 
1824	 0.411546691040956 
1825	 0.411985239906842 
1826	 0.412403862910429 
1827	 0.412824242640101 
1828	 0.413223286232355 
1829	 0.413615358912336 
1830	 0.413984559911691 
1831	 0.414329220737885 
1832	 0.41469405077841 
1833	 0.41499763615534 
1834	 0.415310107087131 
1835	 0.4156507347891 
1836	 0.415964737765315 
1837	 0.416332671868418 
1838	 0.416734617847149 
1839	 0.417151636323295 
1840	 0.417612643888242 
1841	 0.418064935884714 
1842	 0.418546369073902 
1843	 0.41900068603423 
1844	 0.419427299427571 
1845	 0.419854600904517 
1846	 0.420277087974895 
1847	 0.420654570704945 
1848	 0.421020062754062 
1849	 0.421384232939681 
1850	 0.421699489336586 
1851	 0.421960641674956 
1852	 0.42225520929404 
1853	 0.422512609485627 
1854	 0.422728438355862 
1855	 0.422903132188682 
1856	 0.423045206197762 
1857	 0.423164574794024 
1858	 0.423218020351047 
1859	 0.423259940992558 
1860	 0.423301832542363 
1861	 0.423265968317592 
1862	 0.4231880234162 
1863	 0.423082705770506 
1864	 0.422866194500984 
1865	 0.422567204318191 
1866	 0.422144529664607 
1867	 0.421651547733002 
1868	 0.421120076540707 
1869	 0.42056285759715 
1870	 0.420025213066954 
1871	 0.41947460871513 
1872	 0.418955313111418 
1873	 0.418467716797596 
1874	 0.417950050560873 
1875	 0.417476630230838 
1876	 0.416938707917758 
1877	 0.416331474769943 
1878	 0.415642483961894 
1879	 0.414799546380481 
1880	 0.413925761487306 
1881	 0.412923319047557 
1882	 0.411804282104155 
1883	 0.410608186441751 
1884	 0.409289350010768 
1885	 0.407737996833149 
1886	 0.406123225668484 
1887	 0.404375370750346 
1888	 0.402494772671755 
1889	 0.400694026980795 
1890	 0.398766712576912 
1891	 0.396765409300289 
1892	 0.39474747643943 
1893	 0.392647890309032 
1894	 0.390412080920003 
1895	 0.388264425303582 
1896	 0.386074563806313 
1897	 0.383820926284521 
1898	 0.38172283065476 
1899	 0.37954366349836 
1900	 0.377429700536883 
1901	 0.375446206577762 
1902	 0.373393954605742 
1903	 0.371489094738472 
1904	 0.369678827895834 
1905	 0.367926595394301 
1906	 0.36627872443353 
1907	 0.364872881294972 
1908	 0.363485402322973 
1909	 0.362150895016434 
1910	 0.360924049868595 
1911	 0.359634134676093 
1912	 0.35840183344792 
1913	 0.35726999813587 
1914	 0.356178947768663 
1915	 0.355183628315498 
1916	 0.354305611791434 
1917	 0.353455874506056 
1918	 0.352617368581657 
1919	 0.351845892709055 
1920	 0.351037721693038 
1921	 0.350276201608908 
1922	 0.349576603015873 
1923	 0.348870456073962 
1924	 0.348270829185205 
1925	 0.347743953165459 
1926	 0.347233673165441 
1927	 0.346790862990989 
1928	 0.346347407068365 
1929	 0.34591880706045 
1930	 0.34551282256558 
1931	 0.345139118930879 
1932	 0.344798705195131 
1933	 0.34452453947825 
1934	 0.344295102087335 
1935	 0.344088472893786 
1936	 0.343950993103545 
1937	 0.343886014575688 
1938	 0.343866267094137 
1939	 0.343919479429607 
1940	 0.344048920722356 
1941	 0.344265596063624 
1942	 0.344489446297058 
1943	 0.344758051757624 
1944	 0.345068853818936 
1945	 0.345395398185389 
1946	 0.345792353009464 
1947	 0.346215062630566 
1948	 0.346665872945865 
1949	 0.347159875992084 
1950	 0.347666198340328 
1951	 0.348179062289715 
1952	 0.348744947590438 
1953	 0.349340139983266 
1954	 0.349969491338777 
1955	 0.350682247154872 
1956	 0.351435322627626 
1957	 0.35220144834848 
1958	 0.352982890442456 
1959	 0.353678041960045 
1960	 0.354282084381554 
1961	 0.354890240339698 
1962	 0.355441441700303 
1963	 0.356006865988212 
1964	 0.356603264973659 
1965	 0.357116511641978 
1966	 0.357599878045708 
1967	 0.358027475170799 
1968	 0.358396255116877 
1969	 0.358755454578273 
1970	 0.359149189111965 
1971	 0.359530450108861 
1972	 0.359856609816796 
1973	 0.360186182835111 
1974	 0.360535533982459 
1975	 0.360863901831514 
1976	 0.361214495434876 
1977	 0.361614287712725 
1978	 0.361989907720626 
1979	 0.362350521002955 
1980	 0.362705722658452 
1981	 0.363114936832562 
1982	 0.363476295596268 
1983	 0.363835157857841 
1984	 0.3642394099482 
1985	 0.364586516456662 
1986	 0.364942782132331 
1987	 0.36531875936392 
1988	 0.365678752163568 
1989	 0.366094758814357 
1990	 0.366546280186755 
1991	 0.367007118866356 
1992	 0.367507874318574 
1993	 0.368029098340172 
1994	 0.368510977727848 
1995	 0.36903643291712 
1996	 0.369504738634012 
1997	 0.369959053210382 
1998	 0.370452342011241 
1999	 0.370960111775409 
2000	 0.371432350154734 
2001	 0.371969085928102 
2002	 0.372387497774432 
2003	 0.37271665620562 
2004	 0.373039928479536 
2005	 0.373310687025242 
2006	 0.373573344631724 
2007	 0.373821675938331 
2008	 0.374046417362083 
2009	 0.374221177325139 
2010	 0.374351476343721 
2011	 0.37444506095981 
2012	 0.374514261556993 
2013	 0.374559817975156 
2014	 0.374569185090133 
2015	 0.37458234588706 
2016	 0.374596101214709 
2017	 0.374563611296424 
2018	 0.374528673094893 
2019	 0.374447475940985 
2020	 0.374339305894973 
2021	 0.374141497842245 
2022	 0.373929848896836 
2023	 0.373679950583489 
2024	 0.373376429156925 
2025	 0.373083348075972 
2026	 0.37279996435009 
2027	 0.372530665588876 
2028	 0.372234090911993 
2029	 0.371930727464627 
2030	 0.371615788447675 
2031	 0.371282100051077 
2032	 0.370934549298153 
2033	 0.370565088285941 
2034	 0.370220406961037 
2035	 0.369847925080585 
2036	 0.369509619683874 
2037	 0.369237880116432 
2038	 0.368977349894061 
2039	 0.368712346469617 
2040	 0.36848815490754 
2041	 0.368212628015936 
2042	 0.367895485506077 
2043	 0.367620182845888 
2044	 0.367330181608567 
2045	 0.367075800743998 
2046	 0.366864258015698 
2047	 0.366647696819353 
2048	 0.36642532211603 
2049	 0.366243861803517 
2050	 0.366109644518805 
2051	 0.365932945880813 
2052	 0.365804169874469 
2053	 0.365701500938508 
2054	 0.36558040789063 
2055	 0.365451242491234 
2056	 0.365341601431072 
2057	 0.365264751558842 
2058	 0.36512851287344 
2059	 0.364979725974562 
2060	 0.364826940878972 
2061	 0.364597968279786 
2062	 0.364434524044877 
2063	 0.364334639858169 
2064	 0.364188474948089 
2065	 0.364017088174892 
2066	 0.363904924694718 
2067	 0.363738455602149 
2068	 0.363556921474694 
2069	 0.36338806410437 
2070	 0.363235925322039 
2071	 0.363046688185142 
2072	 0.362834747956195 
2073	 0.362630038878359 
2074	 0.362435930451703 
2075	 0.3621980573332 
2076	 0.361939736374061 
2077	 0.361675892039366 
2078	 0.361351795785614 
2079	 0.361067044103239 
2080	 0.360818256221214 
2081	 0.360542245009554 
2082	 0.36028222259115 
2083	 0.359990483885271 
2084	 0.359632583856364 
2085	 0.359309487643092 
2086	 0.358971737283875 
2087	 0.358600225320863 
2088	 0.358270565039632 
2089	 0.357999302080909 
2090	 0.357638942931283 
2091	 0.357267494636415 
2092	 0.356858969059785 
2093	 0.356367698952854 
2094	 0.355908293749242 
2095	 0.355465596679296 
2096	 0.354982862634231 
2097	 0.354483579805622 
2098	 0.353956917243426 
2099	 0.353433052097865 
2100	 0.35290987738122 
2101	 0.352377002895828 
2102	 0.351860063951518 
2103	 0.351311917070688 
2104	 0.350739745076835 
2105	 0.35015742689627 
2106	 0.34957491872715 
2107	 0.348952621043892 
2108	 0.348305471059351 
2109	 0.34763646860609 
2110	 0.346945662998391 
2111	 0.346223635493904 
2112	 0.345442254741063 
2113	 0.344684355852648 
2114	 0.343909902158742 
2115	 0.343138197083852 
2116	 0.34235584679864 
2117	 0.341631958627743 
2118	 0.340863654864117 
2119	 0.340053153142262 
2120	 0.339320323185902 
2121	 0.338587140903214 
2122	 0.337919956995499 
2123	 0.337344571963455 
2124	 0.336716794244957 
2125	 0.336092447758037 
2126	 0.335493173907121 
2127	 0.334867133709644 
2128	 0.334305665206655 
2129	 0.333769449603627 
2130	 0.333298982651676 
2131	 0.332897237391812 
2132	 0.332502471005703 
2133	 0.332151456690006 
2134	 0.331843897882254 
2135	 0.331495794993755 
2136	 0.331217141417799 
2137	 0.330987153241603 
2138	 0.330811414682336 
2139	 0.330633671161647 
2140	 0.330513598780708 
2141	 0.330371201135608 
2142	 0.330203524177436 
2143	 0.330105956605033 
2144	 0.330030874435383 
2145	 0.330003078287067 
2146	 0.33002985818426 
2147	 0.330078198011351 
2148	 0.330168941218708 
2149	 0.330272422759326 
2150	 0.330385820181556 
2151	 0.33054772093509 
2152	 0.330727643259396 
2153	 0.330979143770643 
2154	 0.331245904483341 
2155	 0.331528416018211 
2156	 0.331781087371486 
2157	 0.332019338603238 
2158	 0.332273160791032 
2159	 0.332513405395738 
2160	 0.332777510681886 
2161	 0.333086933862121 
2162	 0.333334691206369 
2163	 0.333574514476511 
2164	 0.333791857608567 
2165	 0.333956977938403 
2166	 0.334140704703156 
2167	 0.334297716807194 
2168	 0.334494590402377 
2169	 0.334691588254817 
2170	 0.334924239340297 
2171	 0.335220549747844 
2172	 0.335493578046895 
2173	 0.335776775473401 
2174	 0.336060116471685 
2175	 0.33630517405889 
2176	 0.336564808911289 
2177	 0.336859849271206 
2178	 0.337154947850223 
2179	 0.33750352005429 
2180	 0.337942780763532 
2181	 0.338273999375472 
2182	 0.338597763612255 
2183	 0.338897514929645 
2184	 0.33910871482146 
2185	 0.339383770196855 
2186	 0.339720037504384 
2187	 0.33997867090841 
2188	 0.340183713328169 
2189	 0.340439893896012 
2190	 0.340689401597164 
2191	 0.340930067828948 
2192	 0.341214204618894 
2193	 0.341467913172499 
2194	 0.341683995702436 
2195	 0.341896531179168 
2196	 0.342119889802196 
2197	 0.342332747342637 
2198	 0.342475725486908 
2199	 0.342566689223416 
2200	 0.342633153722893 
2201	 0.342632784349095 
2202	 0.342670619770938 
2203	 0.342704282109541 
2204	 0.342702864661728 
2205	 0.342710323777247 
2206	 0.342650261093437 
2207	 0.342544712157104 
2208	 0.342415023111147 
2209	 0.342227084960459 
2210	 0.342057354251831 
2211	 0.341886887086297 
2212	 0.341668917068932 
2213	 0.341416332565213 
2214	 0.341170222236484 
2215	 0.340886710648929 
2216	 0.340602568751205 
2217	 0.340329121892422 
2218	 0.34005177626449 
2219	 0.339795576397112 
2220	 0.33947547828041 
2221	 0.339134058894314 
2222	 0.338751798452615 
2223	 0.338379523596979 
2224	 0.33793906837706 
2225	 0.337480489093849 
2226	 0.337032387884631 
2227	 0.336459800650902 
2228	 0.335786270364971 
2229	 0.335077119055399 
2230	 0.334318791831973 
2231	 0.333465280771451 
2232	 0.332530541320721 
2233	 0.33154246936731 
2234	 0.330521276810066 
2235	 0.32932120184189 
2236	 0.328046668461146 
2237	 0.326619236846322 
2238	 0.32495801966906 
2239	 0.323304671915236 
2240	 0.321592691521624 
2241	 0.319758460439777 
2242	 0.317909752539053 
2243	 0.315846795740862 
2244	 0.313540173773478 
2245	 0.31125578710265 
2246	 0.308787008088608 
2247	 0.306350285258813 
2248	 0.30396298466213 
2249	 0.301469572416882 
2250	 0.298887009444071 
2251	 0.296325754694933 
2252	 0.293572602081341 
2253	 0.290872875274017 
2254	 0.288110404749514 
2255	 0.28531588799914 
2256	 0.282818786834936 
2257	 0.280228783491384 
2258	 0.27772096365666 
2259	 0.275360472809698 
2260	 0.272934030084794 
2261	 0.270464715907315 
2262	 0.268085171502234 
2263	 0.265688845662295 
2264	 0.26344270895989 
2265	 0.261299085921963 
2266	 0.259173045520363 
2267	 0.257185840709183 
2268	 0.255184008102317 
2269	 0.253190064704715 
2270	 0.251236416256247 
2271	 0.249303312368089 
2272	 0.247443456678461 
2273	 0.245625694542653 
2274	 0.243849517499956 
2275	 0.242259255944071 
2276	 0.240496380445096 
2277	 0.238688031723171 
2278	 0.236841083504131 
2279	 0.234806669694349 
2280	 0.232893095470653 
2281	 0.231094589007404 
2282	 0.229166808453904 
2283	 0.227226110881841 
2284	 0.225280621560141 
2285	 0.223081505949863 
2286	 0.22091374631437 
2287	 0.218716630837679 
2288	 0.216447791670861 
2289	 0.214363747858763 
2290	 0.212169232663173 
2291	 0.209976051962228 
2292	 0.207889570428891 
2293	 0.205651623793044 
2294	 0.203515481572186 
2295	 0.201489692241069 
2296	 0.199410898167367 
2297	 0.197629871200902 
2298	 0.195998036953247 
2299	 0.194614131982463 
2300	 0.19341147585068 
2301	 0.192577991132497 
2302	 0.191991535408152 
2303	 0.191770826259645 
2304	 0.192002104835881 
2305	 0.192309148266616 
2306	 0.192904335415223 
2307	 0.193644429108129 
2308	 0.194492795476825 
2309	 0.195715043560267 
2310	 0.197295777122277 
2311	 0.198949857359254 
2312	 0.201032582015296 
2313	 0.202909297463084 
2314	 0.204815503586224 
2315	 0.206712461254011 
2316	 0.20857682253733 
2317	 0.21041491992045 
2318	 0.212414531978844 
2319	 0.214066769111617 
2320	 0.215690248300428 
2321	 0.216916823845325 
2322	 0.217697142401562 
2323	 0.218432802129734 
2324	 0.218903579702276 
2325	 0.219282317531016 
2326	 0.219586333420522 
2327	 0.219728567541872 
2328	 0.219692316675748 
2329	 0.219501960700403 
2330	 0.219180364062617 
2331	 0.218619175712103 
2332	 0.217943788105035 
2333	 0.217107959897044 
2334	 0.21601832385904 
2335	 0.214960302450651 
2336	 0.213750578646343 
2337	 0.212311160947287 
2338	 0.210980588121595 
2339	 0.209482565775154 
2340	 0.208019611427422 
2341	 0.206792326440716 
2342	 0.205515096056881 
2343	 0.204333689558328 
2344	 0.203314203179553 
2345	 0.202471301414371 
2346	 0.201991295883658 
2347	 0.202065937596381 
2348	 0.20243125559094 
2349	 0.203122016084998 
2350	 0.204183799626134 
2351	 0.205230582814086 
2352	 0.206415512528333 
2353	 0.207840272286086 
2354	 0.209109456479318 
2355	 0.21048010829248 
2356	 0.21185561303262 
2357	 0.213021422545266 
2358	 0.214308345066177 
2359	 0.21531341887908 
2360	 0.216068926078852 
2361	 0.216653741286365 
2362	 0.216823773787878 
2363	 0.216946437812682 
2364	 0.217103382313788 
2365	 0.217131606990017 
2366	 0.217163165461277 
2367	 0.21715439237066 
2368	 0.217038548360865 
2369	 0.216987532019743 
2370	 0.217008811858839 
2371	 0.217002027373563 
2372	 0.216992660324246 
2373	 0.21698573930721 
2374	 0.217009757824681 
2375	 0.217099586405603 
2376	 0.217187806619245 
2377	 0.217244714134539 
2378	 0.217353883214319 
2379	 0.217433977614503 
2380	 0.217468150321412 
2381	 0.217679127320514 
2382	 0.217944612514904 
2383	 0.218303585473168 
2384	 0.21853454524541 
2385	 0.218856871753813 
2386	 0.219004001929297 
2387	 0.218895314021561 
2388	 0.219019536158481 
2389	 0.219230191375399 
2390	 0.219404002814028 
2391	 0.219636593445456 
2392	 0.219825080801272 
2393	 0.219973368095678 
2394	 0.220122902358847 
2395	 0.220296817536902 
2396	 0.220479277671594 
2397	 0.220569703992245 
2398	 0.220765966522614 
2399	 0.221127491972655 
2400	 0.221266830018064 
2401	 0.221398131576573 
2402	 0.221512361286788 
2403	 0.221308677495705 
2404	 0.221578252657828 
2405	 0.221867691724168 
2406	 0.222022698561865 
2407	 0.222555276377131 
2408	 0.222863284239426 
2409	 0.222848881877475 
2410	 0.222973194252601 
2411	 0.223076297132227 
2412	 0.223182695056469 
2413	 0.223355847361954 
2414	 0.223385529816786 
2415	 0.22330698150767 
2416	 0.223278335891875 
2417	 0.223180914372078 
2418	 0.22310145525689 
2419	 0.223383490888007 
2420	 0.223651583703477 
2421	 0.223820254178931 
2422	 0.224096924297616 
2423	 0.224084644500178 
2424	 0.223824714175208 
2425	 0.223562905831444 
2426	 0.223702413638077 
2427	 0.224180035016219 
2428	 0.224483295234605 
2429	 0.224683419332744 
2430	 0.22458354614894 
2431	 0.22442482283116 
2432	 0.224511598478456 
2433	 0.224741086614075 
2434	 0.225021915985986 
2435	 0.224907743450239 
2436	 0.224609725382668 
2437	 0.224517849393972 
2438	 0.224261759377868 
2439	 0.223877198664481 
2440	 0.223837815066748 
2441	 0.223770198964541 
2442	 0.223636534795988 
2443	 0.223648362271185 
2444	 0.223400456715104 
2445	 0.223303496976209 
2446	 0.223473903960937 
2447	 0.223412783963996 
2448	 0.223094574233397 
2449	 0.222603811485563 
2450	 0.222175608301614 
2451	 0.22180883881698 
2452	 0.221603046236767 
2453	 0.221592091969267 
2454	 0.221442604021999 
2455	 0.221322663800772 
2456	 0.221422153340461 
2457	 0.221091971562411 
2458	 0.220593084354407 
2459	 0.220362756759452 
2460	 0.220001561784308 
2461	 0.219932938166863 
2462	 0.220129436986464 
2463	 0.220485850204562 
2464	 0.220667803285393 
2465	 0.220487806897669 
2466	 0.220292959896448 
2467	 0.219656217813111 
2468	 0.219342381700547 
2469	 0.219558397126806 
2470	 0.219408119871812 
2471	 0.219290979945073 
2472	 0.219284537236114 
2473	 0.21933144294947 
2474	 0.219672500723674 
2475	 0.21968402338214 
2476	 0.219403773904844 
2477	 0.219449476637243 
2478	 0.219353674785078 
2479	 0.219351515462646 
2480	 0.219486327549046 
2481	 0.219772472406528 
2482	 0.220446021906696 
2483	 0.220840220143166 
2484	 0.221457394174027 
2485	 0.222285111269817 
2486	 0.222375705942396 
2487	 0.222591393027582 
2488	 0.223011975541791 
2489	 0.223091476961798 
2490	 0.222931889177769 
2491	 0.223049210240246 
2492	 0.223593937456397 
2493	 0.223510142940306 
2494	 0.223801013584129 
2495	 0.224340321982327 
2496	 0.224648480211816 
2497	 0.225952072529935 
2498	 0.227021350466831 
2499	 0.228089779059592 
2500	 0.228907518942316 
