Wavelength	Tablay400003.asd
350	 0.185293629900942 
351	 0.169340442994364 
352	 0.169612950068159 
353	 0.191898031319799 
354	 0.193580954071517 
355	 0.178831871299683 
356	 0.17369215317497 
357	 0.19104627071982 
358	 0.185724466000646 
359	 0.172669125014432 
360	 0.166994840845289 
361	 0.177875143342958 
362	 0.161273712693 
363	 0.146670940703671 
364	 0.146810596972007 
365	 0.140534295009112 
366	 0.138984060277945 
367	 0.143893661025876 
368	 0.151169482902909 
369	 0.145588079692362 
370	 0.138962540485013 
371	 0.132769951708051 
372	 0.124770484130576 
373	 0.135159036281093 
374	 0.134468024307617 
375	 0.117695895772075 
376	 0.121664900472567 
377	 0.122967659938991 
378	 0.126533345435417 
379	 0.134855747714157 
380	 0.116616038182764 
381	 0.117583479273258 
382	 0.12593635304332 
383	 0.10224682637777 
384	 9.68396507471487E-02 
385	 9.79208823039022E-02 
386	 9.90607734952586E-02 
387	 0.113329201371622 
388	 0.114122569326618 
389	 0.105829277607099 
390	 9.96693602640467E-02 
391	 9.61698187184532E-02 
392	 9.79138640199971E-02 
393	 9.95847458607877E-02 
394	 9.24162724458123E-02 
395	 8.64338155252987E-02 
396	 8.66954752199959E-02 
397	 8.95234925274721E-02 
398	 7.73467911862113E-02 
399	 8.31024449650357E-02 
400	 9.33335972021671E-02 
401	 8.89447313723618E-02 
402	 8.17833279195564E-02 
403	 8.31712155199714E-02 
404	 8.74123195830851E-02 
405	 7.88440049772371E-02 
406	 8.00625587030373E-02 
407	 8.07402614365879E-02 
408	 7.56653889457517E-02 
409	 7.81737189515138E-02 
410	 7.87709382588276E-02 
411	 7.69594692020329E-02 
412	 7.49178282839821E-02 
413	 7.27669101407659E-02 
414	 7.19626325066754E-02 
415	 7.22562536476367E-02 
416	 7.19359148377828E-02 
417	 7.08966046659281E-02 
418	 6.96916165118854E-02 
419	 0.068767578384655 
420	 6.83356911130086E-02 
421	 6.52865237287187E-02 
422	 6.28880636350935E-02 
423	 6.52805809167429E-02 
424	 6.50966527279152E-02 
425	 6.45702900449599E-02 
426	 6.46562742521118E-02 
427	 6.40979972487767E-02 
428	 6.43675573932399E-02 
429	 6.43554468940957E-02 
430	 6.33803554498141E-02 
431	 6.37605930635506E-02 
432	 0.06273299143304 
433	 6.10949230792312E-02 
434	 6.13092651913723E-02 
435	 0.062153891464675 
436	 6.30640910039024E-02 
437	 6.35801250302492E-02 
438	 6.33205723359775E-02 
439	 0.06143735882193 
440	 6.03907229154441E-02 
441	 6.21749209526674E-02 
442	 6.35448713636891E-02 
443	 0.062990409776914 
444	 6.15879739063571E-02 
445	 6.20643949033361E-02 
446	 6.14552475960004E-02 
447	 6.13634538898498E-02 
448	 6.26009250162337E-02 
449	 6.29887781963389E-02 
450	 6.24665753900002E-02 
451	 6.18194889222634E-02 
452	 6.19092627465118E-02 
453	 6.15234224109524E-02 
454	 6.14482441494844E-02 
455	 6.19650273651709E-02 
456	 6.26570328755544E-02 
457	 6.13463469042557E-02 
458	 5.99251752985539E-02 
459	 6.00754975082424E-02 
460	 6.03520917827726E-02 
461	 6.01362143901061E-02 
462	 5.97568829499954E-02 
463	 5.99696509303471E-02 
464	 0.060200570327451 
465	 6.02877896141396E-02 
466	 0.060029017799582 
467	 5.90296758258885E-02 
468	 5.90955000731258E-02 
469	 5.96665153991328E-02 
470	 5.96187798540209E-02 
471	 5.84195840174085E-02 
472	 5.83147365887276E-02 
473	 5.90981118957391E-02 
474	 5.87544335141199E-02 
475	 5.85317965148633E-02 
476	 0.058572768735165 
477	 5.86665320229222E-02 
478	 5.81290992471539E-02 
479	 5.80961970778969E-02 
480	 5.85307792493853E-02 
481	 5.88851205482845E-02 
482	 0.058597644446235 
483	 5.81619118239453E-02 
484	 0.057970144159976 
485	 5.81970456704831E-02 
486	 0.05840838835846 
487	 5.87443398959501E-02 
488	 0.059207063764832 
489	 5.89726938984157E-02 
490	 5.87033937053713E-02 
491	 5.87561892792378E-02 
492	 5.91866419460362E-02 
493	 5.90833790712887E-02 
494	 5.91304957188049E-02 
495	 5.96080574553063E-02 
496	 5.98580997780905E-02 
497	 6.01522379079549E-02 
498	 6.05274103905564E-02 
499	 6.08949352604753E-02 
500	 0.060842070940652 
501	 6.11466382712304E-02 
502	 6.17751670552199E-02 
503	 6.20197473373405E-02 
504	 6.26452272266517E-02 
505	 6.31028186368023E-02 
506	 6.31309798191814E-02 
507	 6.36457259870353E-02 
508	 6.42939137471882E-02 
509	 0.064907664963168 
510	 6.54290216091117E-02 
511	 6.61042274175745E-02 
512	 6.65760489791837E-02 
513	 0.066913137485941 
514	 6.77719929748144E-02 
515	 6.83849606795296E-02 
516	 6.90170719789571E-02 
517	 6.99409237844078E-02 
518	 7.05369601851226E-02 
519	 7.11010458313685E-02 
520	 7.18636616825134E-02 
521	 7.29505026707673E-02 
522	 7.39608493374222E-02 
523	 0.074980864190664 
524	 7.60485235538012E-02 
525	 7.69470257180229E-02 
526	 0.077995737944058 
527	 7.92132936334357E-02 
528	 8.05248750638047E-02 
529	 8.20398854600687E-02 
530	 8.32559381729999E-02 
531	 8.43185135538105E-02 
532	 8.60373587479032E-02 
533	 0.087744522073457 
534	 8.94005656554836E-02 
535	 9.10815876323244E-02 
536	 0.092780791498059 
537	 9.46530928823252E-02 
538	 9.66442854657806E-02 
539	 9.86040321363131E-02 
540	 0.100649789102609 
541	 0.102685813112662 
542	 0.104730522260188 
543	 0.107024890237484 
544	 0.109207522696223 
545	 0.111364768371411 
546	 0.113673797329628 
547	 0.116067390112586 
548	 0.118538007836058 
549	 0.121008022560955 
550	 0.12335463675976 
551	 0.125855903044593 
552	 0.128479452973761 
553	 0.131128494263842 
554	 0.133689316556848 
555	 0.136255927512193 
556	 0.138850605225608 
557	 0.141452196799359 
558	 0.144009948053097 
559	 0.146518184139241 
560	 0.148987425252887 
561	 0.151443625645205 
562	 0.153821590607926 
563	 0.156061441444418 
564	 0.158161332037709 
565	 0.160299332656774 
566	 0.162395285294229 
567	 0.164400612407361 
568	 0.166310750533892 
569	 0.168326842879559 
570	 0.170275170504061 
571	 0.172066026990704 
572	 0.173917809256021 
573	 0.175644605876066 
574	 0.177208188098668 
575	 0.178649540214254 
576	 0.180107180888431 
577	 0.181358933232787 
578	 0.182423595554438 
579	 0.183608148317933 
580	 0.184773361001398 
581	 0.185830739600263 
582	 0.18676210219104 
583	 0.187733067406565 
584	 0.188615097965341 
585	 0.189362866841719 
586	 0.190002821507172 
587	 0.190710109288922 
588	 0.191369925364736 
589	 0.191911036809969 
590	 0.192384814747541 
591	 0.192881936172898 
592	 0.193355378228036 
593	 0.193743457861679 
594	 0.194137157888279 
595	 0.194484078671702 
596	 0.194763635342137 
597	 0.194982972374396 
598	 0.195035435827322 
599	 0.195036460730532 
600	 0.195065690363519 
601	 0.195031584156206 
602	 0.194864790048988 
603	 0.194656350566422 
604	 0.194543014882462 
605	 0.194435977505364 
606	 0.194206166845211 
607	 0.193889208289414 
608	 0.193721846483961 
609	 0.193445695999253 
610	 0.193132972498203 
611	 0.192874698754026 
612	 0.192540968049278 
613	 0.192218516712031 
614	 0.191950644477935 
615	 0.191728904316664 
616	 0.191338993325982 
617	 0.190990801326214 
618	 0.190770472907653 
619	 0.190446757453607 
620	 0.190109244256547 
621	 0.189822190097343 
622	 0.18960460830535 
623	 0.18928648591938 
624	 0.188985394950958 
625	 0.188728312406066 
626	 0.188447374731145 
627	 0.188143962188101 
628	 0.187817123709018 
629	 0.187503403332942 
630	 0.187336573761057 
631	 0.187186074420049 
632	 0.186979346563909 
633	 0.186693869315965 
634	 0.186441020874865 
635	 0.186240826869858 
636	 0.186079463763117 
637	 0.185913625102604 
638	 0.185786789551807 
639	 0.185653409118209 
640	 0.18549298025356 
641	 0.185441245447686 
642	 0.185360777515659 
643	 0.185229154626464 
644	 0.185100288704469 
645	 0.184999287244077 
646	 0.184952985066585 
647	 0.184951724999983 
648	 0.184930176839592 
649	 0.184926344023319 
650	 0.184929247974056 
651	 0.184925953387799 
652	 0.184954412442971 
653	 0.184986376623358 
654	 0.185063070469719 
655	 0.185262320832212 
656	 0.185350265783638 
657	 0.185412633826612 
658	 0.185532318333149 
659	 0.185675479961605 
660	 0.185809446354374 
661	 0.185978021262188 
662	 0.18622737518359 
663	 0.186452912213255 
664	 0.186651731332764 
665	 0.186865372933405 
666	 0.187167448070077 
667	 0.187491167768003 
668	 0.187773552374103 
669	 0.188014734017275 
670	 0.188371535335775 
671	 0.188738398780775 
672	 0.189094761085367 
673	 0.189458376883042 
674	 0.189822114075217 
675	 0.190246952050212 
676	 0.19073546797271 
677	 0.191216541189226 
678	 0.191669115102696 
679	 0.192124315183579 
680	 0.192617836584069 
681	 0.19315341498686 
682	 0.1937120196108 
683	 0.194287859996905 
684	 0.194879781293257 
685	 0.195452882699518 
686	 0.196054179659191 
687	 0.19670619584052 
688	 0.197386395111445 
689	 0.198079618816503 
690	 0.198742545345082 
691	 0.199377885014115 
692	 0.200164409800939 
693	 0.200933067943418 
694	 0.201663375077131 
695	 0.202432896259582 
696	 0.203261865505584 
697	 0.204099211639699 
698	 0.204919670163584 
699	 0.205751714370927 
700	 0.206660434648766 
701	 0.207560887762675 
702	 0.208376704615712 
703	 0.209220612706799 
704	 0.210147530514222 
705	 0.211146490902723 
706	 0.212152257373019 
707	 0.213069619834849 
708	 0.214013699525825 
709	 0.215029051581023 
710	 0.215993299814895 
711	 0.216956446494755 
712	 0.217940169270489 
713	 0.218955024584949 
714	 0.220002881141766 
715	 0.221013693685047 
716	 0.222025943220433 
717	 0.223131865486291 
718	 0.224115780674786 
719	 0.225098483661569 
720	 0.226154704148985 
721	 0.227204426117382 
722	 0.228240155126178 
723	 0.229286000920352 
724	 0.23035284011404 
725	 0.231357738530986 
726	 0.23235285823261 
727	 0.233343494641958 
728	 0.234307925889245 
729	 0.235341779796133 
730	 0.236308810846224 
731	 0.237176269545999 
732	 0.238128872172283 
733	 0.239086099783833 
734	 0.240016429334118 
735	 0.240906696536719 
736	 0.241768391609246 
737	 0.242575438250902 
738	 0.243345800035506 
739	 0.244119378152923 
740	 0.244868130823583 
741	 0.245584418881922 
742	 0.246262614934241 
743	 0.246898404570969 
744	 0.247477950854724 
745	 0.248047071780709 
746	 0.248630740787923 
747	 0.24913134067085 
748	 0.249605228448956 
749	 0.250058436790483 
750	 0.250470917255349 
751	 0.250865189910912 
752	 0.251234001759856 
753	 0.251563039923521 
754	 0.25183450258026 
755	 0.2521067306874 
756	 0.252333509381728 
757	 0.252486267076078 
758	 0.25266238111232 
759	 0.252763466397914 
760	 0.252808298211482 
761	 0.252861074481087 
762	 0.252891465503845 
763	 0.252881672999543 
764	 0.252812978332032 
765	 0.252669906685533 
766	 0.252526640087617 
767	 0.252371972316448 
768	 0.252170176876274 
769	 0.251861616950807 
770	 0.251595795389665 
771	 0.251335102178363 
772	 0.250998360699796 
773	 0.250671374561563 
774	 0.25028929092296 
775	 0.249848683715514 
776	 0.249400318611826 
777	 0.248956426346354 
778	 0.248497512037132 
779	 0.247990665370339 
780	 0.247389887242465 
781	 0.246822586643419 
782	 0.24624909410531 
783	 0.245609534668129 
784	 0.244955128136068 
785	 0.244310397227978 
786	 0.24365172498785 
787	 0.242938828524564 
788	 0.242220866051973 
789	 0.241515076990604 
790	 0.240807655514697 
791	 0.240053079408028 
792	 0.23925011445122 
793	 0.23844895179068 
794	 0.2376897954814 
795	 0.236979985373122 
796	 0.236144750156036 
797	 0.235285088606461 
798	 0.234545306912524 
799	 0.233723235435989 
800	 0.232891921064319 
801	 0.232076791012942 
802	 0.231262244521805 
803	 0.230497840995632 
804	 0.229700068243927 
805	 0.228838536438839 
806	 0.227986118631164 
807	 0.227117399325203 
808	 0.226277774457087 
809	 0.225484321837157 
810	 0.224619921553564 
811	 0.223824900345877 
812	 0.223053808089423 
813	 0.222202420529327 
814	 0.221351004553361 
815	 0.220506849874065 
816	 0.219673939057775 
817	 0.218853565048936 
818	 0.218009590298811 
819	 0.217206310681525 
820	 0.216458119940317 
821	 0.215676069427948 
822	 0.214877778315323 
823	 0.214056517678253 
824	 0.213218496576532 
825	 0.21241832206257 
826	 0.211637699974651 
827	 0.210866411277528 
828	 0.210100087832621 
829	 0.209342893552346 
830	 0.208630864094128 
831	 0.207915796595147 
832	 0.207097494194768 
833	 0.206351880090785 
834	 0.205642945553618 
835	 0.204919110986259 
836	 0.204154545452213 
837	 0.203536113445827 
838	 0.202923998365443 
839	 0.202193821520231 
840	 0.20149796893917 
841	 0.200847607857529 
842	 0.200230642236309 
843	 0.199618734617894 
844	 0.198987016889368 
845	 0.198366010296259 
846	 0.197778077076132 
847	 0.197229302727071 
848	 0.1966787739946 
849	 0.196089712478315 
850	 0.195501739066639 
851	 0.19503644610586 
852	 0.194523262708791 
853	 0.193985958032411 
854	 0.193485854620951 
855	 0.19307870094008 
856	 0.192618198037132 
857	 0.192105352749889 
858	 0.191599185799611 
859	 0.19116926543716 
860	 0.190730979812942 
861	 0.19030064725098 
862	 0.189925617478652 
863	 0.189494160057382 
864	 0.189075325144214 
865	 0.188716221100471 
866	 0.188419084502544 
867	 0.188075661691343 
868	 0.187657069624062 
869	 0.187224550826981 
870	 0.186932132623214 
871	 0.186688605108819 
872	 0.18637269704382 
873	 0.185969070051766 
874	 0.185701764075629 
875	 0.185456745695519 
876	 0.185173553827347 
877	 0.184834346354585 
878	 0.184497950450604 
879	 0.184300895880323 
880	 0.184119211782053 
881	 0.183781130089923 
882	 0.183604061322742 
883	 0.183419404740751 
884	 0.183180796097322 
885	 0.182958325903084 
886	 0.182787121839434 
887	 0.182626868992472 
888	 0.18245109249685 
889	 0.182266592850698 
890	 0.182168628655707 
891	 0.18202062146591 
892	 0.18176148965777 
893	 0.181524351374287 
894	 0.181484953988319 
895	 0.181497602704926 
896	 0.181427382153134 
897	 0.18141118790552 
898	 0.181303417730711 
899	 0.1811520484082 
900	 0.181073973865217 
901	 0.181183558897643 
902	 0.181179605484626 
903	 0.18106414515702 
904	 0.180999374234196 
905	 0.181048381931444 
906	 0.181121217468861 
907	 0.181158656495525 
908	 0.181152856829694 
909	 0.181219235020271 
910	 0.181308742377283 
911	 0.181365564637335 
912	 0.181363139981303 
913	 0.18146418491858 
914	 0.181558375231418 
915	 0.181628969985765 
916	 0.18182680199412 
917	 0.181797753075788 
918	 0.181765883166526 
919	 0.181909878874064 
920	 0.182097762801946 
921	 0.18228574828362 
922	 0.182413430563311 
923	 0.182467877463119 
924	 0.182535520298368 
925	 0.182721252123489 
926	 0.18294455450776 
927	 0.183100220925604 
928	 0.183235520988079 
929	 0.183382638808888 
930	 0.183539403146436 
931	 0.183686462321166 
932	 0.183797395135032 
933	 0.184020578681486 
934	 0.184288600514276 
935	 0.184444301087706 
936	 0.184545365664402 
937	 0.184733493509496 
938	 0.184968551305857 
939	 0.185124174072237 
940	 0.185450145905168 
941	 0.185652415182744 
942	 0.185759491553194 
943	 0.186060555920253 
944	 0.18623190327647 
945	 0.18643634173413 
946	 0.186713816407665 
947	 0.186936184888005 
948	 0.187265384402965 
949	 0.187554515871493 
950	 0.187799708605215 
951	 0.188201798614599 
952	 0.188447186066232 
953	 0.18866114688762 
954	 0.188923522529378 
955	 0.189134602941241 
956	 0.189426438421707 
957	 0.189771417935601 
958	 0.190104394134669 
959	 0.190363761351825 
960	 0.19064853926857 
961	 0.191073759589481 
962	 0.191538595173707 
963	 0.191544248644511 
964	 0.19188428885458 
965	 0.192342034615202 
966	 0.192659155539358 
967	 0.193115761899736 
968	 0.193485804430957 
969	 0.193951836197863 
970	 0.194573182322209 
971	 0.194816349843177 
972	 0.195199930919954 
973	 0.195645173902436 
974	 0.196010262910126 
975	 0.196512756311801 
976	 0.197002112929812 
977	 0.197428301017924 
978	 0.197798255457118 
979	 0.198164332679596 
980	 0.198686780843381 
981	 0.199209573854261 
982	 0.199588263154642 
983	 0.200105810983765 
984	 0.200432780386238 
985	 0.200805430328037 
986	 0.201441252133927 
987	 0.201806105731347 
988	 0.202380424573042 
989	 0.202908077861133 
990	 0.203156657628211 
991	 0.203896159045832 
992	 0.204506081944269 
993	 0.204888477406262 
994	 0.205207106442548 
995	 0.205784888948045 
996	 0.206138116649573 
997	 0.206538680928791 
998	 0.207249960274674 
999	 0.207553020553475 
1000	 0.208008419642793 
1001	 0.201015456241235 
1002	 0.201404832983538 
1003	 0.20190895590183 
1004	 0.202400679382118 
1005	 0.202935291775764 
1006	 0.203428688725314 
1007	 0.203926071517948 
1008	 0.204408644477577 
1009	 0.204840835431681 
1010	 0.205354744645362 
1011	 0.205938076555281 
1012	 0.206441641986528 
1013	 0.206917898896709 
1014	 0.207441210253133 
1015	 0.207929946034033 
1016	 0.208473824827913 
1017	 0.209041018670533 
1018	 0.20952667958241 
1019	 0.210072966190698 
1020	 0.210620514830076 
1021	 0.211180704620392 
1022	 0.2118148506687 
1023	 0.212400691362794 
1024	 0.212898685584157 
1025	 0.213523340376645 
1026	 0.214222026445233 
1027	 0.214878286105322 
1028	 0.215560135279672 
1029	 0.216296389763683 
1030	 0.216941197915037 
1031	 0.217632897123944 
1032	 0.218285135708912 
1033	 0.21886193889093 
1034	 0.2195168899352 
1035	 0.220183751389918 
1036	 0.220892411435996 
1037	 0.221718032307876 
1038	 0.222453985747232 
1039	 0.223150826149264 
1040	 0.223885013250157 
1041	 0.224614431882693 
1042	 0.225359594157508 
1043	 0.226139224909376 
1044	 0.226877590676562 
1045	 0.22763493766748 
1046	 0.228434033317025 
1047	 0.229181145334167 
1048	 0.229895886108868 
1049	 0.230618703735163 
1050	 0.231369170946111 
1051	 0.232155025467131 
1052	 0.233007242954043 
1053	 0.233794926952798 
1054	 0.23452751062525 
1055	 0.235295784168971 
1056	 0.236076906196472 
1057	 0.236795666166428 
1058	 0.237455901719659 
1059	 0.238264206203149 
1060	 0.239056030895633 
1061	 0.239832413408386 
1062	 0.240733226396443 
1063	 0.241552441267902 
1064	 0.242223659950313 
1065	 0.242959086500242 
1066	 0.243657188270577 
1067	 0.244409856742377 
1068	 0.245296129451484 
1069	 0.246069916210156 
1070	 0.246869171725526 
1071	 0.247698887629471 
1072	 0.248512795900847 
1073	 0.24926129566336 
1074	 0.250114454614193 
1075	 0.25094719060122 
1076	 0.251811998191813 
1077	 0.252718527976943 
1078	 0.253547180901142 
1079	 0.254452879963344 
1080	 0.255349862772744 
1081	 0.256119314429029 
1082	 0.256947531969471 
1083	 0.257796171439812 
1084	 0.258600666632438 
1085	 0.259511120930276 
1086	 0.260419147010025 
1087	 0.261366392401362 
1088	 0.26225928494453 
1089	 0.26316184097451 
1090	 0.264039070404449 
1091	 0.264925683230252 
1092	 0.265811559517834 
1093	 0.266735790158418 
1094	 0.267692389037044 
1095	 0.26855179529218 
1096	 0.269481031824037 
1097	 0.270457727677305 
1098	 0.271356792773071 
1099	 0.272337651088789 
1100	 0.273312907517921 
1101	 0.274237733887418 
1102	 0.275246232280636 
1103	 0.27624196846831 
1104	 0.277244129955288 
1105	 0.27824851066624 
1106	 0.279287362023757 
1107	 0.280286588053399 
1108	 0.281325707834187 
1109	 0.282359805634216 
1110	 0.28340457354356 
1111	 0.28453590568829 
1112	 0.285550058453174 
1113	 0.286590096561085 
1114	 0.287684278598936 
1115	 0.288642066888246 
1116	 0.289682305342451 
1117	 0.290738568644392 
1118	 0.291803044491857 
1119	 0.292894052271807 
1120	 0.293989170221847 
1121	 0.295086086654471 
1122	 0.296204508184145 
1123	 0.297330804404334 
1124	 0.298347244947861 
1125	 0.29942489935498 
1126	 0.300505693868203 
1127	 0.301538466486601 
1128	 0.302694412765837 
1129	 0.303801681275413 
1130	 0.304873251233987 
1131	 0.305996390187103 
1132	 0.307008062135158 
1133	 0.308032354577868 
1134	 0.309077860433847 
1135	 0.310120326550354 
1136	 0.311181812250292 
1137	 0.312231008020239 
1138	 0.313286700746179 
1139	 0.314316664436498 
1140	 0.315338955648339 
1141	 0.316296268124267 
1142	 0.317325261931967 
1143	 0.31832834837715 
1144	 0.319317814665802 
1145	 0.320374610584737 
1146	 0.32134726748995 
1147	 0.322328322313774 
1148	 0.323350157769992 
1149	 0.324285039491171 
1150	 0.325246735373918 
1151	 0.326173727659329 
1152	 0.327083277523789 
1153	 0.327966192229249 
1154	 0.328870968724988 
1155	 0.329772196964073 
1156	 0.330664855730483 
1157	 0.331568100738441 
1158	 0.332431991218406 
1159	 0.333271241074544 
1160	 0.3340941362371 
1161	 0.334920854418705 
1162	 0.335743934344694 
1163	 0.336545987585204 
1164	 0.337352567816216 
1165	 0.338152089653499 
1166	 0.338923568797836 
1167	 0.339718399440022 
1168	 0.340480546006791 
1169	 0.34123982473872 
1170	 0.342011002140551 
1171	 0.342732734420826 
1172	 0.343420981529567 
1173	 0.344113421271491 
1174	 0.344767824792991 
1175	 0.345423068903867 
1176	 0.346087538809214 
1177	 0.346723422229616 
1178	 0.347324365924537 
1179	 0.347963564101604 
1180	 0.348526694644047 
1181	 0.349135158829367 
1182	 0.349776095927261 
1183	 0.350295790386499 
1184	 0.350852766573789 
1185	 0.351423562201669 
1186	 0.351951707716951 
1187	 0.352443037620025 
1188	 0.352958947417939 
1189	 0.353454759510448 
1190	 0.353973287066907 
1191	 0.354509178956135 
1192	 0.355021609334009 
1193	 0.3555284245828 
1194	 0.356043128851174 
1195	 0.356561829437659 
1196	 0.357073768193313 
1197	 0.357586268025434 
1198	 0.358111574165899 
1199	 0.358605697008566 
1200	 0.359058489741804 
1201	 0.359543988308853 
1202	 0.36000021124142 
1203	 0.360459514359617 
1204	 0.360997068824883 
1205	 0.361497110398127 
1206	 0.361990560974749 
1207	 0.362507091646565 
1208	 0.363015508369201 
1209	 0.363550190959069 
1210	 0.364117608207673 
1211	 0.364687693647891 
1212	 0.365276101551299 
1213	 0.3658664493077 
1214	 0.366455606442871 
1215	 0.367068762722757 
1216	 0.367699367759467 
1217	 0.368324353752744 
1218	 0.368953315338812 
1219	 0.369606471099395 
1220	 0.370274686020363 
1221	 0.370959897893915 
1222	 0.371598373349309 
1223	 0.372238338141082 
1224	 0.372866048605188 
1225	 0.37344922662858 
1226	 0.37404673910515 
1227	 0.374665229684085 
1228	 0.375255026936074 
1229	 0.375821669120421 
1230	 0.376384832498376 
1231	 0.376952259262597 
1232	 0.37749789134739 
1233	 0.378046829160597 
1234	 0.378534282032516 
1235	 0.378960807975399 
1236	 0.379408597511224 
1237	 0.379827950244958 
1238	 0.380240277824572 
1239	 0.380639794877961 
1240	 0.38108651749966 
1241	 0.381472303271557 
1242	 0.381850378478714 
1243	 0.382244078516715 
1244	 0.382644782161337 
1245	 0.383037807289527 
1246	 0.383434736039736 
1247	 0.383825342317008 
1248	 0.384218930614637 
1249	 0.384600092562515 
1250	 0.384956855198615 
1251	 0.385342791152397 
1252	 0.385729994479875 
1253	 0.386129481482393 
1254	 0.386561454856884 
1255	 0.386977764217916 
1256	 0.387397440514715 
1257	 0.387806923921864 
1258	 0.388222113151975 
1259	 0.388613552722253 
1260	 0.388974164720389 
1261	 0.389348188835147 
1262	 0.389696133175444 
1263	 0.390084722064112 
1264	 0.390455364404618 
1265	 0.390842818265659 
1266	 0.391200599674397 
1267	 0.391552658164046 
1268	 0.39187159440905 
1269	 0.392166054404506 
1270	 0.392457019224947 
1271	 0.392710965385375 
1272	 0.392992935215886 
1273	 0.393306324931992 
1274	 0.393565385068146 
1275	 0.393829468232924 
1276	 0.394036300207227 
1277	 0.394164437050231 
1278	 0.394319209243206 
1279	 0.394452895196373 
1280	 0.394588464164818 
1281	 0.394749201621686 
1282	 0.394871524557732 
1283	 0.394969003150615 
1284	 0.395054063545817 
1285	 0.395121056874185 
1286	 0.395149529432602 
1287	 0.395221474153109 
1288	 0.395297649038394 
1289	 0.395374991624755 
1290	 0.395492303640263 
1291	 0.39553862181688 
1292	 0.395555288874777 
1293	 0.395561406817649 
1294	 0.3955174825792 
1295	 0.395505564393963 
1296	 0.395482783544298 
1297	 0.395491009756358 
1298	 0.395529908200378 
1299	 0.395548979739983 
1300	 0.395593751448272 
1301	 0.395604378260665 
1302	 0.395554326705797 
1303	 0.395562572236481 
1304	 0.395580479793568 
1305	 0.395615020387741 
1306	 0.395691608047368 
1307	 0.395768142778302 
1308	 0.395844066666174 
1309	 0.395940833568549 
1310	 0.39601751724001 
1311	 0.396102172785119 
1312	 0.396175048307404 
1313	 0.396218215151722 
1314	 0.396308287203083 
1315	 0.396419876339431 
1316	 0.396527078417116 
1317	 0.396645222247896 
1318	 0.396777074117436 
1319	 0.396922107292608 
1320	 0.39705267398144 
1321	 0.397178600219748 
1322	 0.397333550061926 
1323	 0.397475953757898 
1324	 0.397650807371507 
1325	 0.397871998030994 
1326	 0.398086103574725 
1327	 0.398321127893263 
1328	 0.398534301474486 
1329	 0.398749652265266 
1330	 0.398954933541054 
1331	 0.39912785503406 
1332	 0.399319486926074 
1333	 0.399512254261318 
1334	 0.399720932984287 
1335	 0.399926260166952 
1336	 0.400139561965749 
1337	 0.40034838003858 
1338	 0.400555451078738 
1339	 0.400765499795901 
1340	 0.400978758865686 
1341	 0.401188327464904 
1342	 0.401412601073292 
1343	 0.401602121275643 
1344	 0.401768111123372 
1345	 0.401945825008565 
1346	 0.402118295631197 
1347	 0.402271910545673 
1348	 0.402438361982548 
1349	 0.402569375553109 
1350	 0.402661817677933 
1351	 0.402757211475036 
1352	 0.402834136429269 
1353	 0.402918251610414 
1354	 0.403001476814992 
1355	 0.403078034888578 
1356	 0.403148232141292 
1357	 0.403224280652156 
1358	 0.403299351479497 
1359	 0.403370880365513 
1360	 0.403437616912751 
1361	 0.403517135590093 
1362	 0.403598752673593 
1363	 0.403688148393958 
1364	 0.403766237164183 
1365	 0.403861552697673 
1366	 0.40391517593289 
1367	 0.403940587526165 
1368	 0.403974147167655 
1369	 0.403999507988385 
1370	 0.404015688290444 
1371	 0.404022836180365 
1372	 0.404033976657707 
1373	 0.404058106350429 
1374	 0.404027510913401 
1375	 0.40399667531309 
1376	 0.403915827210374 
1377	 0.403778581853798 
1378	 0.403625550461155 
1379	 0.403426664755733 
1380	 0.403247275861786 
1381	 0.403058415199851 
1382	 0.40285215695919 
1383	 0.40264085250223 
1384	 0.402432161853058 
1385	 0.402184787116077 
1386	 0.40197231744919 
1387	 0.401806278946236 
1388	 0.401611842599554 
1389	 0.401428981276029 
1390	 0.401219595733334 
1391	 0.40098068862257 
1392	 0.40073964138834 
1393	 0.400486494066863 
1394	 0.400231195348179 
1395	 0.399976101479777 
1396	 0.399708011770232 
1397	 0.399476827129895 
1398	 0.399262168669112 
1399	 0.39904119478127 
1400	 0.398848344758723 
1401	 0.398626997376825 
1402	 0.398407558073982 
1403	 0.398135767700514 
1404	 0.397875119354061 
1405	 0.397517795880507 
1406	 0.397118563045471 
1407	 0.396623840952791 
1408	 0.396031410163778 
1409	 0.395419468965675 
1410	 0.394717198553636 
1411	 0.394023756657435 
1412	 0.393295164961365 
1413	 0.392582659453987 
1414	 0.391799895841428 
1415	 0.391125068597011 
1416	 0.390448246790781 
1417	 0.389893049495191 
1418	 0.389443019898498 
1419	 0.389045671857031 
1420	 0.388768184816936 
1421	 0.388488924355118 
1422	 0.388266258597036 
1423	 0.388042250420022 
1424	 0.387856922243252 
1425	 0.387644286422928 
1426	 0.387440017373843 
1427	 0.387188131327337 
1428	 0.386861161893442 
1429	 0.386528992629148 
1430	 0.386134025036919 
1431	 0.385685924292897 
1432	 0.385207954564266 
1433	 0.384661553869603 
1434	 0.384163773214416 
1435	 0.383636013937898 
1436	 0.383152684171553 
1437	 0.382698058358109 
1438	 0.382260882961537 
1439	 0.381834253698343 
1440	 0.381430241602738 
1441	 0.38105741752326 
1442	 0.380688551335031 
1443	 0.380309709616535 
1444	 0.379992632429897 
1445	 0.379658335691778 
1446	 0.379464719320773 
1447	 0.379305170733304 
1448	 0.379309371671696 
1449	 0.37942472443212 
1450	 0.379682435539144 
1451	 0.380113388228673 
1452	 0.380601576123549 
1453	 0.381278614573395 
1454	 0.38189843099286 
1455	 0.382590636933196 
1456	 0.383232345137516 
1457	 0.38386700020498 
1458	 0.384472775377062 
1459	 0.38502745511103 
1460	 0.385608530083795 
1461	 0.386150688735876 
1462	 0.386740621206229 
1463	 0.387370910321031 
1464	 0.388012515495204 
1465	 0.388672946799846 
1466	 0.389371321206771 
1467	 0.390061289553622 
1468	 0.390753309292555 
1469	 0.391417871861554 
1470	 0.392048488571442 
1471	 0.392655238640691 
1472	 0.393240177534328 
1473	 0.393764598142572 
1474	 0.394257383550551 
1475	 0.394706390217946 
1476	 0.395088187052591 
1477	 0.395473343458183 
1478	 0.395840178109606 
1479	 0.396174105903289 
1480	 0.396478117772562 
1481	 0.39676496022311 
1482	 0.397020346761082 
1483	 0.397269419986876 
1484	 0.397500448852725 
1485	 0.397722701331751 
1486	 0.397925803430808 
1487	 0.398128483637715 
1488	 0.398299297213191 
1489	 0.398520721981796 
1490	 0.398746529494367 
1491	 0.399010104924302 
1492	 0.399315178084825 
1493	 0.399629930700173 
1494	 0.399969290768948 
1495	 0.40031579005233 
1496	 0.400676139099028 
1497	 0.401057625988839 
1498	 0.401464100848917 
1499	 0.401866159872689 
1500	 0.402292205515478 
1501	 0.402706186147767 
1502	 0.403115952495035 
1503	 0.403516364238029 
1504	 0.403925980404677 
1505	 0.404308265726344 
1506	 0.404684354635958 
1507	 0.405028705902975 
1508	 0.405343014368862 
1509	 0.405642924790923 
1510	 0.405920222369081 
1511	 0.406173654823047 
1512	 0.406392872390293 
1513	 0.406619322021664 
1514	 0.406839919963519 
1515	 0.407038083658585 
1516	 0.407224499297053 
1517	 0.407409600906916 
1518	 0.407561803798196 
1519	 0.407727061018472 
1520	 0.407910316115607 
1521	 0.408087096551954 
1522	 0.408239157345081 
1523	 0.40838863513998 
1524	 0.408546453951581 
1525	 0.408703482112901 
1526	 0.408834000569549 
1527	 0.40896403255482 
1528	 0.40908596697832 
1529	 0.409180095242085 
1530	 0.409280504651271 
1531	 0.409397086485881 
1532	 0.409479997465652 
1533	 0.409526551494595 
1534	 0.409604127835883 
1535	 0.40968121478073 
1536	 0.409768573225534 
1537	 0.409866535980063 
1538	 0.409970915807037 
1539	 0.410070568309038 
1540	 0.410203285339956 
1541	 0.410351089227929 
1542	 0.41052420783274 
1543	 0.410722404989519 
1544	 0.410935970439619 
1545	 0.411169211743382 
1546	 0.411421022154811 
1547	 0.411702795665393 
1548	 0.411975531044904 
1549	 0.412259370434011 
1550	 0.412548996270138 
1551	 0.412828047761424 
1552	 0.41314249625483 
1553	 0.41347295244342 
1554	 0.413830872636963 
1555	 0.414222536771154 
1556	 0.414613106869844 
1557	 0.415035456538502 
1558	 0.41543478622718 
1559	 0.415846875296307 
1560	 0.416218382218251 
1561	 0.416563431714192 
1562	 0.416907119136655 
1563	 0.417219282769069 
1564	 0.417545074450579 
1565	 0.417878077491108 
1566	 0.41820165961719 
1567	 0.418531100415571 
1568	 0.418833090515778 
1569	 0.419113139765649 
1570	 0.419399971330435 
1571	 0.419679593636558 
1572	 0.419942628416384 
1573	 0.420189314457511 
1574	 0.420456069670834 
1575	 0.420718197950036 
1576	 0.42097636745054 
1577	 0.421262469627981 
1578	 0.421519531867759 
1579	 0.421746154824304 
1580	 0.421978594978979 
1581	 0.422209194998163 
1582	 0.422432961616202 
1583	 0.422633593399655 
1584	 0.422862355011371 
1585	 0.423110388969016 
1586	 0.423343806888287 
1587	 0.423594012553158 
1588	 0.423824896726321 
1589	 0.424031680089353 
1590	 0.424243377902942 
1591	 0.42445271238106 
1592	 0.424660884941368 
1593	 0.424861689789171 
1594	 0.425069153539925 
1595	 0.425276902059424 
1596	 0.42548963666015 
1597	 0.425719257663007 
1598	 0.425927493137574 
1599	 0.426129851382683 
1600	 0.426326422795511 
1601	 0.4265054295585 
1602	 0.426687241491448 
1603	 0.426862008720676 
1604	 0.427045592773958 
1605	 0.427226792052828 
1606	 0.4274165897325 
1607	 0.427645770504244 
1608	 0.427826054090788 
1609	 0.42797982232814 
1610	 0.428130909582589 
1611	 0.428235875924057 
1612	 0.428366329515191 
1613	 0.428519843108673 
1614	 0.428661351228434 
1615	 0.428819984899469 
1616	 0.428942852307431 
1617	 0.429025200863647 
1618	 0.429132459792831 
1619	 0.429245575635052 
1620	 0.429333304601544 
1621	 0.429434249263689 
1622	 0.429507579273104 
1623	 0.429535442541411 
1624	 0.429570809331541 
1625	 0.429588265683264 
1626	 0.429625397277824 
1627	 0.429673980394414 
1628	 0.429711286082764 
1629	 0.429760768384438 
1630	 0.429800169478267 
1631	 0.429813034295287 
1632	 0.429844847855629 
1633	 0.429883971330779 
1634	 0.42992981377221 
1635	 0.429979876845445 
1636	 0.430041775336053 
1637	 0.43011835324906 
1638	 0.430193223468707 
1639	 0.430293196894656 
1640	 0.430362323578521 
1641	 0.430434891789479 
1642	 0.430471612254767 
1643	 0.430460723232679 
1644	 0.430459263311026 
1645	 0.430434311783213 
1646	 0.430412178914678 
1647	 0.430409284990912 
1648	 0.430380625583159 
1649	 0.430334052842301 
1650	 0.430280884763337 
1651	 0.430215500448194 
1652	 0.430134785017564 
1653	 0.430044467996745 
1654	 0.429939720207467 
1655	 0.429824718152958 
1656	 0.429681827942588 
1657	 0.429525302323774 
1658	 0.429339728609142 
1659	 0.429115456113273 
1660	 0.428891639076661 
1661	 0.428676968449414 
1662	 0.428400808706889 
1663	 0.428076676864197 
1664	 0.427748745409577 
1665	 0.427400870814829 
1666	 0.42699387479764 
1667	 0.42660490645343 
1668	 0.426108547050668 
1669	 0.425481593398354 
1670	 0.424876963333444 
1671	 0.424245182887067 
1672	 0.423554446384165 
1673	 0.422849717184516 
1674	 0.422075023171988 
1675	 0.421226524246827 
1676	 0.420345780748436 
1677	 0.419420638006659 
1678	 0.418465208310913 
1679	 0.417458808394194 
1680	 0.416406945382381 
1681	 0.415318829473412 
1682	 0.414183521881098 
1683	 0.413016915979059 
1684	 0.411794399000584 
1685	 0.410523341894961 
1686	 0.409201557397679 
1687	 0.407803751773617 
1688	 0.406365147647662 
1689	 0.404885251453366 
1690	 0.403356123928657 
1691	 0.401763696065305 
1692	 0.400184227466574 
1693	 0.398600384693493 
1694	 0.396944392406687 
1695	 0.395237551160483 
1696	 0.393506857974064 
1697	 0.391710868084219 
1698	 0.389898138669767 
1699	 0.388081507408782 
1700	 0.386276791527201 
1701	 0.384420172198085 
1702	 0.382624843197956 
1703	 0.380817065327432 
1704	 0.379099435819572 
1705	 0.377395888780867 
1706	 0.375785964228914 
1707	 0.374390913561067 
1708	 0.373041158717286 
1709	 0.37178881373928 
1710	 0.370694929455878 
1711	 0.369600912455431 
1712	 0.368604540314096 
1713	 0.367687373883078 
1714	 0.366803622691389 
1715	 0.366014061159815 
1716	 0.365211466741391 
1717	 0.364447989946975 
1718	 0.363703947664346 
1719	 0.362944571716842 
1720	 0.362271544461491 
1721	 0.361645589127269 
1722	 0.361070559809107 
1723	 0.360561397049912 
1724	 0.360144885006492 
1725	 0.359865810653524 
1726	 0.359677196525882 
1727	 0.359635665622401 
1728	 0.359721339577141 
1729	 0.359943922200164 
1730	 0.360384941392068 
1731	 0.360934854893642 
1732	 0.361629395004251 
1733	 0.362378890904796 
1734	 0.363155782761879 
1735	 0.363984588778883 
1736	 0.364742850714316 
1737	 0.365489980169525 
1738	 0.366129235490632 
1739	 0.366654232113993 
1740	 0.367124490051165 
1741	 0.367444217891184 
1742	 0.367629198021893 
1743	 0.3677339383289 
1744	 0.367688719878052 
1745	 0.367608639925532 
1746	 0.367400425691999 
1747	 0.367242097617829 
1748	 0.367026955246393 
1749	 0.366912077555114 
1750	 0.366842588974795 
1751	 0.366797328293878 
1752	 0.366769434422249 
1753	 0.366845320977713 
1754	 0.366973367458996 
1755	 0.367171209607212 
1756	 0.367444584579497 
1757	 0.367764935744422 
1758	 0.368236189021034 
1759	 0.368780580592609 
1760	 0.369446678461618 
1761	 0.37021568070068 
1762	 0.371011596008646 
1763	 0.371960290761178 
1764	 0.372989235940038 
1765	 0.374061705453616 
1766	 0.375233396049318 
1767	 0.376403687943783 
1768	 0.377625017402711 
1769	 0.378887281379649 
1770	 0.380105654298221 
1771	 0.381308991895849 
1772	 0.382436458042149 
1773	 0.38350402025886 
1774	 0.384529381696922 
1775	 0.385462031709205 
1776	 0.386391613625011 
1777	 0.387253855041912 
1778	 0.388015896382997 
1779	 0.388804680844232 
1780	 0.389540304874434 
1781	 0.390219202169426 
1782	 0.390927792643358 
1783	 0.391533094395541 
1784	 0.392066057822686 
1785	 0.392565735263046 
1786	 0.393025854399494 
1787	 0.393453052952669 
1788	 0.393868867664249 
1789	 0.394256094357514 
1790	 0.394628976118015 
1791	 0.394962131335946 
1792	 0.39533875813542 
1793	 0.395722684418283 
1794	 0.396054440327603 
1795	 0.396361162298932 
1796	 0.39669688693937 
1797	 0.397068363786168 
1798	 0.397412552714783 
1799	 0.397787054442418 
1800	 0.398106866820673 
1801	 0.409555260907806 
1802	 0.40999025308935 
1803	 0.410385465914604 
1804	 0.410754534715024 
1805	 0.411160226049086 
1806	 0.41150757034389 
1807	 0.411819773381056 
1808	 0.412130142749532 
1809	 0.412408735067026 
1810	 0.412698740245682 
1811	 0.412999702845749 
1812	 0.413278652085676 
1813	 0.413536144060879 
1814	 0.41380428733675 
1815	 0.41407373272735 
1816	 0.414342659607958 
1817	 0.414614321184688 
1818	 0.414883920963087 
1819	 0.415175379826 
1820	 0.415467668379967 
1821	 0.41577834326712 
1822	 0.416106975687298 
1823	 0.416463235347284 
1824	 0.416812493873725 
1825	 0.41716685226039 
1826	 0.417525976456551 
1827	 0.417926718667577 
1828	 0.418249795276825 
1829	 0.418553336708906 
1830	 0.418829407350151 
1831	 0.419047445517288 
1832	 0.419275544336875 
1833	 0.419494303310315 
1834	 0.419738428377412 
1835	 0.420025898503709 
1836	 0.420300441821687 
1837	 0.420588979317057 
1838	 0.420914292514995 
1839	 0.421210808427351 
1840	 0.421467016106279 
1841	 0.421785116247801 
1842	 0.422149094983885 
1843	 0.422492258683934 
1844	 0.422803751267723 
1845	 0.423119844961502 
1846	 0.42337375522434 
1847	 0.423557235091056 
1848	 0.423751231218524 
1849	 0.423958372660277 
1850	 0.424114143089776 
1851	 0.424226217292698 
1852	 0.424336482376731 
1853	 0.424432607141834 
1854	 0.424456369382317 
1855	 0.424462768090332 
1856	 0.424488318171094 
1857	 0.424481527096392 
1858	 0.424429406941845 
1859	 0.424338954953295 
1860	 0.424213971410147 
1861	 0.424041899062835 
1862	 0.423838802964015 
1863	 0.423576791847264 
1864	 0.423247048906296 
1865	 0.422906274114753 
1866	 0.422469968232974 
1867	 0.421955449634526 
1868	 0.421388081176866 
1869	 0.420750999813486 
1870	 0.420138220122362 
1871	 0.419505681328835 
1872	 0.418886639431326 
1873	 0.418291299902355 
1874	 0.417665442519035 
1875	 0.417039126750882 
1876	 0.416273774703512 
1877	 0.415506210160459 
1878	 0.414650112235365 
1879	 0.413630591146304 
1880	 0.41262274946212 
1881	 0.411485965504877 
1882	 0.410212746737332 
1883	 0.408920030600271 
1884	 0.407586661446255 
1885	 0.406034479746291 
1886	 0.404461409124754 
1887	 0.402757372104517 
1888	 0.400876880816936 
1889	 0.399091696819356 
1890	 0.397231512151217 
1891	 0.395320603160707 
1892	 0.393429308258126 
1893	 0.391436808462336 
1894	 0.38932473368039 
1895	 0.387255552063668 
1896	 0.385135725031211 
1897	 0.38296078039801 
1898	 0.3809694395204 
1899	 0.378901443030488 
1900	 0.376891887030911 
1901	 0.374993988229666 
1902	 0.37296339960808 
1903	 0.371059883065466 
1904	 0.369223294032073 
1905	 0.367417890396459 
1906	 0.365676301091584 
1907	 0.364145570606848 
1908	 0.362617740944301 
1909	 0.361180971573 
1910	 0.359837476249059 
1911	 0.358430383094212 
1912	 0.357082385448952 
1913	 0.355771402684533 
1914	 0.354484091392052 
1915	 0.353268358690991 
1916	 0.352140535302666 
1917	 0.351019144878541 
1918	 0.349969056092751 
1919	 0.348935445191555 
1920	 0.347844219024163 
1921	 0.346881800811487 
1922	 0.34589500565995 
1923	 0.344866141565825 
1924	 0.343962202072899 
1925	 0.34301102726903 
1926	 0.342092417955655 
1927	 0.341198096732593 
1928	 0.340322056857682 
1929	 0.339435425484026 
1930	 0.338631760229174 
1931	 0.337860573580256 
1932	 0.33711816637176 
1933	 0.336501943408368 
1934	 0.335931393255485 
1935	 0.335408908492299 
1936	 0.334952872444897 
1937	 0.334576228651101 
1938	 0.334250629658298 
1939	 0.334034512218566 
1940	 0.333904573962218 
1941	 0.333877344551314 
1942	 0.333900252856696 
1943	 0.33396676714487 
1944	 0.334097232768108 
1945	 0.334301362038584 
1946	 0.334588488195487 
1947	 0.334915147212583 
1948	 0.335322303285584 
1949	 0.335805526146409 
1950	 0.336352362424192 
1951	 0.336972411210158 
1952	 0.337671801585127 
1953	 0.338438467960753 
1954	 0.339282220927499 
1955	 0.340235422680066 
1956	 0.341190435600217 
1957	 0.342177381637545 
1958	 0.343216844019884 
1959	 0.344145580783638 
1960	 0.345053898106676 
1961	 0.345910577849828 
1962	 0.346723089197817 
1963	 0.347445652961009 
1964	 0.348102125392196 
1965	 0.348724999055938 
1966	 0.349288021397532 
1967	 0.349797802712509 
1968	 0.350252323789855 
1969	 0.350705154391191 
1970	 0.351149937028506 
1971	 0.351600473258731 
1972	 0.352063780275411 
1973	 0.352551583554554 
1974	 0.353054014319526 
1975	 0.353562530458718 
1976	 0.354066171951727 
1977	 0.354594888242228 
1978	 0.355128271230007 
1979	 0.35563983846547 
1980	 0.356164599914245 
1981	 0.356793265622181 
1982	 0.357394687448366 
1983	 0.358043240875193 
1984	 0.358751206921398 
1985	 0.359353098631588 
1986	 0.359975145648396 
1987	 0.360641037928097 
1988	 0.361251328846724 
1989	 0.361990493795706 
1990	 0.362814739723091 
1991	 0.363691473453193 
1992	 0.364631659655589 
1993	 0.365659507213102 
1994	 0.36669327767277 
1995	 0.36778201118924 
1996	 0.368897095600316 
1997	 0.370032979586015 
1998	 0.371188008594433 
1999	 0.372404184256316 
2000	 0.373544606957995 
2001	 0.374736183186988 
2002	 0.375791746109441 
2003	 0.37675910391893 
2004	 0.377709316123323 
2005	 0.378563688966676 
2006	 0.37941256622784 
2007	 0.380263973102235 
2008	 0.381061820477864 
2009	 0.381782086776277 
2010	 0.382442292804486 
2011	 0.383001060992483 
2012	 0.38353953368412 
2013	 0.384060021719453 
2014	 0.384551649373502 
2015	 0.385009748058286 
2016	 0.385453112892831 
2017	 0.385841534148545 
2018	 0.386209711554258 
2019	 0.38649949307686 
2020	 0.386707124334712 
2021	 0.386910706109371 
2022	 0.387062804035867 
2023	 0.387153502857791 
2024	 0.387272739618878 
2025	 0.387344829300056 
2026	 0.387390481365583 
2027	 0.387403649615625 
2028	 0.387403740665146 
2029	 0.387376427491084 
2030	 0.387320550750784 
2031	 0.387220791265309 
2032	 0.387133863194832 
2033	 0.387034303401755 
2034	 0.386922865767367 
2035	 0.386808968973629 
2036	 0.386689774986904 
2037	 0.386530732000159 
2038	 0.386368202012704 
2039	 0.386245435526709 
2040	 0.386137475755739 
2041	 0.386035547281147 
2042	 0.38598027103841 
2043	 0.385877539296322 
2044	 0.385737658332287 
2045	 0.385640070653258 
2046	 0.385537055064569 
2047	 0.385453338241225 
2048	 0.385402271908621 
2049	 0.385354285433906 
2050	 0.385324154346299 
2051	 0.385278021261162 
2052	 0.385253268760856 
2053	 0.385192295669256 
2054	 0.385127483571188 
2055	 0.38502649218032 
2056	 0.384975250170418 
2057	 0.384945259294864 
2058	 0.384901655590135 
2059	 0.384886319912537 
2060	 0.384834585198932 
2061	 0.38474238337496 
2062	 0.384673772114124 
2063	 0.384613942812615 
2064	 0.384540910057939 
2065	 0.384459072232984 
2066	 0.384391468661672 
2067	 0.384310946941099 
2068	 0.384251530531946 
2069	 0.384186236216622 
2070	 0.384147068604172 
2071	 0.384060310541586 
2072	 0.383946802590018 
2073	 0.38383901969602 
2074	 0.383685827855567 
2075	 0.383590877494741 
2076	 0.38353381569927 
2077	 0.383459737155095 
2078	 0.383431828516705 
2079	 0.38335743474249 
2080	 0.383236435063895 
2081	 0.383132735673492 
2082	 0.383027652201787 
2083	 0.382895461030683 
2084	 0.382785417139537 
2085	 0.382702556162427 
2086	 0.382592963127803 
2087	 0.382473774686315 
2088	 0.382357656266083 
2089	 0.382248716539946 
2090	 0.382109446557092 
2091	 0.381960529798595 
2092	 0.381796409710549 
2093	 0.381602132740434 
2094	 0.381409493724228 
2095	 0.381213533284239 
2096	 0.381009204673718 
2097	 0.380804371382611 
2098	 0.380571965267091 
2099	 0.380327111569708 
2100	 0.380089522136351 
2101	 0.379846628710693 
2102	 0.379598994391516 
2103	 0.379341159331335 
2104	 0.379084273314286 
2105	 0.378810027959639 
2106	 0.378534203491325 
2107	 0.378214899329802 
2108	 0.377873932695079 
2109	 0.377515863877888 
2110	 0.377124136023069 
2111	 0.376715427406542 
2112	 0.376271193768374 
2113	 0.375841341973714 
2114	 0.37540210639011 
2115	 0.374952994804382 
2116	 0.374485421111288 
2117	 0.374056791757456 
2118	 0.373621263953073 
2119	 0.373165912303663 
2120	 0.372741126180557 
2121	 0.372358902062576 
2122	 0.3719337575031 
2123	 0.371496062377809 
2124	 0.37105784638296 
2125	 0.370603655463091 
2126	 0.370155896452853 
2127	 0.369690444414974 
2128	 0.369263729906418 
2129	 0.368817106223569 
2130	 0.368439497063468 
2131	 0.368129599730219 
2132	 0.367821210374639 
2133	 0.367552313162944 
2134	 0.367314881594383 
2135	 0.367017050924056 
2136	 0.366707669136638 
2137	 0.36644727138901 
2138	 0.366181769816826 
2139	 0.36594679596178 
2140	 0.365780613009788 
2141	 0.365563702340647 
2142	 0.365326787489929 
2143	 0.365097533332863 
2144	 0.364847475982069 
2145	 0.364634491024627 
2146	 0.364425056216162 
2147	 0.36424712608483 
2148	 0.364135845041895 
2149	 0.36397697248351 
2150	 0.363813457121138 
2151	 0.363646792142043 
2152	 0.363462105546626 
2153	 0.363253124537196 
2154	 0.36311334972078 
2155	 0.362958764697864 
2156	 0.362788404383304 
2157	 0.3626300384185 
2158	 0.362445420522236 
2159	 0.362219468453204 
2160	 0.362027789901699 
2161	 0.361861988546562 
2162	 0.361652836347881 
2163	 0.361428527919822 
2164	 0.361203142534783 
2165	 0.36097768218747 
2166	 0.360701234691608 
2167	 0.360379982217988 
2168	 0.36009731812949 
2169	 0.35978895616394 
2170	 0.359486933090451 
2171	 0.359214725595707 
2172	 0.358940266400639 
2173	 0.358655211979401 
2174	 0.358355280237292 
2175	 0.358078988415019 
2176	 0.357830672584111 
2177	 0.357605133486072 
2178	 0.357392154670044 
2179	 0.357189407175962 
2180	 0.357024396201159 
2181	 0.35685444416183 
2182	 0.356673116425095 
2183	 0.356517849505017 
2184	 0.356412125954343 
2185	 0.356252845744064 
2186	 0.356076447309643 
2187	 0.355905856661868 
2188	 0.355691928608135 
2189	 0.355523989021847 
2190	 0.355420638469645 
2191	 0.355245688767568 
2192	 0.355074980416576 
2193	 0.354857679295864 
2194	 0.354599868079767 
2195	 0.354294774322292 
2196	 0.353959412806124 
2197	 0.353560269358535 
2198	 0.35312167123076 
2199	 0.352702410942762 
2200	 0.352292040840619 
2201	 0.351926625145129 
2202	 0.351443892265293 
2203	 0.350901584342907 
2204	 0.350391406118328 
2205	 0.349794859731876 
2206	 0.349294664396186 
2207	 0.348887023363507 
2208	 0.348407705714091 
2209	 0.347860968005838 
2210	 0.347453197715133 
2211	 0.347093718895825 
2212	 0.34674933693314 
2213	 0.346538413731352 
2214	 0.346244723986644 
2215	 0.345882113211243 
2216	 0.345569559697733 
2217	 0.345290234018591 
2218	 0.344987615832267 
2219	 0.344707309418568 
2220	 0.344400397610727 
2221	 0.344053772181609 
2222	 0.343733383016397 
2223	 0.343384114388374 
2224	 0.34298154860831 
2225	 0.342585113545768 
2226	 0.342116444445828 
2227	 0.3415565085758 
2228	 0.340940566288639 
2229	 0.340249944840133 
2230	 0.339427570827303 
2231	 0.338633906391454 
2232	 0.337865416820432 
2233	 0.336920366382803 
2234	 0.335955548332193 
2235	 0.334766431120732 
2236	 0.333380937276314 
2237	 0.331921180529995 
2238	 0.330292482299278 
2239	 0.328604718288513 
2240	 0.326847964568806 
2241	 0.324932005956196 
2242	 0.322958908234962 
2243	 0.320754116073545 
2244	 0.3182710320845 
2245	 0.315809547005018 
2246	 0.313063658321221 
2247	 0.310480177323683 
2248	 0.30799384028903 
2249	 0.305446309579019 
2250	 0.302900309421994 
2251	 0.300435787221534 
2252	 0.297692028659615 
2253	 0.295087886022372 
2254	 0.292522672533257 
2255	 0.28990351055839 
2256	 0.287641160038173 
2257	 0.285342418430338 
2258	 0.283057098789075 
2259	 0.280889161682587 
2260	 0.278613040453534 
2261	 0.276288279007343 
2262	 0.273972423801569 
2263	 0.271555754365811 
2264	 0.269294645169396 
2265	 0.267033719450386 
2266	 0.264921318538538 
2267	 0.262997582579751 
2268	 0.261048811232137 
2269	 0.259139828470138 
2270	 0.257341412471294 
2271	 0.255509495099731 
2272	 0.253933778700712 
2273	 0.252602276242829 
2274	 0.251257213002719 
2275	 0.250154962104226 
2276	 0.248912194266326 
2277	 0.247627578592982 
2278	 0.246340990222104 
2279	 0.245072870444643 
2280	 0.243680398700534 
2281	 0.242243929190719 
2282	 0.240737421709322 
2283	 0.239125430123523 
2284	 0.237453819834084 
2285	 0.235685688248776 
2286	 0.234028534313685 
2287	 0.23224109193666 
2288	 0.230302639702271 
2289	 0.228478001251857 
2290	 0.22645513461299 
2291	 0.22444591645513 
2292	 0.222548310406155 
2293	 0.220537720629805 
2294	 0.218675860450946 
2295	 0.216781043451666 
2296	 0.214897852835394 
2297	 0.213318303431668 
2298	 0.211819815464359 
2299	 0.210653616241071 
2300	 0.209852954554592 
2301	 0.209129082731683 
2302	 0.208561484878174 
2303	 0.208304567578861 
2304	 0.208255051169761 
2305	 0.208447498432371 
2306	 0.209030720577298 
2307	 0.209631265346029 
2308	 0.210329446963745 
2309	 0.211353256009555 
2310	 0.212613226011142 
2311	 0.213978285052316 
2312	 0.215751824396716 
2313	 0.217347352914233 
2314	 0.218959752743521 
2315	 0.220614558600096 
2316	 0.22227948069923 
2317	 0.22392666005774 
2318	 0.225744056785062 
2319	 0.227253003239486 
2320	 0.228772138739388 
2321	 0.229896738700074 
2322	 0.230633233656673 
2323	 0.231310846150666 
2324	 0.231682184636012 
2325	 0.232009370936593 
2326	 0.232287360600475 
2327	 0.232374571911134 
2328	 0.23227266166807 
2329	 0.23212908108301 
2330	 0.231920461390962 
2331	 0.231457064935714 
2332	 0.230943684262487 
2333	 0.230165292488033 
2334	 0.229086102516898 
2335	 0.228011864581433 
2336	 0.226857398410503 
2337	 0.225604562398667 
2338	 0.224421519208513 
2339	 0.223195905601815 
2340	 0.221942685630013 
2341	 0.2207124367328 
2342	 0.219475383196567 
2343	 0.21831976486679 
2344	 0.217390321994032 
2345	 0.216716140975684 
2346	 0.216293642334081 
2347	 0.216204742941436 
2348	 0.216270526668058 
2349	 0.216567992500573 
2350	 0.217132026509244 
2351	 0.2178835706327 
2352	 0.218840453769291 
2353	 0.219961115239442 
2354	 0.221099906859106 
2355	 0.222243625181718 
2356	 0.223330827860825 
2357	 0.224265295512665 
2358	 0.225150955924192 
2359	 0.225905483604719 
2360	 0.22640778333006 
2361	 0.226750889369406 
2362	 0.227030341410341 
2363	 0.227070015587521 
2364	 0.227031935948226 
2365	 0.226949063698797 
2366	 0.226662129970544 
2367	 0.226396470899274 
2368	 0.226208671290554 
2369	 0.226056018391261 
2370	 0.226002727883582 
2371	 0.226007977364444 
2372	 0.22598524283597 
2373	 0.225901316614652 
2374	 0.225785280988711 
2375	 0.225701683059143 
2376	 0.225595036672463 
2377	 0.225467174178303 
2378	 0.225401297641014 
2379	 0.225276024871633 
2380	 0.225143088745889 
2381	 0.225198449087535 
2382	 0.225169660009826 
2383	 0.225139884642082 
2384	 0.225048115883278 
2385	 0.224880058497478 
2386	 0.224774005916176 
2387	 0.224648038384152 
2388	 0.224646339869795 
2389	 0.224724018065828 
2390	 0.224791901548565 
2391	 0.224939493427004 
2392	 0.224972831192328 
2393	 0.225026378625056 
2394	 0.225032779424649 
2395	 0.224921978090726 
2396	 0.224868881109214 
2397	 0.224844835863699 
2398	 0.224728257118118 
2399	 0.224573654273276 
2400	 0.224517704914085 
2401	 0.224372964165359 
2402	 0.224445924755394 
2403	 0.224553339823536 
2404	 0.224549895620831 
2405	 0.224526632669748 
2406	 0.224575329564448 
2407	 0.224571413027932 
2408	 0.224501618684456 
2409	 0.224571744818248 
2410	 0.224503482352351 
2411	 0.224417215782134 
2412	 0.224556424558695 
2413	 0.224527643866129 
2414	 0.224577388990182 
2415	 0.224731726400506 
2416	 0.224478874452678 
2417	 0.22429819878603 
2418	 0.224375426990011 
2419	 0.224330765934077 
2420	 0.224445543576653 
2421	 0.224813245170413 
2422	 0.225088592162939 
2423	 0.225170453308225 
2424	 0.225242479703372 
2425	 0.225181243765534 
2426	 0.225014953293956 
2427	 0.225071709192824 
2428	 0.225261602995335 
2429	 0.225491216743762 
2430	 0.225637726266 
2431	 0.225646514088694 
2432	 0.225517425092201 
2433	 0.225312852036224 
2434	 0.22509153348491 
2435	 0.224957079126553 
2436	 0.225061415525212 
2437	 0.225250924094879 
2438	 0.225539172350243 
2439	 0.225741611322991 
2440	 0.225602188980229 
2441	 0.225391653407605 
2442	 0.225208143361607 
2443	 0.224708770128823 
2444	 0.224219957926429 
2445	 0.224077764637052 
2446	 0.224009078091163 
2447	 0.224127177819422 
2448	 0.224069242445481 
2449	 0.223731244274545 
2450	 0.223473883688295 
2451	 0.223041917398052 
2452	 0.222662104039981 
2453	 0.222503023942188 
2454	 0.222361164544528 
2455	 0.222303309168239 
2456	 0.222308960360449 
2457	 0.222121072468294 
2458	 0.221641717912138 
2459	 0.221212646123202 
2460	 0.220960833850917 
2461	 0.220951104849747 
2462	 0.221093088577976 
2463	 0.220644760156278 
2464	 0.22012303973095 
2465	 0.220022772443959 
2466	 0.219838615869704 
2467	 0.219865868137198 
2468	 0.219756310630973 
2469	 0.219103756058293 
2470	 0.218259508905444 
2471	 0.217556573502898 
2472	 0.21738340791533 
2473	 0.21766124705416 
2474	 0.217692289787423 
2475	 0.217623040749219 
2476	 0.217683383180756 
2477	 0.217267835515952 
2478	 0.217189059983614 
2479	 0.217563690505586 
2480	 0.217442861477188 
2481	 0.217504807159596 
2482	 0.217136361827532 
2483	 0.216999231019048 
2484	 0.217221681007865 
2485	 0.217025953631995 
2486	 0.217503916784364 
2487	 0.217665319917184 
2488	 0.217729524464661 
2489	 0.217886125982107 
2490	 0.217833156317145 
2491	 0.218885434047322 
2492	 0.219308725990507 
2493	 0.219128474066921 
2494	 0.219660583427317 
2495	 0.219607118774328 
2496	 0.219995841262125 
2497	 0.221136688937035 
2498	 0.221831359998924 
2499	 0.22244110893472 
2500	 0.222988295440671 
