Wavelength	Tablay400108.asd
350	 7.10132242027922E-02 
351	 9.79524230896356E-02 
352	 7.17990541986101E-02 
353	 5.10848278356314E-02 
354	 9.14696805037064E-02 
355	 0.110725965493126 
356	 0.13428540465552 
357	 0.171187130371324 
358	 0.112025672335995 
359	 6.83586008304041E-02 
360	 8.99258409557493E-02 
361	 0.167562607032279 
362	 0.177289914664038 
363	 0.135500727277974 
364	 8.33763892797263E-02 
365	 4.62052007991636E-02 
366	 5.90427227607973E-02 
367	 7.68527050856892E-02 
368	 5.94902471826518E-02 
369	 5.86536603745922E-02 
370	 4.94595333264813E-02 
371	 4.09879569812024E-02 
372	 6.07536834200637E-02 
373	 9.36964275431989E-02 
374	 8.06561225538091E-02 
375	 2.86436535448885E-02 
376	 5.89529235273316E-02 
377	 7.89924008620335E-02 
378	 0.103186763197224 
379	 0.140051959409819 
380	 9.49967735210146E-02 
381	 5.41958037265873E-02 
382	 5.79377627318382E-02 
383	 9.34770190280394E-02 
384	 5.70131188124165E-02 
385	 0.026742288625372 
386	 0.040709609373025 
387	 5.46775193589745E-02 
388	 4.12696507872136E-02 
389	 3.74576350264903E-02 
390	 7.27033105816348E-02 
391	 9.18656693627689E-02 
392	 8.41129348603357E-02 
393	 6.10962549129344E-02 
394	 4.42457400139765E-02 
395	 3.46092646498289E-02 
396	 3.43670141408718E-02 
397	 4.27633784125816E-02 
398	 5.86207237658212E-02 
399	 5.54737296791161E-02 
400	 6.00838455444027E-02 
401	 9.10681905204537E-02 
402	 7.55918288969392E-02 
403	 6.64335359912525E-02 
404	 7.29706682581812E-02 
405	 6.89445477188381E-02 
406	 8.04948875192991E-02 
407	 7.70836907077626E-02 
408	 0.052718933659434 
409	 0.06162889351007 
410	 7.34776577163526E-02 
411	 8.00788822246676E-02 
412	 8.04714644287411E-02 
413	 7.40568567217725E-02 
414	 0.069887494614532 
415	 7.09412560299316E-02 
416	 7.39521507463205E-02 
417	 7.28461870648714E-02 
418	 6.99918308350814E-02 
419	 6.90193512204678E-02 
420	 7.40836510018008E-02 
421	 0.070335480055291 
422	 6.38792229497678E-02 
423	 0.066732952419321 
424	 6.74614098296358E-02 
425	 7.26858254935375E-02 
426	 7.92638237577732E-02 
427	 7.31037553259454E-02 
428	 6.64531714393083E-02 
429	 6.62620050684099E-02 
430	 7.26639058798684E-02 
431	 7.07925141351718E-02 
432	 7.14078271955379E-02 
433	 7.35142529978968E-02 
434	 7.08494326786735E-02 
435	 0.069787795340017 
436	 0.07431471060072 
437	 8.19469777031995E-02 
438	 8.15679827569374E-02 
439	 7.37348906982371E-02 
440	 7.02385703955617E-02 
441	 7.87247816873234E-02 
442	 7.73771987012254E-02 
443	 0.073626470624125 
444	 7.36995322937432E-02 
445	 8.08081045804144E-02 
446	 7.81490621781201E-02 
447	 7.48965393671222E-02 
448	 0.077823455560656 
449	 8.03557505636733E-02 
450	 7.99431155426172E-02 
451	 0.07913599927762 
452	 8.16090428622086E-02 
453	 8.43426869763198E-02 
454	 0.083543081241345 
455	 8.06316064008076E-02 
456	 8.23403345411046E-02 
457	 8.23080520821827E-02 
458	 8.20028800022327E-02 
459	 8.32418902913285E-02 
460	 8.39847991728196E-02 
461	 8.51821139417635E-02 
462	 8.59338419150302E-02 
463	 8.48699601820054E-02 
464	 8.52068869250687E-02 
465	 8.45845602920748E-02 
466	 0.083235209939385 
467	 8.61513151878724E-02 
468	 8.92977292436805E-02 
469	 9.02910657976571E-02 
470	 8.90366056034814E-02 
471	 9.23316636021521E-02 
472	 9.44661373387229E-02 
473	 9.35562511002593E-02 
474	 9.13673736425578E-02 
475	 9.37460706364413E-02 
476	 9.49336481941921E-02 
477	 0.092275362751846 
478	 9.35511430475217E-02 
479	 9.59673433359109E-02 
480	 9.77410478449661E-02 
481	 9.77326407831982E-02 
482	 9.72665886969005E-02 
483	 0.097233446149878 
484	 9.80773451316807E-02 
485	 9.97644814510893E-02 
486	 9.95735104014124E-02 
487	 9.93220484013687E-02 
488	 0.100659271243464 
489	 0.101550937566287 
490	 0.10254721469394 
491	 0.103544696040304 
492	 0.104156194959033 
493	 0.104780662893623 
494	 0.105576305140079 
495	 0.106610705815131 
496	 0.107912274592618 
497	 0.108969537709137 
498	 0.109156282749666 
499	 0.108431944577862 
500	 0.10903938904103 
501	 0.110672982293063 
502	 0.112381142541359 
503	 0.112870897166549 
504	 0.112560641776453 
505	 0.113006912298588 
506	 0.114702579342064 
507	 0.115229910603821 
508	 0.116325159686876 
509	 0.117453859805618 
510	 0.117491039635334 
511	 0.118308744469347 
512	 0.118973548602686 
513	 0.119155751353616 
514	 0.119556842445589 
515	 0.120631913511782 
516	 0.122135988264997 
517	 0.123466580712737 
518	 0.123516156464864 
519	 0.123474866931312 
520	 0.124230332351622 
521	 0.126162943907376 
522	 0.12680693018567 
523	 0.127160156010006 
524	 0.128020031946717 
525	 0.128849664865228 
526	 0.129489481459858 
527	 0.130179168343539 
528	 0.131167995929028 
529	 0.131859467367909 
530	 0.13243697085212 
531	 0.132947140120415 
532	 0.133248263527789 
533	 0.133641386496313 
534	 0.134367139312747 
535	 0.135355426952019 
536	 0.135730860660504 
537	 0.136114326002251 
538	 0.13673784809695 
539	 0.137521200129468 
540	 0.137694643865485 
541	 0.137638571398282 
542	 0.137778759134462 
543	 0.138423065878414 
544	 0.138910506401013 
545	 0.1389343110454 
546	 0.138551720172924 
547	 0.138756885624384 
548	 0.139249252903512 
549	 0.139592834991906 
550	 0.139347136674879 
551	 0.139587239472795 
552	 0.13974539891989 
553	 0.139379516018942 
554	 0.139101622775793 
555	 0.138947687209033 
556	 0.138848528467029 
557	 0.138705873886433 
558	 0.13882773377495 
559	 0.138617471242661 
560	 0.137962432736252 
561	 0.137512616841109 
562	 0.137112199447373 
563	 0.136796623315336 
564	 0.136524238384379 
565	 0.135860900979507 
566	 0.134993014273679 
567	 0.134263125733454 
568	 0.134052976202647 
569	 0.133948940442165 
570	 0.13325491895386 
571	 0.131944495055492 
572	 0.131445825642354 
573	 0.131022812670557 
574	 0.130357185643955 
575	 0.129390065873361 
576	 0.128804140055287 
577	 0.127911067067995 
578	 0.126779939389521 
579	 0.126386730795881 
580	 0.125391490629689 
581	 0.12419844430308 
582	 0.123304642753309 
583	 0.122215487172742 
584	 0.121083761965049 
585	 0.12008056606758 
586	 0.119301263504766 
587	 0.118096322174613 
588	 0.116814335887185 
589	 0.115655196150026 
590	 0.114366428881603 
591	 0.113373955754 
592	 0.112539918007184 
593	 0.111588583564581 
594	 0.110483696514805 
595	 0.109302781479945 
596	 0.108155597903332 
597	 0.107146854734666 
598	 0.105853005125921 
599	 0.104678822084062 
600	 0.103851092953966 
601	 0.10288410140691 
602	 0.10153740089496 
603	 0.100201371041398 
604	 9.93953016265576E-02 
605	 9.83321980838267E-02 
606	 9.72264213884886E-02 
607	 9.62320067200292E-02 
608	 0.09532814297228 
609	 9.41358135694242E-02 
610	 9.29311345998625E-02 
611	 9.20081759466434E-02 
612	 9.11609385178925E-02 
613	 9.02832512652998E-02 
614	 8.94127365782505E-02 
615	 8.86405870645291E-02 
616	 8.75764520079261E-02 
617	 0.08652045545512 
618	 8.56618849892494E-02 
619	 8.48357111366745E-02 
620	 8.39681897265512E-02 
621	 8.31731780352486E-02 
622	 8.25294689025625E-02 
623	 8.16048363381719E-02 
624	 0.080717210296474 
625	 8.00877325769946E-02 
626	 7.97680228835481E-02 
627	 7.89178522142873E-02 
628	 7.79520700546828E-02 
629	 7.72855424630367E-02 
630	 7.67282289426481E-02 
631	 7.61443564894404E-02 
632	 7.54687897518492E-02 
633	 7.47186242924931E-02 
634	 7.41243205620891E-02 
635	 7.35657107826881E-02 
636	 0.073008752087883 
637	 7.25634625849706E-02 
638	 7.18496593059614E-02 
639	 7.10985817867228E-02 
640	 7.06055273391801E-02 
641	 7.03882976496655E-02 
642	 7.00103683257305E-02 
643	 0.069442399343289 
644	 6.89140971727851E-02 
645	 6.84388431840902E-02 
646	 6.80225583802482E-02 
647	 6.75772509227903E-02 
648	 6.68490286132092E-02 
649	 6.64891693146389E-02 
650	 6.62613003384292E-02 
651	 6.57938601494045E-02 
652	 6.54177781804232E-02 
653	 6.49321203903512E-02 
654	 6.44935415703493E-02 
655	 6.44876421871674E-02 
656	 6.41866563334645E-02 
657	 6.37236239354281E-02 
658	 6.33031040457909E-02 
659	 6.29694210406926E-02 
660	 6.26521705075212E-02 
661	 6.23345593834829E-02 
662	 6.20223924530842E-02 
663	 6.17304055262111E-02 
664	 6.14580985038473E-02 
665	 6.12169530185809E-02 
666	 6.10237115189844E-02 
667	 6.07003551737853E-02 
668	 6.03455064704096E-02 
669	 6.00622563834171E-02 
670	 5.98129267951095E-02 
671	 5.96219489125505E-02 
672	 5.94406357992084E-02 
673	 5.92021638591236E-02 
674	 5.89775512615659E-02 
675	 5.86238017613784E-02 
676	 5.82656961523054E-02 
677	 5.83480814158438E-02 
678	 5.80428744397848E-02 
679	 5.77108852492055E-02 
680	 5.76946074858305E-02 
681	 5.73970750882321E-02 
682	 5.71243229346722E-02 
683	 5.69664730640633E-02 
684	 0.056876289818028 
685	 5.67267103719389E-02 
686	 5.65727115033152E-02 
687	 5.64030332077123E-02 
688	 0.056081950927729 
689	 5.59598878370758E-02 
690	 5.58930339694768E-02 
691	 5.57069326169287E-02 
692	 5.56282691118892E-02 
693	 5.53799742991679E-02 
694	 5.50907559970945E-02 
695	 5.50817127987232E-02 
696	 5.48892312839494E-02 
697	 5.47268874439881E-02 
698	 5.46587712415785E-02 
699	 5.43862029118648E-02 
700	 0.054235339434026 
701	 5.42156211957272E-02 
702	 5.42008521791872E-02 
703	 0.053908438267341 
704	 5.37905025706235E-02 
705	 5.38035636915121E-02 
706	 5.35898312294434E-02 
707	 0.05339703687003 
708	 5.33614404887532E-02 
709	 5.34018534569199E-02 
710	 5.30993123674048E-02 
711	 5.29144371259735E-02 
712	 0.052853626161936 
713	 5.27953112220889E-02 
714	 5.26878921910051E-02 
715	 5.26618360372823E-02 
716	 0.052635269621993 
717	 0.052411848578466 
718	 5.23104682955645E-02 
719	 5.22406691582116E-02 
720	 5.21284715739718E-02 
721	 5.20217978916982E-02 
722	 5.19713324639843E-02 
723	 5.19547231348011E-02 
724	 5.19241121659135E-02 
725	 0.051827261557069 
726	 5.18317195467071E-02 
727	 0.051815997612051 
728	 5.15187751736566E-02 
729	 5.14867732069711E-02 
730	 5.14529181400096E-02 
731	 5.12835345095627E-02 
732	 5.12391657575332E-02 
733	 5.12232850911894E-02 
734	 5.11567793834801E-02 
735	 5.10217677839286E-02 
736	 5.10176716810267E-02 
737	 5.10089858956335E-02 
738	 5.09393440195732E-02 
739	 5.08303624007275E-02 
740	 5.08675479163712E-02 
741	 5.08534653141804E-02 
742	 5.07130799132543E-02 
743	 5.06183426183544E-02 
744	 0.050608297987518 
745	 5.06015642386613E-02 
746	 5.05322481379641E-02 
747	 0.050527655430194 
748	 5.04146588414026E-02 
749	 5.02993482617088E-02 
750	 5.03958310608197E-02 
751	 5.04190079433838E-02 
752	 5.03459563452965E-02 
753	 5.02418210855081E-02 
754	 5.02424319248504E-02 
755	 5.02820226358367E-02 
756	 5.02536792400039E-02 
757	 5.01178498842656E-02 
758	 0.050038687808074 
759	 5.00379928146114E-02 
760	 5.00502127084169E-02 
761	 4.99942626900796E-02 
762	 5.00133778431566E-02 
763	 0.049957852443902 
764	 4.98400239151839E-02 
765	 4.98538935551333E-02 
766	 0.049876652687059 
767	 4.98792862070663E-02 
768	 0.049857702449203 
769	 4.98249166291904E-02 
770	 4.97590760264596E-02 
771	 4.97187555136447E-02 
772	 4.97449303722029E-02 
773	 4.96332347670422E-02 
774	 4.96601987246011E-02 
775	 4.97528388166499E-02 
776	 4.95910894814853E-02 
777	 4.96400683207446E-02 
778	 4.96702194267083E-02 
779	 4.95689004523987E-02 
780	 4.95879152898783E-02 
781	 4.96059753971257E-02 
782	 0.049599537013859 
783	 4.95785420089419E-02 
784	 4.95814673426301E-02 
785	 4.95495829685521E-02 
786	 0.049504389096767 
787	 4.94998446059396E-02 
788	 4.94503186367144E-02 
789	 4.94650242589237E-02 
790	 0.049510243446795 
791	 4.93814675455534E-02 
792	 4.93841391174297E-02 
793	 4.94498118804697E-02 
794	 4.94774405877725E-02 
795	 4.94945102398816E-02 
796	 4.93864258296898E-02 
797	 4.93175584147213E-02 
798	 4.94367610558273E-02 
799	 4.92745078997292E-02 
800	 0.049251305433531 
801	 4.93945140079722E-02 
802	 4.94166104433671E-02 
803	 4.94010541193289E-02 
804	 4.93709615104972E-02 
805	 4.93540811646365E-02 
806	 4.93894804283278E-02 
807	 4.93733099585644E-02 
808	 4.93438260197807E-02 
809	 4.93552333251673E-02 
810	 4.94097200195198E-02 
811	 4.93350592166853E-02 
812	 4.92431613608617E-02 
813	 4.93211446182859E-02 
814	 4.93942318991766E-02 
815	 4.93455194975029E-02 
816	 4.92550928565501E-02 
817	 4.93436888802786E-02 
818	 4.93795238458472E-02 
819	 4.93738446737072E-02 
820	 4.93769623737536E-02 
821	 4.94405166229839E-02 
822	 4.94438493728762E-02 
823	 4.94491949693967E-02 
824	 4.95175912292114E-02 
825	 4.95564563861101E-02 
826	 4.95155575299637E-02 
827	 4.94854055673754E-02 
828	 4.95646755018273E-02 
829	 4.94872468223692E-02 
830	 4.94589875907027E-02 
831	 4.95288470974736E-02 
832	 4.95825329620829E-02 
833	 4.95842493922213E-02 
834	 4.95619759315824E-02 
835	 4.95766457470158E-02 
836	 4.97159052119653E-02 
837	 4.98058779590526E-02 
838	 4.97895476388514E-02 
839	 4.97049828477457E-02 
840	 0.049748220652407 
841	 4.98249651244855E-02 
842	 0.04990581218982 
843	 4.99736265411716E-02 
844	 4.99418578849619E-02 
845	 5.00148387752137E-02 
846	 0.050150960590566 
847	 0.050145438108706 
848	 5.01337331022356E-02 
849	 5.00666070296171E-02 
850	 5.00160462451231E-02 
851	 5.02037154991611E-02 
852	 5.02799942362593E-02 
853	 5.03075988376796E-02 
854	 0.050382265772602 
855	 5.04812267419964E-02 
856	 5.05718477660515E-02 
857	 5.06167913192824E-02 
858	 5.06117009607162E-02 
859	 5.06623248204479E-02 
860	 5.06842624565487E-02 
861	 5.07406099014522E-02 
862	 0.050909537816773 
863	 5.08815354219326E-02 
864	 5.09543002687786E-02 
865	 5.11651250900069E-02 
866	 5.12930593902125E-02 
867	 5.12550922441733E-02 
868	 5.12052540161781E-02 
869	 5.12563209628972E-02 
870	 5.14053745109766E-02 
871	 5.15499218953891E-02 
872	 5.16000502882988E-02 
873	 5.15799211182105E-02 
874	 0.05174484554166 
875	 5.18657277456165E-02 
876	 5.19211495259007E-02 
877	 5.19584174951348E-02 
878	 5.19935843155405E-02 
879	 5.22529541657856E-02 
880	 5.24587711126113E-02 
881	 0.052259020657011 
882	 5.22770514378307E-02 
883	 5.24869767677871E-02 
884	 5.26917869753564E-02 
885	 5.26586893587267E-02 
886	 5.27510171100632E-02 
887	 5.29277770249245E-02 
888	 5.31030422942907E-02 
889	 5.32044382228826E-02 
890	 5.33099654582136E-02 
891	 5.34107512852558E-02 
892	 5.34990230286578E-02 
893	 5.35952156453991E-02 
894	 5.36112200797141E-02 
895	 0.053693177693242 
896	 5.39305992242389E-02 
897	 5.41398272098289E-02 
898	 5.41174678290019E-02 
899	 5.41329225033331E-02 
900	 5.44343431146874E-02 
901	 5.45165809176742E-02 
902	 5.46876777531812E-02 
903	 5.48847944415122E-02 
904	 5.49158163712937E-02 
905	 5.49450759808195E-02 
906	 5.52144906814414E-02 
907	 5.55380269212729E-02 
908	 0.055521588556901 
909	 5.56342938838297E-02 
910	 5.59757501177949E-02 
911	 5.63101233166377E-02 
912	 5.62089319228465E-02 
913	 0.056509185849913 
914	 5.67930161536473E-02 
915	 0.056855438190646 
916	 5.70313854554672E-02 
917	 5.71931595998223E-02 
918	 0.057275261650055 
919	 5.73057629901061E-02 
920	 5.74526063317081E-02 
921	 5.78789445681175E-02 
922	 5.81570666898177E-02 
923	 5.80593378527616E-02 
924	 5.82367022760818E-02 
925	 5.85377306735446E-02 
926	 5.88492975534234E-02 
927	 5.90904999725517E-02 
928	 5.92834734786332E-02 
929	 5.96174176122575E-02 
930	 5.98221674006576E-02 
931	 5.96469211930854E-02 
932	 5.97374409709172E-02 
933	 6.01471000326777E-02 
934	 6.05299201320565E-02 
935	 6.05029796809583E-02 
936	 6.06780841538052E-02 
937	 6.07725450916659E-02 
938	 6.09159697675437E-02 
939	 6.14218708557358E-02 
940	 6.16704674494836E-02 
941	 6.17601158745051E-02 
942	 6.19049381711568E-02 
943	 6.22886765770667E-02 
944	 6.24817030365481E-02 
945	 6.27496546129878E-02 
946	 6.30755406302088E-02 
947	 6.31231812053035E-02 
948	 6.33203028036432E-02 
949	 6.36830572704098E-02 
950	 6.40460638919526E-02 
951	 6.41515744271715E-02 
952	 6.45763941067608E-02 
953	 6.48773491489966E-02 
954	 6.48941587065222E-02 
955	 6.51303229170511E-02 
956	 6.55564000704895E-02 
957	 6.58507820377721E-02 
958	 6.58558583755583E-02 
959	 6.58100769348825E-02 
960	 6.61525569256504E-02 
961	 6.65740531106276E-02 
962	 6.67872174252368E-02 
963	 6.69397036926533E-02 
964	 6.71310934298332E-02 
965	 6.73847936464121E-02 
966	 6.76751515923044E-02 
967	 6.79292406040542E-02 
968	 6.83506609670938E-02 
969	 6.87688886697619E-02 
970	 6.89996487328136E-02 
971	 6.90888572906319E-02 
972	 6.93846477523921E-02 
973	 6.96095262924649E-02 
974	 6.96150691707874E-02 
975	 7.01855763692285E-02 
976	 7.04671879422598E-02 
977	 7.05613721266447E-02 
978	 7.07461288077452E-02 
979	 7.07914194563405E-02 
980	 7.12279363073198E-02 
981	 0.071767497787233 
982	 7.20140577248927E-02 
983	 7.22103425453356E-02 
984	 7.21494141904498E-02 
985	 7.24433191361242E-02 
986	 7.34138126492895E-02 
987	 7.35678567557568E-02 
988	 7.36076050111349E-02 
989	 7.35771498320872E-02 
990	 7.34999967786063E-02 
991	 7.41127676340876E-02 
992	 7.44602375585457E-02 
993	 7.45933887045658E-02 
994	 7.48507052397539E-02 
995	 7.51711749324201E-02 
996	 7.52275873845104E-02 
997	 7.52680084833808E-02 
998	 7.56120880199151E-02 
999	 7.60829320670463E-02 
1000	 7.63966808267131E-02 
1001	 7.65388880254486E-02 
1002	 7.67491099491671E-02 
1003	 7.70437454634377E-02 
1004	 7.74308779615328E-02 
1005	 7.79479242186795E-02 
1006	 7.83206489770756E-02 
1007	 0.078761920810075 
1008	 7.90873006917378E-02 
1009	 7.92583800075907E-02 
1010	 7.94409372235334E-02 
1011	 7.96359409439333E-02 
1012	 7.98188191564889E-02 
1013	 7.98614410462022E-02 
1014	 8.00246024874534E-02 
1015	 8.02356798147452E-02 
1016	 8.04746817881971E-02 
1017	 8.08735466701352E-02 
1018	 8.12758933603607E-02 
1019	 0.081517205773987 
1020	 8.18247158119186E-02 
1021	 8.20040157732146E-02 
1022	 8.20003768456825E-02 
1023	 8.20710819189063E-02 
1024	 8.20858164235602E-02 
1025	 8.22421536456788E-02 
1026	 8.24318028334145E-02 
1027	 8.26073273350824E-02 
1028	 0.082877661552588 
1029	 8.31394910871963E-02 
1030	 8.33057682237507E-02 
1031	 8.36949065318337E-02 
1032	 8.40703744347211E-02 
1033	 8.42927182525213E-02 
1034	 8.45572576526947E-02 
1035	 8.47828230089005E-02 
1036	 8.49628497775566E-02 
1037	 8.52060311869044E-02 
1038	 8.52902649292826E-02 
1039	 0.085140520543844 
1040	 8.51883228773072E-02 
1041	 8.52597105045128E-02 
1042	 8.54067179612533E-02 
1043	 8.56976335596603E-02 
1044	 8.58766091740844E-02 
1045	 8.61356326808634E-02 
1046	 8.62318190045599E-02 
1047	 8.61299549816149E-02 
1048	 8.62140080934854E-02 
1049	 8.63840679116531E-02 
1050	 8.66293330931501E-02 
1051	 0.086941174562905 
1052	 8.72498609883506E-02 
1053	 8.74609251238154E-02 
1054	 8.74580402181028E-02 
1055	 8.75911553012198E-02 
1056	 8.78326061131274E-02 
1057	 8.80006818354427E-02 
1058	 0.088201086838148 
1059	 8.82937290743801E-02 
1060	 8.83460754971936E-02 
1061	 8.82489425349076E-02 
1062	 8.80788518012707E-02 
1063	 8.81407745230306E-02 
1064	 8.82636434278737E-02 
1065	 8.84351033870052E-02 
1066	 8.86929923561727E-02 
1067	 8.88783554213027E-02 
1068	 8.89845884416917E-02 
1069	 8.89066557267143E-02 
1070	 8.89092464881461E-02 
1071	 8.88512174391114E-02 
1072	 0.088945286891407 
1073	 8.91439467695786E-02 
1074	 8.93938409992581E-02 
1075	 8.94586536087761E-02 
1076	 8.94722655227056E-02 
1077	 8.94678494891537E-02 
1078	 8.93243761794553E-02 
1079	 8.94944040334817E-02 
1080	 8.97586109223067E-02 
1081	 8.96716889843497E-02 
1082	 8.96580589092516E-02 
1083	 8.97591296282281E-02 
1084	 0.089762505208073 
1085	 8.98231700903999E-02 
1086	 8.98598306321075E-02 
1087	 8.99558167693006E-02 
1088	 8.99162413192182E-02 
1089	 8.99472598114775E-02 
1090	 9.00152256436465E-02 
1091	 9.00167149661894E-02 
1092	 9.00340580351383E-02 
1093	 8.99542032812139E-02 
1094	 8.99812072299288E-02 
1095	 9.01866652164704E-02 
1096	 9.03313715309869E-02 
1097	 9.04621434187683E-02 
1098	 9.05038887112632E-02 
1099	 9.04003330148247E-02 
1100	 0.090311333648969 
1101	 0.090275786345475 
1102	 9.02095041581987E-02 
1103	 9.01556100410586E-02 
1104	 9.01122719954626E-02 
1105	 9.01371688793284E-02 
1106	 0.090198057989782 
1107	 9.02430442782231E-02 
1108	 9.03539156460204E-02 
1109	 9.04551447413203E-02 
1110	 9.03606487564165E-02 
1111	 9.03284378073409E-02 
1112	 9.03380809553512E-02 
1113	 9.02390729756367E-02 
1114	 9.02591942211409E-02 
1115	 9.02866797698565E-02 
1116	 9.02117192540901E-02 
1117	 9.02521958847786E-02 
1118	 9.03116556934011E-02 
1119	 9.04281943224873E-02 
1120	 9.04493644206844E-02 
1121	 9.04972242579185E-02 
1122	 9.04432263699889E-02 
1123	 9.03251002554718E-02 
1124	 9.03901750476492E-02 
1125	 9.04224029735563E-02 
1126	 9.04929318898434E-02 
1127	 9.06043363534843E-02 
1128	 9.05319578886819E-02 
1129	 9.04846452968468E-02 
1130	 9.05108719861986E-02 
1131	 9.05487957167432E-02 
1132	 9.05914240420072E-02 
1133	 9.06378364448174E-02 
1134	 9.07039487764623E-02 
1135	 9.06749492828898E-02 
1136	 9.05300075013531E-02 
1137	 9.04828533126776E-02 
1138	 9.03743973017515E-02 
1139	 9.03343546857636E-02 
1140	 9.03562346976424E-02 
1141	 9.04568451735897E-02 
1142	 9.04802839976503E-02 
1143	 9.05357651360976E-02 
1144	 9.06304285651529E-02 
1145	 9.06181311334831E-02 
1146	 0.090528178589786 
1147	 9.05609312893556E-02 
1148	 9.05517870879406E-02 
1149	 9.04274457328767E-02 
1150	 9.04024147151019E-02 
1151	 9.04153141624412E-02 
1152	 9.04375063961303E-02 
1153	 9.04991181228697E-02 
1154	 9.05362472079021E-02 
1155	 9.05831746675472E-02 
1156	 9.06198842218025E-02 
1157	 9.06233287219685E-02 
1158	 9.06593081208419E-02 
1159	 9.07295138299674E-02 
1160	 9.07875655776433E-02 
1161	 9.08092330749663E-02 
1162	 9.08122917400036E-02 
1163	 9.08200060001283E-02 
1164	 9.07444782075341E-02 
1165	 9.06757734884935E-02 
1166	 9.06465500840796E-02 
1167	 9.06247598021938E-02 
1168	 9.06542042486018E-02 
1169	 9.06807154803671E-02 
1170	 9.07576789068805E-02 
1171	 9.07744334109604E-02 
1172	 9.07399346309953E-02 
1173	 9.07696467741309E-02 
1174	 9.08358564725487E-02 
1175	 9.08565492685691E-02 
1176	 9.08961256869816E-02 
1177	 9.09109434187814E-02 
1178	 9.08759918250862E-02 
1179	 9.08289955258862E-02 
1180	 9.08286310494933E-02 
1181	 9.09127364154189E-02 
1182	 9.09495352553084E-02 
1183	 9.09579678666021E-02 
1184	 9.09765695679819E-02 
1185	 9.09462920946504E-02 
1186	 9.09783961985205E-02 
1187	 0.091064179476009 
1188	 9.11106345960104E-02 
1189	 9.11734219537846E-02 
1190	 9.12005931017029E-02 
1191	 9.11557991364632E-02 
1192	 9.11750724797473E-02 
1193	 9.12322138143559E-02 
1194	 9.12861114074568E-02 
1195	 9.13861027403361E-02 
1196	 9.14387148990033E-02 
1197	 9.14750848352905E-02 
1198	 9.14709743559587E-02 
1199	 9.14541885800587E-02 
1200	 9.14788714646857E-02 
1201	 9.15575158197656E-02 
1202	 9.16252142789471E-02 
1203	 9.17070875134887E-02 
1204	 9.18022912095988E-02 
1205	 0.091859379840756 
1206	 9.18647649920153E-02 
1207	 9.19347937885297E-02 
1208	 9.20071670085901E-02 
1209	 0.092099372102765 
1210	 9.22855927824973E-02 
1211	 9.23574172689005E-02 
1212	 9.23748161875988E-02 
1213	 9.24074513909684E-02 
1214	 9.23395833960703E-02 
1215	 9.23689432154323E-02 
1216	 9.24528869053512E-02 
1217	 9.25421822684904E-02 
1218	 9.26872923370112E-02 
1219	 9.28345216961562E-02 
1220	 9.29287924678211E-02 
1221	 9.29912233121899E-02 
1222	 9.30185604865744E-02 
1223	 0.093098071110029 
1224	 9.32030389904784E-02 
1225	 9.33702543877916E-02 
1226	 9.34639973144285E-02 
1227	 9.35312465270794E-02 
1228	 9.36396792482999E-02 
1229	 0.093733793714306 
1230	 9.38427317286159E-02 
1231	 9.40011157900739E-02 
1232	 9.41375326588865E-02 
1233	 9.42666805387671E-02 
1234	 9.43611344940914E-02 
1235	 0.094458915529869 
1236	 9.45304832823534E-02 
1237	 9.45154037887605E-02 
1238	 9.45774617912455E-02 
1239	 9.46858480487461E-02 
1240	 9.47669706198318E-02 
1241	 9.49352783941901E-02 
1242	 9.50685469940779E-02 
1243	 0.095139920896536 
1244	 9.51642241208905E-02 
1245	 9.52287378710405E-02 
1246	 9.52260676714669E-02 
1247	 9.53165372863651E-02 
1248	 9.55066984850556E-02 
1249	 9.56083858657909E-02 
1250	 0.095693003445608 
1251	 9.57988612807588E-02 
1252	 9.58591857891398E-02 
1253	 9.59609198652392E-02 
1254	 9.61238094248081E-02 
1255	 0.096250030069147 
1256	 9.63794927602935E-02 
1257	 9.64861283484103E-02 
1258	 9.65452752431534E-02 
1259	 9.66472373647961E-02 
1260	 9.67572003457669E-02 
1261	 9.68671763237208E-02 
1262	 9.70198637477826E-02 
1263	 9.71439202747476E-02 
1264	 9.72812228138924E-02 
1265	 9.74093089234865E-02 
1266	 9.75406331485452E-02 
1267	 9.76853525521811E-02 
1268	 9.78217395388925E-02 
1269	 9.79581133248468E-02 
1270	 9.80643995954424E-02 
1271	 9.81457125519749E-02 
1272	 0.098256177019258 
1273	 9.83230978987789E-02 
1274	 9.84651002516089E-02 
1275	 9.86957628686911E-02 
1276	 9.88679397364896E-02 
1277	 9.90684794125577E-02 
1278	 9.92189750375409E-02 
1279	 9.92717659244166E-02 
1280	 9.94107342235505E-02 
1281	 9.95760271537079E-02 
1282	 9.97407819020116E-02 
1283	 9.99975100107321E-02 
1284	 0.100179968727689 
1285	 0.100328259082379 
1286	 0.100428107219341 
1287	 0.1005583991547 
1288	 0.100651512660003 
1289	 0.10079273506619 
1290	 0.100972946449745 
1291	 0.101119763347079 
1292	 0.101259698708672 
1293	 0.101412000204936 
1294	 0.101554947629836 
1295	 0.101711978259941 
1296	 0.101899310929678 
1297	 0.102055080198623 
1298	 0.102179716176712 
1299	 0.1023407950942 
1300	 0.102533934344602 
1301	 0.102679494699533 
1302	 0.102791241187927 
1303	 0.102952272114715 
1304	 0.103087212772082 
1305	 0.103257443621918 
1306	 0.103543021237677 
1307	 0.103744769072693 
1308	 0.103876259084514 
1309	 0.104048509152042 
1310	 0.104197894655879 
1311	 0.104301270624888 
1312	 0.104460427209677 
1313	 0.104651065606178 
1314	 0.104826815627109 
1315	 0.105004997689217 
1316	 0.105195126772297 
1317	 0.105395562747509 
1318	 0.105586120102089 
1319	 0.105774339356964 
1320	 0.105979486782891 
1321	 0.106191280614469 
1322	 0.106393078854324 
1323	 0.106583712759365 
1324	 0.106812997686728 
1325	 0.107076488349506 
1326	 0.107295447756574 
1327	 0.107546893957261 
1328	 0.107751511168428 
1329	 0.107852226041141 
1330	 0.108022680092835 
1331	 0.108210661163195 
1332	 0.108415334911014 
1333	 0.108651557310437 
1334	 0.108905889584312 
1335	 0.109149120775326 
1336	 0.109403849715075 
1337	 0.109629583377084 
1338	 0.109840427420127 
1339	 0.110067801902275 
1340	 0.110294897636689 
1341	 0.110500092338298 
1342	 0.110708298962919 
1343	 0.110908579390073 
1344	 0.111035408717097 
1345	 0.111285578360149 
1346	 0.111629471631365 
1347	 0.111900252482268 
1348	 0.112227297648401 
1349	 0.112477420276355 
1350	 0.112618027641003 
1351	 0.112833870658052 
1352	 0.113086969798415 
1353	 0.113303745614004 
1354	 0.113506712272142 
1355	 0.113733730224826 
1356	 0.113915542922766 
1357	 0.114162422515191 
1358	 0.114530344104645 
1359	 0.114806420254229 
1360	 0.115070936675721 
1361	 0.115298137889612 
1362	 0.115493038368478 
1363	 0.115691601075974 
1364	 0.115936644966787 
1365	 0.116235102746905 
1366	 0.116486675118973 
1367	 0.11672656657264 
1368	 0.116993793089419 
1369	 0.117260950947704 
1370	 0.117526074477384 
1371	 0.117825990624593 
1372	 0.118082519825304 
1373	 0.118315870944707 
1374	 0.118538186080723 
1375	 0.118729407083723 
1376	 0.118950414764501 
1377	 0.119157300258098 
1378	 0.11939658646609 
1379	 0.119701427018156 
1380	 0.119946058082035 
1381	 0.120169958993872 
1382	 0.12039449118236 
1383	 0.120561209402701 
1384	 0.120783941824226 
1385	 0.121033543589932 
1386	 0.121297258846524 
1387	 0.121625090348796 
1388	 0.121893583653103 
1389	 0.122135326927395 
1390	 0.122384406811219 
1391	 0.122599950680845 
1392	 0.122826049071319 
1393	 0.123057982236251 
1394	 0.123327950754443 
1395	 0.123553286382456 
1396	 0.123744263054246 
1397	 0.123989727118289 
1398	 0.124241092682924 
1399	 0.124500124896173 
1400	 0.124807055207934 
1401	 0.125069724434362 
1402	 0.125316665794827 
1403	 0.125545625336618 
1404	 0.125743736108536 
1405	 0.125975196038315 
1406	 0.126208023556486 
1407	 0.126439315431421 
1408	 0.126695254382401 
1409	 0.126928445488211 
1410	 0.127123893179892 
1411	 0.127358934661437 
1412	 0.12762533343848 
1413	 0.127867523602689 
1414	 0.128100209963557 
1415	 0.128353080592585 
1416	 0.128596731484401 
1417	 0.128856329586389 
1418	 0.129172109299208 
1419	 0.129441410601151 
1420	 0.129655410661432 
1421	 0.129918697769624 
1422	 0.130208515693695 
1423	 0.130471607287836 
1424	 0.130717483086167 
1425	 0.131017223672718 
1426	 0.131328200239452 
1427	 0.131639111919865 
1428	 0.132026761567109 
1429	 0.132377654045449 
1430	 0.132661903393362 
1431	 0.132855033651212 
1432	 0.133154402459477 
1433	 0.133454923371665 
1434	 0.133773566322721 
1435	 0.134159381189192 
1436	 0.13449828634729 
1437	 0.134795093158455 
1438	 0.135127800377981 
1439	 0.135492528352096 
1440	 0.135832642152851 
1441	 0.136195507489064 
1442	 0.136492002013132 
1443	 0.136702113978225 
1444	 0.137016453464792 
1445	 0.137330792734388 
1446	 0.137676514855975 
1447	 0.138127613795599 
1448	 0.138512434551627 
1449	 0.138855448346913 
1450	 0.139223457127932 
1451	 0.139586892090167 
1452	 0.139969763091972 
1453	 0.140379418779605 
1454	 0.140768729619729 
1455	 0.14115133770578 
1456	 0.141547027570361 
1457	 0.141926944862485 
1458	 0.14233183186674 
1459	 0.142776858152354 
1460	 0.143203858881157 
1461	 0.143644020990522 
1462	 0.1440549505208 
1463	 0.144427155620288 
1464	 0.144825707080947 
1465	 0.145208681232496 
1466	 0.145622646387361 
1467	 0.146059476394598 
1468	 0.146500356874849 
1469	 0.146896689822316 
1470	 0.147275294507534 
1471	 0.147686136312767 
1472	 0.148085160188632 
1473	 0.148495254921442 
1474	 0.148937867825457 
1475	 0.149366537376904 
1476	 0.149781903557876 
1477	 0.150204434491146 
1478	 0.150641788180036 
1479	 0.151061725744818 
1480	 0.151461718537114 
1481	 0.15188203752894 
1482	 0.1523149600325 
1483	 0.15273939982743 
1484	 0.153167463587311 
1485	 0.153589074284618 
1486	 0.154016068157303 
1487	 0.154410316109141 
1488	 0.154775721921592 
1489	 0.155167948729012 
1490	 0.155538717222178 
1491	 0.155942631856148 
1492	 0.156390959211132 
1493	 0.156813816483553 
1494	 0.157234147485961 
1495	 0.157648886634073 
1496	 0.15805347844556 
1497	 0.158466420594017 
1498	 0.158877514964195 
1499	 0.159295756479785 
1500	 0.159716084465387 
1501	 0.160148007359373 
1502	 0.160602307430447 
1503	 0.161031458412429 
1504	 0.161454898144994 
1505	 0.161875186093881 
1506	 0.162279556880529 
1507	 0.162687292684528 
1508	 0.16308109257546 
1509	 0.16350665754601 
1510	 0.163959100105108 
1511	 0.164385028482375 
1512	 0.164832238763839 
1513	 0.165256633928047 
1514	 0.165649258591114 
1515	 0.166036407551637 
1516	 0.166415380031024 
1517	 0.166791420493745 
1518	 0.167146178064962 
1519	 0.167506662140533 
1520	 0.167860577800219 
1521	 0.168225554745376 
1522	 0.168594347176891 
1523	 0.169031409499925 
1524	 0.169435238276116 
1525	 0.169861420345868 
1526	 0.170273488656733 
1527	 0.170674116330184 
1528	 0.171070076729101 
1529	 0.171455549740844 
1530	 0.171891252185666 
1531	 0.172338724331816 
1532	 0.172778772432867 
1533	 0.173274974653441 
1534	 0.173697123796462 
1535	 0.174052627436119 
1536	 0.174468619095477 
1537	 0.174884138693542 
1538	 0.175322391563912 
1539	 0.175791209279968 
1540	 0.176258238381961 
1541	 0.176731393818485 
1542	 0.177211560914447 
1543	 0.177708995623155 
1544	 0.178192595570711 
1545	 0.178674866813513 
1546	 0.179157422022524 
1547	 0.179611489393449 
1548	 0.180132649724117 
1549	 0.180691672596071 
1550	 0.181238599656353 
1551	 0.18184986543267 
1552	 0.182379297087697 
1553	 0.182842275006744 
1554	 0.183356298571936 
1555	 0.183864907946227 
1556	 0.184374129267789 
1557	 0.184891272391158 
1558	 0.185437302373401 
1559	 0.185975337418258 
1560	 0.186543532210855 
1561	 0.187191196850398 
1562	 0.187764901200763 
1563	 0.188309067812266 
1564	 0.188853418036921 
1565	 0.189351476149925 
1566	 0.189892833903194 
1567	 0.190457407573711 
1568	 0.191014686165739 
1569	 0.191605672541896 
1570	 0.192149873412546 
1571	 0.192668749748896 
1572	 0.193183807235368 
1573	 0.193662366262033 
1574	 0.194164178481072 
1575	 0.194690032852257 
1576	 0.19518181796668 
1577	 0.195619597751005 
1578	 0.196140330967579 
1579	 0.196726252659153 
1580	 0.197231516263649 
1581	 0.197732544559162 
1582	 0.198258465547112 
1583	 0.198706402200589 
1584	 0.199224044539082 
1585	 0.199858890337188 
1586	 0.20041920839058 
1587	 0.200917310184844 
1588	 0.201474328092694 
1589	 0.202046312043974 
1590	 0.202618474571724 
1591	 0.203252591921032 
1592	 0.203832069157636 
1593	 0.204341036861368 
1594	 0.204917270739652 
1595	 0.205494810151833 
1596	 0.206101662350045 
1597	 0.206797989940575 
1598	 0.207426545829518 
1599	 0.208022565381869 
1600	 0.208632519099274 
1601	 0.209211658124726 
1602	 0.209811875225035 
1603	 0.210456049296273 
1604	 0.211055066541304 
1605	 0.211608486752891 
1606	 0.212203910494345 
1607	 0.212842498787792 
1608	 0.21340718306536 
1609	 0.213906683364417 
1610	 0.214490878084136 
1611	 0.21504806637023 
1612	 0.215640067865624 
1613	 0.216376547310326 
1614	 0.21701750653765 
1615	 0.217577674505201 
1616	 0.218179594914522 
1617	 0.218770237407314 
1618	 0.219373190265677 
1619	 0.220014772935904 
1620	 0.220618695298326 
1621	 0.221194435477979 
1622	 0.221788798782461 
1623	 0.22238121476357 
1624	 0.222968999631887 
1625	 0.223591366923734 
1626	 0.224160215944677 
1627	 0.22464518248093 
1628	 0.22520103448669 
1629	 0.225780939740342 
1630	 0.226348732913849 
1631	 0.226971079036554 
1632	 0.227561478725766 
1633	 0.228079870617363 
1634	 0.228657958008283 
1635	 0.229276815588251 
1636	 0.22987237493937 
1637	 0.230504115980988 
1638	 0.231109319014123 
1639	 0.231697237142322 
1640	 0.232261708182902 
1641	 0.232771284319478 
1642	 0.233334967274452 
1643	 0.233904013765151 
1644	 0.234480683841735 
1645	 0.235107863944294 
1646	 0.235713902700958 
1647	 0.236335309543961 
1648	 0.236908365449015 
1649	 0.237452286383884 
1650	 0.237996116955483 
1651	 0.238485777703463 
1652	 0.238986651252276 
1653	 0.239518218092136 
1654	 0.240017308303142 
1655	 0.240492109310223 
1656	 0.240969368359558 
1657	 0.241433483331597 
1658	 0.241898515819177 
1659	 0.242358477480549 
1660	 0.242814119500282 
1661	 0.243277266994934 
1662	 0.243714042391886 
1663	 0.2441568143878 
1664	 0.244552309580989 
1665	 0.244913097778059 
1666	 0.245253508670792 
1667	 0.245520905946843 
1668	 0.245826901186363 
1669	 0.246157164269313 
1670	 0.246462205729204 
1671	 0.24684562096908 
1672	 0.247078609507506 
1673	 0.247160560242306 
1674	 0.247290120334862 
1675	 0.247358249620256 
1676	 0.247438396275728 
1677	 0.247566255734205 
1678	 0.247673971625299 
1679	 0.247766242885949 
1680	 0.247794873852751 
1681	 0.247831588877727 
1682	 0.24776714520332 
1683	 0.247587752962437 
1684	 0.247429624672173 
1685	 0.247247100745385 
1686	 0.247016807091947 
1687	 0.24671872633216 
1688	 0.246483278919378 
1689	 0.246272053692662 
1690	 0.24598435141706 
1691	 0.245711366202167 
1692	 0.24538758015579 
1693	 0.244959296067948 
1694	 0.244551345452155 
1695	 0.244200728567837 
1696	 0.243720111578289 
1697	 0.243132568668479 
1698	 0.242588276224534 
1699	 0.241992687414737 
1700	 0.241434651036665 
1701	 0.240903481571739 
1702	 0.240356203884728 
1703	 0.239764728783983 
1704	 0.239225296129447 
1705	 0.238708973606111 
1706	 0.238176395768723 
1707	 0.237810387970239 
1708	 0.237516166247191 
1709	 0.237182234151445 
1710	 0.237017371737629 
1711	 0.236872081624518 
1712	 0.236723334153078 
1713	 0.236660270847342 
1714	 0.236541506626694 
1715	 0.236415985018076 
1716	 0.236353205391018 
1717	 0.236296720793149 
1718	 0.236270988071702 
1719	 0.236330080460191 
1720	 0.236405204596786 
1721	 0.236457492265505 
1722	 0.236563372517603 
1723	 0.236709663250301 
1724	 0.236822676843933 
1725	 0.237017536923614 
1726	 0.237317198656554 
1727	 0.237656328789167 
1728	 0.238155170029307 
1729	 0.238846739056013 
1730	 0.23959891886315 
1731	 0.240397769337835 
1732	 0.241245587262817 
1733	 0.242075360501915 
1734	 0.243029229191054 
1735	 0.243992068234094 
1736	 0.244843407444648 
1737	 0.24571467515055 
1738	 0.246451246045604 
1739	 0.247176251733619 
1740	 0.248010398291006 
1741	 0.248638748311972 
1742	 0.249122071398933 
1743	 0.249579496500998 
1744	 0.249919311178727 
1745	 0.250227757580217 
1746	 0.250452681077839 
1747	 0.2506899816896 
1748	 0.250856467989098 
1749	 0.251067464422719 
1750	 0.251283198354944 
1751	 0.251565456883555 
1752	 0.251883067238153 
1753	 0.252261828570331 
1754	 0.252695391878427 
1755	 0.253159094737467 
1756	 0.253635842091224 
1757	 0.254166311617723 
1758	 0.254840729533188 
1759	 0.25551386301931 
1760	 0.256241502541511 
1761	 0.257064114712421 
1762	 0.257882902143464 
1763	 0.258795720958618 
1764	 0.259805996116158 
1765	 0.260873331051777 
1766	 0.261945973232537 
1767	 0.26297021653424 
1768	 0.264067192075574 
1769	 0.265165123251722 
1770	 0.266294368922922 
1771	 0.267469755228576 
1772	 0.268511595951311 
1773	 0.269558631125516 
1774	 0.270586182489549 
1775	 0.271435494830033 
1776	 0.272329490254542 
1777	 0.273193621068873 
1778	 0.273909744330927 
1779	 0.274844547596134 
1780	 0.275779747485036 
1781	 0.276475414159059 
1782	 0.277187757101236 
1783	 0.27777845884442 
1784	 0.278426739275433 
1785	 0.279162125846477 
1786	 0.279791275473201 
1787	 0.280416049437935 
1788	 0.28095602825755 
1789	 0.281433481937279 
1790	 0.281958093732299 
1791	 0.282437066360179 
1792	 0.282905614310523 
1793	 0.28332844802525 
1794	 0.283793085089028 
1795	 0.284286132808773 
1796	 0.284760779301315 
1797	 0.285355105131892 
1798	 0.285905627519988 
1799	 0.286432793545444 
1800	 0.28697364466973 
1801	 0.284642676174384 
1802	 0.284996276539669 
1803	 0.285403724262465 
1804	 0.285843116207591 
1805	 0.286186129156648 
1806	 0.286624246015517 
1807	 0.287140880770019 
1808	 0.287590086684159 
1809	 0.288016796977888 
1810	 0.288493967438205 
1811	 0.289003816840272 
1812	 0.28945420644715 
1813	 0.289895677651252 
1814	 0.29038795126601 
1815	 0.290765541457331 
1816	 0.291130520812654 
1817	 0.291524148624521 
1818	 0.291919060274183 
1819	 0.292322272907704 
1820	 0.292734958098686 
1821	 0.293149927475348 
1822	 0.293582301936373 
1823	 0.294019712263908 
1824	 0.294391665115434 
1825	 0.294787255963863 
1826	 0.295182035925688 
1827	 0.295553547514341 
1828	 0.295950522123853 
1829	 0.296390067609339 
1830	 0.296768073507505 
1831	 0.297124352557843 
1832	 0.297491632107316 
1833	 0.297765389818117 
1834	 0.298102556573861 
1835	 0.298455085117418 
1836	 0.298740220698345 
1837	 0.299090322716616 
1838	 0.29951970034282 
1839	 0.299830834439519 
1840	 0.300080783700706 
1841	 0.30039488730732 
1842	 0.300675655411586 
1843	 0.30095774397817 
1844	 0.301299716165265 
1845	 0.301657129587079 
1846	 0.302047188826464 
1847	 0.302468576465584 
1848	 0.302901895766464 
1849	 0.303432777740593 
1850	 0.303889103001768 
1851	 0.304300649863874 
1852	 0.304732289328597 
1853	 0.305224244494897 
1854	 0.305668399824426 
1855	 0.306102478608557 
1856	 0.306559022362236 
1857	 0.30693267041748 
1858	 0.307311819020948 
1859	 0.307686084364495 
1860	 0.308058278191515 
1861	 0.308420077059513 
1862	 0.308799909900372 
1863	 0.30909158369288 
1864	 0.309404214875088 
1865	 0.309665053529446 
1866	 0.309837909150655 
1867	 0.310071455444386 
1868	 0.310246727607667 
1869	 0.310407508615102 
1870	 0.310536811925956 
1871	 0.31064881274762 
1872	 0.310680322608871 
1873	 0.310663139067536 
1874	 0.3106149944559 
1875	 0.310534484937315 
1876	 0.310429014756479 
1877	 0.310389204855829 
1878	 0.310257119084163 
1879	 0.30996992210227 
1880	 0.309659607968638 
1881	 0.309255630099717 
1882	 0.308731559702408 
1883	 0.308185898377939 
1884	 0.307563614436417 
1885	 0.306827476169066 
1886	 0.306123591700333 
1887	 0.305296106509015 
1888	 0.304364767741551 
1889	 0.303409169236905 
1890	 0.302348310188135 
1891	 0.30132692542593 
1892	 0.300314109014725 
1893	 0.299218799081542 
1894	 0.298104381932721 
1895	 0.296974701049263 
1896	 0.295716645764879 
1897	 0.294448806281961 
1898	 0.293319722988878 
1899	 0.292192578330242 
1900	 0.29109470195379 
1901	 0.290069792192333 
1902	 0.289057946263373 
1903	 0.288034257419572 
1904	 0.287020028272778 
1905	 0.285992939669353 
1906	 0.285026265598865 
1907	 0.284153132098654 
1908	 0.283343329583274 
1909	 0.282674770198951 
1910	 0.282123204888162 
1911	 0.281529424584106 
1912	 0.280974579812402 
1913	 0.280453271017594 
1914	 0.279914894314696 
1915	 0.279433497379358 
1916	 0.278977433262506 
1917	 0.278590360430683 
1918	 0.278270774706851 
1919	 0.277969761947994 
1920	 0.277690488434835 
1921	 0.27741248387601 
1922	 0.277161639595027 
1923	 0.27702868760554 
1924	 0.27691265779287 
1925	 0.276807782828658 
1926	 0.276728993916911 
1927	 0.276661310973678 
1928	 0.276596279325847 
1929	 0.276533947385793 
1930	 0.276553179204837 
1931	 0.276564220203842 
1932	 0.276524501542792 
1933	 0.276507350828938 
1934	 0.276567564586644 
1935	 0.276653355062962 
1936	 0.276784648939027 
1937	 0.276947996674198 
1938	 0.277154293361949 
1939	 0.277356867999969 
1940	 0.277573884597187 
1941	 0.277850672073574 
1942	 0.278075599128627 
1943	 0.278395973601163 
1944	 0.27873328401158 
1945	 0.279071883359165 
1946	 0.279517546143655 
1947	 0.279912917988011 
1948	 0.280357836744643 
1949	 0.280871398922102 
1950	 0.281359059359782 
1951	 0.281868251836694 
1952	 0.282406140158599 
1953	 0.282955925333826 
1954	 0.283462808280287 
1955	 0.284106129376295 
1956	 0.2847212896251 
1957	 0.285315096648342 
1958	 0.285928747128402 
1959	 0.286466873382886 
1960	 0.286981173150656 
1961	 0.287500731549022 
1962	 0.288020592383818 
1963	 0.288525989639197 
1964	 0.289024011678498 
1965	 0.289498768208222 
1966	 0.289957921892567 
1967	 0.29039812613579 
1968	 0.290845029064091 
1969	 0.291311777014416 
1970	 0.291742292205269 
1971	 0.292132651751588 
1972	 0.292541376245178 
1973	 0.292907106723515 
1974	 0.293273047251907 
1975	 0.293653070852084 
1976	 0.29403303879522 
1977	 0.294360221785802 
1978	 0.294743749976575 
1979	 0.295176616226844 
1980	 0.295572414125613 
1981	 0.296000768194338 
1982	 0.296408496169982 
1983	 0.296816336834065 
1984	 0.297200662637682 
1985	 0.297507385931054 
1986	 0.29783077234187 
1987	 0.298132712245275 
1988	 0.298347460114687 
1989	 0.298652544158523 
1990	 0.298993904300754 
1991	 0.29934608419797 
1992	 0.299733440089438 
1993	 0.300142840234661 
1994	 0.300517877279948 
1995	 0.3009229360044 
1996	 0.301315935915778 
1997	 0.301696015587481 
1998	 0.302053539487278 
1999	 0.30240215633464 
2000	 0.302728248486448 
2001	 0.303041516340147 
2002	 0.303320509863765 
2003	 0.30357102897608 
2004	 0.303818767659254 
2005	 0.304043995439453 
2006	 0.304239771732416 
2007	 0.304454554351443 
2008	 0.304603463718891 
2009	 0.30465880056711 
2010	 0.304723693653054 
2011	 0.304723479546668 
2012	 0.304722464241849 
2013	 0.304721375381679 
2014	 0.304713425543987 
2015	 0.304688500831389 
2016	 0.304695805514439 
2017	 0.304606292872607 
2018	 0.304448155335463 
2019	 0.304319686223479 
2020	 0.304165520829243 
2021	 0.303961887230755 
2022	 0.303772145737341 
2023	 0.303571908001828 
2024	 0.303285040512673 
2025	 0.302999891995702 
2026	 0.302744095035182 
2027	 0.302494184231731 
2028	 0.302251403000158 
2029	 0.302022234644304 
2030	 0.301785268450128 
2031	 0.301535783908507 
2032	 0.30134547078076 
2033	 0.301176958003457 
2034	 0.301038919574359 
2035	 0.300966699226338 
2036	 0.300846109516905 
2037	 0.300801692110753 
2038	 0.300763876766619 
2039	 0.300731492437123 
2040	 0.300734824490481 
2041	 0.300748389477994 
2042	 0.300783603532174 
2043	 0.300765222210537 
2044	 0.300771469508387 
2045	 0.300728972280101 
2046	 0.300600309918122 
2047	 0.30051944057751 
2048	 0.300412134145722 
2049	 0.300364732363482 
2050	 0.300391569222935 
2051	 0.300368477274531 
2052	 0.300333386306892 
2053	 0.300262025424912 
2054	 0.300169170259007 
2055	 0.299967866335373 
2056	 0.299893927699135 
2057	 0.299868415456885 
2058	 0.299846629094771 
2059	 0.299920886793958 
2060	 0.299876577935737 
2061	 0.299767289321851 
2062	 0.299700684584133 
2063	 0.299563404467134 
2064	 0.2994771737348 
2065	 0.29946548124439 
2066	 0.299430504034837 
2067	 0.299312898279381 
2068	 0.299279579434042 
2069	 0.299215134965867 
2070	 0.299117152391598 
2071	 0.299066263938659 
2072	 0.299079629063391 
2073	 0.299002821022632 
2074	 0.298910808421186 
2075	 0.29878487269471 
2076	 0.298541427868554 
2077	 0.298418930382755 
2078	 0.298367027846344 
2079	 0.298277211319191 
2080	 0.298204676557991 
2081	 0.298149146459102 
2082	 0.298102470035169 
2083	 0.298042909691066 
2084	 0.297932875302879 
2085	 0.297778269885404 
2086	 0.297605196564825 
2087	 0.297267538552381 
2088	 0.297127987201968 
2089	 0.297104015472366 
2090	 0.29702430027149 
2091	 0.297023316916745 
2092	 0.296943956352866 
2093	 0.296833835004257 
2094	 0.296679356360895 
2095	 0.296450675101672 
2096	 0.296268815461144 
2097	 0.296025324373411 
2098	 0.295869924379878 
2099	 0.295734528934786 
2100	 0.295613741614075 
2101	 0.295435448887904 
2102	 0.295233583947423 
2103	 0.294992097049334 
2104	 0.294694286515867 
2105	 0.294436973218067 
2106	 0.29415094862855 
2107	 0.29390499214303 
2108	 0.29369217967799 
2109	 0.293477529499132 
2110	 0.293282382943861 
2111	 0.293080242905574 
2112	 0.292865500377186 
2113	 0.292679797426883 
2114	 0.292544444519226 
2115	 0.29234563554817 
2116	 0.292136939664275 
2117	 0.29192789384394 
2118	 0.29167661428047 
2119	 0.291321784860645 
2120	 0.291110751899489 
2121	 0.290958749582321 
2122	 0.29078691670996 
2123	 0.290693638718322 
2124	 0.290512274313006 
2125	 0.29025295956287 
2126	 0.290048893031754 
2127	 0.289856371714021 
2128	 0.289659921889702 
2129	 0.289435637442696 
2130	 0.289293044610358 
2131	 0.289170932992642 
2132	 0.289073676849945 
2133	 0.289064051370286 
2134	 0.289089444356206 
2135	 0.288952451241444 
2136	 0.288767659319969 
2137	 0.288646291292966 
2138	 0.288463881871818 
2139	 0.288350818207509 
2140	 0.288341887600316 
2141	 0.288245413684812 
2142	 0.288087691923933 
2143	 0.287996283719368 
2144	 0.287945461979898 
2145	 0.287856093400349 
2146	 0.287739009568036 
2147	 0.287675655324572 
2148	 0.287650397122295 
2149	 0.28756000616825 
2150	 0.287494980874717 
2151	 0.287414359621698 
2152	 0.28728211930391 
2153	 0.287111299815215 
2154	 0.287013208472964 
2155	 0.286871127399934 
2156	 0.286719579337982 
2157	 0.286536209956326 
2158	 0.286375865309047 
2159	 0.286233780503296 
2160	 0.286030111104816 
2161	 0.285821338995596 
2162	 0.285563640736349 
2163	 0.285237116373788 
2164	 0.284925680835078 
2165	 0.284568570312833 
2166	 0.28425307085022 
2167	 0.283964645012349 
2168	 0.283650936695265 
2169	 0.283375185220319 
2170	 0.283047191322761 
2171	 0.282644552090479 
2172	 0.282273416248793 
2173	 0.281923399663886 
2174	 0.281505492242382 
2175	 0.281144650167182 
2176	 0.280860201038936 
2177	 0.280497737585153 
2178	 0.280113723864319 
2179	 0.279786303820175 
2180	 0.279446016343903 
2181	 0.279113403511343 
2182	 0.278897946019751 
2183	 0.278492164658249 
2184	 0.277989440328018 
2185	 0.277468887575587 
2186	 0.27685745027216 
2187	 0.276234885359347 
2188	 0.275601633513651 
2189	 0.274908385224844 
2190	 0.274085604901582 
2191	 0.273354710515394 
2192	 0.272768605214345 
2193	 0.271949010186922 
2194	 0.271068462012651 
2195	 0.270124098069121 
2196	 0.269062957302742 
2197	 0.267778146640442 
2198	 0.266641075965355 
2199	 0.265433770806578 
2200	 0.264059910043655 
2201	 0.26255169495262 
2202	 0.261043629926225 
2203	 0.259445395569965 
2204	 0.257763935666701 
2205	 0.256001510599272 
2206	 0.254234611376958 
2207	 0.252358422534251 
2208	 0.250501705119996 
2209	 0.248651281215769 
2210	 0.246814871107905 
2211	 0.24483645885625 
2212	 0.243102343496166 
2213	 0.241413426775206 
2214	 0.239946969478042 
2215	 0.238611491681229 
2216	 0.237501369317201 
2217	 0.236634195976599 
2218	 0.235891866175792 
2219	 0.235451052155725 
2220	 0.235006752553742 
2221	 0.234676306637259 
2222	 0.234358516779062 
2223	 0.234273357334365 
2224	 0.234036189490097 
2225	 0.233633263510298 
2226	 0.23332525717337 
2227	 0.232902316291548 
2228	 0.232300587608394 
2229	 0.231714803576569 
2230	 0.231226472481732 
2231	 0.230481243877326 
2232	 0.229549346176761 
2233	 0.228584637460936 
2234	 0.227528380678451 
2235	 0.226364314731892 
2236	 0.225089914728394 
2237	 0.223742434422894 
2238	 0.22229836820584 
2239	 0.220742539317899 
2240	 0.219055016683246 
2241	 0.217376413683313 
2242	 0.215698545586544 
2243	 0.213812492796615 
2244	 0.211900320741623 
2245	 0.209749370217254 
2246	 0.207172954408303 
2247	 0.204770002767941 
2248	 0.202424727356715 
2249	 0.199887873898538 
2250	 0.197329531017899 
2251	 0.194678954968115 
2252	 0.191748038880373 
2253	 0.188846435528307 
2254	 0.185818044223114 
2255	 0.182723505769692 
2256	 0.179839005764769 
2257	 0.176830429575706 
2258	 0.17405656463111 
2259	 0.171532918265367 
2260	 0.168911395357758 
2261	 0.166242333891595 
2262	 0.163844553581504 
2263	 0.161455596186452 
2264	 0.159456123199518 
2265	 0.157806041970763 
2266	 0.156174642697365 
2267	 0.154723210227859 
2268	 0.15346616974955 
2269	 0.152293030302829 
2270	 0.151418559292789 
2271	 0.150993841125427 
2272	 0.150420384247895 
2273	 0.149904478203573 
2274	 0.149532315710873 
2275	 0.149280784405236 
2276	 0.14896540688273 
2277	 0.148840049036264 
2278	 0.148584885275289 
2279	 0.148088792598535 
2280	 0.147782009868598 
2281	 0.147624484688981 
2282	 0.14735610769498 
2283	 0.14716263142983 
2284	 0.146900814333588 
2285	 0.146331279508733 
2286	 0.145764847682426 
2287	 0.145141725302684 
2288	 0.14447671852025 
2289	 0.143932622443706 
2290	 0.143486398445124 
2291	 0.143024588008515 
2292	 0.142382865096569 
2293	 0.141863386649388 
2294	 0.141337014528828 
2295	 0.140748660250387 
2296	 0.140352594244623 
2297	 0.139951544723525 
2298	 0.13947389253534 
2299	 0.13927325338886 
2300	 0.139161808219312 
2301	 0.139401266069478 
2302	 0.139996107699742 
2303	 0.140486037025855 
2304	 0.141182965678691 
2305	 0.141867268462527 
2306	 0.142399968646654 
2307	 0.143335537027259 
2308	 0.144486800129884 
2309	 0.145845983512157 
2310	 0.147599118810284 
2311	 0.14919154237127 
2312	 0.150960405524794 
2313	 0.152603947885524 
2314	 0.1541825268419 
2315	 0.155704721216745 
2316	 0.157266130189338 
2317	 0.158622104465596 
2318	 0.159823401809044 
2319	 0.160920178793214 
2320	 0.162002193262826 
2321	 0.162796074458977 
2322	 0.163324000169638 
2323	 0.163821191964221 
2324	 0.164099115514126 
2325	 0.164252339334266 
2326	 0.164387827707534 
2327	 0.16429617340472 
2328	 0.164017462668648 
2329	 0.163532136860224 
2330	 0.162767692159482 
2331	 0.162017993511913 
2332	 0.161143228414249 
2333	 0.159901303738776 
2334	 0.158484750804084 
2335	 0.157063267308214 
2336	 0.155258512358683 
2337	 0.153522246108055 
2338	 0.152141220160457 
2339	 0.150318114659683 
2340	 0.14856268798315 
2341	 0.147128977431877 
2342	 0.145399831903672 
2343	 0.143779179917831 
2344	 0.142488889269042 
2345	 0.141121604670004 
2346	 0.139802166263081 
2347	 0.13899381038465 
2348	 0.138383052300109 
2349	 0.137664269208378 
2350	 0.137288977693074 
2351	 0.137243073558596 
2352	 0.137188974312688 
2353	 0.137357557797206 
2354	 0.13782066526886 
2355	 0.138316585431857 
2356	 0.138628158052375 
2357	 0.138979745471015 
2358	 0.139460280237704 
2359	 0.139713665972726 
2360	 0.14020998560797 
2361	 0.141043216588225 
2362	 0.141501757887869 
2363	 0.141876778699237 
2364	 0.142318429675222 
2365	 0.142668502699788 
2366	 0.143117872187896 
2367	 0.143528160470357 
2368	 0.143794619638748 
2369	 0.143901235335531 
2370	 0.14393065972106 
2371	 0.143932846100563 
2372	 0.143851660636167 
2373	 0.143924293084667 
2374	 0.144185363120776 
2375	 0.144401916792335 
2376	 0.144783648837119 
2377	 0.145170837867913 
2378	 0.145251624529825 
2379	 0.14534191815052 
2380	 0.145250605107957 
2381	 0.145059904976485 
2382	 0.14501972354138 
2383	 0.144995542759645 
2384	 0.144986415338508 
2385	 0.145211420275958 
2386	 0.145064782980766 
2387	 0.144657240339248 
2388	 0.144482086609637 
2389	 0.144271329387284 
2390	 0.144090040668184 
2391	 0.144056307948918 
2392	 0.14389245298558 
2393	 0.143398099764849 
2394	 0.143314058831627 
2395	 0.143558843993065 
2396	 0.143564509912466 
2397	 0.143727671736899 
2398	 0.143827324060709 
2399	 0.143583940028698 
2400	 0.143683859483725 
2401	 0.144236758472628 
2402	 0.144353007023343 
2403	 0.144301218258454 
2404	 0.144452300049458 
2405	 0.144317392686904 
2406	 0.144164520486138 
2407	 0.144480563471933 
2408	 0.144659444528022 
2409	 0.144695682423011 
2410	 0.145041604505386 
2411	 0.145353530942186 
2412	 0.145845196249345 
2413	 0.146350608052124 
2414	 0.146394396735392 
2415	 0.146319060133496 
2416	 0.146393412626534 
2417	 0.146564151094808 
2418	 0.146653287813097 
2419	 0.147175317503054 
2420	 0.147638337032967 
2421	 0.147246227215311 
2422	 0.147057741524285 
2423	 0.147005084325809 
2424	 0.146868858056068 
2425	 0.147358174573845 
2426	 0.14835580088003 
2427	 0.14898932486298 
2428	 0.149084627842974 
2429	 0.149241553022608 
2430	 0.149234067776038 
2431	 0.149338190700648 
2432	 0.150206731178387 
2433	 0.150816034306706 
2434	 0.151122495956519 
2435	 0.151705612606078 
2436	 0.151332625644039 
2437	 0.151204501530667 
2438	 0.151731587164086 
2439	 0.151526587985821 
2440	 0.1516623300228 
2441	 0.151923105803543 
2442	 0.152173943578331 
2443	 0.152975419823974 
2444	 0.153660053593797 
2445	 0.153834012121473 
2446	 0.153332002608401 
2447	 0.152579171239516 
2448	 0.152704371920791 
2449	 0.153499694650663 
2450	 0.153926636101024 
2451	 0.154354851390395 
2452	 0.154700836673136 
2453	 0.154438963964157 
2454	 0.154488544301189 
2455	 0.155082329416852 
2456	 0.155370428668884 
2457	 0.155932070133126 
2458	 0.157045170975573 
2459	 0.157489649626964 
2460	 0.157260510797119 
2461	 0.157193684544014 
2462	 0.156985325368001 
2463	 0.156657935350386 
2464	 0.156958570765331 
2465	 0.157159516701428 
2466	 0.156874150505111 
2467	 0.157091250338666 
2468	 0.157268671978158 
2469	 0.157020732627675 
2470	 0.157427011356219 
2471	 0.157977552355608 
2472	 0.158771938942948 
2473	 0.159930015689291 
2474	 0.160746161529379 
2475	 0.16132656074943 
2476	 0.16073928691013 
2477	 0.160289185208261 
2478	 0.160212077808016 
2479	 0.159833609075286 
2480	 0.161145397186207 
2481	 0.161912653429575 
2482	 0.16267189128393 
2483	 0.163418974721723 
2484	 0.163991528175056 
2485	 0.163987888399162 
2486	 0.164165561408361 
2487	 0.164261447841416 
2488	 0.164187162055117 
2489	 0.16469507214212 
2490	 0.164449342079145 
2491	 0.16496625519152 
2492	 0.165923571369256 
2493	 0.165638710067447 
2494	 0.165779372190146 
2495	 0.164938999972058 
2496	 0.163932328615667 
2497	 0.164701168249989 
2498	 0.166176504666969 
2499	 0.168072199125403 
2500	 0.169252881446128 
