Wavelength	Tablay400063.asd
350	 0.397480002330013 
351	 0.317044097580306 
352	 0.273092361881824 
353	 0.295982575536248 
354	 0.34214589010872 
355	 0.386552886502407 
356	 0.356259994594508 
357	 0.237315035798459 
358	 0.239574739058854 
359	 0.288493707120676 
360	 0.301546826324185 
361	 0.23217344532484 
362	 0.245893573491943 
363	 0.250200270176039 
364	 0.204321053937166 
365	 0.171520923693947 
366	 0.238970905441752 
367	 0.277790089368496 
368	 0.199217989684897 
369	 0.201897914080527 
370	 0.190282117411378 
371	 0.174154519348518 
372	 0.212885442989907 
373	 0.192798066474858 
374	 0.168268233862684 
375	 0.166098953361617 
376	 0.154885841522615 
377	 0.143771624330939 
378	 0.166374023301542 
379	 0.217874910260767 
380	 0.138194724542416 
381	 0.1118647880805 
382	 0.149560723071738 
383	 0.15978531668464 
384	 0.177886711566163 
385	 0.160003945138457 
386	 0.117513151221926 
387	 0.146911842028314 
388	 0.157186627883852 
389	 0.162957643540712 
390	 0.1857923101238 
391	 0.159079029071075 
392	 0.14382923845953 
393	 0.146921837348425 
394	 0.139859475996166 
395	 0.10324540681048 
396	 9.88880625117959E-02 
397	 0.134732424094402 
398	 0.127182544620458 
399	 0.13123553871079 
400	 0.1327771203082 
401	 0.115766173673542 
402	 0.131740253940182 
403	 0.143012121592263 
404	 0.138450288134787 
405	 0.129894731589988 
406	 0.122888643764112 
407	 0.115188879583828 
408	 0.106651226053861 
409	 0.101366000712987 
410	 0.115057849220009 
411	 0.12894756560165 
412	 0.12218514368595 
413	 0.117959859091651 
414	 0.119520919350529 
415	 0.122425821938362 
416	 0.117415329580864 
417	 0.11532178157019 
418	 0.116047115576616 
419	 0.116663925380023 
420	 0.112190057979356 
421	 0.107233364198603 
422	 0.10528719067134 
423	 0.108012017924435 
424	 0.106312013324713 
425	 0.108935478441415 
426	 0.113961999492608 
427	 0.107101109730119 
428	 0.108399329877413 
429	 0.109636545653138 
430	 0.104489599979349 
431	 0.111609062843959 
432	 0.108993156716385 
433	 0.102261443528657 
434	 0.108717407183232 
435	 0.107750863147038 
436	 0.108289344066582 
437	 0.112388035577922 
438	 0.107224338724996 
439	 0.103289552726916 
440	 0.103970219145656 
441	 0.10851804923896 
442	 0.109703775915351 
443	 0.107660759353324 
444	 0.105049900046089 
445	 0.10586313745644 
446	 0.107198617166681 
447	 0.107315351998618 
448	 0.10628739009271 
449	 0.107749168596983 
450	 0.107377282457518 
451	 0.107028704235463 
452	 0.10929192025612 
453	 0.106523046987791 
454	 0.106928051758056 
455	 0.110571683164806 
456	 0.108046273337581 
457	 0.107021032742373 
458	 0.107976080856124 
459	 0.109357805849121 
460	 0.108279184488812 
461	 0.107668772547995 
462	 0.107951387964621 
463	 0.108227429404662 
464	 0.109229258953169 
465	 0.107913712959672 
466	 0.105070402464709 
467	 0.107713550192217 
468	 0.109425169596058 
469	 0.109467167099286 
470	 0.108747308651628 
471	 0.107568877523278 
472	 0.107538469180403 
473	 0.108018112552083 
474	 0.106945959205077 
475	 0.108251200685911 
476	 0.108953675741111 
477	 0.107492214813856 
478	 0.107567518496824 
479	 0.107304147934239 
480	 0.10722306881611 
481	 0.108170374506068 
482	 0.107661566154763 
483	 0.107490089132365 
484	 0.108002344987366 
485	 0.107671654700014 
486	 0.108758042501065 
487	 0.108942756005644 
488	 0.106877239069571 
489	 0.107150726276644 
490	 0.10657084294111 
491	 0.105471185817583 
492	 0.105971045946961 
493	 0.106641706764293 
494	 0.108158674178693 
495	 0.109796574630077 
496	 0.10808620302698 
497	 0.107714559388185 
498	 0.108071751464716 
499	 0.107474508916308 
500	 0.107035010962753 
501	 0.107407214472417 
502	 0.108244017345141 
503	 0.108401608066911 
504	 0.107619670503861 
505	 0.106888591252795 
506	 0.107129798757544 
507	 0.108940916589486 
508	 0.108695998348485 
509	 0.107435688105236 
510	 0.107823780469142 
511	 0.108040420334644 
512	 0.108603303741715 
513	 0.109396303527563 
514	 0.109293871485432 
515	 0.109276051534152 
516	 0.109431652632651 
517	 0.109664105938918 
518	 0.110084795442158 
519	 0.11030936942233 
520	 0.11047198164487 
521	 0.111009364538598 
522	 0.111441234743764 
523	 0.112090720229729 
524	 0.113051155149325 
525	 0.113804038749137 
526	 0.114265565798845 
527	 0.114731752774886 
528	 0.115566714090385 
529	 0.11664164786456 
530	 0.117598872875252 
531	 0.118420789667432 
532	 0.119448420966025 
533	 0.121208234701261 
534	 0.122864660651057 
535	 0.123942725628455 
536	 0.125846524719238 
537	 0.127880030849298 
538	 0.129985055016347 
539	 0.132484308325154 
540	 0.135876490788739 
541	 0.139012496183971 
542	 0.141742777087547 
543	 0.145750113821427 
544	 0.149896449211124 
545	 0.154248209109823 
546	 0.159096413190464 
547	 0.164060764571095 
548	 0.169671313647999 
549	 0.175942092342091 
550	 0.18241324559765 
551	 0.189204722463926 
552	 0.196621005483925 
553	 0.204591479826162 
554	 0.211878618632943 
555	 0.22004679084073 
556	 0.229020642104969 
557	 0.238017972266671 
558	 0.247448689486317 
559	 0.256981913114965 
560	 0.266441380886056 
561	 0.275956370055066 
562	 0.285578172943656 
563	 0.294984511850529 
564	 0.303825704806076 
565	 0.312063077465896 
566	 0.32003805248162 
567	 0.327701093753011 
568	 0.334761414759587 
569	 0.341698107883201 
570	 0.348231341877392 
571	 0.35411433842844 
572	 0.359363286973752 
573	 0.364329493331363 
574	 0.369055387333675 
575	 0.373482805964459 
576	 0.377669921535493 
577	 0.381498361816226 
578	 0.384994587190513 
579	 0.388352312415408 
580	 0.391126454877113 
581	 0.39350954801762 
582	 0.39579515068828 
583	 0.398086535773686 
584	 0.40008895914132 
585	 0.401819614132421 
586	 0.403473971388037 
587	 0.405004852649388 
588	 0.40647748835631 
589	 0.407842788224218 
590	 0.408826393302531 
591	 0.410086901529547 
592	 0.4112491217474 
593	 0.411870571929743 
594	 0.412675509613518 
595	 0.413332473420496 
596	 0.413950497852057 
597	 0.414989927521184 
598	 0.415726086037896 
599	 0.416200011444863 
600	 0.416649853444449 
601	 0.417508937603493 
602	 0.417719738838293 
603	 0.417666146788558 
604	 0.418219232365377 
605	 0.418866414122015 
606	 0.419220482595096 
607	 0.419314867889046 
608	 0.419676900253695 
609	 0.419965886862113 
610	 0.420224945715791 
611	 0.420515393081436 
612	 0.420633351517207 
613	 0.420852118179236 
614	 0.42115398593914 
615	 0.421350242400372 
616	 0.421600965292067 
617	 0.42181181099352 
618	 0.421906713096201 
619	 0.421878397785407 
620	 0.422014491766323 
621	 0.422275476116484 
622	 0.42249772245099 
623	 0.422522435784408 
624	 0.422720861329777 
625	 0.423018486053752 
626	 0.422943312357481 
627	 0.422965328122277 
628	 0.422963554600065 
629	 0.422905098121528 
630	 0.423309676749864 
631	 0.423326650326697 
632	 0.423175695634852 
633	 0.423409350125754 
634	 0.423229341129337 
635	 0.423281076761241 
636	 0.423621038296562 
637	 0.423451302294062 
638	 0.423472416314617 
639	 0.423655232519949 
640	 0.423773256794368 
641	 0.423533199386758 
642	 0.423492185879311 
643	 0.423595740199327 
644	 0.423459714442929 
645	 0.423489791993356 
646	 0.423485567935655 
647	 0.423402588595055 
648	 0.423586151309727 
649	 0.423361369911009 
650	 0.423114103686196 
651	 0.423311047250621 
652	 0.423316952724232 
653	 0.423200001625542 
654	 0.423096294702765 
655	 0.423150301142063 
656	 0.423040252291254 
657	 0.422821426929288 
658	 0.42263163506158 
659	 0.422658566909952 
660	 0.42265781001505 
661	 0.422626630804912 
662	 0.422620013230203 
663	 0.422481635855348 
664	 0.422380228263455 
665	 0.42231391572431 
666	 0.422103076440438 
667	 0.421935136937471 
668	 0.421835974300199 
669	 0.421763636308926 
670	 0.421572377208668 
671	 0.42155986921609 
672	 0.421542705650905 
673	 0.421221460751204 
674	 0.421124040815917 
675	 0.420995752801085 
676	 0.420782728186454 
677	 0.420742829192981 
678	 0.420645533742351 
679	 0.420439964322129 
680	 0.420181835654301 
681	 0.420113494990995 
682	 0.420001199216136 
683	 0.419855002456637 
684	 0.419792569636834 
685	 0.419647152813207 
686	 0.419410211757906 
687	 0.419152072907539 
688	 0.419022215202657 
689	 0.418965959903724 
690	 0.418869511525301 
691	 0.418648947895731 
692	 0.41835644142167 
693	 0.418212213167682 
694	 0.418110759088293 
695	 0.417802396019081 
696	 0.417777316690355 
697	 0.417801792316596 
698	 0.417687079535003 
699	 0.417451745203281 
700	 0.417202671020469 
701	 0.416982149797255 
702	 0.416797852687664 
703	 0.416615395071673 
704	 0.416494333092545 
705	 0.416385508764747 
706	 0.416181853591709 
707	 0.415997231201833 
708	 0.415844895777928 
709	 0.415718481201471 
710	 0.415611233221223 
711	 0.415334941402819 
712	 0.415066831810962 
713	 0.415003065710146 
714	 0.414973455355338 
715	 0.414802413369839 
716	 0.414547844329225 
717	 0.414418053863703 
718	 0.414293318810585 
719	 0.414157987573784 
720	 0.41401314329854 
721	 0.41386555846021 
722	 0.413717852278476 
723	 0.413581849409925 
724	 0.413462169095294 
725	 0.413321019520327 
726	 0.413246589220383 
727	 0.413147178453437 
728	 0.412856511978181 
729	 0.412816061016431 
730	 0.412868650064364 
731	 0.412829687880939 
732	 0.412603108044357 
733	 0.412438570992873 
734	 0.412286616416566 
735	 0.412071740862656 
736	 0.41196461596337 
737	 0.411954329756969 
738	 0.411994015052504 
739	 0.412014245411769 
740	 0.411997284237567 
741	 0.411809949599945 
742	 0.411534309055543 
743	 0.411577452354231 
744	 0.411571343410944 
745	 0.41150894135965 
746	 0.411479293299481 
747	 0.411573869446591 
748	 0.411531897097686 
749	 0.411386930285492 
750	 0.411337850350013 
751	 0.411388944443625 
752	 0.411442271806273 
753	 0.411429282227177 
754	 0.41133907419288 
755	 0.411297111687624 
756	 0.411318440249771 
757	 0.411365959207243 
758	 0.411345276216477 
759	 0.411323373306588 
760	 0.411295117460577 
761	 0.411242508789756 
762	 0.41127862942519 
763	 0.411370571084147 
764	 0.411485682975295 
765	 0.411603071743438 
766	 0.411646651996604 
767	 0.411708431705798 
768	 0.411827454733815 
769	 0.411838539079839 
770	 0.411879975969271 
771	 0.411972267576894 
772	 0.412088908108754 
773	 0.412202392078276 
774	 0.412321851690811 
775	 0.412409354205576 
776	 0.412407226864331 
777	 0.412479857927566 
778	 0.412649331644236 
779	 0.412797727588678 
780	 0.412605299391929 
781	 0.412779380209843 
782	 0.413090726704499 
783	 0.413165507057478 
784	 0.413120687298994 
785	 0.413291405290775 
786	 0.413541224500933 
787	 0.413527624859974 
788	 0.41359812432531 
789	 0.413748387087519 
790	 0.413909082892998 
791	 0.413981084051466 
792	 0.414035147388941 
793	 0.414192242321131 
794	 0.414442279437284 
795	 0.41442981563007 
796	 0.414473931102012 
797	 0.414623225089504 
798	 0.414807976849469 
799	 0.414925019935645 
800	 0.414968353431826 
801	 0.415008515324613 
802	 0.4151522580363 
803	 0.415295718483448 
804	 0.415365921223311 
805	 0.415394657815605 
806	 0.415556085253095 
807	 0.415609018951507 
808	 0.415649639749657 
809	 0.41579140856687 
810	 0.415964631916848 
811	 0.415913906486711 
812	 0.415830203888893 
813	 0.416012623014624 
814	 0.416108354482517 
815	 0.416171902293514 
816	 0.416239058798296 
817	 0.416309795265956 
818	 0.416410469416074 
819	 0.416459581575968 
820	 0.416436473461914 
821	 0.416438867220088 
822	 0.416659003558131 
823	 0.416804851811813 
824	 0.416671529933147 
825	 0.416746782654221 
826	 0.416723244430916 
827	 0.416652179396718 
828	 0.416695799429965 
829	 0.416625411154359 
830	 0.41672167717072 
831	 0.416934897754669 
832	 0.416923231981722 
833	 0.416709557435255 
834	 0.416557427321735 
835	 0.416568364778882 
836	 0.416538612486018 
837	 0.416629840677085 
838	 0.416654546927664 
839	 0.416497918779058 
840	 0.416469886213174 
841	 0.416517343836987 
842	 0.416520842761404 
843	 0.416407323229536 
844	 0.416507310143816 
845	 0.416465179845951 
846	 0.416316548175476 
847	 0.41635068882162 
848	 0.41622356597747 
849	 0.416068000181925 
850	 0.415985394943926 
851	 0.415962108852032 
852	 0.415875109740934 
853	 0.415791396478326 
854	 0.415757312944504 
855	 0.415685900196037 
856	 0.415652150720423 
857	 0.415610131635984 
858	 0.415510314563895 
859	 0.415438638369794 
860	 0.415259784046781 
861	 0.415074025759552 
862	 0.415045696231286 
863	 0.414948319155728 
864	 0.41479838825571 
865	 0.414676765218948 
866	 0.414665366309311 
867	 0.41441014336978 
868	 0.41424724418136 
869	 0.414311397959931 
870	 0.41433361424099 
871	 0.414174680611972 
872	 0.413890520363537 
873	 0.41360269482026 
874	 0.4134450197621 
875	 0.413387307713756 
876	 0.413363862820925 
877	 0.413313129373801 
878	 0.413258552773737 
879	 0.413089140886407 
880	 0.412842192846456 
881	 0.412636267517901 
882	 0.412563354576546 
883	 0.412606633478434 
884	 0.412580518667556 
885	 0.412262669873794 
886	 0.412129335925181 
887	 0.412109250374628 
888	 0.412017783613216 
889	 0.41166374533642 
890	 0.411586123888193 
891	 0.411515969260107 
892	 0.411286216162957 
893	 0.411155029543471 
894	 0.410999835297545 
895	 0.410768809369398 
896	 0.410546832949973 
897	 0.410760507623837 
898	 0.410586518635383 
899	 0.410317543588446 
900	 0.410396682470106 
901	 0.410275991283842 
902	 0.410093330272737 
903	 0.409866775335163 
904	 0.409592396007263 
905	 0.409448364067283 
906	 0.409419450052544 
907	 0.409374852523655 
908	 0.409152990668471 
909	 0.408920321978659 
910	 0.40872130936817 
911	 0.408664654989221 
912	 0.408867533281131 
913	 0.408749895817982 
914	 0.408441284622365 
915	 0.408182042599637 
916	 0.408168807445561 
917	 0.408030482901064 
918	 0.407805940819036 
919	 0.407619188222694 
920	 0.407573084317459 
921	 0.407806731474014 
922	 0.407814310281482 
923	 0.407370289002161 
924	 0.407335972391188 
925	 0.407606885944581 
926	 0.407575116083185 
927	 0.406968611177348 
928	 0.40723268283526 
929	 0.407147085722397 
930	 0.406930017814837 
931	 0.407142156266011 
932	 0.40700954921717 
933	 0.407012276907414 
934	 0.407054788587155 
935	 0.406824755209196 
936	 0.406681622690858 
937	 0.406913007857824 
938	 0.407250222113314 
939	 0.407159445629821 
940	 0.407027603938914 
941	 0.407104142627346 
942	 0.407259853310541 
943	 0.407115683333767 
944	 0.406975082469765 
945	 0.406939369173982 
946	 0.406989908564595 
947	 0.407011635232386 
948	 0.406988077099437 
949	 0.407145181936208 
950	 0.407304100106156 
951	 0.406847934743197 
952	 0.406847095594116 
953	 0.406892806030361 
954	 0.406760971259716 
955	 0.40687234416105 
956	 0.406950474055144 
957	 0.406788892760916 
958	 0.406553697722327 
959	 0.406957364287474 
960	 0.406719768914981 
961	 0.406334211390901 
962	 0.406353248662004 
963	 0.40657071738791 
964	 0.406772186925039 
965	 0.406876986725075 
966	 0.406776996721589 
967	 0.406177678147419 
968	 0.406205443240704 
969	 0.406478161215528 
970	 0.406450303795284 
971	 0.406365109999924 
972	 0.406186231745489 
973	 0.406148158383892 
974	 0.406324168705495 
975	 0.406166128699673 
976	 0.405822416263205 
977	 0.405699784210569 
978	 0.40595432834826 
979	 0.405731283285922 
980	 0.405802390824336 
981	 0.405827531194947 
982	 0.405458326001903 
983	 0.405527990372763 
984	 0.405579941795042 
985	 0.405732709696726 
986	 0.406069444436144 
987	 0.405936521052602 
988	 0.405642730099226 
989	 0.405453648329521 
990	 0.405488350283159 
991	 0.4054639712885 
992	 0.405298629160078 
993	 0.405170229283117 
994	 0.405234872390481 
995	 0.40519315877678 
996	 0.405513538661685 
997	 0.405806662541714 
998	 0.405614665729875 
999	 0.405315183732642 
1000	 0.405044346104802 
1001	 0.408053281894643 
1002	 0.408150974998139 
1003	 0.408203304510652 
1004	 0.40800982976624 
1005	 0.407732112841919 
1006	 0.407671799259559 
1007	 0.407448903051492 
1008	 0.407447352104846 
1009	 0.407830298825006 
1010	 0.407921544732708 
1011	 0.407954257365239 
1012	 0.40784650195157 
1013	 0.407490926120722 
1014	 0.407412484770742 
1015	 0.407383588215207 
1016	 0.407268148776463 
1017	 0.407417001840158 
1018	 0.407651938204586 
1019	 0.407726675797006 
1020	 0.407767591088425 
1021	 0.407656404811802 
1022	 0.407355036669106 
1023	 0.407213921254566 
1024	 0.40697273652968 
1025	 0.406868835158981 
1026	 0.406942252861994 
1027	 0.406894069452991 
1028	 0.406826499412333 
1029	 0.406798831139882 
1030	 0.406631467284006 
1031	 0.406556389804698 
1032	 0.406471029185907 
1033	 0.406338024428467 
1034	 0.406202240750442 
1035	 0.406184903686321 
1036	 0.40614004919676 
1037	 0.406126037222537 
1038	 0.406019652816575 
1039	 0.40586641812592 
1040	 0.405725795699408 
1041	 0.405504193834205 
1042	 0.405410351159265 
1043	 0.405332228657912 
1044	 0.405453129350352 
1045	 0.405477258818866 
1046	 0.405392909399504 
1047	 0.405291001191966 
1048	 0.405051452513916 
1049	 0.404860989791017 
1050	 0.404784039256199 
1051	 0.404806314550421 
1052	 0.404915603127936 
1053	 0.404977710247879 
1054	 0.40518303898373 
1055	 0.405107551555878 
1056	 0.404733284739029 
1057	 0.404614036861087 
1058	 0.404439758197738 
1059	 0.404462911044898 
1060	 0.404521292340327 
1061	 0.404563470699837 
1062	 0.404582570949518 
1063	 0.40455446591437 
1064	 0.404588102311755 
1065	 0.404694925443611 
1066	 0.404642246344992 
1067	 0.404489893259594 
1068	 0.404400008714561 
1069	 0.404209916634319 
1070	 0.404099054494147 
1071	 0.40401435903478 
1072	 0.404002195138819 
1073	 0.403978587394263 
1074	 0.404096640926299 
1075	 0.40418614192799 
1076	 0.404108462138519 
1077	 0.404082678619356 
1078	 0.404091886119548 
1079	 0.404004478660611 
1080	 0.403969933561317 
1081	 0.403914046354555 
1082	 0.403852059630115 
1083	 0.403879092186162 
1084	 0.403848323330043 
1085	 0.403816663823659 
1086	 0.403778234752126 
1087	 0.40367236204449 
1088	 0.403588977716205 
1089	 0.403663378088051 
1090	 0.403740514545276 
1091	 0.403872427650034 
1092	 0.40399636417597 
1093	 0.404019238553269 
1094	 0.404071659595625 
1095	 0.404073920018033 
1096	 0.403918312081501 
1097	 0.403843330870416 
1098	 0.403875012596128 
1099	 0.403834278572999 
1100	 0.403965320178705 
1101	 0.404129956096336 
1102	 0.40413496364224 
1103	 0.404147335309537 
1104	 0.404151802247212 
1105	 0.404111765178135 
1106	 0.404076193833663 
1107	 0.404074840260502 
1108	 0.404043702418242 
1109	 0.404054931457069 
1110	 0.404031980102624 
1111	 0.403994665384241 
1112	 0.404106515435069 
1113	 0.404127741158379 
1114	 0.404122780471841 
1115	 0.404159658544088 
1116	 0.404083978360895 
1117	 0.404088220239895 
1118	 0.404107094062819 
1119	 0.404139355809166 
1120	 0.404203843541417 
1121	 0.404330996874771 
1122	 0.404389380635772 
1123	 0.404371309157394 
1124	 0.404432701670576 
1125	 0.404536052423373 
1126	 0.404599184097604 
1127	 0.404723362140442 
1128	 0.404767867451855 
1129	 0.404776093077759 
1130	 0.404776288758385 
1131	 0.404751575217168 
1132	 0.404899591208714 
1133	 0.404881628204165 
1134	 0.404727060048309 
1135	 0.404707334361559 
1136	 0.404686533895784 
1137	 0.404707139415238 
1138	 0.404881500151385 
1139	 0.404935215153437 
1140	 0.404949005765576 
1141	 0.404964615389536 
1142	 0.404925901549417 
1143	 0.404929492934807 
1144	 0.404981445784626 
1145	 0.404923631808437 
1146	 0.404870859878003 
1147	 0.404859098776438 
1148	 0.404744272592398 
1149	 0.404706954236107 
1150	 0.404726961970604 
1151	 0.404653745381669 
1152	 0.404616076176558 
1153	 0.404661438679205 
1154	 0.404603322605435 
1155	 0.4044443536051 
1156	 0.404376072964373 
1157	 0.40433529280804 
1158	 0.404268847799479 
1159	 0.404238923457781 
1160	 0.404163872713765 
1161	 0.40403217404468 
1162	 0.403955176247386 
1163	 0.403913339840489 
1164	 0.403837612245186 
1165	 0.403745473694463 
1166	 0.40359636165939 
1167	 0.403420165060383 
1168	 0.403299871842588 
1169	 0.40317419781854 
1170	 0.403066089081822 
1171	 0.402969744139771 
1172	 0.402866067590969 
1173	 0.402774223460559 
1174	 0.402749334976869 
1175	 0.402667629730317 
1176	 0.402552358458459 
1177	 0.402442662851981 
1178	 0.402316448130123 
1179	 0.402173038438985 
1180	 0.402063636836599 
1181	 0.401948622443347 
1182	 0.40177704091675 
1183	 0.401541884261051 
1184	 0.401280710760293 
1185	 0.401111884912258 
1186	 0.400979800655358 
1187	 0.400941587284665 
1188	 0.400839633842892 
1189	 0.40074457262275 
1190	 0.400626786322531 
1191	 0.40046735949474 
1192	 0.400361338767491 
1193	 0.400250777370519 
1194	 0.400192339015181 
1195	 0.400204076332534 
1196	 0.40018484724192 
1197	 0.400182884632369 
1198	 0.400186924109468 
1199	 0.400148256847879 
1200	 0.400062403531401 
1201	 0.399994183710371 
1202	 0.399978190920688 
1203	 0.400017191955393 
1204	 0.400090652680552 
1205	 0.400171478753698 
1206	 0.400282717853697 
1207	 0.400423569924108 
1208	 0.400545012917266 
1209	 0.400753713154295 
1210	 0.400999319874166 
1211	 0.401319259488128 
1212	 0.401748290840048 
1213	 0.402171944913001 
1214	 0.402634768722572 
1215	 0.403132696629489 
1216	 0.40361590727495 
1217	 0.404173710801426 
1218	 0.404811295521692 
1219	 0.405482820469866 
1220	 0.406106035525435 
1221	 0.406872195133024 
1222	 0.407638150901455 
1223	 0.408338463742022 
1224	 0.409024803898845 
1225	 0.409709145447189 
1226	 0.410378185702735 
1227	 0.411009561557545 
1228	 0.411637282325567 
1229	 0.412265817243807 
1230	 0.412904367581946 
1231	 0.413554762893795 
1232	 0.414130160394856 
1233	 0.414687569004933 
1234	 0.4152365591734 
1235	 0.415723643412668 
1236	 0.416199461770234 
1237	 0.416696628282337 
1238	 0.417153732405888 
1239	 0.417550807197689 
1240	 0.417942111897212 
1241	 0.418330371818294 
1242	 0.418688745287009 
1243	 0.419048649361697 
1244	 0.419377878694945 
1245	 0.419734440509327 
1246	 0.420110851274033 
1247	 0.420458444655831 
1248	 0.420796099187095 
1249	 0.421137690609173 
1250	 0.421452615409907 
1251	 0.421797008998037 
1252	 0.422166415949343 
1253	 0.422521177221249 
1254	 0.422888413274933 
1255	 0.423241672347585 
1256	 0.423610907506519 
1257	 0.423932051016679 
1258	 0.424229492958826 
1259	 0.42450260098288 
1260	 0.424700527256932 
1261	 0.424937467742644 
1262	 0.425161855701258 
1263	 0.425443473772934 
1264	 0.425665725263713 
1265	 0.425876486660682 
1266	 0.426123071263537 
1267	 0.426353218240488 
1268	 0.42659369384427 
1269	 0.426844496264936 
1270	 0.427157085251598 
1271	 0.427489989207485 
1272	 0.42781851682133 
1273	 0.428245973937341 
1274	 0.428583762311914 
1275	 0.428850345269353 
1276	 0.429133618219142 
1277	 0.42941914400084 
1278	 0.429676713757118 
1279	 0.429888815499033 
1280	 0.430135355062229 
1281	 0.430369903350675 
1282	 0.430621209609681 
1283	 0.430918697759464 
1284	 0.431192040749743 
1285	 0.431458072602216 
1286	 0.431706207388394 
1287	 0.431994238075197 
1288	 0.43228692656613 
1289	 0.432584785468892 
1290	 0.432948318997616 
1291	 0.43319682673129 
1292	 0.433382349520997 
1293	 0.433591609806695 
1294	 0.43372354053505 
1295	 0.433939166831776 
1296	 0.434196030632685 
1297	 0.434463968499731 
1298	 0.434795539094792 
1299	 0.435063711165749 
1300	 0.435318597812786 
1301	 0.435569745203567 
1302	 0.435752689123015 
1303	 0.435998032480023 
1304	 0.436272681402681 
1305	 0.436563076640956 
1306	 0.436929142482823 
1307	 0.437230970879979 
1308	 0.437516276941207 
1309	 0.437777307191077 
1310	 0.438050713400519 
1311	 0.438289207877726 
1312	 0.43854274794935 
1313	 0.438821496635794 
1314	 0.43907255275348 
1315	 0.439300757450519 
1316	 0.439527132934749 
1317	 0.439735922384113 
1318	 0.439976919620127 
1319	 0.440205512022707 
1320	 0.440468102130828 
1321	 0.440821556048151 
1322	 0.441062537618588 
1323	 0.441262399165222 
1324	 0.441453597357173 
1325	 0.441543895399847 
1326	 0.441714224688683 
1327	 0.441914912841645 
1328	 0.442129753595574 
1329	 0.442449248143075 
1330	 0.442648871646658 
1331	 0.442771679002891 
1332	 0.442925621249765 
1333	 0.443038505173201 
1334	 0.443118580199558 
1335	 0.443252888154672 
1336	 0.443439117113909 
1337	 0.443600813348415 
1338	 0.443759303512532 
1339	 0.443907047780747 
1340	 0.444079058801694 
1341	 0.444193592469206 
1342	 0.444286392775564 
1343	 0.444338817225457 
1344	 0.444333753754721 
1345	 0.444366271926166 
1346	 0.444374340268896 
1347	 0.444404217138102 
1348	 0.444475679426522 
1349	 0.444507688415823 
1350	 0.444554058402792 
1351	 0.444532292403061 
1352	 0.444423773403281 
1353	 0.444387185022334 
1354	 0.444347979498743 
1355	 0.444303773881689 
1356	 0.444343572873616 
1357	 0.444301759597683 
1358	 0.444138691395391 
1359	 0.444061099064528 
1360	 0.443998220218013 
1361	 0.443955867136717 
1362	 0.443915259699132 
1363	 0.443902129955943 
1364	 0.44385492762061 
1365	 0.443769214300301 
1366	 0.443702025453858 
1367	 0.443675329531035 
1368	 0.443556351306008 
1369	 0.443409586356741 
1370	 0.443208021950312 
1371	 0.442949929148504 
1372	 0.442663786051638 
1373	 0.442299870994471 
1374	 0.442005670658056 
1375	 0.441700042676632 
1376	 0.441409274418319 
1377	 0.441188862817806 
1378	 0.44088819751899 
1379	 0.440520906744006 
1380	 0.440195673828412 
1381	 0.439871849836484 
1382	 0.439529227295451 
1383	 0.439223030952373 
1384	 0.438861505662139 
1385	 0.438440904302321 
1386	 0.438028637330032 
1387	 0.437556967781864 
1388	 0.437155826491176 
1389	 0.436758433370929 
1390	 0.43642177526355 
1391	 0.436139290086049 
1392	 0.43589122527933 
1393	 0.435751577432141 
1394	 0.435605927623004 
1395	 0.435506364959268 
1396	 0.435486733716992 
1397	 0.435427512226509 
1398	 0.435405839486214 
1399	 0.435280727362182 
1400	 0.435164667170168 
1401	 0.434907443381868 
1402	 0.434547797934352 
1403	 0.434134496565174 
1404	 0.43364399908844 
1405	 0.433095883650782 
1406	 0.432480620158254 
1407	 0.431807918487299 
1408	 0.431004351154324 
1409	 0.430284372917083 
1410	 0.429555949212348 
1411	 0.428820499284583 
1412	 0.428098786815772 
1413	 0.427404383814734 
1414	 0.426673492127659 
1415	 0.426002574333915 
1416	 0.425376332499516 
1417	 0.424785670993831 
1418	 0.424248755500884 
1419	 0.423694668197751 
1420	 0.423161840601364 
1421	 0.422656092896269 
1422	 0.422162260256392 
1423	 0.421659514388492 
1424	 0.421193228000649 
1425	 0.420715565709222 
1426	 0.420172789133388 
1427	 0.419631757845539 
1428	 0.419130040016084 
1429	 0.418592756088462 
1430	 0.418062960986374 
1431	 0.41756608320244 
1432	 0.416996096437562 
1433	 0.416375468318223 
1434	 0.415781505106416 
1435	 0.415163043788587 
1436	 0.414552505153631 
1437	 0.413962312846202 
1438	 0.413340202875081 
1439	 0.412683947618293 
1440	 0.412058833955026 
1441	 0.411397217104307 
1442	 0.410824734242996 
1443	 0.410244493654638 
1444	 0.409806252212474 
1445	 0.409396493831242 
1446	 0.409200206667399 
1447	 0.409134124804464 
1448	 0.409224151596608 
1449	 0.409496825871842 
1450	 0.409883022869014 
1451	 0.410439924881127 
1452	 0.411054565044708 
1453	 0.411821259910631 
1454	 0.41260494952494 
1455	 0.413474359232009 
1456	 0.414350767734124 
1457	 0.415289822067188 
1458	 0.416219767304866 
1459	 0.417189559886146 
1460	 0.418121923081897 
1461	 0.419086084401386 
1462	 0.419969909848177 
1463	 0.420751686632783 
1464	 0.421571455556054 
1465	 0.422333916044805 
1466	 0.423157500060493 
1467	 0.423988068911567 
1468	 0.424827142438156 
1469	 0.42565103504705 
1470	 0.426403574995907 
1471	 0.427168909461936 
1472	 0.427924926222936 
1473	 0.428652501648373 
1474	 0.429382705040669 
1475	 0.430028407519951 
1476	 0.43061936906616 
1477	 0.431208484929021 
1478	 0.431751149255658 
1479	 0.432263168144651 
1480	 0.432788853342692 
1481	 0.433214094958924 
1482	 0.43352797749435 
1483	 0.433898794303942 
1484	 0.434252652788317 
1485	 0.434583659184774 
1486	 0.434918701926032 
1487	 0.435234186457304 
1488	 0.435493989510789 
1489	 0.435790442412218 
1490	 0.436070979007923 
1491	 0.4364266582397 
1492	 0.43678110518166 
1493	 0.437232466424081 
1494	 0.437794575339929 
1495	 0.438341811993918 
1496	 0.43893688193497 
1497	 0.439541806581246 
1498	 0.4401647045422 
1499	 0.440797572206888 
1500	 0.441488673342731 
1501	 0.442123032877735 
1502	 0.442724638715357 
1503	 0.443338083228643 
1504	 0.443932358703161 
1505	 0.444526627332077 
1506	 0.445187718067917 
1507	 0.445741226355265 
1508	 0.446228988875293 
1509	 0.446695472825526 
1510	 0.447055232341946 
1511	 0.447457281409743 
1512	 0.447894924896786 
1513	 0.448284595263503 
1514	 0.448674542637304 
1515	 0.44902672289706 
1516	 0.449311393110054 
1517	 0.449604884652385 
1518	 0.449917648796344 
1519	 0.450169845645345 
1520	 0.450387503714948 
1521	 0.450587707762608 
1522	 0.450701123669327 
1523	 0.450841805024049 
1524	 0.450995426929211 
1525	 0.45116161231855 
1526	 0.451298293259326 
1527	 0.451450806519103 
1528	 0.451545534776919 
1529	 0.451578156759428 
1530	 0.451676971163663 
1531	 0.451770706248189 
1532	 0.451890085376238 
1533	 0.452072147195243 
1534	 0.452172794254988 
1535	 0.452245406449491 
1536	 0.452313596578836 
1537	 0.452303995010722 
1538	 0.452428071611562 
1539	 0.452590720508746 
1540	 0.452799986340108 
1541	 0.453086559311409 
1542	 0.453392011585369 
1543	 0.453730573383595 
1544	 0.454084674696306 
1545	 0.45448022655503 
1546	 0.45489617649966 
1547	 0.45534362074158 
1548	 0.455769074475503 
1549	 0.456222612676855 
1550	 0.456659198159271 
1551	 0.457042113297709 
1552	 0.457501969441536 
1553	 0.458042634918153 
1554	 0.45849479628455 
1555	 0.458925453607618 
1556	 0.459379237873257 
1557	 0.459790540108573 
1558	 0.460227451497283 
1559	 0.460731518655379 
1560	 0.461167153558409 
1561	 0.461552381509104 
1562	 0.461951652597314 
1563	 0.462334763073719 
1564	 0.462724740498973 
1565	 0.46313305420161 
1566	 0.463499438480289 
1567	 0.463832442306608 
1568	 0.46418844329225 
1569	 0.464545987762551 
1570	 0.464871500850819 
1571	 0.465206882669446 
1572	 0.465512393241186 
1573	 0.465737185893594 
1574	 0.466030491128176 
1575	 0.466342634018287 
1576	 0.466676535443599 
1577	 0.467075222703871 
1578	 0.467420486748098 
1579	 0.467749792247867 
1580	 0.468082292182403 
1581	 0.468361877743553 
1582	 0.468703484973158 
1583	 0.469116201727784 
1584	 0.469470419615795 
1585	 0.469814317630193 
1586	 0.470168765909797 
1587	 0.470513565598595 
1588	 0.470827501417295 
1589	 0.471136815571568 
1590	 0.471449591010447 
1591	 0.471695482689307 
1592	 0.47200608962584 
1593	 0.472386590199146 
1594	 0.472733561906556 
1595	 0.473107998156306 
1596	 0.473438288527295 
1597	 0.473728005288614 
1598	 0.474024647503773 
1599	 0.474280549788834 
1600	 0.474577454907868 
1601	 0.474912196673776 
1602	 0.475221187865944 
1603	 0.475537693653658 
1604	 0.475842078351411 
1605	 0.476130061204811 
1606	 0.476411207524973 
1607	 0.476696641194267 
1608	 0.47696107164672 
1609	 0.477186474880246 
1610	 0.477437272266109 
1611	 0.47768841864219 
1612	 0.477949989565514 
1613	 0.47825015419409 
1614	 0.47850936703013 
1615	 0.47875094691289 
1616	 0.478987612453873 
1617	 0.479211488628686 
1618	 0.479413347221652 
1619	 0.479590200970935 
1620	 0.479773536903647 
1621	 0.479900500363117 
1622	 0.480102905115921 
1623	 0.480402215242449 
1624	 0.480619303522487 
1625	 0.480831142471152 
1626	 0.481032256793858 
1627	 0.481181147961844 
1628	 0.481324114171809 
1629	 0.481493385026447 
1630	 0.48161485721688 
1631	 0.481636636000256 
1632	 0.481741725012462 
1633	 0.481857362979013 
1634	 0.482008786360668 
1635	 0.482250802810457 
1636	 0.482440990197893 
1637	 0.482651548870543 
1638	 0.482804280954444 
1639	 0.48286173793554 
1640	 0.482997327605249 
1641	 0.483179226482713 
1642	 0.483299073398416 
1643	 0.483429538645761 
1644	 0.483552765585286 
1645	 0.483596049361922 
1646	 0.483676410926442 
1647	 0.483861499477935 
1648	 0.483913774765597 
1649	 0.483901021154337 
1650	 0.483860740490956 
1651	 0.483712374193816 
1652	 0.483609501391435 
1653	 0.483533619411996 
1654	 0.483395365434715 
1655	 0.4832410780733 
1656	 0.483049943537476 
1657	 0.482831592473749 
1658	 0.48254611574612 
1659	 0.482203674905214 
1660	 0.481845631329284 
1661	 0.481429150868218 
1662	 0.480987753257738 
1663	 0.480532128557217 
1664	 0.480045778309893 
1665	 0.479530447676971 
1666	 0.478958080488704 
1667	 0.478383342421466 
1668	 0.477705919039812 
1669	 0.47697280288464 
1670	 0.476126336148907 
1671	 0.475164382070616 
1672	 0.474154240347715 
1673	 0.473074270107468 
1674	 0.471874022288177 
1675	 0.470601322253488 
1676	 0.469239818844671 
1677	 0.467715567079838 
1678	 0.466219667485996 
1679	 0.464664033204258 
1680	 0.463115553512393 
1681	 0.461593004896779 
1682	 0.459928117440803 
1683	 0.458309996921746 
1684	 0.456412113004536 
1685	 0.454314156443777 
1686	 0.452149150692996 
1687	 0.44971023356438 
1688	 0.447354776409985 
1689	 0.444999204644143 
1690	 0.442506510897324 
1691	 0.439971944394962 
1692	 0.437438411114441 
1693	 0.434807205989147 
1694	 0.432175998544577 
1695	 0.429537919136511 
1696	 0.426843791263426 
1697	 0.424159287793052 
1698	 0.421241753542816 
1699	 0.418238033374698 
1700	 0.415204816395757 
1701	 0.41190263829533 
1702	 0.40884777141281 
1703	 0.405832325635196 
1704	 0.402924522439948 
1705	 0.400073958895006 
1706	 0.397291204195033 
1707	 0.394820275218216 
1708	 0.392506880917168 
1709	 0.390318379324828 
1710	 0.388271875448091 
1711	 0.386309345348986 
1712	 0.384480648767808 
1713	 0.382639523383639 
1714	 0.380869140744139 
1715	 0.379248074956879 
1716	 0.377654965980444 
1717	 0.376256599900961 
1718	 0.374986899287297 
1719	 0.373748954652272 
1720	 0.372666099781398 
1721	 0.371605061199689 
1722	 0.370622485188276 
1723	 0.36983729144828 
1724	 0.369043857630812 
1725	 0.368374247695002 
1726	 0.367964745116961 
1727	 0.367760509651108 
1728	 0.367780849139213 
1729	 0.368091037819755 
1730	 0.368734857957574 
1731	 0.369587462633677 
1732	 0.370796290909015 
1733	 0.372189425790398 
1734	 0.373636678232881 
1735	 0.375271656816957 
1736	 0.376891419052095 
1737	 0.378468918665137 
1738	 0.380008781136648 
1739	 0.381251841260832 
1740	 0.38229728655609 
1741	 0.38313310927969 
1742	 0.38379863448358 
1743	 0.384185330100884 
1744	 0.384262468824064 
1745	 0.38426033312946 
1746	 0.383967809442191 
1747	 0.383717789235677 
1748	 0.383375943380328 
1749	 0.383044267361276 
1750	 0.382569517682794 
1751	 0.382316685342525 
1752	 0.382167195352944 
1753	 0.382021667408663 
1754	 0.381984051656897 
1755	 0.382016095464414 
1756	 0.38200201394809 
1757	 0.382202453395237 
1758	 0.382594627960558 
1759	 0.383164800587569 
1760	 0.383889358208382 
1761	 0.38484255497256 
1762	 0.385853571192256 
1763	 0.386984764305755 
1764	 0.388287404344935 
1765	 0.389736357114224 
1766	 0.391420118773456 
1767	 0.393170264682922 
1768	 0.395097685867479 
1769	 0.397105435885723 
1770	 0.399013115776225 
1771	 0.400982487459548 
1772	 0.402775333766885 
1773	 0.404550478410562 
1774	 0.406420033401719 
1775	 0.408090670239293 
1776	 0.409710349981622 
1777	 0.411095650539096 
1778	 0.412345474785848 
1779	 0.413659342660435 
1780	 0.414830791415903 
1781	 0.416004520803017 
1782	 0.417081991474468 
1783	 0.418005746006324 
1784	 0.418952808879896 
1785	 0.419810570405041 
1786	 0.42054482818017 
1787	 0.421131720039633 
1788	 0.421763084576913 
1789	 0.422343858238221 
1790	 0.422934627642507 
1791	 0.423513478973182 
1792	 0.424074598052451 
1793	 0.424615318846243 
1794	 0.4251623016734 
1795	 0.425647215707567 
1796	 0.426076456068143 
1797	 0.426581058137628 
1798	 0.427001249731882 
1799	 0.427446482182345 
1800	 0.427922119879333 
1801	 0.425507086244877 
1802	 0.425866237993306 
1803	 0.426259734656048 
1804	 0.426576757866639 
1805	 0.426966218568424 
1806	 0.427444988483202 
1807	 0.428073920376351 
1808	 0.428535331426444 
1809	 0.429019312262361 
1810	 0.429450543302434 
1811	 0.429743687462649 
1812	 0.430117941681725 
1813	 0.430527546401247 
1814	 0.430935255071091 
1815	 0.431330624149009 
1816	 0.431765754509115 
1817	 0.432257126018981 
1818	 0.432866679800861 
1819	 0.433334048167771 
1820	 0.433715666929438 
1821	 0.434208063329296 
1822	 0.434689766550035 
1823	 0.435200064250353 
1824	 0.435732690916383 
1825	 0.436304467112725 
1826	 0.436779355035868 
1827	 0.437120447910942 
1828	 0.437561299483444 
1829	 0.438069782780067 
1830	 0.438469932492366 
1831	 0.438811927867854 
1832	 0.439191208015986 
1833	 0.439542054293789 
1834	 0.439997998917322 
1835	 0.440514097192038 
1836	 0.440861956530199 
1837	 0.441237554697758 
1838	 0.441506044259243 
1839	 0.441880966670963 
1840	 0.442328128051354 
1841	 0.442765368324625 
1842	 0.443240534705069 
1843	 0.443681728221172 
1844	 0.444126822885635 
1845	 0.444448459589038 
1846	 0.444829674002961 
1847	 0.445253325123844 
1848	 0.445569791090796 
1849	 0.445863446480314 
1850	 0.446107378893112 
1851	 0.446285408219087 
1852	 0.446403173054857 
1853	 0.446520517620227 
1854	 0.44664258765101 
1855	 0.446763857183234 
1856	 0.446842599756706 
1857	 0.446850828986254 
1858	 0.446814540599781 
1859	 0.44670597681915 
1860	 0.446481483580276 
1861	 0.446239791064447 
1862	 0.445929500408432 
1863	 0.445667061075973 
1864	 0.445353156866545 
1865	 0.445021547696134 
1866	 0.444690936187056 
1867	 0.444197294298659 
1868	 0.443568378492107 
1869	 0.44289198527288 
1870	 0.442122511461072 
1871	 0.441197304716497 
1872	 0.440306405172911 
1873	 0.439384609372408 
1874	 0.438426493315742 
1875	 0.43746882327781 
1876	 0.436438162647948 
1877	 0.43528371413053 
1878	 0.434024759214455 
1879	 0.432669711623398 
1880	 0.431244270215254 
1881	 0.429727652174093 
1882	 0.428133659143722 
1883	 0.426481904223757 
1884	 0.42465853816304 
1885	 0.422633575501745 
1886	 0.420650897754417 
1887	 0.418507768721462 
1888	 0.416215535991965 
1889	 0.414123182528545 
1890	 0.41184601315022 
1891	 0.409464171681516 
1892	 0.40715384007357 
1893	 0.4047610782795 
1894	 0.402234366243596 
1895	 0.399785331764215 
1896	 0.397320915004192 
1897	 0.394803651377416 
1898	 0.392401628897828 
1899	 0.389903178161552 
1900	 0.387470137694668 
1901	 0.385183120360034 
1902	 0.382830336974707 
1903	 0.380630698417545 
1904	 0.378484691586526 
1905	 0.376405589656109 
1906	 0.374365505345435 
1907	 0.372505107607328 
1908	 0.370613638875701 
1909	 0.368862383959307 
1910	 0.367179910440457 
1911	 0.365405598478858 
1912	 0.363780557240365 
1913	 0.362174645335011 
1914	 0.360677620165768 
1915	 0.359298039336808 
1916	 0.358107094519055 
1917	 0.35685350390283 
1918	 0.355611925308433 
1919	 0.354310540811004 
1920	 0.352918235101568 
1921	 0.35166152164813 
1922	 0.350367468732192 
1923	 0.349112567564942 
1924	 0.347990148482492 
1925	 0.346766863677819 
1926	 0.345623998039242 
1927	 0.344582842121973 
1928	 0.34353154048004 
1929	 0.342472545814149 
1930	 0.341454235153614 
1931	 0.340503305088075 
1932	 0.339566132264606 
1933	 0.338672802226508 
1934	 0.33793801602274 
1935	 0.337341363216696 
1936	 0.336780131683519 
1937	 0.336285783007641 
1938	 0.335871642274944 
1939	 0.335573629598726 
1940	 0.335323653064177 
1941	 0.335191646148179 
1942	 0.335240737348161 
1943	 0.335382257992312 
1944	 0.335576733929572 
1945	 0.335793406801755 
1946	 0.336094000482399 
1947	 0.336462604747506 
1948	 0.336896819568475 
1949	 0.337452512697379 
1950	 0.33809252794225 
1951	 0.338856955385949 
1952	 0.339636504401775 
1953	 0.340442490910531 
1954	 0.341411771782734 
1955	 0.342470744666909 
1956	 0.343505630954205 
1957	 0.344646212731313 
1958	 0.345802179531968 
1959	 0.346827628007031 
1960	 0.347851409803755 
1961	 0.348812651935357 
1962	 0.349709069835296 
1963	 0.350555238570358 
1964	 0.351394597801642 
1965	 0.352125160849721 
1966	 0.352776131202447 
1967	 0.353359342125229 
1968	 0.353889882828845 
1969	 0.354358887977445 
1970	 0.354889512138144 
1971	 0.355455076270598 
1972	 0.355973100106558 
1973	 0.356517736863049 
1974	 0.3570790007639 
1975	 0.35759700537399 
1976	 0.358203730108971 
1977	 0.358896148722313 
1978	 0.359559129086232 
1979	 0.360224156698945 
1980	 0.360933902772094 
1981	 0.361668369569031 
1982	 0.362434998621645 
1983	 0.363286756915276 
1984	 0.364118884684367 
1985	 0.364864013236675 
1986	 0.365626367072386 
1987	 0.366453273665381 
1988	 0.367217283749219 
1989	 0.368157365367256 
1990	 0.369200939720505 
1991	 0.370318624139175 
1992	 0.371504465903366 
1993	 0.372873883006767 
1994	 0.374221772267609 
1995	 0.375688394325895 
1996	 0.377153454453162 
1997	 0.378536533595151 
1998	 0.379988104611497 
1999	 0.381474610409746 
2000	 0.38291571131257 
2001	 0.384437927344797 
2002	 0.385811552927278 
2003	 0.387080561041403 
2004	 0.388359713684506 
2005	 0.389594624259312 
2006	 0.390779892854724 
2007	 0.392012402272894 
2008	 0.393071819286782 
2009	 0.394008955307698 
2010	 0.394851736230341 
2011	 0.395551106311769 
2012	 0.396317149978624 
2013	 0.397019543631884 
2014	 0.397689839923249 
2015	 0.398321451144561 
2016	 0.398942732814102 
2017	 0.399450658379486 
2018	 0.399877109327228 
2019	 0.400304575730464 
2020	 0.400650373066719 
2021	 0.400983828502636 
2022	 0.401358996867993 
2023	 0.401655434887909 
2024	 0.401936969451708 
2025	 0.402198742253801 
2026	 0.402362052562421 
2027	 0.402466067703138 
2028	 0.402526547848693 
2029	 0.402445759673679 
2030	 0.402449390836906 
2031	 0.402461189331821 
2032	 0.402461410579892 
2033	 0.402508079180635 
2034	 0.402493043390272 
2035	 0.402424838168744 
2036	 0.402365103435913 
2037	 0.402300290928564 
2038	 0.402192414819478 
2039	 0.402058671434072 
2040	 0.401881161742667 
2041	 0.401742136308315 
2042	 0.401569457966169 
2043	 0.401447632413022 
2044	 0.401402427436811 
2045	 0.401299699156357 
2046	 0.401181515679648 
2047	 0.401054670605609 
2048	 0.40088016009122 
2049	 0.400739583835649 
2050	 0.400597336273059 
2051	 0.400498352407051 
2052	 0.40038037642391 
2053	 0.400311508710072 
2054	 0.400216575238673 
2055	 0.400108397616505 
2056	 0.400018864617644 
2057	 0.399912008022141 
2058	 0.399865468128282 
2059	 0.399930356608329 
2060	 0.399859669385752 
2061	 0.399762327635735 
2062	 0.399644315149413 
2063	 0.399366653388232 
2064	 0.399200862194624 
2065	 0.399072758199893 
2066	 0.399030670898054 
2067	 0.398932777283755 
2068	 0.398829815284916 
2069	 0.398687206050782 
2070	 0.39846519035271 
2071	 0.398318975075222 
2072	 0.398196617389875 
2073	 0.398074745343258 
2074	 0.398013127756252 
2075	 0.39786947696291 
2076	 0.3976550794488 
2077	 0.397487489700727 
2078	 0.397275681614707 
2079	 0.397130784845065 
2080	 0.397086222592411 
2081	 0.396983039805485 
2082	 0.396903063121754 
2083	 0.396760230488652 
2084	 0.396586634147118 
2085	 0.396462043187389 
2086	 0.396257377553165 
2087	 0.396008162724824 
2088	 0.395782983011224 
2089	 0.395482829579651 
2090	 0.395260761812683 
2091	 0.395127557531011 
2092	 0.394927305839975 
2093	 0.394763529558416 
2094	 0.39451692998807 
2095	 0.394122058924454 
2096	 0.393848221700797 
2097	 0.393615895768164 
2098	 0.393367045412237 
2099	 0.393110052948529 
2100	 0.392895085111444 
2101	 0.392609767716743 
2102	 0.392240620881594 
2103	 0.391883768158533 
2104	 0.391513290790336 
2105	 0.391164551181223 
2106	 0.390770938468856 
2107	 0.390439135603873 
2108	 0.390240535149161 
2109	 0.38988001054556 
2110	 0.389451478876006 
2111	 0.389012510621466 
2112	 0.388500822418634 
2113	 0.387964580711228 
2114	 0.387370156938565 
2115	 0.386823879279846 
2116	 0.386261644080234 
2117	 0.385695104944375 
2118	 0.385145045546451 
2119	 0.38465134557411 
2120	 0.384130669702477 
2121	 0.383539369887982 
2122	 0.383065370141718 
2123	 0.382638569021919 
2124	 0.382273278038835 
2125	 0.381996780523004 
2126	 0.381705344920533 
2127	 0.381492736704865 
2128	 0.381216514443904 
2129	 0.380866588841637 
2130	 0.38061665951859 
2131	 0.380391859436786 
2132	 0.380185293475206 
2133	 0.380036771421074 
2134	 0.379923375472807 
2135	 0.379838205426332 
2136	 0.379651048745522 
2137	 0.379543271279106 
2138	 0.379451362683534 
2139	 0.379425804352432 
2140	 0.379487460354914 
2141	 0.379443402466332 
2142	 0.37941688046414 
2143	 0.379349724803986 
2144	 0.379154704353336 
2145	 0.379065564073264 
2146	 0.37904058949703 
2147	 0.379001040362468 
2148	 0.378921194999093 
2149	 0.378949845592338 
2150	 0.379033651094705 
2151	 0.379137876567572 
2152	 0.379354722377037 
2153	 0.379546341262852 
2154	 0.379686607755601 
2155	 0.379834492579249 
2156	 0.379912845040712 
2157	 0.379954460350824 
2158	 0.379955716975145 
2159	 0.379861694634359 
2160	 0.3798804878024 
2161	 0.379966362247406 
2162	 0.379911962744714 
2163	 0.379845610638097 
2164	 0.379745562373148 
2165	 0.379514692955002 
2166	 0.379341804320105 
2167	 0.379260953846091 
2168	 0.37906986333809 
2169	 0.37877815620473 
2170	 0.378512854451089 
2171	 0.378158758033645 
2172	 0.377895924429969 
2173	 0.377694815114897 
2174	 0.377491953812251 
2175	 0.377260130135552 
2176	 0.377154396283254 
2177	 0.37702472560019 
2178	 0.376906139903181 
2179	 0.376772936950857 
2180	 0.376678384040617 
2181	 0.376547778396659 
2182	 0.376342514357479 
2183	 0.376248048062198 
2184	 0.376226406854599 
2185	 0.376156056211057 
2186	 0.376178535865415 
2187	 0.37604515325533 
2188	 0.375844461446943 
2189	 0.375575612372832 
2190	 0.375099158877864 
2191	 0.374795608884962 
2192	 0.374591014251566 
2193	 0.374278922407512 
2194	 0.374007240535945 
2195	 0.37368637444259 
2196	 0.373238893831411 
2197	 0.372797862298982 
2198	 0.372365753884009 
2199	 0.37202487749827 
2200	 0.371647689913409 
2201	 0.37130709560764 
2202	 0.370802813441387 
2203	 0.370280202417741 
2204	 0.3696434813132 
2205	 0.368794871881431 
2206	 0.368092243739104 
2207	 0.367418149444136 
2208	 0.366706490388076 
2209	 0.366001846623319 
2210	 0.365290287473929 
2211	 0.364527386160596 
2212	 0.363816320752495 
2213	 0.363153196855924 
2214	 0.362480548167198 
2215	 0.361813779902972 
2216	 0.361132806800756 
2217	 0.360473956930417 
2218	 0.359776028853728 
2219	 0.358995670412262 
2220	 0.358315859442015 
2221	 0.357703311386537 
2222	 0.357034286826533 
2223	 0.356352879155845 
2224	 0.35578866927101 
2225	 0.355225514391978 
2226	 0.354497008327565 
2227	 0.3537430075796 
2228	 0.353025189242414 
2229	 0.352133234193867 
2230	 0.351088702779868 
2231	 0.350026457394897 
2232	 0.348925716757518 
2233	 0.347653558185129 
2234	 0.346297147467898 
2235	 0.344791044268389 
2236	 0.3431540877481 
2237	 0.341382625939175 
2238	 0.339419306715812 
2239	 0.337400299727605 
2240	 0.335260067762151 
2241	 0.333024704350523 
2242	 0.330789144952581 
2243	 0.328304124615603 
2244	 0.325549086711452 
2245	 0.322810808631027 
2246	 0.319914968093044 
2247	 0.316961894624167 
2248	 0.314042162609151 
2249	 0.310932833178579 
2250	 0.307594854290381 
2251	 0.304286700265353 
2252	 0.300762083543942 
2253	 0.297378093612016 
2254	 0.294061322305533 
2255	 0.29067392133465 
2256	 0.287599501487187 
2257	 0.284494449828695 
2258	 0.281390949639858 
2259	 0.278441999192316 
2260	 0.275259054347569 
2261	 0.271895501950101 
2262	 0.268723652959073 
2263	 0.265375844029685 
2264	 0.262398450829802 
2265	 0.259755353699283 
2266	 0.256968034348742 
2267	 0.254371555546796 
2268	 0.251640785335437 
2269	 0.248686473852611 
2270	 0.246057120387744 
2271	 0.243574314342139 
2272	 0.241090385886445 
2273	 0.238842243974651 
2274	 0.236439064910023 
2275	 0.234026369093656 
2276	 0.231508842833356 
2277	 0.228875267146329 
2278	 0.226312482845212 
2279	 0.223619390673031 
2280	 0.221027682508106 
2281	 0.218589241912506 
2282	 0.216071107705546 
2283	 0.213614604919053 
2284	 0.211029796656155 
2285	 0.208264934226365 
2286	 0.205443409159811 
2287	 0.202342943453381 
2288	 0.199214672565348 
2289	 0.19629056553836 
2290	 0.193269186957559 
2291	 0.190342085452788 
2292	 0.18734865519284 
2293	 0.184036651473018 
2294	 0.18079724107712 
2295	 0.17736499880477 
2296	 0.17397809683939 
2297	 0.17107084752484 
2298	 0.168359274873123 
2299	 0.16588837791767 
2300	 0.163838668747094 
2301	 0.161959010172157 
2302	 0.160153555245132 
2303	 0.158896695059865 
2304	 0.158089696634245 
2305	 0.157576285028235 
2306	 0.157362412075805 
2307	 0.157663597608193 
2308	 0.158395192222859 
2309	 0.159498065390522 
2310	 0.161193803676117 
2311	 0.163034521690492 
2312	 0.165367344908186 
2313	 0.167607908472019 
2314	 0.170090016295978 
2315	 0.172571501363595 
2316	 0.175067804253746 
2317	 0.177621211036372 
2318	 0.180486848144595 
2319	 0.182904962129355 
2320	 0.185358318533278 
2321	 0.187311715257264 
2322	 0.188741902823326 
2323	 0.190119602972293 
2324	 0.191179670362477 
2325	 0.192096742000436 
2326	 0.193019723913592 
2327	 0.193496766138392 
2328	 0.193614753624982 
2329	 0.193546571751489 
2330	 0.193027523689152 
2331	 0.192501082369528 
2332	 0.191952064154394 
2333	 0.191071035579679 
2334	 0.190066399253036 
2335	 0.18880174729548 
2336	 0.18738683032623 
2337	 0.185844409964581 
2338	 0.184255578803085 
2339	 0.182424112781625 
2340	 0.180499144726478 
2341	 0.178732659486438 
2342	 0.176788918746442 
2343	 0.175147638895299 
2344	 0.173718815332284 
2345	 0.172163533231356 
2346	 0.171327667730813 
2347	 0.170918224429091 
2348	 0.170493101459238 
2349	 0.170814932712604 
2350	 0.171607819969261 
2351	 0.172672042773738 
2352	 0.174180156862791 
2353	 0.175898895283335 
2354	 0.177480957533153 
2355	 0.179087248190432 
2356	 0.180740664264244 
2357	 0.182418878249966 
2358	 0.184206393539676 
2359	 0.185469429090457 
2360	 0.186375814993263 
2361	 0.187011399831495 
2362	 0.18722802161966 
2363	 0.187380301149187 
2364	 0.187533348994721 
2365	 0.187613388810025 
2366	 0.187436010231483 
2367	 0.187226873921701 
2368	 0.186997733999584 
2369	 0.186666606372011 
2370	 0.186655430496294 
2371	 0.186655528317079 
2372	 0.186790878602496 
2373	 0.187049331477958 
2374	 0.186756763454756 
2375	 0.186384707746145 
2376	 0.186071988313892 
2377	 0.185744230249835 
2378	 0.185755936922576 
2379	 0.185654339833052 
2380	 0.185496946622424 
2381	 0.185442535142138 
2382	 0.185387225356738 
2383	 0.185436536930842 
2384	 0.185447809121954 
2385	 0.185451913135609 
2386	 0.185377219319495 
2387	 0.185183646364089 
2388	 0.185153435849351 
2389	 0.185223944865679 
2390	 0.185246518853807 
2391	 0.185392869714316 
2392	 0.185362236581584 
2393	 0.18502537276037 
2394	 0.185009127833979 
2395	 0.185078405073496 
2396	 0.185294565673786 
2397	 0.185779211123736 
2398	 0.186048030013649 
2399	 0.186472882930881 
2400	 0.186644929399534 
2401	 0.186598205943803 
2402	 0.186681763744296 
2403	 0.186386537931389 
2404	 0.186253200648633 
2405	 0.1863630222353 
2406	 0.186551420777096 
2407	 0.186725392519827 
2408	 0.186731497200144 
2409	 0.186337502651162 
2410	 0.185549805111673 
2411	 0.184927555239478 
2412	 0.184826519485847 
2413	 0.185276490577671 
2414	 0.185955596857857 
2415	 0.186437633487735 
2416	 0.186440710810823 
2417	 0.186206712792112 
2418	 0.186470395905362 
2419	 0.186823231351832 
2420	 0.186776079950552 
2421	 0.186851999963609 
2422	 0.18662632032351 
2423	 0.186173629250243 
2424	 0.18617591259266 
2425	 0.186201514378959 
2426	 0.186389164279027 
2427	 0.18680545806737 
2428	 0.18674914950309 
2429	 0.186610131800754 
2430	 0.186760752522145 
2431	 0.186468187921125 
2432	 0.186480409764968 
2433	 0.186855504881555 
2434	 0.186784453308513 
2435	 0.18708478620128 
2436	 0.186998484972781 
2437	 0.186605986303772 
2438	 0.186518096974284 
2439	 0.186407805238412 
2440	 0.186701947996697 
2441	 0.186707496249849 
2442	 0.186544320087519 
2443	 0.186506196959292 
2444	 0.186274462072279 
2445	 0.186584154246466 
2446	 0.186431008453475 
2447	 0.185223430665338 
2448	 0.185000031436129 
2449	 0.185237754383023 
2450	 0.185582512220711 
2451	 0.186864223642876 
2452	 0.187505824501099 
2453	 0.187555205566827 
2454	 0.187320224677708 
2455	 0.186905920174513 
2456	 0.186992422180216 
2457	 0.186367577232551 
2458	 0.186020216246697 
2459	 0.186421937853993 
2460	 0.185968543045501 
2461	 0.185850670893532 
2462	 0.185771546595302 
2463	 0.185139381472893 
2464	 0.185129383268194 
2465	 0.185132351609027 
2466	 0.185500433869352 
2467	 0.186167645804817 
2468	 0.18599836729456 
2469	 0.185504834147007 
2470	 0.185262909276581 
2471	 0.185065449622877 
2472	 0.185348847499566 
2473	 0.186396577544636 
2474	 0.187021029876822 
2475	 0.187597773420568 
2476	 0.188078286642452 
2477	 0.187937076356662 
2478	 0.187861170493112 
2479	 0.187365362209504 
2480	 0.186393384475859 
2481	 0.186212540995532 
2482	 0.186232117453749 
2483	 0.18683258540907 
2484	 0.18792831242352 
2485	 0.188941173444558 
2486	 0.19040256445185 
2487	 0.192149506283217 
2488	 0.193190870750787 
2489	 0.193882220261421 
2490	 0.194776327966459 
2491	 0.195450430980381 
2492	 0.194990057742051 
2493	 0.194564323835138 
2494	 0.194435758752559 
2495	 0.19401053799868 
2496	 0.195330692518028 
2497	 0.196884251994844 
2498	 0.197477843954022 
2499	 0.198652276624871 
2500	 0.199481373425585 
