Wavelength	Tablay400031.asd
350	 0.146397772659099 
351	 0.235285752531961 
352	 0.192882088509881 
353	 2.54999142468253E-02 
354	 0.104012333200525 
355	 0.135703527929459 
356	 0.13543256249682 
357	 0.14724514534187 
358	 7.50359353320137E-02 
359	 6.07968114932692E-02 
360	 0.11641758974363 
361	 0.174407394424763 
362	 0.206049175050317 
363	 0.178062142013863 
364	 0.104629551026502 
365	 4.43194772039035E-02 
366	 1.79518786720748E-02 
367	 3.48085275526334E-02 
368	 8.18319749593458E-02 
369	 0.122478142717636 
370	 0.141538869458315 
371	 0.139599120284206 
372	 0.126461466904278 
373	 0.122296834772471 
374	 0.123723567531976 
375	 0.117528570869316 
376	 7.97839931707252E-02 
377	 8.56596342678528E-02 
378	 0.10607024435253 
379	 9.86205938196357E-02 
380	 7.48992679559278E-02 
381	 6.91304913219027E-02 
382	 8.53294181292948E-02 
383	 0.104304709194657 
384	 0.10256146364029 
385	 0.100642791789752 
386	 0.100573057134582 
387	 6.64349761976514E-02 
388	 8.05435822660477E-02 
389	 0.101374526090691 
390	 8.28532955959118E-02 
391	 8.41799804191379E-02 
392	 7.95405796956607E-02 
393	 7.38500742987414E-02 
394	 8.80479205694476E-02 
395	 8.61073103866473E-02 
396	 7.19578480903109E-02 
397	 6.20806234118664E-02 
398	 8.31491981641136E-02 
399	 9.33816324290909E-02 
400	 8.77814770793692E-02 
401	 7.52617688595909E-02 
402	 0.065709204078028 
403	 6.37186238455947E-02 
404	 6.81667792214304E-02 
405	 7.35687123918019E-02 
406	 6.96232023116877E-02 
407	 6.71962383788072E-02 
408	 6.98885833216961E-02 
409	 6.12286677332544E-02 
410	 6.29174150513451E-02 
411	 7.52391217145437E-02 
412	 8.69763367722123E-02 
413	 6.91326193334982E-02 
414	 5.44420226626723E-02 
415	 5.53801103478694E-02 
416	 6.32889152853172E-02 
417	 7.27472879428818E-02 
418	 7.02197929177596E-02 
419	 5.56247621427524E-02 
420	 6.23689234023806E-02 
421	 6.20093664845779E-02 
422	 5.69436332794351E-02 
423	 5.93651424331369E-02 
424	 6.11912557061707E-02 
425	 5.99239275989115E-02 
426	 5.66596167880957E-02 
427	 5.57509671471053E-02 
428	 5.66563120627232E-02 
429	 5.78965698449951E-02 
430	 5.82234483673577E-02 
431	 5.77840043248028E-02 
432	 5.60422445747537E-02 
433	 5.57186803189578E-02 
434	 5.98952031460213E-02 
435	 5.86178470507962E-02 
436	 5.90263164779167E-02 
437	 6.30312437550609E-02 
438	 6.23787481727679E-02 
439	 5.63287319734854E-02 
440	 5.23044853496475E-02 
441	 5.60849845656165E-02 
442	 5.73347607479756E-02 
443	 5.59768479393191E-02 
444	 5.50168957095636E-02 
445	 5.87216703761004E-02 
446	 5.62679389678094E-02 
447	 5.21835873736315E-02 
448	 5.14116645672354E-02 
449	 5.53298910818219E-02 
450	 5.58853138099794E-02 
451	 5.46407774155029E-02 
452	 5.57175447022172E-02 
453	 5.45418181017967E-02 
454	 5.31410255077743E-02 
455	 5.28425674299977E-02 
456	 5.37019963049815E-02 
457	 5.27076569044136E-02 
458	 5.20080905980339E-02 
459	 5.33693327110821E-02 
460	 0.054206705324635 
461	 0.055138997773854 
462	 5.50310513170151E-02 
463	 5.24280885587249E-02 
464	 5.06130083906191E-02 
465	 5.07916083293676E-02 
466	 5.22873824730377E-02 
467	 5.21049397988593E-02 
468	 5.24396304759998E-02 
469	 5.26714273699824E-02 
470	 5.21753760837646E-02 
471	 5.36920989440108E-02 
472	 5.33371562831973E-02 
473	 5.10242277484494E-02 
474	 4.97751940948443E-02 
475	 0.051535529175655 
476	 5.29738998440338E-02 
477	 5.21207174322598E-02 
478	 5.14604410495682E-02 
479	 5.20809426577453E-02 
480	 5.24619030320192E-02 
481	 5.07677727994652E-02 
482	 5.01284628337962E-02 
483	 0.049704928483903 
484	 4.97018382156149E-02 
485	 5.17040873170107E-02 
486	 5.22131387854305E-02 
487	 5.17217275505229E-02 
488	 5.12843084890126E-02 
489	 0.050640908380429 
490	 4.98611365041865E-02 
491	 4.95161783046777E-02 
492	 5.01818825622925E-02 
493	 4.98120719510899E-02 
494	 4.93800536526775E-02 
495	 0.049538704711911 
496	 4.98740450003413E-02 
497	 5.01922724638933E-02 
498	 4.99167996704259E-02 
499	 4.89412057678979E-02 
500	 0.049572182114746 
501	 0.049840645790956 
502	 4.96123077456971E-02 
503	 5.03017842637664E-02 
504	 4.91922700218232E-02 
505	 4.86796464685848E-02 
506	 5.01361798062353E-02 
507	 5.06457172797196E-02 
508	 5.02148428422462E-02 
509	 4.96448736850779E-02 
510	 4.98495427516913E-02 
511	 4.93718425635642E-02 
512	 4.88957900762135E-02 
513	 0.048967479172942 
514	 4.97482996971274E-02 
515	 4.99569715573234E-02 
516	 4.97844461381713E-02 
517	 4.96079873673898E-02 
518	 4.89023837143224E-02 
519	 4.85821211073027E-02 
520	 4.88686969147156E-02 
521	 4.94012583110643E-02 
522	 0.049060488596078 
523	 4.87817282524811E-02 
524	 4.91536779672412E-02 
525	 4.95889979083547E-02 
526	 4.98623681253286E-02 
527	 4.96805570323102E-02 
528	 4.90844822279729E-02 
529	 4.99004242590587E-02 
530	 5.00167722159871E-02 
531	 4.92500979283531E-02 
532	 4.95902370796771E-02 
533	 4.96244104674461E-02 
534	 4.94455957478915E-02 
535	 4.93839862351349E-02 
536	 4.95267143946494E-02 
537	 4.98054873616733E-02 
538	 5.00399071498189E-02 
539	 0.050021752293975 
540	 4.98162101272684E-02 
541	 4.97588885925198E-02 
542	 4.99177544183375E-02 
543	 0.049900953531905 
544	 0.05001063542016 
545	 5.00536779680724E-02 
546	 4.98677380383679E-02 
547	 5.00897202783028E-02 
548	 0.050269385354647 
549	 5.02366160065596E-02 
550	 5.01297730473532E-02 
551	 5.05796682902768E-02 
552	 5.07124449553557E-02 
553	 5.01122895908172E-02 
554	 5.01664619883271E-02 
555	 0.050460587107333 
556	 5.07164886043861E-02 
557	 5.07390243695205E-02 
558	 5.06736090978404E-02 
559	 5.08240182619848E-02 
560	 5.12411565255391E-02 
561	 5.16336894489821E-02 
562	 5.11647460350728E-02 
563	 5.09210247412037E-02 
564	 5.17803301075054E-02 
565	 5.17869775004727E-02 
566	 0.051780033022851 
567	 5.19408539571459E-02 
568	 5.19621521302844E-02 
569	 5.22547198570884E-02 
570	 5.23243234427979E-02 
571	 5.20034497754877E-02 
572	 0.052067345096618 
573	 5.22590982460323E-02 
574	 5.24140635365569E-02 
575	 5.24332395421628E-02 
576	 5.25160423789573E-02 
577	 5.26219806701893E-02 
578	 5.27808323275268E-02 
579	 5.31072427236037E-02 
580	 5.30326884789399E-02 
581	 5.29134590673068E-02 
582	 5.30718600203149E-02 
583	 5.30060795456666E-02 
584	 5.31295681342112E-02 
585	 5.34526549581533E-02 
586	 5.37192370216461E-02 
587	 5.36239341049824E-02 
588	 5.35029604949017E-02 
589	 5.36026450137247E-02 
590	 5.39190009527595E-02 
591	 0.053862746363746 
592	 5.37677597038575E-02 
593	 5.40327183820777E-02 
594	 5.39671040278899E-02 
595	 5.40140805612812E-02 
596	 5.42266265739666E-02 
597	 5.43042338300389E-02 
598	 5.44157291983335E-02 
599	 5.45083433820611E-02 
600	 5.45274689555328E-02 
601	 0.054485180283566 
602	 5.44925955154474E-02 
603	 5.46146203833469E-02 
604	 5.48340387444165E-02 
605	 5.47950827484201E-02 
606	 5.47094244332879E-02 
607	 5.47477367912526E-02 
608	 5.49654283668601E-02 
609	 0.054992684841759 
610	 5.49916129843086E-02 
611	 5.51104832933951E-02 
612	 5.49384394715476E-02 
613	 0.055019621318296 
614	 5.52568363036007E-02 
615	 5.51844033168922E-02 
616	 5.51512622836503E-02 
617	 5.52032031576163E-02 
618	 5.52992553455103E-02 
619	 5.53150348512803E-02 
620	 5.53458106162086E-02 
621	 5.53660566606412E-02 
622	 5.53668860782417E-02 
623	 5.56190210170264E-02 
624	 5.58001333407513E-02 
625	 5.57610833431405E-02 
626	 5.55650518227199E-02 
627	 5.57064011904387E-02 
628	 5.58543224033418E-02 
629	 0.055767171374143 
630	 5.58256313121185E-02 
631	 5.59291430650758E-02 
632	 5.59516497324175E-02 
633	 5.58127367354006E-02 
634	 5.58635732869952E-02 
635	 5.59811273941826E-02 
636	 0.056060005457309 
637	 5.60713920257098E-02 
638	 5.60741776010286E-02 
639	 5.61182408553823E-02 
640	 5.62109907013628E-02 
641	 0.056237538628465 
642	 5.62717114926293E-02 
643	 0.056325723573715 
644	 5.63727647777791E-02 
645	 5.64004572710517E-02 
646	 5.64596601307956E-02 
647	 5.65275032719084E-02 
648	 5.64403130343738E-02 
649	 5.65232985562529E-02 
650	 5.66111649625862E-02 
651	 5.64978828945701E-02 
652	 5.64654639199903E-02 
653	 5.65502609575691E-02 
654	 5.67086118216547E-02 
655	 5.68330844562813E-02 
656	 5.68172026613244E-02 
657	 5.67264954563249E-02 
658	 5.66843821078482E-02 
659	 0.056894268016581 
660	 5.69876444682352E-02 
661	 5.69429513717581E-02 
662	 5.68849715362858E-02 
663	 5.69213853694624E-02 
664	 5.70714919903082E-02 
665	 5.72121945254842E-02 
666	 5.71083667910351E-02 
667	 5.70916490431798E-02 
668	 5.71785077386902E-02 
669	 5.72898429308269E-02 
670	 5.72669262291913E-02 
671	 5.73322735333501E-02 
672	 5.73772528723885E-02 
673	 0.057220269273044 
674	 5.72694756058387E-02 
675	 5.73603356214989E-02 
676	 0.057383844715222 
677	 5.73595401694632E-02 
678	 5.74635905538643E-02 
679	 5.75605268514451E-02 
680	 5.75319935304156E-02 
681	 0.057535491095427 
682	 5.75998793081171E-02 
683	 5.76655001987741E-02 
684	 5.76445490605923E-02 
685	 0.057652771165765 
686	 5.77745893875076E-02 
687	 5.79246216113977E-02 
688	 5.77918087849457E-02 
689	 5.78081658415873E-02 
690	 0.057930233759354 
691	 5.80045075113121E-02 
692	 5.79576027562573E-02 
693	 5.79869537151552E-02 
694	 0.058056412102937 
695	 5.80065589425265E-02 
696	 5.80236982227906E-02 
697	 5.81081456783274E-02 
698	 5.82069529180554E-02 
699	 5.82208319922013E-02 
700	 5.82879060356456E-02 
701	 5.83942796250398E-02 
702	 5.84897421166613E-02 
703	 0.058584850509666 
704	 5.85114435294366E-02 
705	 5.84319387721903E-02 
706	 5.86710098369625E-02 
707	 5.87511569377857E-02 
708	 5.86729917007262E-02 
709	 5.85812191200566E-02 
710	 0.058750630331222 
711	 5.88448926489175E-02 
712	 5.88566572166955E-02 
713	 5.88678133887391E-02 
714	 5.88733935991088E-02 
715	 5.89969071315606E-02 
716	 5.91652333199628E-02 
717	 5.91847356076825E-02 
718	 5.91849165642629E-02 
719	 5.92402567712326E-02 
720	 5.93295563095412E-02 
721	 5.92783966666072E-02 
722	 5.93519250183185E-02 
723	 5.94664411513597E-02 
724	 5.94985174158932E-02 
725	 5.96234384304064E-02 
726	 5.96807454796971E-02 
727	 5.96772175821646E-02 
728	 5.97385103211177E-02 
729	 5.98759515432074E-02 
730	 5.99542885822604E-02 
731	 5.99166575605582E-02 
732	 5.98559374292805E-02 
733	 5.99644949308317E-02 
734	 6.00912430352715E-02 
735	 6.00818876201012E-02 
736	 6.01951257859939E-02 
737	 6.02435764237484E-02 
738	 6.02764414446468E-02 
739	 6.04611508929262E-02 
740	 6.04817846865292E-02 
741	 6.05438647130075E-02 
742	 6.07061530532693E-02 
743	 6.07184099033273E-02 
744	 6.07876464917063E-02 
745	 6.08768610196711E-02 
746	 6.09199810849519E-02 
747	 6.09768157904978E-02 
748	 6.10250155921395E-02 
749	 6.11089670838016E-02 
750	 6.12751357962826E-02 
751	 6.12776257687035E-02 
752	 6.13093334505955E-02 
753	 0.061439077390049 
754	 6.15200009712931E-02 
755	 6.15412979185841E-02 
756	 6.15727041599381E-02 
757	 0.061655799003042 
758	 6.16849202429262E-02 
759	 6.17543737996263E-02 
760	 6.18308734613937E-02 
761	 6.18521079612957E-02 
762	 6.19831926496612E-02 
763	 6.20820394289128E-02 
764	 6.21028863903009E-02 
765	 6.21290796479994E-02 
766	 6.22449462822977E-02 
767	 6.23660151461403E-02 
768	 0.062420515382225 
769	 6.24440062424347E-02 
770	 6.24526475406034E-02 
771	 6.25260795084358E-02 
772	 6.27109932072335E-02 
773	 6.28063342207645E-02 
774	 6.28629358943323E-02 
775	 6.29008649047263E-02 
776	 6.29161483764356E-02 
777	 6.30319913030288E-02 
778	 6.31261685333502E-02 
779	 6.31366678005466E-02 
780	 6.31584493072185E-02 
781	 6.33168921500344E-02 
782	 6.34361090790881E-02 
783	 6.33758357513208E-02 
784	 6.34351247235427E-02 
785	 6.35532752332181E-02 
786	 6.36418381967161E-02 
787	 6.36286600097151E-02 
788	 6.36817478911929E-02 
789	 6.37585869281014E-02 
790	 6.38209546350573E-02 
791	 6.38619001802476E-02 
792	 6.38904514859131E-02 
793	 6.39616755042193E-02 
794	 0.064091022355309 
795	 6.41831454176326E-02 
796	 6.42534537352129E-02 
797	 6.42938314661721E-02 
798	 6.43099538357032E-02 
799	 6.44007462244077E-02 
800	 6.44250302710002E-02 
801	 6.44240691022857E-02 
802	 6.45606090237754E-02 
803	 6.46562192720685E-02 
804	 0.064700611441172 
805	 6.47289163237636E-02 
806	 6.48069340490494E-02 
807	 0.064825665583 
808	 6.48612019078842E-02 
809	 6.49630070676351E-02 
810	 6.49573927927993E-02 
811	 6.50040915566822E-02 
812	 6.50858647844379E-02 
813	 6.51238416755427E-02 
814	 6.51827084570165E-02 
815	 6.52180403728677E-02 
816	 6.52803828388448E-02 
817	 6.54726671906562E-02 
818	 6.54222154258392E-02 
819	 0.065405704649202 
820	 6.55514230069475E-02 
821	 6.55844507399218E-02 
822	 6.56686254156978E-02 
823	 6.57185905064391E-02 
824	 6.56824206425495E-02 
825	 0.065801845812575 
826	 0.065974960729257 
827	 6.60653423596125E-02 
828	 6.59861829007301E-02 
829	 6.60014832210314E-02 
830	 6.60703694678228E-02 
831	 6.61674545484487E-02 
832	 6.62845837752401E-02 
833	 6.62621123244444E-02 
834	 6.62798110680905E-02 
835	 6.63864744248148E-02 
836	 6.63570693872044E-02 
837	 6.64975619435429E-02 
838	 6.66413887402859E-02 
839	 6.66241311201009E-02 
840	 0.066608087217541 
841	 0.06671745577401 
842	 6.68548129723461E-02 
843	 6.68730642145851E-02 
844	 6.68892033659378E-02 
845	 0.066987022194451 
846	 6.71373938296957E-02 
847	 6.72338979964823E-02 
848	 6.72885491980281E-02 
849	 6.72452602303426E-02 
850	 6.71922970611046E-02 
851	 6.73769524117421E-02 
852	 6.74413709461105E-02 
853	 6.73826046400099E-02 
854	 6.73323320517041E-02 
855	 6.75468067383689E-02 
856	 6.75964421278319E-02 
857	 6.76054800985905E-02 
858	 6.77553123742446E-02 
859	 6.77526391800987E-02 
860	 6.77916245010067E-02 
861	 6.79033684496647E-02 
862	 6.80166869564734E-02 
863	 6.80148192174253E-02 
864	 6.81440002492753E-02 
865	 6.83346409307142E-02 
866	 6.82694116515842E-02 
867	 6.81894938561097E-02 
868	 6.82210417654259E-02 
869	 6.83640870784163E-02 
870	 6.84733920114834E-02 
871	 6.85793163022624E-02 
872	 0.068618453178101 
873	 6.85941363749908E-02 
874	 6.86817568650082E-02 
875	 6.88832415694247E-02 
876	 6.89467903185107E-02 
877	 6.87407633429937E-02 
878	 6.88133273730526E-02 
879	 6.90527595292482E-02 
880	 6.91886333550451E-02 
881	 6.90184344370908E-02 
882	 6.91125384414075E-02 
883	 6.92085304351377E-02 
884	 6.92475919183919E-02 
885	 6.93479059245487E-02 
886	 6.94264473042848E-02 
887	 6.95297763149262E-02 
888	 6.96270485504821E-02 
889	 6.96031713935516E-02 
890	 6.96942456961747E-02 
891	 6.97278414838217E-02 
892	 6.96375707683196E-02 
893	 6.96534206571021E-02 
894	 6.99023733112549E-02 
895	 7.00809054819176E-02 
896	 7.00274057228875E-02 
897	 7.02469760363642E-02 
898	 7.03605868757232E-02 
899	 7.03035460965262E-02 
900	 7.01819862767122E-02 
901	 7.02921905356306E-02 
902	 7.04006039958945E-02 
903	 7.04774124418479E-02 
904	 7.05845082784568E-02 
905	 7.06477743330954E-02 
906	 7.08092095575704E-02 
907	 7.09338107847392E-02 
908	 7.07796720172524E-02 
909	 7.09057244931301E-02 
910	 7.09899768728757E-02 
911	 7.09864864911498E-02 
912	 7.11811634132423E-02 
913	 7.13599785042826E-02 
914	 7.14200737219955E-02 
915	 7.14345527715204E-02 
916	 7.16635534580985E-02 
917	 7.17793159371634E-02 
918	 7.16503540300554E-02 
919	 7.14408708991334E-02 
920	 7.17399668400584E-02 
921	 7.20228219778924E-02 
922	 7.21326881985117E-02 
923	 7.21034276560269E-02 
924	 7.21630338617967E-02 
925	 7.24096131318757E-02 
926	 7.25770909317696E-02 
927	 7.24843411877618E-02 
928	 7.26446763611954E-02 
929	 7.29348206624163E-02 
930	 7.30551533232741E-02 
931	 0.072838643918721 
932	 7.29874100157649E-02 
933	 7.30668943545372E-02 
934	 7.30953563725666E-02 
935	 0.073267895282063 
936	 7.32177282292569E-02 
937	 7.32225359133316E-02 
938	 7.34294677533182E-02 
939	 7.37806069457497E-02 
940	 0.073747354945225 
941	 7.37321778570458E-02 
942	 7.38163634826652E-02 
943	 7.37867393389713E-02 
944	 7.40684093947754E-02 
945	 7.42106789181065E-02 
946	 7.42228695368785E-02 
947	 7.46067171783776E-02 
948	 7.46239525334152E-02 
949	 7.46628806449359E-02 
950	 7.49149165747064E-02 
951	 7.51132673668914E-02 
952	 7.51099565057145E-02 
953	 7.50993864494137E-02 
954	 7.52311188091244E-02 
955	 7.54756447194498E-02 
956	 7.57652611252665E-02 
957	 0.075685566468724 
958	 7.53193175136398E-02 
959	 0.075635318507919 
960	 7.58274977857936E-02 
961	 7.59625923930309E-02 
962	 7.61989484009993E-02 
963	 7.64763660118763E-02 
964	 7.63290615746778E-02 
965	 7.62281920391667E-02 
966	 7.64782943441641E-02 
967	 0.076449181365647 
968	 7.63094424108489E-02 
969	 7.64765175904802E-02 
970	 7.70270563497627E-02 
971	 7.70195877380591E-02 
972	 7.73227477079532E-02 
973	 7.76247378661786E-02 
974	 7.75517372114148E-02 
975	 7.75801586261639E-02 
976	 7.74956561363845E-02 
977	 7.75571484364858E-02 
978	 7.79024684455744E-02 
979	 7.78748952951611E-02 
980	 7.80816088707276E-02 
981	 7.80671848310478E-02 
982	 7.76008115527358E-02 
983	 7.83214345412683E-02 
984	 7.85210640891171E-02 
985	 7.84926359110662E-02 
986	 0.07889784557322 
987	 7.91175787672373E-02 
988	 7.93092574668051E-02 
989	 7.95810069638793E-02 
990	 7.98300707776012E-02 
991	 7.92649744082793E-02 
992	 7.92488693633373E-02 
993	 7.94608358495848E-02 
994	 7.93028717876119E-02 
995	 7.95374130057442E-02 
996	 7.95795684949375E-02 
997	 7.97406381083147E-02 
998	 0.080326031347884 
999	 8.06015657546844E-02 
1000	 8.02510441781863E-02 
1001	 8.09188855990238E-02 
1002	 8.08470835052832E-02 
1003	 8.07586045066482E-02 
1004	 8.08789920856255E-02 
1005	 8.10079848578726E-02 
1006	 8.11641914024626E-02 
1007	 0.081569102240044 
1008	 0.081698914926968 
1009	 8.16232247659774E-02 
1010	 8.17188303450637E-02 
1011	 8.17889268974246E-02 
1012	 8.18939362744474E-02 
1013	 8.21410947752577E-02 
1014	 8.22420211999352E-02 
1015	 8.22054720836402E-02 
1016	 8.23253522911405E-02 
1017	 8.23809344892798E-02 
1018	 8.24602765493081E-02 
1019	 8.26004058899282E-02 
1020	 8.27487137257743E-02 
1021	 8.29590641295272E-02 
1022	 8.32459671041682E-02 
1023	 8.34095719924017E-02 
1024	 8.36238048448573E-02 
1025	 8.37335063034191E-02 
1026	 8.36280127734267E-02 
1027	 8.36500283250832E-02 
1028	 8.36470016447243E-02 
1029	 8.38628125157463E-02 
1030	 8.39133823797716E-02 
1031	 8.40666854495287E-02 
1032	 8.42381539737496E-02 
1033	 8.41056010458112E-02 
1034	 8.42638586473424E-02 
1035	 8.46426508334387E-02 
1036	 8.48532978035174E-02 
1037	 8.52324699408551E-02 
1038	 8.53602961641351E-02 
1039	 8.51817738409101E-02 
1040	 0.085172945991987 
1041	 8.51524289135019E-02 
1042	 0.085171934112976 
1043	 8.52206119025024E-02 
1044	 8.53339783790689E-02 
1045	 8.55045094946014E-02 
1046	 8.56489289300268E-02 
1047	 8.58189630181502E-02 
1048	 0.086156705824345 
1049	 0.086361931823069 
1050	 8.64617403512734E-02 
1051	 8.65089883509485E-02 
1052	 8.63865222681779E-02 
1053	 8.64961846492495E-02 
1054	 8.67430957585049E-02 
1055	 8.69222699096084E-02 
1056	 8.72340697135133E-02 
1057	 8.74744506406496E-02 
1058	 8.76651148654436E-02 
1059	 8.77129821507847E-02 
1060	 0.087801251916088 
1061	 8.80170961937961E-02 
1062	 8.81486432916556E-02 
1063	 0.088192828508117 
1064	 8.83527210493158E-02 
1065	 8.85242913125026E-02 
1066	 8.85543229830653E-02 
1067	 8.85022751787584E-02 
1068	 8.86804130016824E-02 
1069	 8.88098765302282E-02 
1070	 8.88591904747583E-02 
1071	 8.88527769183819E-02 
1072	 8.91251376100914E-02 
1073	 8.92105466452149E-02 
1074	 8.92816231504861E-02 
1075	 8.95979688044649E-02 
1076	 8.98072110896951E-02 
1077	 8.99649347202394E-02 
1078	 9.00401905473125E-02 
1079	 9.00541662359574E-02 
1080	 9.01421720374359E-02 
1081	 9.01888176211103E-02 
1082	 9.02487288857989E-02 
1083	 0.090382338689342 
1084	 9.04520851946403E-02 
1085	 9.06423252230241E-02 
1086	 9.08339974499032E-02 
1087	 9.10834594514639E-02 
1088	 9.12294390452573E-02 
1089	 9.14611182951626E-02 
1090	 0.091608239099458 
1091	 0.09163249771689 
1092	 9.16697801921365E-02 
1093	 9.17946813139805E-02 
1094	 9.19961275047314E-02 
1095	 9.21599738224797E-02 
1096	 9.23863918733018E-02 
1097	 9.24342895760229E-02 
1098	 9.22877457637593E-02 
1099	 9.23549234094392E-02 
1100	 9.24566971334269E-02 
1101	 9.25482001228527E-02 
1102	 9.28038982165016E-02 
1103	 9.29806363714297E-02 
1104	 9.31035348065324E-02 
1105	 9.31767756344328E-02 
1106	 9.33801665650109E-02 
1107	 9.35596417809443E-02 
1108	 9.37027671939958E-02 
1109	 9.38634334583144E-02 
1110	 9.38773320629287E-02 
1111	 9.38269342923762E-02 
1112	 9.39268444283541E-02 
1113	 9.40698022588489E-02 
1114	 9.42215780932106E-02 
1115	 9.44176159764689E-02 
1116	 9.45487074488547E-02 
1117	 9.46069285879587E-02 
1118	 9.47293269030723E-02 
1119	 9.49474101622881E-02 
1120	 9.51060447369096E-02 
1121	 9.52312551706396E-02 
1122	 9.53957258548303E-02 
1123	 9.55608451771685E-02 
1124	 9.55468235543665E-02 
1125	 9.55618326047152E-02 
1126	 9.56353341599151E-02 
1127	 9.56875098630078E-02 
1128	 9.59167748761403E-02 
1129	 9.61130546421105E-02 
1130	 9.61435406505382E-02 
1131	 9.62415131307453E-02 
1132	 9.63601635344077E-02 
1133	 9.64697481768828E-02 
1134	 9.66639084124143E-02 
1135	 9.68232914141498E-02 
1136	 9.69618803636258E-02 
1137	 9.70771425961315E-02 
1138	 9.72190455561196E-02 
1139	 9.73057012602539E-02 
1140	 9.73229899212607E-02 
1141	 9.73706339678706E-02 
1142	 9.75349376256435E-02 
1143	 9.76617734241651E-02 
1144	 0.09777763089413 
1145	 9.79373910768964E-02 
1146	 9.79859137795068E-02 
1147	 9.80334274183255E-02 
1148	 9.81737323237922E-02 
1149	 9.82682888816006E-02 
1150	 9.83978939356732E-02 
1151	 9.85918384613372E-02 
1152	 9.87374782397743E-02 
1153	 9.89058532294132E-02 
1154	 9.90355515143017E-02 
1155	 9.90845791133457E-02 
1156	 9.91814544710012E-02 
1157	 9.93047892786941E-02 
1158	 9.94328761053856E-02 
1159	 9.95670006828984E-02 
1160	 9.97439345161703E-02 
1161	 9.98938359966255E-02 
1162	 0.099949006611931 
1163	 0.100036725904433 
1164	 0.100140783507634 
1165	 0.100234992137692 
1166	 0.100359445691712 
1167	 0.10053506218784 
1168	 0.100693940368323 
1169	 0.100792638853235 
1170	 0.100854427663206 
1171	 0.100963549995891 
1172	 0.101014970329841 
1173	 0.101113326665305 
1174	 0.101291013819433 
1175	 0.101435050611576 
1176	 0.101553402967362 
1177	 0.101687990118906 
1178	 0.101876931005322 
1179	 0.10198931022695 
1180	 0.101998053051869 
1181	 0.102128881477705 
1182	 0.102257726450432 
1183	 0.102350676496216 
1184	 0.102552204772386 
1185	 0.102687689897277 
1186	 0.102790834740654 
1187	 0.102837715320943 
1188	 0.102928319189896 
1189	 0.103000357066733 
1190	 0.103093357767594 
1191	 0.103204607982524 
1192	 0.103315945077968 
1193	 0.103415285582229 
1194	 0.103546810132302 
1195	 0.103748484990537 
1196	 0.103870809069501 
1197	 0.103956130994266 
1198	 0.104059367911728 
1199	 0.104131203671976 
1200	 0.104204952113473 
1201	 0.10437036463261 
1202	 0.104554937248613 
1203	 0.104695343173394 
1204	 0.104827552858531 
1205	 0.104941047957226 
1206	 0.105005807126717 
1207	 0.105117806648997 
1208	 0.105228709383891 
1209	 0.105353895159698 
1210	 0.105525656890341 
1211	 0.105649856696486 
1212	 0.105748049551882 
1213	 0.105881642637573 
1214	 0.10599507032665 
1215	 0.106129512718825 
1216	 0.106310926829835 
1217	 0.106471664863414 
1218	 0.106622536767758 
1219	 0.10678439462559 
1220	 0.10692948629674 
1221	 0.107080963159905 
1222	 0.107266085404963 
1223	 0.107432413675096 
1224	 0.107581628218406 
1225	 0.107732044016347 
1226	 0.107865089078599 
1227	 0.10794151540875 
1228	 0.108093220348942 
1229	 0.108298125168624 
1230	 0.108461785938022 
1231	 0.108643494438215 
1232	 0.10880241623349 
1233	 0.108921452600565 
1234	 0.109055879773748 
1235	 0.109194385311618 
1236	 0.10933774278592 
1237	 0.109494304274494 
1238	 0.109624297254551 
1239	 0.10971228822124 
1240	 0.109855660885438 
1241	 0.110057124544862 
1242	 0.110204061997998 
1243	 0.110337234921701 
1244	 0.110515565929615 
1245	 0.110616601093403 
1246	 0.110591614004649 
1247	 0.110712327162373 
1248	 0.110870521960969 
1249	 0.111052482730691 
1250	 0.111363448404125 
1251	 0.111525363104048 
1252	 0.111598120417166 
1253	 0.111745472789007 
1254	 0.111870954867229 
1255	 0.111984357734991 
1256	 0.112150894194485 
1257	 0.11228600180603 
1258	 0.112324269164634 
1259	 0.112443203637073 
1260	 0.112661028879032 
1261	 0.112810538864753 
1262	 0.112945027428183 
1263	 0.113064221888054 
1264	 0.113219646831855 
1265	 0.113346980101263 
1266	 0.113513532099732 
1267	 0.113760750066754 
1268	 0.113908112490229 
1269	 0.113985597297697 
1270	 0.114134842821687 
1271	 0.114292910398867 
1272	 0.114433846489185 
1273	 0.114600551211391 
1274	 0.114756468813118 
1275	 0.114862184636599 
1276	 0.115017726911892 
1277	 0.115248919887685 
1278	 0.115412540925037 
1279	 0.115537250361399 
1280	 0.115684761925231 
1281	 0.115804285057331 
1282	 0.115942145809175 
1283	 0.116107868697899 
1284	 0.116273520107255 
1285	 0.116441267860736 
1286	 0.116612745476341 
1287	 0.116761664103453 
1288	 0.116915352935805 
1289	 0.117046281549524 
1290	 0.117138624426989 
1291	 0.117265841723965 
1292	 0.117381834754962 
1293	 0.117543708697357 
1294	 0.117755984374061 
1295	 0.117921823387752 
1296	 0.118140640735784 
1297	 0.118254843701443 
1298	 0.118246728657476 
1299	 0.11833110307496 
1300	 0.118381295605959 
1301	 0.118490287582517 
1302	 0.118708760414223 
1303	 0.118863500320345 
1304	 0.119000672714422 
1305	 0.119139735406497 
1306	 0.119250952597758 
1307	 0.119378159512244 
1308	 0.119522108706698 
1309	 0.11965879106965 
1310	 0.119792571215349 
1311	 0.11991952916906 
1312	 0.120068422908287 
1313	 0.120244142252745 
1314	 0.120355121731998 
1315	 0.120464770681099 
1316	 0.12053769005205 
1317	 0.120493378028194 
1318	 0.120603225680998 
1319	 0.120778087905264 
1320	 0.120937571679213 
1321	 0.121216841201997 
1322	 0.121363265052016 
1323	 0.121403292174935 
1324	 0.121510943948525 
1325	 0.121579185547654 
1326	 0.121695900385023 
1327	 0.121857347850263 
1328	 0.122033901977603 
1329	 0.122288002904703 
1330	 0.122449062854172 
1331	 0.122555984761587 
1332	 0.122701373670512 
1333	 0.122819627909994 
1334	 0.122907371902231 
1335	 0.123051391482426 
1336	 0.123276861780636 
1337	 0.123402731078792 
1338	 0.123482585416147 
1339	 0.123596136206853 
1340	 0.123684432046576 
1341	 0.123804571330729 
1342	 0.12395728054921 
1343	 0.124089549306813 
1344	 0.124221121158255 
1345	 0.124347305210315 
1346	 0.124468019668637 
1347	 0.124593911907242 
1348	 0.124702278583658 
1349	 0.124843766574178 
1350	 0.125021239477292 
1351	 0.125164856020502 
1352	 0.125319660580108 
1353	 0.125455514472808 
1354	 0.125538955294129 
1355	 0.125665757596189 
1356	 0.12581524740317 
1357	 0.125956651371612 
1358	 0.12613461911236 
1359	 0.126277290804125 
1360	 0.126395361067947 
1361	 0.126510058386069 
1362	 0.126605569897258 
1363	 0.126692489683389 
1364	 0.126808795187603 
1365	 0.126950546852332 
1366	 0.127048121661838 
1367	 0.127133466864486 
1368	 0.127234170797233 
1369	 0.127295679770225 
1370	 0.127418589644131 
1371	 0.127608509583859 
1372	 0.127738178815083 
1373	 0.127866877009297 
1374	 0.127977237560416 
1375	 0.128038002661141 
1376	 0.128148765037139 
1377	 0.128286693951957 
1378	 0.128405042701496 
1379	 0.128557823423912 
1380	 0.128658362392242 
1381	 0.128715095535837 
1382	 0.128782368193711 
1383	 0.128810802471389 
1384	 0.128874131653406 
1385	 0.128973929698233 
1386	 0.129045276623116 
1387	 0.129099228741699 
1388	 0.129177973712818 
1389	 0.129250254896091 
1390	 0.12933291070786 
1391	 0.129467561872804 
1392	 0.129565545447686 
1393	 0.129617477478461 
1394	 0.12967382087477 
1395	 0.12975249639077 
1396	 0.129817625611454 
1397	 0.129910190476342 
1398	 0.130047661039945 
1399	 0.130143131891165 
1400	 0.130223395570835 
1401	 0.130302904939848 
1402	 0.130390964851047 
1403	 0.130437080743696 
1404	 0.130430014618593 
1405	 0.130491935964484 
1406	 0.130570821051721 
1407	 0.130627209373484 
1408	 0.130733947911844 
1409	 0.130791954117222 
1410	 0.130765606946659 
1411	 0.130807557713614 
1412	 0.130894326897701 
1413	 0.130945949632744 
1414	 0.130983166768303 
1415	 0.131061202751732 
1416	 0.131148783718085 
1417	 0.131229195024854 
1418	 0.131364373800136 
1419	 0.131450088623188 
1420	 0.131469446596258 
1421	 0.131527932559028 
1422	 0.131588059788617 
1423	 0.131659709279301 
1424	 0.131748487780632 
1425	 0.131848874090354 
1426	 0.131959705327955 
1427	 0.132071900799127 
1428	 0.132179887991018 
1429	 0.132270820527637 
1430	 0.132396493653698 
1431	 0.132526209213474 
1432	 0.132654081881632 
1433	 0.132817134927513 
1434	 0.132941007271453 
1435	 0.133035937454152 
1436	 0.133139559711662 
1437	 0.133223140727278 
1438	 0.133350162662993 
1439	 0.133484765267109 
1440	 0.133639161805408 
1441	 0.133855613106496 
1442	 0.134006835442937 
1443	 0.134114673648871 
1444	 0.134272083338103 
1445	 0.134418906523179 
1446	 0.134588173658226 
1447	 0.134828780999832 
1448	 0.134996871841627 
1449	 0.135116263055484 
1450	 0.135270866754109 
1451	 0.135394121299443 
1452	 0.13556469140358 
1453	 0.135780815008275 
1454	 0.135983405084457 
1455	 0.136208985623542 
1456	 0.136419755097694 
1457	 0.136634830032714 
1458	 0.136835973920302 
1459	 0.137013329432095 
1460	 0.137203434084892 
1461	 0.137359872780004 
1462	 0.137568769340027 
1463	 0.137848471333735 
1464	 0.138080914922256 
1465	 0.138325415108029 
1466	 0.138563119714351 
1467	 0.13870784455649 
1468	 0.138867198316327 
1469	 0.13907259135591 
1470	 0.139255917605295 
1471	 0.139436182543509 
1472	 0.139621328617254 
1473	 0.13982965396029 
1474	 0.140025313665829 
1475	 0.140242644762185 
1476	 0.1405224177352 
1477	 0.140727511873894 
1478	 0.140878210673903 
1479	 0.141082832251848 
1480	 0.141295556280848 
1481	 0.141484114780434 
1482	 0.141692374274705 
1483	 0.14188217034211 
1484	 0.142021216580627 
1485	 0.142210778310167 
1486	 0.142448710715882 
1487	 0.142637970347723 
1488	 0.142807469473282 
1489	 0.142997291196839 
1490	 0.143163376331581 
1491	 0.143357452998713 
1492	 0.143599402358158 
1493	 0.143802705019887 
1494	 0.143986287311626 
1495	 0.144180608136408 
1496	 0.144355619368656 
1497	 0.144557953552424 
1498	 0.144791412744737 
1499	 0.145006369465308 
1500	 0.145243718555548 
1501	 0.145435580892485 
1502	 0.145577350171437 
1503	 0.145751007263061 
1504	 0.145901946358605 
1505	 0.146084096761055 
1506	 0.146310359787748 
1507	 0.146517740539607 
1508	 0.146736166798139 
1509	 0.146938625151862 
1510	 0.147136018581073 
1511	 0.14731793668385 
1512	 0.147460193065264 
1513	 0.147633884333887 
1514	 0.147833587373906 
1515	 0.148004767853104 
1516	 0.148151718779918 
1517	 0.148341459098834 
1518	 0.14856358150118 
1519	 0.148739577512555 
1520	 0.148903840360705 
1521	 0.14910084199619 
1522	 0.149278449070857 
1523	 0.149427454670215 
1524	 0.149590812253169 
1525	 0.149792931293126 
1526	 0.149963266340097 
1527	 0.150085499928644 
1528	 0.150272563204153 
1529	 0.150511757217017 
1530	 0.150687534577939 
1531	 0.150855624944901 
1532	 0.151018115701781 
1533	 0.151134554390413 
1534	 0.151306723402665 
1535	 0.151516861755524 
1536	 0.1516922415534 
1537	 0.151868974737823 
1538	 0.152046800904787 
1539	 0.152206976163392 
1540	 0.152383683363696 
1541	 0.152581979864989 
1542	 0.152755874629456 
1543	 0.152914809316306 
1544	 0.153086283147871 
1545	 0.153262715716694 
1546	 0.153422398630321 
1547	 0.153576636624129 
1548	 0.153737726116282 
1549	 0.153872503250817 
1550	 0.154050623637548 
1551	 0.154274533111243 
1552	 0.154455090781445 
1553	 0.154633492857415 
1554	 0.1548093859947 
1555	 0.154952361238371 
1556	 0.155127250375228 
1557	 0.155322607156607 
1558	 0.15551691336301 
1559	 0.15571341649698 
1560	 0.155922155499613 
1561	 0.156177205374773 
1562	 0.156355635864334 
1563	 0.156488089559891 
1564	 0.156652333010289 
1565	 0.156774116702464 
1566	 0.156929923392673 
1567	 0.157134587569688 
1568	 0.157318470837507 
1569	 0.157492957607237 
1570	 0.157665913372553 
1571	 0.157829523105503 
1572	 0.15802022437249 
1573	 0.158216621087069 
1574	 0.158416987403844 
1575	 0.158677659463508 
1576	 0.158863018929111 
1577	 0.158968453197004 
1578	 0.159147248511574 
1579	 0.15932505035856 
1580	 0.159513755525881 
1581	 0.159769580905063 
1582	 0.159985806356507 
1583	 0.160179097499597 
1584	 0.160362677217025 
1585	 0.160524207951212 
1586	 0.160708772398769 
1587	 0.160886658729236 
1588	 0.161072046286417 
1589	 0.161281684685149 
1590	 0.161486682110679 
1591	 0.16169193974447 
1592	 0.161884874321531 
1593	 0.162078496761912 
1594	 0.162269854316054 
1595	 0.162441908631793 
1596	 0.162626987334051 
1597	 0.162838702765049 
1598	 0.163016344574668 
1599	 0.163167096174858 
1600	 0.163334470355927 
1601	 0.16346502500108 
1602	 0.163650326270301 
1603	 0.16390087783523 
1604	 0.164107125973482 
1605	 0.164314245473145 
1606	 0.164526178757748 
1607	 0.16472677530722 
1608	 0.164911467960326 
1609	 0.165098642899026 
1610	 0.165286650767822 
1611	 0.165449687182587 
1612	 0.16561672108248 
1613	 0.165790591041364 
1614	 0.165974101336367 
1615	 0.166165538245549 
1616	 0.166337236154998 
1617	 0.166515275357121 
1618	 0.16668216224901 
1619	 0.166816486976523 
1620	 0.166964728716359 
1621	 0.167110675058816 
1622	 0.167276798063535 
1623	 0.167463375102274 
1624	 0.167627086002956 
1625	 0.167806214419599 
1626	 0.167972221980413 
1627	 0.168100391513089 
1628	 0.168251613854502 
1629	 0.168417381318147 
1630	 0.168577229290753 
1631	 0.168715241284385 
1632	 0.168897097082586 
1633	 0.169147735875346 
1634	 0.169320451788786 
1635	 0.169460496519695 
1636	 0.169627122026515 
1637	 0.169729437522935 
1638	 0.169885598916183 
1639	 0.170120205200566 
1640	 0.170320090552498 
1641	 0.170525322678696 
1642	 0.170708227081638 
1643	 0.170891863314845 
1644	 0.171047455850719 
1645	 0.171144662420807 
1646	 0.17128006486977 
1647	 0.171400265101228 
1648	 0.171552157458846 
1649	 0.171770738443321 
1650	 0.171939887117947 
1651	 0.172090422405289 
1652	 0.172245483260616 
1653	 0.172399205092984 
1654	 0.172522905875845 
1655	 0.172651957261414 
1656	 0.172751000061331 
1657	 0.172759115410317 
1658	 0.172841955791089 
1659	 0.172971955840997 
1660	 0.173066770786514 
1661	 0.173196470640778 
1662	 0.173284380148581 
1663	 0.173332811649418 
1664	 0.173367240694427 
1665	 0.173365898242916 
1666	 0.173393984210807 
1667	 0.17340275205174 
1668	 0.173442030976567 
1669	 0.17355969521595 
1670	 0.173585385250213 
1671	 0.173562612748686 
1672	 0.173547688871261 
1673	 0.173484279806017 
1674	 0.17343980765745 
1675	 0.173435122050396 
1676	 0.173370288926069 
1677	 0.173283380349287 
1678	 0.173154698371289 
1679	 0.172969812308944 
1680	 0.17280830009921 
1681	 0.172605461524059 
1682	 0.172423839832892 
1683	 0.172277460275731 
1684	 0.17209200100885 
1685	 0.171903781200874 
1686	 0.171704536763633 
1687	 0.171484904732 
1688	 0.171235135010523 
1689	 0.170975643611293 
1690	 0.170683427657307 
1691	 0.170345355767656 
1692	 0.170019084113868 
1693	 0.169678068840827 
1694	 0.169330472357462 
1695	 0.168982319920773 
1696	 0.168606098980973 
1697	 0.168215894101302 
1698	 0.167809696755707 
1699	 0.167372667366162 
1700	 0.166965259313883 
1701	 0.166545921170552 
1702	 0.166157773417874 
1703	 0.16579878675272 
1704	 0.165419107062009 
1705	 0.165020444106903 
1706	 0.164668937852429 
1707	 0.164373005195554 
1708	 0.164106014454921 
1709	 0.163926359936351 
1710	 0.163786242844888 
1711	 0.163586240328887 
1712	 0.163413397777268 
1713	 0.163234710224167 
1714	 0.16304505065016 
1715	 0.162926407397702 
1716	 0.162824964130772 
1717	 0.162765611025668 
1718	 0.162732269478548 
1719	 0.162648616289098 
1720	 0.162544283232903 
1721	 0.16245707383426 
1722	 0.16238899162413 
1723	 0.162327822247197 
1724	 0.162401165624331 
1725	 0.16254340249388 
1726	 0.162599296714939 
1727	 0.162777065948568 
1728	 0.16296006753433 
1729	 0.163119011815787 
1730	 0.163489874526273 
1731	 0.163840822096569 
1732	 0.164174978423784 
1733	 0.164598500792832 
1734	 0.165012318411106 
1735	 0.165392830980884 
1736	 0.165776072773576 
1737	 0.166154273748979 
1738	 0.16645838233778 
1739	 0.166788982051845 
1740	 0.167205927713133 
1741	 0.167459849982264 
1742	 0.16759997434317 
1743	 0.167747753414359 
1744	 0.167774768847616 
1745	 0.167865851674243 
1746	 0.168042010782468 
1747	 0.16814813882971 
1748	 0.168202282225554 
1749	 0.168272194586049 
1750	 0.168296014630988 
1751	 0.16833975394163 
1752	 0.168402896665302 
1753	 0.168516792619177 
1754	 0.168653543756386 
1755	 0.168786746725914 
1756	 0.168935805176526 
1757	 0.169095605007475 
1758	 0.169301066346151 
1759	 0.169518699136862 
1760	 0.16977735140898 
1761	 0.170045210666693 
1762	 0.170363748999716 
1763	 0.170797891977446 
1764	 0.171226439694965 
1765	 0.171674124799625 
1766	 0.172155904031438 
1767	 0.172587904058646 
1768	 0.173066337557379 
1769	 0.173606043542215 
1770	 0.174081804267381 
1771	 0.174590753588823 
1772	 0.175160812276848 
1773	 0.175613382210916 
1774	 0.176068020808905 
1775	 0.176560954357033 
1776	 0.176969505145899 
1777	 0.177384386228734 
1778	 0.177803001866877 
1779	 0.178092795080596 
1780	 0.178341861542371 
1781	 0.178672439537973 
1782	 0.17897295643149 
1783	 0.179271681756731 
1784	 0.179586543922504 
1785	 0.179814167375718 
1786	 0.180044902036203 
1787	 0.180276949428553 
1788	 0.180516791630317 
1789	 0.180750233715438 
1790	 0.180982052531108 
1791	 0.181227901288874 
1792	 0.181456824166345 
1793	 0.181654907058055 
1794	 0.181808470753898 
1795	 0.181994811988403 
1796	 0.18205855593851 
1797	 0.182115095339736 
1798	 0.182248830887108 
1799	 0.18241484119261 
1800	 0.182678729958649 
1801	 0.184609713098641 
1802	 0.184806147247487 
1803	 0.185024745504486 
1804	 0.185269295424359 
1805	 0.185472138501423 
1806	 0.18564646356483 
1807	 0.18579377370839 
1808	 0.185980181214402 
1809	 0.186152322951806 
1810	 0.186326393584357 
1811	 0.186546451662702 
1812	 0.186730599092382 
1813	 0.186858784269462 
1814	 0.186989771303203 
1815	 0.187195051577925 
1816	 0.187488080607243 
1817	 0.187747826997716 
1818	 0.188090566655186 
1819	 0.188333696952724 
1820	 0.188496080315834 
1821	 0.188695491914689 
1822	 0.188864359600641 
1823	 0.189078922129789 
1824	 0.189273275460134 
1825	 0.189523612736111 
1826	 0.189737474142808 
1827	 0.189928150114523 
1828	 0.190125573498223 
1829	 0.190310364808763 
1830	 0.190522024801786 
1831	 0.190737531968658 
1832	 0.190983016965331 
1833	 0.191212618484509 
1834	 0.191465093346869 
1835	 0.191703858793151 
1836	 0.191887251414911 
1837	 0.192110961759577 
1838	 0.192354743022528 
1839	 0.192581942194718 
1840	 0.192825331455695 
1841	 0.193052686902363 
1842	 0.193259298351097 
1843	 0.193450263683876 
1844	 0.193738108363882 
1845	 0.193936574388983 
1846	 0.194138166850811 
1847	 0.194375884534874 
1848	 0.194562628094595 
1849	 0.194678211539188 
1850	 0.194859093068934 
1851	 0.195066865155241 
1852	 0.195239004146494 
1853	 0.195441438394784 
1854	 0.195633793004835 
1855	 0.195831516175666 
1856	 0.196034319365391 
1857	 0.196228929927973 
1858	 0.196420457285654 
1859	 0.196593061387511 
1860	 0.196750902231481 
1861	 0.196893199085776 
1862	 0.197030659336738 
1863	 0.197150744441893 
1864	 0.197182891032615 
1865	 0.197231001540479 
1866	 0.197265437657381 
1867	 0.19729595916766 
1868	 0.197389630485399 
1869	 0.197497496947889 
1870	 0.197558965591023 
1871	 0.197583436325 
1872	 0.197607540789776 
1873	 0.197645055896872 
1874	 0.19760220222816 
1875	 0.197491117037865 
1876	 0.19743723117031 
1877	 0.19727261434394 
1878	 0.197094012124993 
1879	 0.197026202811877 
1880	 0.19688227385498 
1881	 0.196682982695135 
1882	 0.196444413471319 
1883	 0.196222066567966 
1884	 0.195917678647131 
1885	 0.195582539036596 
1886	 0.195230240502637 
1887	 0.194823786417823 
1888	 0.194336915630489 
1889	 0.19381387911746 
1890	 0.193334955116982 
1891	 0.192822190937498 
1892	 0.192265760631115 
1893	 0.19168332104196 
1894	 0.191067615676315 
1895	 0.19042120153863 
1896	 0.189781339869377 
1897	 0.189132925097424 
1898	 0.188539824755988 
1899	 0.187934898125171 
1900	 0.187263565932324 
1901	 0.186604255792643 
1902	 0.185986334038466 
1903	 0.185427626222844 
1904	 0.184893926788442 
1905	 0.184418716803467 
1906	 0.183980681192549 
1907	 0.183532312777044 
1908	 0.183079296689439 
1909	 0.182686293397274 
1910	 0.182350849607632 
1911	 0.182052719994235 
1912	 0.181821053840601 
1913	 0.181608693562841 
1914	 0.181432168189725 
1915	 0.181294600418645 
1916	 0.181215532566861 
1917	 0.181127425442067 
1918	 0.181063367015579 
1919	 0.180981678497075 
1920	 0.180870654278881 
1921	 0.18076713381154 
1922	 0.180654974308758 
1923	 0.180621473224135 
1924	 0.180684036457806 
1925	 0.180738945171574 
1926	 0.180755848800136 
1927	 0.180747829425633 
1928	 0.180795043384662 
1929	 0.180822644662888 
1930	 0.180884911967015 
1931	 0.181012465562403 
1932	 0.181167707875525 
1933	 0.181333095001005 
1934	 0.181443089869866 
1935	 0.181575549775154 
1936	 0.181743192088036 
1937	 0.181903161961976 
1938	 0.182052087953866 
1939	 0.182217877657707 
1940	 0.182400134714187 
1941	 0.182584747200733 
1942	 0.182775307921707 
1943	 0.182966389808016 
1944	 0.183210112129501 
1945	 0.183477748344424 
1946	 0.183711901672122 
1947	 0.183936109234604 
1948	 0.184201464269469 
1949	 0.184470169741028 
1950	 0.184721300385272 
1951	 0.184968693271139 
1952	 0.185247477564731 
1953	 0.185530049486428 
1954	 0.185784260701514 
1955	 0.186111825228851 
1956	 0.186498043045824 
1957	 0.186844962574079 
1958	 0.18718627542765 
1959	 0.187529351466848 
1960	 0.187841536605268 
1961	 0.188115076844505 
1962	 0.188314759631136 
1963	 0.188601386984918 
1964	 0.188877260064149 
1965	 0.189172814203511 
1966	 0.189526108339787 
1967	 0.189918462958272 
1968	 0.190180576234574 
1969	 0.190478189471986 
1970	 0.190696105975388 
1971	 0.190857851153738 
1972	 0.191185802902415 
1973	 0.19144882830246 
1974	 0.191723100248127 
1975	 0.192098544395844 
1976	 0.192399633778435 
1977	 0.192606613681066 
1978	 0.192851401635215 
1979	 0.19312861408954 
1980	 0.193321145196818 
1981	 0.193540417088067 
1982	 0.193898052486006 
1983	 0.194251013093598 
1984	 0.194599510442788 
1985	 0.194891107826913 
1986	 0.195121684278967 
1987	 0.19539239084428 
1988	 0.195631831569504 
1989	 0.19590853811365 
1990	 0.1962317345219 
1991	 0.196535597592527 
1992	 0.196832004776888 
1993	 0.197157689047558 
1994	 0.19743941237408 
1995	 0.197692249423974 
1996	 0.197951201849996 
1997	 0.198180789272117 
1998	 0.198470066323488 
1999	 0.198818882463498 
2000	 0.199129089067374 
2001	 0.19950080148868 
2002	 0.19975181198268 
2003	 0.199871568641545 
2004	 0.200100352949591 
2005	 0.200315838578583 
2006	 0.200545390096486 
2007	 0.200860834878648 
2008	 0.201154721289699 
2009	 0.201354040707078 
2010	 0.201540397152687 
2011	 0.201698168763408 
2012	 0.201861663823669 
2013	 0.202011104825262 
2014	 0.202130036449427 
2015	 0.20226830268423 
2016	 0.202419622954863 
2017	 0.202553220823174 
2018	 0.202695724083216 
2019	 0.202828117788975 
2020	 0.202961650010296 
2021	 0.20304216497373 
2022	 0.203143267611573 
2023	 0.203221504410314 
2024	 0.203259745872927 
2025	 0.203295287436906 
2026	 0.203326056311654 
2027	 0.203321804051373 
2028	 0.20335282183935 
2029	 0.203430915782842 
2030	 0.203436628625259 
2031	 0.20341715853172 
2032	 0.203405912924804 
2033	 0.203319504731219 
2034	 0.203290633152236 
2035	 0.203291070628783 
2036	 0.203316464220802 
2037	 0.203360188541797 
2038	 0.203445401981578 
2039	 0.203464168226505 
2040	 0.203459535458809 
2041	 0.203476171320145 
2042	 0.20345599163552 
2043	 0.203473246711017 
2044	 0.203528713499478 
2045	 0.203577318465212 
2046	 0.203637969659909 
2047	 0.203666646480847 
2048	 0.203685266039581 
2049	 0.203728584114298 
2050	 0.203756917596918 
2051	 0.203801761206652 
2052	 0.203881969916856 
2053	 0.203840729249711 
2054	 0.203848118315529 
2055	 0.203825501341899 
2056	 0.203833626297869 
2057	 0.203863905448567 
2058	 0.203891338098633 
2059	 0.203923356099255 
2060	 0.203946072294797 
2061	 0.203970213506469 
2062	 0.203997546930385 
2063	 0.20401260015845 
2064	 0.204030714484774 
2065	 0.204045504634551 
2066	 0.204088973799054 
2067	 0.204089420917763 
2068	 0.204119975183252 
2069	 0.204149992705258 
2070	 0.204173226053436 
2071	 0.204201048163353 
2072	 0.20422426730292 
2073	 0.204295645377942 
2074	 0.204423133342461 
2075	 0.204479748565275 
2076	 0.204568543646699 
2077	 0.204593251593874 
2078	 0.204457926777684 
2079	 0.204454305543921 
2080	 0.204526658351605 
2081	 0.204568436213872 
2082	 0.204650030106649 
2083	 0.204740467501512 
2084	 0.20482539035326 
2085	 0.20483940159387 
2086	 0.204856345011056 
2087	 0.204874110312037 
2088	 0.204893006640895 
2089	 0.204856441131076 
2090	 0.204879064595091 
2091	 0.204948211071263 
2092	 0.204984657411193 
2093	 0.205013014297843 
2094	 0.205067141072285 
2095	 0.205153177100164 
2096	 0.205197487789772 
2097	 0.205261012865916 
2098	 0.205266524904816 
2099	 0.205261359952814 
2100	 0.205255082865604 
2101	 0.205251104457398 
2102	 0.205263424707769 
2103	 0.20526214045404 
2104	 0.205253844401776 
2105	 0.205226431420055 
2106	 0.205186434390087 
2107	 0.205149392927887 
2108	 0.205075625010373 
2109	 0.205041525773514 
2110	 0.205060925450934 
2111	 0.205033635259632 
2112	 0.204997738848368 
2113	 0.204955017123661 
2114	 0.204887166114886 
2115	 0.204801723429895 
2116	 0.204679552259016 
2117	 0.204599559536984 
2118	 0.204541596202082 
2119	 0.204499226184646 
2120	 0.204429013894726 
2121	 0.204409326839078 
2122	 0.204308989165962 
2123	 0.204130199900426 
2124	 0.203991080180099 
2125	 0.203785170728584 
2126	 0.203696498336984 
2127	 0.20365560778949 
2128	 0.203640048771109 
2129	 0.203753936572341 
2130	 0.203799358696539 
2131	 0.203808433603582 
2132	 0.203843586283687 
2133	 0.203925343920084 
2134	 0.203904166214232 
2135	 0.203897658322441 
2136	 0.203953673085872 
2137	 0.20399166782201 
2138	 0.204003219668199 
2139	 0.204062409041256 
2140	 0.204190747348631 
2141	 0.20423585661542 
2142	 0.204247282337309 
2143	 0.20427982318427 
2144	 0.204245942909924 
2145	 0.204298032763021 
2146	 0.204427462907143 
2147	 0.204519311195546 
2148	 0.204631140916031 
2149	 0.204740989547446 
2150	 0.204822734444309 
2151	 0.204933398724684 
2152	 0.205067804541388 
2153	 0.205214302374575 
2154	 0.205376111842569 
2155	 0.205474476638204 
2156	 0.20561610900187 
2157	 0.2057934092266 
2158	 0.205889881368856 
2159	 0.205939018226491 
2160	 0.206049771140968 
2161	 0.206143514870424 
2162	 0.20622552434629 
2163	 0.20640009754409 
2164	 0.206439632139527 
2165	 0.206329464807967 
2166	 0.206322512718043 
2167	 0.206320343400914 
2168	 0.206314621646172 
2169	 0.206360112175172 
2170	 0.206374582854029 
2171	 0.20636999239284 
2172	 0.206341586562939 
2173	 0.206327982494965 
2174	 0.206245756692776 
2175	 0.206190357407021 
2176	 0.206053367175369 
2177	 0.205990417540329 
2178	 0.205946852207731 
2179	 0.2059461097588 
2180	 0.20595768763808 
2181	 0.206035166531236 
2182	 0.206193637370479 
2183	 0.206281975315819 
2184	 0.206426757870496 
2185	 0.206475062513679 
2186	 0.206476340454796 
2187	 0.206420141243375 
2188	 0.206236119308782 
2189	 0.206159393021535 
2190	 0.206074050148843 
2191	 0.206013906860234 
2192	 0.20606541022218 
2193	 0.206037311759267 
2194	 0.205897336251998 
2195	 0.205856206189028 
2196	 0.205863810990059 
2197	 0.205886992779222 
2198	 0.20585350600577 
2199	 0.205751341443105 
2200	 0.205702430945858 
2201	 0.205580511484841 
2202	 0.205507170757365 
2203	 0.205566347109424 
2204	 0.205456186795758 
2205	 0.205215096261516 
2206	 0.205033451769066 
2207	 0.204778407077665 
2208	 0.204618669101029 
2209	 0.204549532629605 
2210	 0.204409726062959 
2211	 0.204279628763053 
2212	 0.204144219076558 
2213	 0.203973566007481 
2214	 0.203797814057248 
2215	 0.20361261854053 
2216	 0.203451077133745 
2217	 0.203287681609367 
2218	 0.203117228729302 
2219	 0.203018196013566 
2220	 0.202835903227578 
2221	 0.202559899755263 
2222	 0.202324407316389 
2223	 0.202066283304177 
2224	 0.201828265595769 
2225	 0.201742790946547 
2226	 0.201486766983877 
2227	 0.201183358143521 
2228	 0.200871752425282 
2229	 0.200415175870291 
2230	 0.199770449154972 
2231	 0.199257263044881 
2232	 0.198713721457747 
2233	 0.198145248652643 
2234	 0.197655245741529 
2235	 0.197040610110871 
2236	 0.196330711763897 
2237	 0.195608371559071 
2238	 0.194826898610772 
2239	 0.194029457171965 
2240	 0.193240899412854 
2241	 0.192321096710663 
2242	 0.19135745957897 
2243	 0.190305538529955 
2244	 0.189086434755154 
2245	 0.187899680686263 
2246	 0.186660947092859 
2247	 0.185424799766385 
2248	 0.184165358591257 
2249	 0.182882773960702 
2250	 0.181579222087627 
2251	 0.180302191092444 
2252	 0.178850057613789 
2253	 0.177570931469515 
2254	 0.176260824090369 
2255	 0.174768514825325 
2256	 0.173469222842246 
2257	 0.172170990686996 
2258	 0.170939921863845 
2259	 0.169818750945605 
2260	 0.168620778888822 
2261	 0.167408100736598 
2262	 0.166236458871265 
2263	 0.165000124609857 
2264	 0.163931399340366 
2265	 0.163027108264837 
2266	 0.162027595537074 
2267	 0.161084424769827 
2268	 0.160090903872061 
2269	 0.159013960369045 
2270	 0.158004350709785 
2271	 0.156988780333179 
2272	 0.156053735367678 
2273	 0.155187244053922 
2274	 0.154317423813522 
2275	 0.153562642994162 
2276	 0.152707742128621 
2277	 0.15180261284026 
2278	 0.150871689173718 
2279	 0.149891653539659 
2280	 0.148890838850613 
2281	 0.147848039428106 
2282	 0.146825027099702 
2283	 0.145777231991342 
2284	 0.144735260243997 
2285	 0.143719577341151 
2286	 0.142741771897035 
2287	 0.141654221386938 
2288	 0.140589428875699 
2289	 0.139469777575334 
2290	 0.138135048390667 
2291	 0.137064242760265 
2292	 0.135959850594538 
2293	 0.13471384310893 
2294	 0.133666172046525 
2295	 0.132501867185011 
2296	 0.131509162870072 
2297	 0.130721205210377 
2298	 0.130209021582999 
2299	 0.129618021567312 
2300	 0.129058817301106 
2301	 0.128736682749373 
2302	 0.128549571808844 
2303	 0.12846494216713 
2304	 0.128642027606596 
2305	 0.128768287176968 
2306	 0.128785770746804 
2307	 0.129178801884305 
2308	 0.129803194193895 
2309	 0.130536523718961 
2310	 0.131613973598516 
2311	 0.132535457144145 
2312	 0.133514941481206 
2313	 0.134420795730516 
2314	 0.135263867322623 
2315	 0.136147492056189 
2316	 0.137079184710368 
2317	 0.137932525287749 
2318	 0.138722772192324 
2319	 0.139521180685948 
2320	 0.140359158586692 
2321	 0.141038506625568 
2322	 0.141768268735094 
2323	 0.142278511461569 
2324	 0.14252467420457 
2325	 0.142705427859077 
2326	 0.142755278227399 
2327	 0.142708283266049 
2328	 0.142570261003741 
2329	 0.142372937760409 
2330	 0.142062921331887 
2331	 0.141618523128875 
2332	 0.141267960343549 
2333	 0.140834643084665 
2334	 0.140338938849899 
2335	 0.139887901027733 
2336	 0.139262737107578 
2337	 0.138579817953982 
2338	 0.138178109295275 
2339	 0.137692582320166 
2340	 0.137121014219776 
2341	 0.136522935479036 
2342	 0.135614957219716 
2343	 0.134707659539439 
2344	 0.134009162502175 
2345	 0.133589071779351 
2346	 0.133478590367188 
2347	 0.133497532082094 
2348	 0.133722233558539 
2349	 0.134117622928756 
2350	 0.134398686865079 
2351	 0.134935817470056 
2352	 0.135688883885043 
2353	 0.136245565827277 
2354	 0.13700555748002 
2355	 0.137753541852086 
2356	 0.138184878288836 
2357	 0.138801567942268 
2358	 0.139495486731627 
2359	 0.139954124255961 
2360	 0.140280587807465 
2361	 0.14028004190722 
2362	 0.140145299311454 
2363	 0.140183430654104 
2364	 0.140320765674792 
2365	 0.140574883094823 
2366	 0.140694821969487 
2367	 0.140590426293439 
2368	 0.140564245322379 
2369	 0.140755772682614 
2370	 0.140820791231471 
2371	 0.140737822845429 
2372	 0.141014736287629 
2373	 0.141353365841151 
2374	 0.141593009256257 
2375	 0.14189654153702 
2376	 0.141686474385094 
2377	 0.141260908217036 
2378	 0.141081977756837 
2379	 0.141062904657089 
2380	 0.141191619143404 
2381	 0.141329690572736 
2382	 0.141547359429792 
2383	 0.141830659381636 
2384	 0.141924808421305 
2385	 0.142156271848771 
2386	 0.142129434407774 
2387	 0.141669907039176 
2388	 0.141792008088461 
2389	 0.142141462811439 
2390	 0.142249565092405 
2391	 0.142558320162001 
2392	 0.142755550726344 
2393	 0.142650208415878 
2394	 0.142754473897841 
2395	 0.143178597624247 
2396	 0.1431337529474 
2397	 0.142737585440133 
2398	 0.142630961626791 
2399	 0.142413475271743 
2400	 0.142516756195067 
2401	 0.142929451544648 
2402	 0.143389247227764 
2403	 0.143648468261716 
2404	 0.143372856714764 
2405	 0.143244340930321 
2406	 0.143279195753892 
2407	 0.143250084703293 
2408	 0.143480333733888 
2409	 0.144031609819354 
2410	 0.144242906590382 
2411	 0.144307118411288 
2412	 0.1445439846593 
2413	 0.144573562269835 
2414	 0.144391024157626 
2415	 0.144337779190233 
2416	 0.144404299774565 
2417	 0.144237655962983 
2418	 0.144178155512291 
2419	 0.144185021996459 
2420	 0.144215113997086 
2421	 0.144425324254429 
2422	 0.144611546916564 
2423	 0.144824684386276 
2424	 0.145036746439345 
2425	 0.144825064799379 
2426	 0.144743062241156 
2427	 0.144707761574265 
2428	 0.144276973892565 
2429	 0.144504920887722 
2430	 0.144509534541154 
2431	 0.144167612333081 
2432	 0.144117533991035 
2433	 0.144106900152936 
2434	 0.144514759536991 
2435	 0.145033290858784 
2436	 0.145440608538455 
2437	 0.145048416224942 
2438	 0.144128992546653 
2439	 0.143581209713505 
2440	 0.143491495982685 
2441	 0.143794199999638 
2442	 0.143963970116204 
2443	 0.14401074834532 
2444	 0.143645184435396 
2445	 0.142759531562428 
2446	 0.142328767734165 
2447	 0.142750943988436 
2448	 0.143130636188338 
2449	 0.143414545434613 
2450	 0.143739272824131 
2451	 0.143383150067732 
2452	 0.143072802705441 
2453	 0.143049806699123 
2454	 0.143155575975068 
2455	 0.143480915903234 
2456	 0.143251372160912 
2457	 0.14279640131184 
2458	 0.142423476675649 
2459	 0.141923500436444 
2460	 0.141607696729186 
2461	 0.141520251290424 
2462	 0.141294233260876 
2463	 0.140757616043088 
2464	 0.14056748218268 
2465	 0.140891873824333 
2466	 0.140689110487144 
2467	 0.140482644566394 
2468	 0.141003633985688 
2469	 0.140739623369583 
2470	 0.140740720236281 
2471	 0.141567692730558 
2472	 0.141087959086508 
2473	 0.140363392095672 
2474	 0.140315628309655 
2475	 0.139884742908512 
2476	 0.139264122899251 
2477	 0.139062923429262 
2478	 0.13902476765178 
2479	 0.138714957288212 
2480	 0.139564037058749 
2481	 0.139655355740378 
2482	 0.139423703576358 
2483	 0.139676914088926 
2484	 0.139461718424093 
2485	 0.140270090310586 
2486	 0.141134498218222 
2487	 0.141886424949435 
2488	 0.142398389430087 
2489	 0.142193456755986 
2490	 0.141846251304767 
2491	 0.141518904533229 
2492	 0.140928485886209 
2493	 0.140687368943042 
2494	 0.141297785312757 
2495	 0.141351997282069 
2496	 0.140810775101249 
2497	 0.141012543875885 
2498	 0.141622735995583 
2499	 0.142301920828208 
2500	 0.143921873794787 
