Wavelength	Tablay400037.asd
350	 0.162690572927461 
351	 0.144453834558371 
352	 0.117059045992273 
353	 0.110468633974281 
354	 0.152360702529554 
355	 0.133854907519031 
356	 9.72603380888755E-02 
357	 9.37121939387471E-02 
358	 8.59379782106611E-02 
359	 0.090945231113137 
360	 0.110835380552472 
361	 0.131163795494179 
362	 4.99212796332714E-02 
363	 6.07974196497638E-02 
364	 0.186583342524938 
365	 0.170016394875732 
366	 0.132505960835134 
367	 0.125294662560896 
368	 0.156049503286726 
369	 0.15846260613731 
370	 0.10749570670976 
371	 7.09394618288136E-02 
372	 0.146490681231347 
373	 0.192757841673392 
374	 0.147474456333148 
375	 5.10798061865937E-02 
376	 9.10705042213137E-02 
377	 0.106999843764177 
378	 0.120210706452303 
379	 0.157638407561805 
380	 0.113108273470011 
381	 9.30062599663513E-02 
382	 0.108153989693667 
383	 0.10820376926508 
384	 0.115180712698147 
385	 9.44665962845652E-02 
386	 6.50409130936948E-02 
387	 0.129730419016264 
388	 0.126331272737159 
389	 9.84627312361175E-02 
390	 0.112317967394763 
391	 0.111397354417498 
392	 0.105795688431315 
393	 9.24583236985563E-02 
394	 6.55481771604995E-02 
395	 8.46372006322656E-02 
396	 0.102750923881635 
397	 9.06152700138059E-02 
398	 6.93915589134109E-02 
399	 7.92448380750946E-02 
400	 0.101023789748556 
401	 0.105027642266156 
402	 9.02807475917494E-02 
403	 8.08035305699256E-02 
404	 8.60290149828302E-02 
405	 0.101609876713076 
406	 0.113003927195012 
407	 0.108238569135785 
408	 9.07931291348326E-02 
409	 8.95595957283383E-02 
410	 9.02168002215908E-02 
411	 9.14940969314768E-02 
412	 9.33819090548645E-02 
413	 8.26726730138143E-02 
414	 7.88976255594004E-02 
415	 8.54782104676069E-02 
416	 8.98342851652056E-02 
417	 8.90931714707261E-02 
418	 8.71303535637594E-02 
419	 8.65388123752005E-02 
420	 8.40499183182655E-02 
421	 8.02014825791008E-02 
422	 7.69160125430811E-02 
423	 7.66025578546679E-02 
424	 8.06090687665422E-02 
425	 8.57328161106434E-02 
426	 8.66953197287757E-02 
427	 0.076745801700178 
428	 8.18002981837349E-02 
429	 8.66107944021349E-02 
430	 7.89314209499955E-02 
431	 8.14258055193684E-02 
432	 8.12678468902565E-02 
433	 7.86512096290272E-02 
434	 0.080188618913379 
435	 0.082987611423277 
436	 8.56619177840508E-02 
437	 8.64091328925758E-02 
438	 8.25338629866159E-02 
439	 7.65699088698944E-02 
440	 7.47780607239101E-02 
441	 0.080348273311008 
442	 8.15195113856495E-02 
443	 8.06486233521917E-02 
444	 7.93700094385184E-02 
445	 7.83521535975183E-02 
446	 7.66050389351428E-02 
447	 7.64553679953974E-02 
448	 7.87189588019791E-02 
449	 8.03707955008811E-02 
450	 8.08127858214705E-02 
451	 8.09423267232813E-02 
452	 8.19719208950108E-02 
453	 8.28311949790402E-02 
454	 8.23450824278858E-02 
455	 8.04751394193075E-02 
456	 7.84311828019251E-02 
457	 7.88212327048361E-02 
458	 7.89473738965194E-02 
459	 7.71274158148469E-02 
460	 0.078067195392208 
461	 7.87119423359684E-02 
462	 7.87562074713305E-02 
463	 7.92203470661816E-02 
464	 7.91403285088458E-02 
465	 7.73888427375952E-02 
466	 7.52938079578296E-02 
467	 7.79446099773855E-02 
468	 7.82412082611844E-02 
469	 7.71857847820712E-02 
470	 7.72858570869344E-02 
471	 7.71534282928609E-02 
472	 0.076840228397108 
473	 0.076216414871815 
474	 7.51619859152171E-02 
475	 7.62302098476321E-02 
476	 7.69110928705637E-02 
477	 7.58873944604703E-02 
478	 7.60189959305331E-02 
479	 7.63292174636748E-02 
480	 7.62136265969245E-02 
481	 7.54055041776316E-02 
482	 7.49236354101171E-02 
483	 7.56385110346088E-02 
484	 7.67761491322482E-02 
485	 7.58907283736576E-02 
486	 7.52745398607212E-02 
487	 7.53482443571383E-02 
488	 7.57195989890561E-02 
489	 7.47834765143178E-02 
490	 7.48995210542707E-02 
491	 7.55621284511282E-02 
492	 7.48299225221201E-02 
493	 7.36662976995809E-02 
494	 7.39067126026741E-02 
495	 0.075759282383998 
496	 7.68590810174003E-02 
497	 7.70246716309997E-02 
498	 7.64957309153461E-02 
499	 0.075849700365522 
500	 7.59910288481532E-02 
501	 7.67119932244303E-02 
502	 7.73392796912766E-02 
503	 7.69500339149804E-02 
504	 7.61936035443185E-02 
505	 7.64537269335472E-02 
506	 7.80132418359071E-02 
507	 7.84592831033225E-02 
508	 7.85859047769627E-02 
509	 7.86809327113671E-02 
510	 7.88334802294029E-02 
511	 7.90495345045591E-02 
512	 7.89939784918852E-02 
513	 7.89168675867343E-02 
514	 7.98324230698798E-02 
515	 8.00166104528476E-02 
516	 7.99550923261182E-02 
517	 8.03016617916069E-02 
518	 8.02306828904376E-02 
519	 8.02677832662856E-02 
520	 8.04356350982328E-02 
521	 8.04599794992172E-02 
522	 8.09425580291612E-02 
523	 8.17226730454306E-02 
524	 8.25198942777261E-02 
525	 8.30375462700386E-02 
526	 8.35608447100638E-02 
527	 8.39611655291557E-02 
528	 0.084158338604543 
529	 8.52106296080216E-02 
530	 8.55172704278221E-02 
531	 8.51352401419787E-02 
532	 8.59351712620136E-02 
533	 8.71203100585721E-02 
534	 8.79964573996196E-02 
535	 8.82655892630766E-02 
536	 8.85946036310558E-02 
537	 8.95038858920566E-02 
538	 9.05797662032447E-02 
539	 9.10321018558674E-02 
540	 9.17806605209321E-02 
541	 9.27149896161181E-02 
542	 9.35888947224579E-02 
543	 9.40922400874418E-02 
544	 9.50457356562965E-02 
545	 9.61242977161618E-02 
546	 9.68179000702196E-02 
547	 9.74482236353801E-02 
548	 0.098219013769742 
549	 9.92102909031797E-02 
550	 0.100376446773161 
551	 0.101340311438113 
552	 0.102228942746629 
553	 0.103254755631647 
554	 0.10464152978183 
555	 0.105735113415245 
556	 0.106561972820879 
557	 0.10751635028996 
558	 0.108991164297069 
559	 0.110515232687066 
560	 0.111885568531252 
561	 0.113393563067286 
562	 0.114789594521562 
563	 0.116126812634436 
564	 0.117495946333121 
565	 0.118784276873715 
566	 0.120198867411662 
567	 0.121645924326651 
568	 0.122830648465159 
569	 0.123890598680702 
570	 0.124911654479589 
571	 0.126057652537406 
572	 0.127682249188579 
573	 0.129416688608811 
574	 0.131170614337264 
575	 0.132894643063675 
576	 0.134121793553716 
577	 0.135509947499955 
578	 0.137107300319856 
579	 0.13821539919886 
580	 0.139515258821016 
581	 0.140721927435554 
582	 0.141585707371227 
583	 0.142608132308321 
584	 0.143744503666937 
585	 0.144937973942428 
586	 0.146149289199192 
587	 0.147687229258428 
588	 0.148919646183323 
589	 0.149717128812936 
590	 0.150918524925823 
591	 0.152123646834083 
592	 0.153148673549522 
593	 0.153974687165051 
594	 0.155031807023866 
595	 0.156055009410695 
596	 0.156829725955898 
597	 0.157250887295631 
598	 0.157931972049253 
599	 0.158694970801901 
600	 0.159327436937146 
601	 0.159885517345973 
602	 0.160451413083665 
603	 0.161053843331482 
604	 0.16166294527419 
605	 0.162061030525043 
606	 0.162588481602861 
607	 0.163224418196866 
608	 0.163454812120476 
609	 0.163609994432016 
610	 0.163879800974197 
611	 0.164271244598601 
612	 0.164268419199874 
613	 0.164533587457977 
614	 0.16502287275667 
615	 0.165268735007693 
616	 0.165557609938652 
617	 0.165829458853548 
618	 0.166000837848601 
619	 0.166000623546492 
620	 0.166177809815001 
621	 0.166440254405465 
622	 0.166614971943394 
623	 0.166956963848078 
624	 0.167146491218803 
625	 0.167181587363986 
626	 0.167357620556034 
627	 0.167445287917512 
628	 0.167381208393473 
629	 0.167296968476615 
630	 0.167768777918057 
631	 0.16807865243153 
632	 0.168122464834061 
633	 0.168101933406669 
634	 0.168206574305533 
635	 0.168457463088539 
636	 0.168713937771952 
637	 0.168669304518935 
638	 0.16867854548371 
639	 0.168850094242259 
640	 0.169124221057664 
641	 0.169099534235685 
642	 0.169259303474759 
643	 0.169610916192262 
644	 0.169859135404371 
645	 0.169890626505614 
646	 0.169973970409537 
647	 0.170223178631456 
648	 0.170422736979988 
649	 0.170653605308144 
650	 0.170880713049131 
651	 0.17106859458375 
652	 0.171297174305411 
653	 0.171663291985276 
654	 0.172029077657178 
655	 0.172111637769985 
656	 0.172338572082958 
657	 0.172674163121534 
658	 0.173005594516034 
659	 0.173219818913008 
660	 0.173430042913406 
661	 0.173737407990145 
662	 0.174161113865035 
663	 0.174304920981442 
664	 0.174560857339091 
665	 0.175032359805578 
666	 0.175484848142518 
667	 0.175808752358674 
668	 0.176125727830482 
669	 0.176544013010149 
670	 0.177015897500992 
671	 0.177432414421565 
672	 0.177746752928886 
673	 0.177991340247598 
674	 0.178444901597871 
675	 0.178973398266254 
676	 0.179486143589266 
677	 0.179992065581118 
678	 0.180490682755577 
679	 0.18094799045877 
680	 0.181359724130255 
681	 0.181806678551986 
682	 0.182448791122829 
683	 0.183131147903146 
684	 0.183578980823165 
685	 0.18405829358491 
686	 0.184672339797358 
687	 0.185321206578278 
688	 0.185650698315748 
689	 0.186251314728897 
690	 0.186972226381459 
691	 0.187548920584089 
692	 0.188025551324101 
693	 0.188714440620176 
694	 0.189529908106373 
695	 0.190164355916147 
696	 0.190830571477557 
697	 0.191532165607371 
698	 0.192214546047558 
699	 0.192763673249285 
700	 0.193571239888325 
701	 0.194366417142879 
702	 0.194867119125554 
703	 0.195483405151196 
704	 0.196267721035403 
705	 0.197132047336749 
706	 0.197907652524363 
707	 0.198669022401067 
708	 0.199395722775457 
709	 0.200126790227843 
710	 0.201019839339445 
711	 0.201838959124815 
712	 0.202563947455035 
713	 0.203265053259781 
714	 0.204075998077947 
715	 0.204862780689671 
716	 0.205622421240785 
717	 0.206445242344161 
718	 0.207307080543771 
719	 0.208135806494314 
720	 0.208880092396614 
721	 0.209519422030432 
722	 0.210359739116221 
723	 0.211232980325179 
724	 0.211930967372179 
725	 0.212706241905748 
726	 0.213509084227505 
727	 0.214297484516107 
728	 0.215037432476532 
729	 0.215686045616375 
730	 0.216346972967421 
731	 0.217057600249523 
732	 0.217715320824112 
733	 0.218374519383629 
734	 0.219020440825503 
735	 0.219631017455935 
736	 0.220228728138286 
737	 0.220812245128795 
738	 0.221395400294989 
739	 0.221998404891103 
740	 0.222636706806018 
741	 0.223174372745984 
742	 0.223617140515692 
743	 0.224202765709717 
744	 0.224704826553451 
745	 0.225169543985578 
746	 0.225664375586271 
747	 0.226080207189144 
748	 0.226421260828337 
749	 0.226718721967186 
750	 0.227027111025511 
751	 0.227457939088132 
752	 0.22772509099343 
753	 0.227831172490813 
754	 0.228185378687818 
755	 0.228360036290948 
756	 0.228390587124617 
757	 0.228419595688039 
758	 0.228573849721184 
759	 0.228672616035527 
760	 0.228745257617709 
761	 0.228883301560052 
762	 0.22888336112798 
763	 0.228940450969961 
764	 0.229024393620222 
765	 0.228860629178779 
766	 0.228803306469126 
767	 0.228750648786642 
768	 0.22861539293766 
769	 0.228555525488176 
770	 0.228457198000104 
771	 0.22828885066702 
772	 0.228076613391334 
773	 0.227980097831081 
774	 0.227740233449632 
775	 0.227393516957704 
776	 0.227203974722118 
777	 0.226999904854789 
778	 0.226654273973169 
779	 0.226208475834065 
780	 0.225968657009508 
781	 0.225713382610039 
782	 0.225384388847014 
783	 0.224995160294761 
784	 0.224639467034301 
785	 0.224280965532173 
786	 0.223904149888361 
787	 0.223501406379532 
788	 0.223028071713277 
789	 0.22253893319589 
790	 0.222052849243657 
791	 0.221537597377911 
792	 0.221070119596159 
793	 0.220664580475493 
794	 0.220266247478093 
795	 0.219693145197796 
796	 0.219061974775601 
797	 0.21851095108709 
798	 0.218123267217092 
799	 0.217692955356076 
800	 0.217167583790144 
801	 0.216603850220488 
802	 0.216116695402991 
803	 0.215554400229024 
804	 0.214934203133244 
805	 0.214318450071505 
806	 0.213797498469418 
807	 0.213223067506189 
808	 0.212680583693848 
809	 0.212221826741978 
810	 0.21162608467483 
811	 0.210980692179407 
812	 0.210409467599264 
813	 0.209983012129995 
814	 0.20938915922177 
815	 0.208757198064601 
816	 0.208203932148687 
817	 0.207780277556275 
818	 0.207197253556902 
819	 0.206552978118582 
820	 0.205971908347764 
821	 0.205514942098906 
822	 0.205001378794744 
823	 0.204385993494211 
824	 0.203720544603567 
825	 0.203213140789036 
826	 0.20271887046456 
827	 0.202204651970783 
828	 0.201682340313458 
829	 0.201086305947023 
830	 0.20063417954835 
831	 0.200257157953086 
832	 0.199660070449798 
833	 0.199082732724128 
834	 0.198549997971593 
835	 0.198073868403681 
836	 0.197691195166874 
837	 0.197289864583437 
838	 0.196855057967901 
839	 0.196396603004625 
840	 0.195912579535904 
841	 0.19543212220218 
842	 0.194918979240707 
843	 0.194363090434378 
844	 0.194013487452681 
845	 0.193637704286802 
846	 0.193156579102268 
847	 0.192647754367708 
848	 0.192352332627838 
849	 0.191956807315172 
850	 0.191441940046251 
851	 0.19120559199587 
852	 0.190689105505759 
853	 0.190217199426881 
854	 0.189998776924592 
855	 0.189624296742388 
856	 0.189162217786173 
857	 0.188709864335065 
858	 0.188371160558896 
859	 0.188222463014574 
860	 0.187903234272481 
861	 0.187444366552583 
862	 0.187067804028674 
863	 0.186736400295161 
864	 0.18644540118864 
865	 0.186223737250945 
866	 0.186095128493448 
867	 0.185753485909633 
868	 0.185320431914756 
869	 0.184981203460995 
870	 0.184897613148584 
871	 0.184773729874929 
872	 0.184530683049293 
873	 0.184186998872426 
874	 0.183829899521248 
875	 0.1837549000618 
876	 0.183739143111411 
877	 0.183509689831951 
878	 0.183258289752208 
879	 0.183046144715218 
880	 0.182836444917914 
881	 0.182569590012398 
882	 0.182346341614211 
883	 0.182267913175532 
884	 0.182238300672884 
885	 0.182043216458294 
886	 0.181772338677682 
887	 0.181688442548456 
888	 0.181726089027543 
889	 0.181473929710962 
890	 0.181493463501138 
891	 0.181389153832401 
892	 0.181038039594914 
893	 0.18104801137375 
894	 0.181070094023084 
895	 0.180953261060851 
896	 0.180740120246867 
897	 0.180851222920037 
898	 0.180814083962935 
899	 0.180639801614557 
900	 0.180522872536604 
901	 0.1806717231143 
902	 0.180639361307015 
903	 0.18056042164399 
904	 0.180733943306944 
905	 0.18062257063436 
906	 0.180535547471613 
907	 0.180621978726147 
908	 0.180832969996632 
909	 0.180870813791921 
910	 0.180859918228542 
911	 0.180877185346948 
912	 0.180893894434543 
913	 0.180757810708172 
914	 0.180799828771508 
915	 0.181055026319169 
916	 0.181087197647048 
917	 0.181174373312944 
918	 0.181192347038992 
919	 0.181137542352603 
920	 0.181357260311625 
921	 0.181389061489391 
922	 0.181425509216656 
923	 0.181656233375777 
924	 0.181822211339064 
925	 0.18201643317777 
926	 0.182170393117361 
927	 0.182270625027328 
928	 0.182668235986206 
929	 0.182783600787228 
930	 0.182824209275759 
931	 0.183133631696407 
932	 0.183061870098324 
933	 0.18329182792263 
934	 0.183590296587651 
935	 0.183442354772877 
936	 0.183771582854391 
937	 0.184172431508629 
938	 0.184386889127077 
939	 0.184415194019472 
940	 0.18480809275136 
941	 0.185364206521883 
942	 0.185714992854664 
943	 0.185554398700215 
944	 0.185668063939731 
945	 0.18597309235443 
946	 0.186268573844252 
947	 0.186399510113913 
948	 0.186847886346294 
949	 0.187133134743182 
950	 0.18719857096918 
951	 0.18762737145168 
952	 0.187783563204005 
953	 0.18800639825248 
954	 0.188474381535458 
955	 0.188880096049629 
956	 0.189037665768092 
957	 0.189221548574076 
958	 0.189599164911243 
959	 0.18997450856081 
960	 0.190139102712216 
961	 0.190356944363359 
962	 0.190806226925523 
963	 0.191268495938237 
964	 0.191364266622424 
965	 0.191450268003942 
966	 0.191822645089275 
967	 0.192170487063283 
968	 0.192675467612957 
969	 0.193180035014085 
970	 0.193568036711925 
971	 0.194067386602856 
972	 0.194380296524609 
973	 0.194613149515636 
974	 0.194896024270775 
975	 0.195025529818098 
976	 0.195579017266305 
977	 0.196097187715944 
978	 0.196151113654971 
979	 0.196424212962508 
980	 0.19706464418293 
981	 0.197616395635748 
982	 0.197720286551356 
983	 0.198033113272496 
984	 0.198486945930162 
985	 0.198963540105555 
986	 0.199395634517188 
987	 0.200021466380873 
988	 0.200423463574378 
989	 0.200831864221006 
990	 0.201468834659773 
991	 0.201721520895394 
992	 0.201770344111343 
993	 0.201931409640765 
994	 0.202446091668045 
995	 0.203245207418591 
996	 0.202859904578162 
997	 0.202774192682788 
998	 0.204299813244423 
999	 0.204506025141532 
1000	 0.204695035564097 
1001	 0.206653349438982 
1002	 0.207229892359489 
1003	 0.207866377299581 
1004	 0.208518269000166 
1005	 0.209327244776182 
1006	 0.209922961082255 
1007	 0.210505944034573 
1008	 0.210975530675948 
1009	 0.21126961962637 
1010	 0.211678017530412 
1011	 0.212006742376435 
1012	 0.21244346472134 
1013	 0.213069564404589 
1014	 0.213535048472894 
1015	 0.213937468414877 
1016	 0.21430863618094 
1017	 0.214798262100341 
1018	 0.21532254951591 
1019	 0.216063193438687 
1020	 0.216727683772427 
1021	 0.217186441822897 
1022	 0.217430894973046 
1023	 0.217853985137753 
1024	 0.218124887189634 
1025	 0.218567893876269 
1026	 0.219209625745788 
1027	 0.219768363518861 
1028	 0.220306753495062 
1029	 0.220965088801624 
1030	 0.221392159543529 
1031	 0.221793967463672 
1032	 0.222217366331822 
1033	 0.222584387286356 
1034	 0.223236833297834 
1035	 0.223865472273411 
1036	 0.224455636617627 
1037	 0.225128684932304 
1038	 0.225664404307221 
1039	 0.226051139758683 
1040	 0.226501629599972 
1041	 0.22693507357885 
1042	 0.227344185981728 
1043	 0.2276967970759 
1044	 0.228223029399428 
1045	 0.228717642378591 
1046	 0.229105425006807 
1047	 0.229849139703729 
1048	 0.230579566836861 
1049	 0.231145512740758 
1050	 0.231725981457519 
1051	 0.232089034438197 
1052	 0.232624932682563 
1053	 0.233201588472249 
1054	 0.233811892054536 
1055	 0.234482536253523 
1056	 0.23536717755176 
1057	 0.236026576854065 
1058	 0.236589572457732 
1059	 0.237281425986118 
1060	 0.237941479751942 
1061	 0.238301175035697 
1062	 0.238841412804146 
1063	 0.239630258157716 
1064	 0.240378881604303 
1065	 0.241182989311039 
1066	 0.241980409311225 
1067	 0.242741731932903 
1068	 0.24351812378247 
1069	 0.244374318977125 
1070	 0.245225147967627 
1071	 0.246171824613372 
1072	 0.246974388980283 
1073	 0.24771441711315 
1074	 0.248387482795564 
1075	 0.24890448358876 
1076	 0.249625576972591 
1077	 0.250497549935471 
1078	 0.251302182855747 
1079	 0.252233833709795 
1080	 0.253103675346587 
1081	 0.253786317203924 
1082	 0.254694877408991 
1083	 0.255552251373028 
1084	 0.256168159228978 
1085	 0.257116443172463 
1086	 0.258010790360346 
1087	 0.258842690710838 
1088	 0.25955404580438 
1089	 0.260484970620748 
1090	 0.261136914727967 
1091	 0.261749499821521 
1092	 0.262544547128239 
1093	 0.263403085770537 
1094	 0.264495269711452 
1095	 0.265404969363937 
1096	 0.266222197060679 
1097	 0.267126180794103 
1098	 0.267791029090306 
1099	 0.268434241869262 
1100	 0.269130148939397 
1101	 0.269836605870556 
1102	 0.270600705966653 
1103	 0.271388372721035 
1104	 0.272234495759232 
1105	 0.273162214542256 
1106	 0.274006885083454 
1107	 0.274814905845351 
1108	 0.275668033214642 
1109	 0.276447564489936 
1110	 0.277158141645986 
1111	 0.277848949769139 
1112	 0.278615801994349 
1113	 0.279497414456293 
1114	 0.280393655022003 
1115	 0.28125038949461 
1116	 0.282069565737434 
1117	 0.282688761868809 
1118	 0.283367129287562 
1119	 0.284048944997926 
1120	 0.284760299887494 
1121	 0.285452123232607 
1122	 0.286204250043406 
1123	 0.28695318850732 
1124	 0.28755408068507 
1125	 0.288228308108333 
1126	 0.288932303455654 
1127	 0.289655765331541 
1128	 0.290509304178741 
1129	 0.291295991585481 
1130	 0.292038834673634 
1131	 0.292744737435416 
1132	 0.293343037684784 
1133	 0.2940884044937 
1134	 0.294821622122462 
1135	 0.295520188537109 
1136	 0.296268517176409 
1137	 0.29696986923527 
1138	 0.29761392096396 
1139	 0.298265652330908 
1140	 0.298914040603629 
1141	 0.299518873384488 
1142	 0.300206992604565 
1143	 0.300903712206393 
1144	 0.301616165106259 
1145	 0.302400054251454 
1146	 0.303104563244547 
1147	 0.30372268021352 
1148	 0.304373193056469 
1149	 0.30502895183084 
1150	 0.305680878865584 
1151	 0.306246711885702 
1152	 0.306862167345495 
1153	 0.307509808588874 
1154	 0.308098183884459 
1155	 0.308648997916069 
1156	 0.309277398340704 
1157	 0.309880814755605 
1158	 0.31049950165492 
1159	 0.311196133095629 
1160	 0.311861602033671 
1161	 0.312439496147363 
1162	 0.3131150367657 
1163	 0.313725014400461 
1164	 0.314324656591683 
1165	 0.315017100403985 
1166	 0.315597698728966 
1167	 0.31616785596735 
1168	 0.316770232393349 
1169	 0.317363837449002 
1170	 0.317907116123782 
1171	 0.318505867676084 
1172	 0.319177945351326 
1173	 0.319781837556719 
1174	 0.320412467440965 
1175	 0.320944718429259 
1176	 0.321338500833058 
1177	 0.32183462336853 
1178	 0.322341935010611 
1179	 0.322813151461323 
1180	 0.323352592177337 
1181	 0.323944529269046 
1182	 0.324438340440441 
1183	 0.324846053988155 
1184	 0.325235895481861 
1185	 0.325735060774843 
1186	 0.326233093435019 
1187	 0.326756461282596 
1188	 0.327275980203018 
1189	 0.327827538609383 
1190	 0.328338066267305 
1191	 0.328867047488794 
1192	 0.329342259761571 
1193	 0.329753845661661 
1194	 0.330219882366399 
1195	 0.330682553915513 
1196	 0.33112937381941 
1197	 0.331595331119646 
1198	 0.33206670744802 
1199	 0.332519601599251 
1200	 0.332965100793692 
1201	 0.333481529012226 
1202	 0.333997750645531 
1203	 0.334460548521286 
1204	 0.334938560160366 
1205	 0.335390095622761 
1206	 0.33577847983648 
1207	 0.33625608128318 
1208	 0.336749865055656 
1209	 0.337269406298195 
1210	 0.33784100416927 
1211	 0.338426555991011 
1212	 0.339095002864172 
1213	 0.339660200878515 
1214	 0.340105579624627 
1215	 0.340710534907992 
1216	 0.341380672097149 
1217	 0.341980939756297 
1218	 0.342668797572707 
1219	 0.343339756093094 
1220	 0.343858795526336 
1221	 0.344422827498482 
1222	 0.34496613771576 
1223	 0.345573936874234 
1224	 0.346151683954636 
1225	 0.346686269299496 
1226	 0.347250339166586 
1227	 0.347863710523145 
1228	 0.348426638716891 
1229	 0.348983424420522 
1230	 0.349513410217399 
1231	 0.350004668809759 
1232	 0.350502299346994 
1233	 0.350977982683777 
1234	 0.351463609963172 
1235	 0.351964429855902 
1236	 0.352446469966092 
1237	 0.352935627571227 
1238	 0.353386315308055 
1239	 0.353824694932784 
1240	 0.354217269362815 
1241	 0.354563108673762 
1242	 0.354943333054769 
1243	 0.355370246603569 
1244	 0.355838595287293 
1245	 0.356246393538617 
1246	 0.356678326841074 
1247	 0.35708963821744 
1248	 0.357460819751744 
1249	 0.357822213063636 
1250	 0.358207249964991 
1251	 0.358535002578519 
1252	 0.358776720658642 
1253	 0.359072282640178 
1254	 0.35937509666733 
1255	 0.359686557193171 
1256	 0.360010227563458 
1257	 0.360336204794722 
1258	 0.360724482738516 
1259	 0.36102003415784 
1260	 0.361249813784126 
1261	 0.361503690567538 
1262	 0.361750736558543 
1263	 0.361913311582279 
1264	 0.362101222621556 
1265	 0.362299411177948 
1266	 0.362505922674757 
1267	 0.362671978476892 
1268	 0.362899826587119 
1269	 0.363232012337643 
1270	 0.363424509066562 
1271	 0.363509119875506 
1272	 0.363720072782796 
1273	 0.363929819122736 
1274	 0.364154529599339 
1275	 0.364497213519332 
1276	 0.36475904413356 
1277	 0.364918638403998 
1278	 0.365153565359297 
1279	 0.36542481003868 
1280	 0.365697531322166 
1281	 0.365986260680617 
1282	 0.366293180351321 
1283	 0.366634887066827 
1284	 0.366947609152834 
1285	 0.367256320151886 
1286	 0.367565984519617 
1287	 0.367899625866092 
1288	 0.368218352922395 
1289	 0.368565658251933 
1290	 0.368978015760703 
1291	 0.369307446212743 
1292	 0.369583092827869 
1293	 0.369909462189511 
1294	 0.370217244946597 
1295	 0.370554533114557 
1296	 0.370946769442372 
1297	 0.371300819571093 
1298	 0.371648859702284 
1299	 0.371979700367343 
1300	 0.372275759916963 
1301	 0.372606504545562 
1302	 0.372940632853079 
1303	 0.373276826893715 
1304	 0.373678057276641 
1305	 0.374003664233144 
1306	 0.374273374647714 
1307	 0.374549994914438 
1308	 0.374730782695587 
1309	 0.375017969419281 
1310	 0.375277520415583 
1311	 0.375586645039505 
1312	 0.375782769905118 
1313	 0.375906916896455 
1314	 0.376131159836789 
1315	 0.376339670910914 
1316	 0.376552666534532 
1317	 0.376857024218494 
1318	 0.377080987274938 
1319	 0.377217472386842 
1320	 0.377405435031406 
1321	 0.377656738202802 
1322	 0.377812983252131 
1323	 0.377909739731051 
1324	 0.378029202840132 
1325	 0.378083899753739 
1326	 0.378193044408637 
1327	 0.378399866341087 
1328	 0.378502263930285 
1329	 0.378557524578447 
1330	 0.378614555804232 
1331	 0.378564738630832 
1332	 0.378598465054376 
1333	 0.378688458249197 
1334	 0.378799698166147 
1335	 0.3788550190477 
1336	 0.378925999617963 
1337	 0.378957694739943 
1338	 0.37892794320259 
1339	 0.378942809101373 
1340	 0.378979950270183 
1341	 0.378993301909831 
1342	 0.379012557270153 
1343	 0.378992422544858 
1344	 0.378952373249507 
1345	 0.378899045254604 
1346	 0.378800277935879 
1347	 0.378736131266862 
1348	 0.378690821092125 
1349	 0.37862067445348 
1350	 0.378567574315682 
1351	 0.378475207568537 
1352	 0.378341499535316 
1353	 0.37821329432848 
1354	 0.378045806843731 
1355	 0.377918869376429 
1356	 0.377824671353697 
1357	 0.377710499960216 
1358	 0.377596961972934 
1359	 0.377495117428301 
1360	 0.377406422880991 
1361	 0.37727141261269 
1362	 0.377185640760617 
1363	 0.377130548013268 
1364	 0.377012105319551 
1365	 0.376866312256805 
1366	 0.376738342832697 
1367	 0.376592502957011 
1368	 0.376438197903312 
1369	 0.376301967507696 
1370	 0.376130398599728 
1371	 0.375922427154692 
1372	 0.375721093883848 
1373	 0.375554006271926 
1374	 0.375287818867481 
1375	 0.374951228693671 
1376	 0.374640847122951 
1377	 0.37427688435155 
1378	 0.373929582678878 
1379	 0.373583665286581 
1380	 0.373267689856454 
1381	 0.372973613393574 
1382	 0.372637853186455 
1383	 0.372318805734066 
1384	 0.371983495279931 
1385	 0.371603300514028 
1386	 0.37122723921896 
1387	 0.370868013391123 
1388	 0.370495043906532 
1389	 0.370096043575789 
1390	 0.369695639453216 
1391	 0.369285925919914 
1392	 0.368870584335299 
1393	 0.368516660083676 
1394	 0.368175689737012 
1395	 0.367878336924815 
1396	 0.367656819223733 
1397	 0.367399010684535 
1398	 0.367147963940516 
1399	 0.366885043159878 
1400	 0.366628812861804 
1401	 0.366350204481443 
1402	 0.366068090590764 
1403	 0.365752142800756 
1404	 0.365427427499736 
1405	 0.365067027218479 
1406	 0.364690965063237 
1407	 0.364255567669165 
1408	 0.363764027192285 
1409	 0.363270402870196 
1410	 0.362716830329711 
1411	 0.362187024888783 
1412	 0.361634061982021 
1413	 0.361141094356018 
1414	 0.360552851798572 
1415	 0.360200993060648 
1416	 0.359960318129003 
1417	 0.359832103270219 
1418	 0.359955520880242 
1419	 0.360022182859841 
1420	 0.360154285348917 
1421	 0.360274820261249 
1422	 0.360429326902333 
1423	 0.360533244145628 
1424	 0.360621559899896 
1425	 0.360716743723586 
1426	 0.360701851789994 
1427	 0.360634835475914 
1428	 0.360590572510851 
1429	 0.360533217926556 
1430	 0.360513575469913 
1431	 0.360532879956912 
1432	 0.360541024548776 
1433	 0.360552211963994 
1434	 0.36056788735249 
1435	 0.360598905480028 
1436	 0.360608382794782 
1437	 0.360588998079519 
1438	 0.360626068590711 
1439	 0.360685198112396 
1440	 0.3607380751944 
1441	 0.360848533878067 
1442	 0.360888419258694 
1443	 0.360858570190027 
1444	 0.360898837996021 
1445	 0.360908374388388 
1446	 0.361004512183242 
1447	 0.361174290778603 
1448	 0.361348750706445 
1449	 0.361563918062304 
1450	 0.361797506386583 
1451	 0.362058052661789 
1452	 0.362332719085559 
1453	 0.362638454760318 
1454	 0.362947576755517 
1455	 0.363248546596409 
1456	 0.363590221002747 
1457	 0.363966860690563 
1458	 0.364345699725589 
1459	 0.364768736623353 
1460	 0.365175838455671 
1461	 0.365591384991036 
1462	 0.365982473910866 
1463	 0.366340966779863 
1464	 0.366725188024027 
1465	 0.367107176798218 
1466	 0.367490813019409 
1467	 0.367890351889036 
1468	 0.368281255158395 
1469	 0.368655626324802 
1470	 0.368997417337437 
1471	 0.369371668671242 
1472	 0.369763406960817 
1473	 0.370121071507864 
1474	 0.370482626155804 
1475	 0.370816367480183 
1476	 0.371119441123465 
1477	 0.371430029359061 
1478	 0.371708842191561 
1479	 0.372048730921802 
1480	 0.372428175179214 
1481	 0.372752064379128 
1482	 0.373096915271379 
1483	 0.373411927190468 
1484	 0.373656493937105 
1485	 0.373954895814105 
1486	 0.374289970950296 
1487	 0.374599518239619 
1488	 0.374928872735325 
1489	 0.375201677430922 
1490	 0.375405159307852 
1491	 0.375683710902293 
1492	 0.375961517672754 
1493	 0.376253534839783 
1494	 0.376614618653714 
1495	 0.376933894742564 
1496	 0.377235397387375 
1497	 0.377517816366959 
1498	 0.377799233172679 
1499	 0.378060342748674 
1500	 0.378266512571455 
1501	 0.378509142620999 
1502	 0.378746233298443 
1503	 0.379011672767429 
1504	 0.37934027250546 
1505	 0.379607898734756 
1506	 0.379875133208236 
1507	 0.380112503245954 
1508	 0.380278043857406 
1509	 0.380473693693744 
1510	 0.380694205718113 
1511	 0.380878465766441 
1512	 0.381046130935177 
1513	 0.381210736644198 
1514	 0.381339929566667 
1515	 0.381481661124352 
1516	 0.381633788685996 
1517	 0.381782807937623 
1518	 0.381927951651021 
1519	 0.382074669943396 
1520	 0.382220549955524 
1521	 0.382374894994388 
1522	 0.382490661651497 
1523	 0.382646993689127 
1524	 0.382803925678358 
1525	 0.382967014650759 
1526	 0.383117520909325 
1527	 0.383298869322342 
1528	 0.383403303489558 
1529	 0.383461528646487 
1530	 0.383529747268431 
1531	 0.383555172030195 
1532	 0.383627740309972 
1533	 0.383715861804252 
1534	 0.383804298474805 
1535	 0.383919612048213 
1536	 0.383992275042903 
1537	 0.384041920579407 
1538	 0.384115998846549 
1539	 0.38418557120293 
1540	 0.384244563647768 
1541	 0.384303599008499 
1542	 0.38438575540498 
1543	 0.384469694800054 
1544	 0.384537063871802 
1545	 0.384630144953573 
1546	 0.384698005458695 
1547	 0.384705423991503 
1548	 0.384781370010102 
1549	 0.384895014258244 
1550	 0.385003040918322 
1551	 0.385124257143902 
1552	 0.385262088738562 
1553	 0.38542694448291 
1554	 0.385557905904797 
1555	 0.385719386074396 
1556	 0.385811086252855 
1557	 0.385831846412003 
1558	 0.385888140411341 
1559	 0.38591069604263 
1560	 0.385974527260649 
1561	 0.38606355277274 
1562	 0.38616123296487 
1563	 0.386289152086656 
1564	 0.38639298040699 
1565	 0.386501056213813 
1566	 0.386600812824565 
1567	 0.386690982967966 
1568	 0.386769404266924 
1569	 0.386824267977102 
1570	 0.386913319680315 
1571	 0.387004727894964 
1572	 0.387102178951949 
1573	 0.387235381246912 
1574	 0.387349086085319 
1575	 0.387460882893645 
1576	 0.387548598147583 
1577	 0.387636773613402 
1578	 0.387697572178815 
1579	 0.387716197568134 
1580	 0.387746578734365 
1581	 0.387715757989993 
1582	 0.387786344931116 
1583	 0.387947147037987 
1584	 0.388043656067104 
1585	 0.388178354504546 
1586	 0.388287303878058 
1587	 0.388327563888522 
1588	 0.388391273788757 
1589	 0.388483745450132 
1590	 0.388561131565835 
1591	 0.38861963280786 
1592	 0.388681040659737 
1593	 0.388758396776699 
1594	 0.388813728865839 
1595	 0.38881860257158 
1596	 0.388881671475616 
1597	 0.388974772966883 
1598	 0.38905480128115 
1599	 0.389185771002554 
1600	 0.389272492999632 
1601	 0.389337480220946 
1602	 0.389370195561002 
1603	 0.389371084454713 
1604	 0.389365036819378 
1605	 0.389284134392728 
1606	 0.389282620030028 
1607	 0.389336978979317 
1608	 0.389362249972479 
1609	 0.389441056121315 
1610	 0.389462274735748 
1611	 0.389414169975215 
1612	 0.389398206534692 
1613	 0.389380102289871 
1614	 0.389356182362703 
1615	 0.389321364707468 
1616	 0.389318605834019 
1617	 0.38931425527855 
1618	 0.389335362027177 
1619	 0.389444707646619 
1620	 0.389470747431004 
1621	 0.389498053537037 
1622	 0.389449249522221 
1623	 0.389273545139799 
1624	 0.389159242665122 
1625	 0.388992494368783 
1626	 0.388898442903756 
1627	 0.388878519259703 
1628	 0.388852197901363 
1629	 0.388898600851034 
1630	 0.388873137099409 
1631	 0.388798171195718 
1632	 0.388748878818444 
1633	 0.388664101432574 
1634	 0.388597794184286 
1635	 0.388566880977471 
1636	 0.388525714838871 
1637	 0.388471755214868 
1638	 0.388421851105334 
1639	 0.388402190792622 
1640	 0.38834843577589 
1641	 0.388251149116253 
1642	 0.388181817818726 
1643	 0.388112978461243 
1644	 0.388040186008089 
1645	 0.387984492818076 
1646	 0.387930271830537 
1647	 0.387878759628379 
1648	 0.387804093988122 
1649	 0.387753513611418 
1650	 0.387652195487545 
1651	 0.387497017182438 
1652	 0.387334523975377 
1653	 0.387154624442415 
1654	 0.386940058078766 
1655	 0.386679127430543 
1656	 0.386452680206303 
1657	 0.386250777252314 
1658	 0.385970001992271 
1659	 0.38567771034246 
1660	 0.38535851586653 
1661	 0.384949719170401 
1662	 0.384567217009574 
1663	 0.384206280959 
1664	 0.383799225220515 
1665	 0.38338968622171 
1666	 0.382914945155771 
1667	 0.382421014159683 
1668	 0.381857933253926 
1669	 0.381202497940105 
1670	 0.380537090960539 
1671	 0.379840788428507 
1672	 0.379076041804501 
1673	 0.378240219760313 
1674	 0.377423066960375 
1675	 0.376588054751608 
1676	 0.375709348838212 
1677	 0.3748688160324 
1678	 0.373921279977466 
1679	 0.372843297832376 
1680	 0.37177689504548 
1681	 0.370667687373102 
1682	 0.369521071396861 
1683	 0.368370126050554 
1684	 0.36719360873498 
1685	 0.36600127332557 
1686	 0.364724340359145 
1687	 0.363374510879165 
1688	 0.361978260364903 
1689	 0.360516415056904 
1690	 0.358999283030209 
1691	 0.357431494240004 
1692	 0.355915733805308 
1693	 0.354353023379073 
1694	 0.352778052476498 
1695	 0.351233187454594 
1696	 0.349617682738859 
1697	 0.347959703681333 
1698	 0.346253285272551 
1699	 0.344485940545107 
1700	 0.342830208082927 
1701	 0.34113826259392 
1702	 0.33953194954128 
1703	 0.338025547348234 
1704	 0.336503136742893 
1705	 0.334927487724969 
1706	 0.333483387360032 
1707	 0.332224811098211 
1708	 0.33095933983439 
1709	 0.329866755030435 
1710	 0.328862446603148 
1711	 0.327783684415828 
1712	 0.326932164474358 
1713	 0.326159379796632 
1714	 0.325356715421391 
1715	 0.324722868529874 
1716	 0.324074288232968 
1717	 0.323446435676312 
1718	 0.322890494714159 
1719	 0.322326592559919 
1720	 0.321826132342326 
1721	 0.321319108918974 
1722	 0.320838816649371 
1723	 0.320514987653427 
1724	 0.320239046753402 
1725	 0.320021405522885 
1726	 0.319961468523313 
1727	 0.320043586486339 
1728	 0.320315768139641 
1729	 0.32075112182756 
1730	 0.321272610376879 
1731	 0.32182148592303 
1732	 0.322459778633468 
1733	 0.32313012008939 
1734	 0.323865222571816 
1735	 0.32474278918569 
1736	 0.325498061279189 
1737	 0.326201262306742 
1738	 0.326904820006244 
1739	 0.327462718056548 
1740	 0.327990049775126 
1741	 0.328348262317362 
1742	 0.32853232177319 
1743	 0.328646237751731 
1744	 0.328617430473472 
1745	 0.328554792769324 
1746	 0.328407622284588 
1747	 0.328240600935666 
1748	 0.327934315915614 
1749	 0.327784044436401 
1750	 0.327668309383505 
1751	 0.32758420382904 
1752	 0.327610415687174 
1753	 0.327651980113052 
1754	 0.327636314352028 
1755	 0.327767348258708 
1756	 0.327992867849835 
1757	 0.328251658023807 
1758	 0.328670873359254 
1759	 0.329100582662654 
1760	 0.329596347646072 
1761	 0.330182257230662 
1762	 0.330812008804441 
1763	 0.331552241089418 
1764	 0.332344373226727 
1765	 0.333192362138988 
1766	 0.334181102218788 
1767	 0.335211555452626 
1768	 0.336313660899809 
1769	 0.337500267257965 
1770	 0.338589471230054 
1771	 0.339615355942599 
1772	 0.340622802243323 
1773	 0.34151662087344 
1774	 0.342400215456649 
1775	 0.343295162343873 
1776	 0.344116560480085 
1777	 0.344898194087841 
1778	 0.345563722392849 
1779	 0.346191089871864 
1780	 0.346787514206123 
1781	 0.347228711024714 
1782	 0.34767358479991 
1783	 0.348057822873645 
1784	 0.34841684145399 
1785	 0.348931742675021 
1786	 0.349279798929467 
1787	 0.349550772113497 
1788	 0.349782988660781 
1789	 0.34986941052458 
1790	 0.350024748087972 
1791	 0.350276554855391 
1792	 0.350442821420963 
1793	 0.350488850914184 
1794	 0.350677655765548 
1795	 0.350738738234761 
1796	 0.350797567871127 
1797	 0.351090700300088 
1798	 0.351336567855665 
1799	 0.351450198262503 
1800	 0.351634913342076 
1801	 0.355612317941354 
1802	 0.355681720422415 
1803	 0.355841744127706 
1804	 0.356003545165649 
1805	 0.356229429553088 
1806	 0.356438637323555 
1807	 0.356722082021868 
1808	 0.356937444163801 
1809	 0.357079575794059 
1810	 0.357291795754575 
1811	 0.357551613532547 
1812	 0.357771029700063 
1813	 0.35797114442225 
1814	 0.358240892623709 
1815	 0.358438568537961 
1816	 0.358631178800509 
1817	 0.358880121195271 
1818	 0.359165731206853 
1819	 0.359437178826431 
1820	 0.359736574944243 
1821	 0.360036614249762 
1822	 0.360347445213258 
1823	 0.360677878892722 
1824	 0.360868322350421 
1825	 0.361064346145498 
1826	 0.361336119703955 
1827	 0.361577101936726 
1828	 0.361837238354313 
1829	 0.362227822724681 
1830	 0.362509547325105 
1831	 0.362713670925691 
1832	 0.362915805852529 
1833	 0.363134346016568 
1834	 0.363404251743036 
1835	 0.363622820379257 
1836	 0.363825010984273 
1837	 0.364057085374955 
1838	 0.364237369182839 
1839	 0.364492492820284 
1840	 0.364845450765896 
1841	 0.365159392038933 
1842	 0.365478130905828 
1843	 0.365842930094965 
1844	 0.366172913077927 
1845	 0.366371644092736 
1846	 0.366518434466259 
1847	 0.366737871686451 
1848	 0.366948898923367 
1849	 0.367123854916221 
1850	 0.367328363754924 
1851	 0.367593030450019 
1852	 0.367791392994552 
1853	 0.367947152083362 
1854	 0.368155939959294 
1855	 0.368283879756467 
1856	 0.368473189262774 
1857	 0.368676350985497 
1858	 0.368745758193729 
1859	 0.368850968741003 
1860	 0.36898495203739 
1861	 0.369052166346236 
1862	 0.369079555733112 
1863	 0.369106631820076 
1864	 0.369083937735214 
1865	 0.368928993470198 
1866	 0.368727015205103 
1867	 0.368558008548076 
1868	 0.368332271497447 
1869	 0.368033237192539 
1870	 0.367769624761677 
1871	 0.367506470092063 
1872	 0.367227005409841 
1873	 0.366958526961133 
1874	 0.366682034865306 
1875	 0.366367269287007 
1876	 0.365922252286658 
1877	 0.365490675079757 
1878	 0.364988551466807 
1879	 0.364317022029767 
1880	 0.363650420479774 
1881	 0.362868219758991 
1882	 0.361951754547736 
1883	 0.360992729968915 
1884	 0.360035049017961 
1885	 0.358891117701829 
1886	 0.357721324110528 
1887	 0.35647333709394 
1888	 0.355051997394024 
1889	 0.353625276044314 
1890	 0.352123574493558 
1891	 0.350530998448802 
1892	 0.348855781891975 
1893	 0.347072638995117 
1894	 0.345167597772751 
1895	 0.343215179805349 
1896	 0.341176855531723 
1897	 0.339119447804985 
1898	 0.33730345519355 
1899	 0.335440444185595 
1900	 0.333608638939368 
1901	 0.331961775634121 
1902	 0.330161631666682 
1903	 0.328504338439051 
1904	 0.326903432836535 
1905	 0.325380079935662 
1906	 0.323810864947742 
1907	 0.322472170565782 
1908	 0.321146289358888 
1909	 0.319899540600618 
1910	 0.318884495177631 
1911	 0.3178829427139 
1912	 0.316966262951221 
1913	 0.316120236567608 
1914	 0.315262470306333 
1915	 0.314535332117817 
1916	 0.313891692759926 
1917	 0.313347204085613 
1918	 0.312829985908554 
1919	 0.312391348781421 
1920	 0.312056342611954 
1921	 0.311658469005508 
1922	 0.311282682452956 
1923	 0.311088563157598 
1924	 0.310882564161351 
1925	 0.310725101914186 
1926	 0.310605747140521 
1927	 0.310554912313864 
1928	 0.310505630676091 
1929	 0.310472860363548 
1930	 0.310470375519029 
1931	 0.310516503299022 
1932	 0.310647856264475 
1933	 0.310776415229099 
1934	 0.310893294270059 
1935	 0.311052777198991 
1936	 0.311174197629508 
1937	 0.311336431466568 
1938	 0.311493742145707 
1939	 0.311756211757559 
1940	 0.312063643770873 
1941	 0.312415522699249 
1942	 0.312881446244018 
1943	 0.31330118735025 
1944	 0.313694768569724 
1945	 0.314154241893854 
1946	 0.314558010862781 
1947	 0.314991353607187 
1948	 0.315471673008555 
1949	 0.315949009929707 
1950	 0.316432854695768 
1951	 0.316925041870048 
1952	 0.317430076996899 
1953	 0.317935547816534 
1954	 0.318466229275354 
1955	 0.319001819250363 
1956	 0.319607990769726 
1957	 0.320241171132175 
1958	 0.320874294176467 
1959	 0.321438162559173 
1960	 0.321904142220055 
1961	 0.322383970739037 
1962	 0.322739490750405 
1963	 0.323203579521951 
1964	 0.323751251152721 
1965	 0.324269172284782 
1966	 0.324813031027056 
1967	 0.325319361347617 
1968	 0.325810677143404 
1969	 0.326273211326585 
1970	 0.326734126660336 
1971	 0.327242799384581 
1972	 0.327741841007886 
1973	 0.328268437632309 
1974	 0.328773505257775 
1975	 0.329272791002521 
1976	 0.329752777188066 
1977	 0.330234154523154 
1978	 0.330684736023522 
1979	 0.331059485931035 
1980	 0.331534354620622 
1981	 0.332098081456713 
1982	 0.33258783560851 
1983	 0.333168705705798 
1984	 0.333765151244012 
1985	 0.334147288650673 
1986	 0.334491145850516 
1987	 0.3348944613034 
1988	 0.335236035071994 
1989	 0.335653016149391 
1990	 0.33619051065385 
1991	 0.336659751894019 
1992	 0.337136217125972 
1993	 0.337544560561003 
1994	 0.33797375098234 
1995	 0.338395972032741 
1996	 0.338809475352661 
1997	 0.339247228247032 
1998	 0.339643765785984 
1999	 0.340019090637303 
2000	 0.340361279980296 
2001	 0.340673641661377 
2002	 0.340975163238287 
2003	 0.341222163690244 
2004	 0.341533842680771 
2005	 0.341905165233077 
2006	 0.342197018038361 
2007	 0.342501205691146 
2008	 0.342742182064064 
2009	 0.342927287573546 
2010	 0.34310080016045 
2011	 0.343232226514316 
2012	 0.343365903126592 
2013	 0.34347456306974 
2014	 0.343518687091261 
2015	 0.343599646601233 
2016	 0.343725025443415 
2017	 0.343769788392648 
2018	 0.343786074987705 
2019	 0.343776293744703 
2020	 0.343687158945925 
2021	 0.343648360282771 
2022	 0.343614920816235 
2023	 0.343543670387762 
2024	 0.343413815512197 
2025	 0.343228666658586 
2026	 0.343075515254449 
2027	 0.342890559548401 
2028	 0.342700471199354 
2029	 0.342535257233279 
2030	 0.34233878409375 
2031	 0.342067988804717 
2032	 0.341849518876485 
2033	 0.341692240754143 
2034	 0.341488755671219 
2035	 0.341250336666967 
2036	 0.341030265789265 
2037	 0.340879606576526 
2038	 0.340669920176393 
2039	 0.340440933638318 
2040	 0.340238840302037 
2041	 0.339987490048525 
2042	 0.33963448404435 
2043	 0.339369024340994 
2044	 0.33913396944555 
2045	 0.338914049136166 
2046	 0.338714652969004 
2047	 0.338528461839615 
2048	 0.33840126091498 
2049	 0.33821885509989 
2050	 0.337976300307071 
2051	 0.337813496110384 
2052	 0.337649459817614 
2053	 0.337463933274642 
2054	 0.33731217809555 
2055	 0.337204363171837 
2056	 0.33708555252795 
2057	 0.336985268017005 
2058	 0.336839010639319 
2059	 0.336698534493 
2060	 0.33655070219252 
2061	 0.336332587865754 
2062	 0.33617534885491 
2063	 0.336044118376834 
2064	 0.335934589582252 
2065	 0.335880069452632 
2066	 0.335784531742987 
2067	 0.33570255993015 
2068	 0.335546626090242 
2069	 0.335390828530277 
2070	 0.335171399970849 
2071	 0.335010370865484 
2072	 0.334863490090723 
2073	 0.334728327244284 
2074	 0.334602792264823 
2075	 0.334481924697971 
2076	 0.334406898711225 
2077	 0.334268031902882 
2078	 0.334069498125814 
2079	 0.333924387528789 
2080	 0.33379152335073 
2081	 0.333637359760008 
2082	 0.333506539220728 
2083	 0.333398840481471 
2084	 0.333215180697616 
2085	 0.332914284636371 
2086	 0.332727341572843 
2087	 0.33256066550254 
2088	 0.332400776602704 
2089	 0.332307075125577 
2090	 0.332167176309243 
2091	 0.331991684861358 
2092	 0.331839206633779 
2093	 0.331683204344236 
2094	 0.331533153423808 
2095	 0.331404639497932 
2096	 0.331256663924535 
2097	 0.331065031253633 
2098	 0.330965086328365 
2099	 0.330792844308447 
2100	 0.3306385719895 
2101	 0.330460929724358 
2102	 0.33024643760116 
2103	 0.330084518294709 
2104	 0.329962297362774 
2105	 0.329767648761266 
2106	 0.32955727649746 
2107	 0.329370578329725 
2108	 0.329173954399329 
2109	 0.328929258765126 
2110	 0.328747552966355 
2111	 0.328448861660469 
2112	 0.327939324963499 
2113	 0.32758521987394 
2114	 0.327283990086738 
2115	 0.326948872521357 
2116	 0.326679710807487 
2117	 0.326404834876597 
2118	 0.326061529899871 
2119	 0.325628289548173 
2120	 0.325267005474113 
2121	 0.32489060130351 
2122	 0.324575621123746 
2123	 0.324294066660144 
2124	 0.324026619302634 
2125	 0.323786734688732 
2126	 0.323568485633261 
2127	 0.323401005516498 
2128	 0.323198964211564 
2129	 0.323019029554426 
2130	 0.322827276015962 
2131	 0.322599090364772 
2132	 0.322378010763329 
2133	 0.322160102407793 
2134	 0.321936193311323 
2135	 0.321757727874741 
2136	 0.321598705399862 
2137	 0.321438021099769 
2138	 0.3213030303827 
2139	 0.321193130494524 
2140	 0.321080459069559 
2141	 0.321007709789459 
2142	 0.320966853144605 
2143	 0.320958427245613 
2144	 0.321008237551507 
2145	 0.321002613212194 
2146	 0.321052165551595 
2147	 0.321029979618886 
2148	 0.320860322744285 
2149	 0.320822148784546 
2150	 0.320822390045365 
2151	 0.320835774814476 
2152	 0.320949958922631 
2153	 0.321038344186938 
2154	 0.321008179640537 
2155	 0.321005515121351 
2156	 0.321025353212999 
2157	 0.321033852171449 
2158	 0.321032967219503 
2159	 0.321099258027645 
2160	 0.321047427723046 
2161	 0.320896148507836 
2162	 0.320792503315949 
2163	 0.32064414712328 
2164	 0.32054559397676 
2165	 0.320501283135248 
2166	 0.320404571803466 
2167	 0.320252463367699 
2168	 0.320185077023873 
2169	 0.320161594256618 
2170	 0.320102444548335 
2171	 0.320106305170857 
2172	 0.320065152382719 
2173	 0.319974716856012 
2174	 0.3198426770988 
2175	 0.319771794420847 
2176	 0.319726273222338 
2177	 0.319612811711245 
2178	 0.319459536931446 
2179	 0.319365545480056 
2180	 0.31924758609056 
2181	 0.319159442104671 
2182	 0.319174053589012 
2183	 0.319051435520991 
2184	 0.318879136629187 
2185	 0.31866725745845 
2186	 0.318345725519247 
2187	 0.318091155114083 
2188	 0.317814258091718 
2189	 0.317575402974622 
2190	 0.317438049971716 
2191	 0.31718759520817 
2192	 0.316911468975515 
2193	 0.316585978539891 
2194	 0.316114677687934 
2195	 0.315728467561075 
2196	 0.315355589723486 
2197	 0.314992088501624 
2198	 0.31468529858346 
2199	 0.314448271019111 
2200	 0.314096285937981 
2201	 0.313754319529431 
2202	 0.313289221580224 
2203	 0.31269809871397 
2204	 0.312155108941292 
2205	 0.311510038780851 
2206	 0.310985139287723 
2207	 0.310489878527818 
2208	 0.310067652301468 
2209	 0.309708988737374 
2210	 0.309411080635557 
2211	 0.309110705884295 
2212	 0.308997391883534 
2213	 0.309070335810278 
2214	 0.309103448928379 
2215	 0.309348741662375 
2216	 0.309410163713734 
2217	 0.309375052229937 
2218	 0.309303674338034 
2219	 0.309233797366832 
2220	 0.309014709306749 
2221	 0.308698687869996 
2222	 0.308308154259886 
2223	 0.307753992782981 
2224	 0.307153865624243 
2225	 0.306660058997727 
2226	 0.306084396372629 
2227	 0.305393991358072 
2228	 0.304687458470148 
2229	 0.303830621609185 
2230	 0.302734070744189 
2231	 0.301799078102805 
2232	 0.300908183334933 
2233	 0.299897511107559 
2234	 0.298968392181922 
2235	 0.297749149378201 
2236	 0.296339682914147 
2237	 0.294848681900235 
2238	 0.293097597444259 
2239	 0.291469915069422 
2240	 0.289877379447437 
2241	 0.288101162753566 
2242	 0.286351464754554 
2243	 0.284386582425152 
2244	 0.282116520077971 
2245	 0.279922260991094 
2246	 0.277592515838958 
2247	 0.275328171104641 
2248	 0.273105070848689 
2249	 0.270854432761265 
2250	 0.268699682979648 
2251	 0.266375153253584 
2252	 0.263881313878038 
2253	 0.261493184136326 
2254	 0.258904652835626 
2255	 0.256377405832719 
2256	 0.254121260316055 
2257	 0.25180649671656 
2258	 0.249535519080493 
2259	 0.247370494723211 
2260	 0.245191790182112 
2261	 0.242955789471357 
2262	 0.240866347890266 
2263	 0.238870737135873 
2264	 0.236893677116587 
2265	 0.234963636024107 
2266	 0.233104462722112 
2267	 0.231328549700579 
2268	 0.229589068010877 
2269	 0.227937391696022 
2270	 0.226287263244604 
2271	 0.224659514472206 
2272	 0.223048151351315 
2273	 0.221513228817498 
2274	 0.219912298676919 
2275	 0.218323321485339 
2276	 0.216678861392833 
2277	 0.214949426840809 
2278	 0.213269943349188 
2279	 0.211522496626816 
2280	 0.20986142482115 
2281	 0.208298088924402 
2282	 0.206691630747801 
2283	 0.205108259785871 
2284	 0.203572404866042 
2285	 0.201928705089002 
2286	 0.200065912020936 
2287	 0.198065777465164 
2288	 0.196177561375176 
2289	 0.194258165326465 
2290	 0.192407180914364 
2291	 0.190697262710431 
2292	 0.188777209974423 
2293	 0.186875437040269 
2294	 0.185070928405345 
2295	 0.183181246031017 
2296	 0.181504723610852 
2297	 0.180148600447428 
2298	 0.179070448382378 
2299	 0.177991031277783 
2300	 0.177133038425331 
2301	 0.176479292150009 
2302	 0.175822818916828 
2303	 0.175562844512187 
2304	 0.175689092990811 
2305	 0.175991583525093 
2306	 0.176562622016065 
2307	 0.177243737453228 
2308	 0.178169873727266 
2309	 0.179289333062413 
2310	 0.180609180107976 
2311	 0.181970950285721 
2312	 0.183695222708037 
2313	 0.185165584933075 
2314	 0.186523380535976 
2315	 0.187967394943237 
2316	 0.189553688171839 
2317	 0.190828549815226 
2318	 0.191983634799916 
2319	 0.193060514303252 
2320	 0.193922952680011 
2321	 0.194687552319583 
2322	 0.195432819755385 
2323	 0.196033421335018 
2324	 0.196431656866058 
2325	 0.196693838292471 
2326	 0.196858945462428 
2327	 0.196902674075963 
2328	 0.19682900421602 
2329	 0.196575628702142 
2330	 0.196184857889968 
2331	 0.195600108868262 
2332	 0.194992891695522 
2333	 0.194185125148183 
2334	 0.193246703220309 
2335	 0.192325807201673 
2336	 0.191052663073349 
2337	 0.189637030840875 
2338	 0.188592485208444 
2339	 0.187416451257233 
2340	 0.186191245246016 
2341	 0.185215134339444 
2342	 0.184018308433074 
2343	 0.182941848365063 
2344	 0.182377942375721 
2345	 0.181923654311325 
2346	 0.18165477711307 
2347	 0.181753998243349 
2348	 0.181912065719614 
2349	 0.182266242289616 
2350	 0.182791535289901 
2351	 0.183665465532233 
2352	 0.184770098883474 
2353	 0.185668576015131 
2354	 0.18670508032024 
2355	 0.187600541127048 
2356	 0.188249278206641 
2357	 0.189173608237764 
2358	 0.189954861025239 
2359	 0.190476750113677 
2360	 0.191107845474204 
2361	 0.191407024676763 
2362	 0.19157298691726 
2363	 0.191958075269609 
2364	 0.191923892730038 
2365	 0.191607383311235 
2366	 0.191380455995168 
2367	 0.191022656352766 
2368	 0.190837542344841 
2369	 0.191007503320469 
2370	 0.191079226725913 
2371	 0.191066401599471 
2372	 0.191102802045378 
2373	 0.190878684730892 
2374	 0.190776207454979 
2375	 0.19076781978027 
2376	 0.190441225943881 
2377	 0.190346009938988 
2378	 0.190510272047974 
2379	 0.19052218940055 
2380	 0.190521475762678 
2381	 0.190499184401866 
2382	 0.190429757655117 
2383	 0.190075751501153 
2384	 0.190013951871216 
2385	 0.19008278354083 
2386	 0.190298683008381 
2387	 0.190747643743824 
2388	 0.190832272140309 
2389	 0.190925345912003 
2390	 0.19091960485483 
2391	 0.190509970289935 
2392	 0.190617905202162 
2393	 0.191156170903478 
2394	 0.191187824105246 
2395	 0.191077165942672 
2396	 0.190996948161661 
2397	 0.190549272206568 
2398	 0.190568554820666 
2399	 0.191050213944429 
2400	 0.191319443938435 
2401	 0.191666228404102 
2402	 0.191919248593515 
2403	 0.191854088058313 
2404	 0.192050068760914 
2405	 0.192286460028006 
2406	 0.192409989926491 
2407	 0.192478090732527 
2408	 0.192477472662488 
2409	 0.192205971405165 
2410	 0.192249345513388 
2411	 0.192823369354586 
2412	 0.193057345945959 
2413	 0.193106959459914 
2414	 0.192816862524741 
2415	 0.192112802491523 
2416	 0.191722440623964 
2417	 0.191752159348888 
2418	 0.192310656298589 
2419	 0.192820098196582 
2420	 0.192796720621805 
2421	 0.192833960253538 
2422	 0.192738853106198 
2423	 0.192447380638792 
2424	 0.192338598784374 
2425	 0.191955937398853 
2426	 0.191310333902712 
2427	 0.190959283363726 
2428	 0.190776010778918 
2429	 0.190742561819352 
2430	 0.190522947914008 
2431	 0.190110004863446 
2432	 0.189702341693949 
2433	 0.189338595010513 
2434	 0.189643613478368 
2435	 0.189770977113202 
2436	 0.18934707451541 
2437	 0.188925001839754 
2438	 0.188450166968874 
2439	 0.18824539732817 
2440	 0.188256163349363 
2441	 0.18835420758212 
2442	 0.188590748390272 
2443	 0.188389721399737 
2444	 0.188171868778825 
2445	 0.188042832837688 
2446	 0.187351856198259 
2447	 0.186886250286992 
2448	 0.186414530642009 
2449	 0.185787939487669 
2450	 0.185374397953956 
2451	 0.185033441342762 
2452	 0.184789744672698 
2453	 0.184878813950841 
2454	 0.185191252919191 
2455	 0.184692033508681 
2456	 0.184449403324446 
2457	 0.184562464097911 
2458	 0.183865390392246 
2459	 0.183557174710917 
2460	 0.183322186689607 
2461	 0.182588235706822 
2462	 0.182751719687211 
2463	 0.183108368913606 
2464	 0.182842597363511 
2465	 0.182904905822066 
2466	 0.182453899433564 
2467	 0.181231656268318 
2468	 0.180824377225455 
2469	 0.18067381341966 
2470	 0.179813985154723 
2471	 0.179619057969644 
2472	 0.180010689335037 
2473	 0.180337996962215 
2474	 0.180934489031214 
2475	 0.181654772093614 
2476	 0.181781547339003 
2477	 0.180991245919343 
2478	 0.180915892991704 
2479	 0.181130500496578 
2480	 0.181125883521086 
2481	 0.1813943260212 
2482	 0.181613896653813 
2483	 0.181993132018887 
2484	 0.182049334632322 
2485	 0.182044483049403 
2486	 0.182221589054651 
2487	 0.182028389174453 
2488	 0.182152117078011 
2489	 0.182702269973495 
2490	 0.182991077497804 
2491	 0.183416172946017 
2492	 0.184195855616032 
2493	 0.184471453671537 
2494	 0.18441012903981 
2495	 0.184888064439729 
2496	 0.184986692280104 
2497	 0.184610123344989 
2498	 0.184892806715984 
2499	 0.184586827309354 
2500	 0.184773047779779 
