Wavelength	Tablay400098.asd
350	 0.229876034806566 
351	 0.233148804222731 
352	 0.166003600018706 
353	 0.066485377595137 
354	 0.107483122016824 
355	 0.114083551576519 
356	 0.107842627354056 
357	 0.12306947370429 
358	 8.63228347670746E-02 
359	 7.46515642002984E-02 
360	 0.107186818991959 
361	 0.159912449061161 
362	 0.110346765510274 
363	 4.66531153656269E-02 
364	 4.50193970246688E-02 
365	 9.64256967049468E-02 
366	 9.55182594795105E-02 
367	 9.23302592766612E-02 
368	 0.128363796755973 
369	 8.15152024583337E-02 
370	 9.48117233123817E-02 
371	 0.123638949842287 
372	 0.047220465017135 
373	 0.111129436306999 
374	 0.123744112835363 
375	 3.65069998651736E-02 
376	 6.45383447069115E-02 
377	 8.24680662256576E-02 
378	 8.23678004050013E-02 
379	 8.53859232663225E-02 
380	 9.47314745556645E-02 
381	 8.71826964424514E-02 
382	 8.25715731980931E-02 
383	 0.1124265005704 
384	 8.85593490954518E-02 
385	 6.97100668414011E-02 
386	 7.77921765374897E-02 
387	 5.29185109256485E-02 
388	 4.07863265194966E-02 
389	 6.34283892305091E-02 
390	 0.111110431877188 
391	 9.31687485774723E-02 
392	 8.24188263346942E-02 
393	 8.54901241891173E-02 
394	 6.76316772931782E-02 
395	 7.16998303964515E-02 
396	 7.33786076770556E-02 
397	 6.27069096974906E-02 
398	 6.46722318520976E-02 
399	 7.74063085350907E-02 
400	 9.13747287900543E-02 
401	 9.54169280868679E-02 
402	 7.44708365459555E-02 
403	 6.11443664293146E-02 
404	 6.16749883972453E-02 
405	 0.062265084583629 
406	 6.66203794636888E-02 
407	 6.86505524523063E-02 
408	 6.59864519104219E-02 
409	 6.46997993734054E-02 
410	 0.064583107890445 
411	 0.066273011141633 
412	 6.85256330504935E-02 
413	 6.05136574899464E-02 
414	 5.83765719610923E-02 
415	 6.06634495835733E-02 
416	 5.09005840203911E-02 
417	 5.81986591076896E-02 
418	 6.25437222561504E-02 
419	 5.30643309409249E-02 
420	 5.91078851884208E-02 
421	 5.08476576698414E-02 
422	 4.21290371731844E-02 
423	 0.056313763825676 
424	 6.33376386017089E-02 
425	 0.060680551534442 
426	 0.053892594173447 
427	 5.41984085108108E-02 
428	 5.89100047753549E-02 
429	 5.90227368541592E-02 
430	 5.14621296339671E-02 
431	 5.38026248065939E-02 
432	 5.44306539721376E-02 
433	 5.37049631314321E-02 
434	 5.74029496357791E-02 
435	 5.78578766128904E-02 
436	 5.71160044056371E-02 
437	 0.056279151275298 
438	 0.053199038282216 
439	 5.31052290058963E-02 
440	 5.46377316547264E-02 
441	 5.52083418987999E-02 
442	 5.56577218190167E-02 
443	 5.59143242028516E-02 
444	 5.60140346130768E-02 
445	 5.59866772448516E-02 
446	 5.39422451957015E-02 
447	 5.35993333494401E-02 
448	 5.62950627320425E-02 
449	 5.71864436110269E-02 
450	 5.37329560722826E-02 
451	 5.02228632807015E-02 
452	 5.20174269230016E-02 
453	 5.29454762812023E-02 
454	 5.25505501709896E-02 
455	 5.13223255412054E-02 
456	 5.03598897071503E-02 
457	 5.05125760870316E-02 
458	 0.051307361746432 
459	 5.18761155020648E-02 
460	 5.11125784630346E-02 
461	 5.09159903623545E-02 
462	 5.10545919446407E-02 
463	 0.05044739487033 
464	 5.15016043454126E-02 
465	 5.17898623103111E-02 
466	 5.05333307995848E-02 
467	 5.00901180996071E-02 
468	 5.02477333041213E-02 
469	 5.08457647346244E-02 
470	 5.16376670153406E-02 
471	 5.25996029460662E-02 
472	 0.051173704426098 
473	 4.88268392457593E-02 
474	 4.97376491454842E-02 
475	 5.02282282670228E-02 
476	 5.03428501178798E-02 
477	 0.050387873689688 
478	 0.049789229579387 
479	 5.02469431162058E-02 
480	 5.07958262636178E-02 
481	 4.98154144827698E-02 
482	 0.048048606880115 
483	 4.87280894064934E-02 
484	 5.12787679755108E-02 
485	 5.09417148114913E-02 
486	 4.93580849284871E-02 
487	 4.86790990120025E-02 
488	 4.98052040920652E-02 
489	 4.97548485762903E-02 
490	 4.82297049679645E-02 
491	 4.71527924095322E-02 
492	 4.90405974942442E-02 
493	 4.93202957468857E-02 
494	 4.91117673718866E-02 
495	 4.92442765671355E-02 
496	 4.89523207477206E-02 
497	 4.87607910528147E-02 
498	 0.048403996052298 
499	 4.77346991559734E-02 
500	 4.81886030269137E-02 
501	 4.86794099498138E-02 
502	 4.85116486831649E-02 
503	 4.75186822375452E-02 
504	 4.71873837311088E-02 
505	 4.73428281091737E-02 
506	 4.76711395929233E-02 
507	 4.84051581282781E-02 
508	 4.88591763855768E-02 
509	 4.86036354567544E-02 
510	 4.76798363715174E-02 
511	 4.83100823280668E-02 
512	 4.85774071666403E-02 
513	 0.047804515788107 
514	 4.72723937802512E-02 
515	 4.75489595218767E-02 
516	 4.77206175643746E-02 
517	 0.047069295825042 
518	 4.69663398068452E-02 
519	 4.68287663979983E-02 
520	 4.66115304649502E-02 
521	 4.66339014811257E-02 
522	 4.67806571164782E-02 
523	 4.71229841540727E-02 
524	 4.74686422253748E-02 
525	 4.70042196608115E-02 
526	 4.69054046027077E-02 
527	 4.68123918142967E-02 
528	 4.61772197315413E-02 
529	 4.66134490824242E-02 
530	 4.66205856133143E-02 
531	 4.60733247103149E-02 
532	 4.64147021852269E-02 
533	 4.67967723815495E-02 
534	 4.66434443361526E-02 
535	 4.59644085933378E-02 
536	 4.62448702845161E-02 
537	 4.64450960605564E-02 
538	 4.64196112595298E-02 
539	 4.64795055538914E-02 
540	 4.63165479235731E-02 
541	 0.045959083852669 
542	 4.55965630450673E-02 
543	 4.56048038643946E-02 
544	 4.58642857217932E-02 
545	 4.60561342438988E-02 
546	 4.59522689684325E-02 
547	 4.60466012473793E-02 
548	 4.58851010670154E-02 
549	 4.55898517620324E-02 
550	 4.57797467900211E-02 
551	 4.60937082469611E-02 
552	 4.60797854786726E-02 
553	 4.56715611788924E-02 
554	 4.57921974870799E-02 
555	 4.58933506956741E-02 
556	 4.58947645212057E-02 
557	 4.59174127370057E-02 
558	 4.59510538380825E-02 
559	 4.56998670838704E-02 
560	 0.045308011336059 
561	 4.55527163668208E-02 
562	 4.55607410631242E-02 
563	 4.54783823683551E-02 
564	 4.55499412991342E-02 
565	 4.52606104427365E-02 
566	 4.52605946645676E-02 
567	 4.54514952774509E-02 
568	 4.52407636909843E-02 
569	 4.53680902638209E-02 
570	 4.54757202433601E-02 
571	 4.53269876043322E-02 
572	 4.52673885355833E-02 
573	 0.04531580088432 
574	 4.53998161186806E-02 
575	 4.54164078251633E-02 
576	 4.54180086512848E-02 
577	 0.04528057226224 
578	 4.50934157929173E-02 
579	 4.51828642301218E-02 
580	 4.53092033096852E-02 
581	 4.54413632803301E-02 
582	 4.55257718889057E-02 
583	 4.52583923781825E-02 
584	 4.51831243929687E-02 
585	 4.52606224852821E-02 
586	 4.51421846400498E-02 
587	 4.51037631916425E-02 
588	 4.51743825353499E-02 
589	 4.52371868417327E-02 
590	 4.49708244119397E-02 
591	 4.49595276077036E-02 
592	 4.50963406076108E-02 
593	 4.50921875144684E-02 
594	 4.48443737410149E-02 
595	 4.48896722568389E-02 
596	 4.51261005343222E-02 
597	 4.49350437840123E-02 
598	 4.49681685918211E-02 
599	 0.045004303810585 
600	 4.48908040630092E-02 
601	 4.50167210672026E-02 
602	 4.51209446610042E-02 
603	 4.50650451301836E-02 
604	 0.044828076888713 
605	 4.47811918591984E-02 
606	 4.47932990093542E-02 
607	 4.48427301365229E-02 
608	 4.50965130780218E-02 
609	 4.49657007617383E-02 
610	 4.46879573561316E-02 
611	 4.46083247697533E-02 
612	 4.46758426282186E-02 
613	 4.48553980226063E-02 
614	 4.50151428078956E-02 
615	 4.49764188680883E-02 
616	 4.46883219871312E-02 
617	 4.45879629756171E-02 
618	 4.47795795668982E-02 
619	 4.46763373835449E-02 
620	 4.45772353964036E-02 
621	 4.45957008758469E-02 
622	 4.47207550220822E-02 
623	 4.46202546455326E-02 
624	 4.45570970962497E-02 
625	 4.45867985684167E-02 
626	 4.45593365908324E-02 
627	 4.46944676749587E-02 
628	 4.46125810764612E-02 
629	 4.42519959901571E-02 
630	 4.46458758462664E-02 
631	 4.48307431966846E-02 
632	 4.47088534377727E-02 
633	 4.45833079642291E-02 
634	 4.46393454625274E-02 
635	 4.46740203753899E-02 
636	 4.46085912069879E-02 
637	 4.45621482438918E-02 
638	 4.44856866161016E-02 
639	 4.44394790594483E-02 
640	 4.44706330740498E-02 
641	 4.45018086000698E-02 
642	 4.46176939630352E-02 
643	 4.46964603915528E-02 
644	 4.45392223524618E-02 
645	 4.44638069466018E-02 
646	 0.0445165140449 
647	 4.45979362815882E-02 
648	 4.44230781584826E-02 
649	 0.044410147435891 
650	 4.45155825210942E-02 
651	 4.45892977541834E-02 
652	 4.47020153148215E-02 
653	 4.47126887450449E-02 
654	 4.46474144136642E-02 
655	 4.46600205982833E-02 
656	 4.46399617335005E-02 
657	 4.47196640880707E-02 
658	 4.48875498255194E-02 
659	 4.47348063100264E-02 
660	 4.47054987878058E-02 
661	 4.47491034550236E-02 
662	 4.46881769337521E-02 
663	 4.47108879685817E-02 
664	 4.47808358510743E-02 
665	 0.044897936985398 
666	 4.50966310193107E-02 
667	 0.045001843009556 
668	 4.48926735283421E-02 
669	 0.045014545938899 
670	 4.52118141801817E-02 
671	 4.52248155208615E-02 
672	 4.51524887983977E-02 
673	 4.52198775390992E-02 
674	 4.52006411267484E-02 
675	 0.045286269241485 
676	 4.54521873810637E-02 
677	 4.53869989587773E-02 
678	 4.54305900580425E-02 
679	 4.54809843145021E-02 
680	 0.045452448656012 
681	 4.56257005642028E-02 
682	 0.045859904650321 
683	 0.046037795308785 
684	 4.60865958336573E-02 
685	 4.61601399187814E-02 
686	 4.62941736650214E-02 
687	 4.64651529410888E-02 
688	 4.65875065966098E-02 
689	 4.68326405722454E-02 
690	 4.70266227321752E-02 
691	 0.047056404936416 
692	 4.73454588425371E-02 
693	 4.75541588193012E-02 
694	 4.76968804949414E-02 
695	 0.047992412848469 
696	 4.83017005848461E-02 
697	 4.85976430444485E-02 
698	 4.88466531365048E-02 
699	 4.89728114641347E-02 
700	 4.94221846121876E-02 
701	 5.00177666175505E-02 
702	 5.04898828214036E-02 
703	 5.09684445676996E-02 
704	 5.14742122307914E-02 
705	 5.19978038714913E-02 
706	 5.25284758794334E-02 
707	 5.32881730487252E-02 
708	 5.40359443589032E-02 
709	 5.46981563429696E-02 
710	 5.55773753800444E-02 
711	 5.64681579045611E-02 
712	 5.74382739488359E-02 
713	 5.85623189204972E-02 
714	 5.95996266128973E-02 
715	 6.08619518724187E-02 
716	 6.22867126216515E-02 
717	 6.35821401786087E-02 
718	 6.51280301667962E-02 
719	 6.68065255356531E-02 
720	 0.068523107807767 
721	 7.03386527658634E-02 
722	 7.23307493235247E-02 
723	 0.074437874886125 
724	 0.076613365730966 
725	 7.90437531674744E-02 
726	 8.16469614467468E-02 
727	 8.43394668253794E-02 
728	 8.70652109534123E-02 
729	 9.00427200479873E-02 
730	 9.31184339354215E-02 
731	 9.62355642256136E-02 
732	 9.95701492978647E-02 
733	 0.103112509197845 
734	 0.106711037639292 
735	 0.11027870851837 
736	 0.114124778676788 
737	 0.118000471990885 
738	 0.121911597014606 
739	 0.125998901246621 
740	 0.130032806776439 
741	 0.134075450635038 
742	 0.138164701703803 
743	 0.142259140829333 
744	 0.146296129536813 
745	 0.150351609438368 
746	 0.154495995494839 
747	 0.158688285243873 
748	 0.16270443812063 
749	 0.166579420151515 
750	 0.170495065708585 
751	 0.17442306626355 
752	 0.178242028781159 
753	 0.181913512686734 
754	 0.18551583314655 
755	 0.189216820682718 
756	 0.192832711068586 
757	 0.196208799528284 
758	 0.199509300603209 
759	 0.202683443037441 
760	 0.205790621967303 
761	 0.208904589258912 
762	 0.211878323827855 
763	 0.214791125145594 
764	 0.217643613514731 
765	 0.220341833742412 
766	 0.222965950583025 
767	 0.225513943777765 
768	 0.227989761357884 
769	 0.230443932722396 
770	 0.232795519675123 
771	 0.235044011176724 
772	 0.237227044742133 
773	 0.23940850964703 
774	 0.241550629352051 
775	 0.243588830233554 
776	 0.245460964890556 
777	 0.247319725006393 
778	 0.249253262217959 
779	 0.251214979978293 
780	 0.252956556020967 
781	 0.254680325851229 
782	 0.256385187303155 
783	 0.258027050051019 
784	 0.259609213621807 
785	 0.26114337880078 
786	 0.262698236043383 
787	 0.264330236077976 
788	 0.265794388951088 
789	 0.267244943958408 
790	 0.268692429528043 
791	 0.26994998405093 
792	 0.271222053445846 
793	 0.272576880217434 
794	 0.273991473838477 
795	 0.275302326603837 
796	 0.27655235248856 
797	 0.277802183570133 
798	 0.279079647611321 
799	 0.280211399870167 
800	 0.28137444914266 
801	 0.282593865253874 
802	 0.283761737581666 
803	 0.284813558635356 
804	 0.285892189461821 
805	 0.287048413878367 
806	 0.288154314576346 
807	 0.289185806746145 
808	 0.290169029276977 
809	 0.291166353640259 
810	 0.292316152253826 
811	 0.293304134453935 
812	 0.294210493495321 
813	 0.295247136641163 
814	 0.296260147305016 
815	 0.297135305392516 
816	 0.297980269129715 
817	 0.299052998400252 
818	 0.300013829586892 
819	 0.300907181673497 
820	 0.301783250842066 
821	 0.30260292882519 
822	 0.303447124371698 
823	 0.30431986493713 
824	 0.305182884317754 
825	 0.305935559145102 
826	 0.306706733752269 
827	 0.307528937910897 
828	 0.308370991763929 
829	 0.309155520494766 
830	 0.309926705412826 
831	 0.310670041393564 
832	 0.311331440958748 
833	 0.312053268904355 
834	 0.312746323243624 
835	 0.313387389178515 
836	 0.314105778813075 
837	 0.314887938723286 
838	 0.315646048467331 
839	 0.316324037874097 
840	 0.317011791487205 
841	 0.317651931034613 
842	 0.318269860369198 
843	 0.318919778086324 
844	 0.319618075200792 
845	 0.32028565691569 
846	 0.320874299309006 
847	 0.321391989357825 
848	 0.322070774300884 
849	 0.322672739062808 
850	 0.323182080566409 
851	 0.323904717944821 
852	 0.324509118195952 
853	 0.325022484586481 
854	 0.325566048692281 
855	 0.326309413036193 
856	 0.326805751402703 
857	 0.327209577139842 
858	 0.3277863554962 
859	 0.328454150222511 
860	 0.32910968760999 
861	 0.329727896974188 
862	 0.330298975936012 
863	 0.330609299852377 
864	 0.331017043831515 
865	 0.331565712414112 
866	 0.332018145568911 
867	 0.332539208555787 
868	 0.333095314594367 
869	 0.333638414460267 
870	 0.334138809238705 
871	 0.334465200297953 
872	 0.334891632539233 
873	 0.335515580241204 
874	 0.335846987964157 
875	 0.336390865941152 
876	 0.336945918968752 
877	 0.337255245322622 
878	 0.337663151560558 
879	 0.338201589906249 
880	 0.338668501070502 
881	 0.338878833614717 
882	 0.339385528891377 
883	 0.33987359933312 
884	 0.340235653709466 
885	 0.340585348406472 
886	 0.341140263785673 
887	 0.341633010531908 
888	 0.34200961797108 
889	 0.342505537782311 
890	 0.342899169687049 
891	 0.343142883742987 
892	 0.343359323658011 
893	 0.343884598985407 
894	 0.344269657217699 
895	 0.34453344290297 
896	 0.344828917542563 
897	 0.345337402798137 
898	 0.34568058003186 
899	 0.345936558423853 
900	 0.346290590688099 
901	 0.346657602266699 
902	 0.347174455166404 
903	 0.347703589317152 
904	 0.348019564186838 
905	 0.34821145751221 
906	 0.348481148364502 
907	 0.348844876921605 
908	 0.349165242674951 
909	 0.349277198520574 
910	 0.34962425740874 
911	 0.3501671495948 
912	 0.350386979983295 
913	 0.350709474065406 
914	 0.351130550077573 
915	 0.351521591305401 
916	 0.351696936242699 
917	 0.351990729913114 
918	 0.352248238371232 
919	 0.352422892745102 
920	 0.352843261375872 
921	 0.353217637861677 
922	 0.353615819368646 
923	 0.354078600310285 
924	 0.354347597081466 
925	 0.354488196181886 
926	 0.354700895484988 
927	 0.355113072864619 
928	 0.355469083754668 
929	 0.355718565478435 
930	 0.355958293607817 
931	 0.356288286579424 
932	 0.35649603173148 
933	 0.356907851425818 
934	 0.357361171630356 
935	 0.357534792250425 
936	 0.35782339459118 
937	 0.358109050495248 
938	 0.35839752305198 
939	 0.358781353172238 
940	 0.3592118196961 
941	 0.35974701652464 
942	 0.3601414823121 
943	 0.360022065091082 
944	 0.360145310347928 
945	 0.360467153708654 
946	 0.360777410224865 
947	 0.36086290722056 
948	 0.361237798755504 
949	 0.361607945148695 
950	 0.361857920057946 
951	 0.36222280744672 
952	 0.362391561246288 
953	 0.362597677793626 
954	 0.362925097064486 
955	 0.363117783336172 
956	 0.363573025376872 
957	 0.364004952129128 
958	 0.364184059008234 
959	 0.364232217556205 
960	 0.364552083498021 
961	 0.364790066605425 
962	 0.364807399621126 
963	 0.365240752897523 
964	 0.365318396420566 
965	 0.365426322503484 
966	 0.365849247643525 
967	 0.365962148040558 
968	 0.366257154798545 
969	 0.366438319609213 
970	 0.366341003476412 
971	 0.366671320459607 
972	 0.36687460846813 
973	 0.366996113831193 
974	 0.367209671989605 
975	 0.367522054113319 
976	 0.367754430092786 
977	 0.368073744228076 
978	 0.36851841087607 
979	 0.368384319199711 
980	 0.368395978962519 
981	 0.368683488504491 
982	 0.369082017947735 
983	 0.369261728200469 
984	 0.369050181203041 
985	 0.368951371173784 
986	 0.369379778063379 
987	 0.369625992416779 
988	 0.370017878562079 
989	 0.370348525844876 
990	 0.370414355840088 
991	 0.370651294738111 
992	 0.370784157176595 
993	 0.370926753813598 
994	 0.371162270032422 
995	 0.370960443840475 
996	 0.371167736101452 
997	 0.371604219857294 
998	 0.371814322881739 
999	 0.371748436117185 
1000	 0.372354948287105 
1001	 0.372657396227333 
1002	 0.372810389774816 
1003	 0.373084124526628 
1004	 0.373285095342931 
1005	 0.373358604113745 
1006	 0.373572878119796 
1007	 0.37393976215966 
1008	 0.374163958657384 
1009	 0.374361298974395 
1010	 0.374534614856657 
1011	 0.374627137656813 
1012	 0.374746610175719 
1013	 0.374840918587641 
1014	 0.375008080409364 
1015	 0.375209374413134 
1016	 0.375446515769344 
1017	 0.375654567663909 
1018	 0.375777178029875 
1019	 0.375881164763411 
1020	 0.375953045577501 
1021	 0.376140516744706 
1022	 0.376504842727128 
1023	 0.376554696192953 
1024	 0.376448458057189 
1025	 0.376558451206358 
1026	 0.376600671307244 
1027	 0.376713471755236 
1028	 0.377062745681897 
1029	 0.377231750082113 
1030	 0.377358960597406 
1031	 0.377314539326364 
1032	 0.377459704570584 
1033	 0.377719004672959 
1034	 0.377678402699641 
1035	 0.377718795406086 
1036	 0.377765652636493 
1037	 0.377656357576657 
1038	 0.377723847081857 
1039	 0.37795105761537 
1040	 0.378151107270849 
1041	 0.378429198836491 
1042	 0.378651375174567 
1043	 0.379025506914903 
1044	 0.378975312745287 
1045	 0.378866660987276 
1046	 0.378905124058681 
1047	 0.378659976784215 
1048	 0.378915808286159 
1049	 0.379550350346335 
1050	 0.379813042726629 
1051	 0.380091137091414 
1052	 0.380384452870028 
1053	 0.380497119880432 
1054	 0.380190176846555 
1055	 0.38027610054248 
1056	 0.38055056605574 
1057	 0.380700960515623 
1058	 0.380849408496735 
1059	 0.381174653340223 
1060	 0.381420650739499 
1061	 0.381431254856745 
1062	 0.381417569140425 
1063	 0.381552295615343 
1064	 0.381685679010293 
1065	 0.381817223726695 
1066	 0.382202633042552 
1067	 0.382464009278047 
1068	 0.382442251871628 
1069	 0.38233971872614 
1070	 0.382317671419556 
1071	 0.382187957614974 
1072	 0.382196935309852 
1073	 0.382273214491263 
1074	 0.382489652597521 
1075	 0.382771690310245 
1076	 0.382935263107759 
1077	 0.383093657367219 
1078	 0.383200090104488 
1079	 0.383258148620092 
1080	 0.383173390634812 
1081	 0.383127110035091 
1082	 0.383253134582031 
1083	 0.383334431286462 
1084	 0.383507236857445 
1085	 0.383668976411257 
1086	 0.383731587635071 
1087	 0.383712683686745 
1088	 0.383714838933908 
1089	 0.383721646841813 
1090	 0.383809968560702 
1091	 0.384036379639901 
1092	 0.384170741127372 
1093	 0.38418449809649 
1094	 0.38421026425603 
1095	 0.384219286037058 
1096	 0.384314017506818 
1097	 0.384505758672376 
1098	 0.384607552551572 
1099	 0.384644189858748 
1100	 0.384774258595136 
1101	 0.384903469878292 
1102	 0.384982671237365 
1103	 0.385106058919182 
1104	 0.385271496081581 
1105	 0.385423255727291 
1106	 0.385579659094753 
1107	 0.385754688039633 
1108	 0.385914953742745 
1109	 0.385943128345264 
1110	 0.385914822224849 
1111	 0.386040570959368 
1112	 0.386237341651595 
1113	 0.386479140307937 
1114	 0.386738792876799 
1115	 0.386899853650622 
1116	 0.387075234839475 
1117	 0.387234335482509 
1118	 0.387366538757341 
1119	 0.387504390398926 
1120	 0.387629519660413 
1121	 0.387699908388833 
1122	 0.38781768512508 
1123	 0.388003193124968 
1124	 0.388084915920086 
1125	 0.388154216546334 
1126	 0.38827291848232 
1127	 0.388434714860721 
1128	 0.388643692257835 
1129	 0.388879102333323 
1130	 0.389046847351652 
1131	 0.389118975731275 
1132	 0.389200113754732 
1133	 0.389283226811742 
1134	 0.389452063663832 
1135	 0.389562225747505 
1136	 0.389593075175323 
1137	 0.389674375754976 
1138	 0.389818833364346 
1139	 0.389896065042769 
1140	 0.389916021904794 
1141	 0.390072876186043 
1142	 0.390180370262218 
1143	 0.390130335536693 
1144	 0.390162623395727 
1145	 0.390343569682198 
1146	 0.390537947797418 
1147	 0.390692418674885 
1148	 0.390777738375098 
1149	 0.390759884305876 
1150	 0.390694292898279 
1151	 0.390678979630908 
1152	 0.390689881990979 
1153	 0.390785862508955 
1154	 0.390782065060361 
1155	 0.39073561516519 
1156	 0.390720002833214 
1157	 0.390685046070511 
1158	 0.39067891061613 
1159	 0.390740827732238 
1160	 0.390697124639336 
1161	 0.39067477536559 
1162	 0.390568705287705 
1163	 0.39039646190377 
1164	 0.390296750294487 
1165	 0.390260427586216 
1166	 0.390235952338892 
1167	 0.390178508933119 
1168	 0.390116489741662 
1169	 0.390034389560906 
1170	 0.389846697662665 
1171	 0.389745677370154 
1172	 0.389718966471973 
1173	 0.389651447961539 
1174	 0.389604791089054 
1175	 0.389508662780832 
1176	 0.389346036462326 
1177	 0.389228298402701 
1178	 0.389107565867648 
1179	 0.388982476740029 
1180	 0.388882526252537 
1181	 0.388829948025179 
1182	 0.388738379174915 
1183	 0.388646466789571 
1184	 0.388666701800796 
1185	 0.388663179264335 
1186	 0.388616946976945 
1187	 0.38856462001232 
1188	 0.388545936941592 
1189	 0.388480568999738 
1190	 0.388458945812721 
1191	 0.388507783921834 
1192	 0.388516597459637 
1193	 0.388483818009042 
1194	 0.38850002253582 
1195	 0.388537768615677 
1196	 0.3885946911599 
1197	 0.388707145075264 
1198	 0.388750450387535 
1199	 0.38881160942711 
1200	 0.388947084367698 
1201	 0.389053200671367 
1202	 0.38921048595703 
1203	 0.389399834286432 
1204	 0.389561879942323 
1205	 0.389759730908971 
1206	 0.38996469866201 
1207	 0.390208207707899 
1208	 0.390449658540439 
1209	 0.390781890093617 
1210	 0.391151986021994 
1211	 0.391574553238376 
1212	 0.392053083840106 
1213	 0.392626446914234 
1214	 0.393299426274621 
1215	 0.393970952532821 
1216	 0.394763115142043 
1217	 0.395474739361599 
1218	 0.39610605610172 
1219	 0.396816844427094 
1220	 0.397540603808298 
1221	 0.39828766934445 
1222	 0.399058517726984 
1223	 0.39978064654775 
1224	 0.400505402973559 
1225	 0.401178170382063 
1226	 0.401908291746393 
1227	 0.402691758840227 
1228	 0.403420260641477 
1229	 0.404167560221753 
1230	 0.404847095726121 
1231	 0.405479930535807 
1232	 0.406083661603121 
1233	 0.406641857644254 
1234	 0.407193294579461 
1235	 0.407667158696983 
1236	 0.408203399161363 
1237	 0.408808153534957 
1238	 0.40934115420918 
1239	 0.409870547642834 
1240	 0.410377456880629 
1241	 0.410878237141233 
1242	 0.411287970003076 
1243	 0.41174220619268 
1244	 0.412208961942316 
1245	 0.412701247937748 
1246	 0.413204813750292 
1247	 0.413672421438201 
1248	 0.414175900394243 
1249	 0.414615629581436 
1250	 0.414948370490838 
1251	 0.415378455041147 
1252	 0.415843650507338 
1253	 0.416299556843025 
1254	 0.416836840062158 
1255	 0.417276090162473 
1256	 0.417677743506361 
1257	 0.418046707493992 
1258	 0.418320255747035 
1259	 0.418638110935788 
1260	 0.418940384678784 
1261	 0.419256011185677 
1262	 0.41958740277086 
1263	 0.419942440097654 
1264	 0.42028174683095 
1265	 0.420616357373155 
1266	 0.420969802834081 
1267	 0.421339347033522 
1268	 0.421681928986929 
1269	 0.422027631346001 
1270	 0.422360714926124 
1271	 0.422652757140147 
1272	 0.422993268639393 
1273	 0.423369389405196 
1274	 0.423713966356154 
1275	 0.42406091434633 
1276	 0.42440787352789 
1277	 0.42468514357899 
1278	 0.42506266980334 
1279	 0.425561214989328 
1280	 0.425958149145099 
1281	 0.426369421424839 
1282	 0.426749680491738 
1283	 0.427022195278244 
1284	 0.42733462742022 
1285	 0.427658228098005 
1286	 0.428022938591526 
1287	 0.428309377052201 
1288	 0.428561107506948 
1289	 0.428839717314995 
1290	 0.429098564817792 
1291	 0.429346402022864 
1292	 0.429592130412737 
1293	 0.429862668637121 
1294	 0.430124525048571 
1295	 0.430380125325235 
1296	 0.430673447490417 
1297	 0.43093618699096 
1298	 0.431155830746116 
1299	 0.431389805459403 
1300	 0.431633394917465 
1301	 0.431873632924331 
1302	 0.432122500979 
1303	 0.432337892613785 
1304	 0.432536212223138 
1305	 0.432736351268755 
1306	 0.432923965124918 
1307	 0.433088029297403 
1308	 0.433230262114186 
1309	 0.433377317970525 
1310	 0.43356776643881 
1311	 0.433756836541519 
1312	 0.433945078541631 
1313	 0.434172406189415 
1314	 0.434392972459039 
1315	 0.434604862386564 
1316	 0.4347886084997 
1317	 0.434982645693646 
1318	 0.435172060690206 
1319	 0.435316472187165 
1320	 0.435482270400782 
1321	 0.435694507495084 
1322	 0.435859457967992 
1323	 0.435959114092791 
1324	 0.436119829034503 
1325	 0.436325522495378 
1326	 0.436483216295727 
1327	 0.436627384136847 
1328	 0.436793626780641 
1329	 0.43694753308789 
1330	 0.437091899019581 
1331	 0.437279144740417 
1332	 0.437426899057784 
1333	 0.437504371464893 
1334	 0.437621633262094 
1335	 0.437735093853043 
1336	 0.437853983508241 
1337	 0.437956014720141 
1338	 0.438051208716015 
1339	 0.438159664996225 
1340	 0.438261660347418 
1341	 0.438365583422982 
1342	 0.438505461088016 
1343	 0.438586525045919 
1344	 0.438655201620132 
1345	 0.43867573303098 
1346	 0.438628104725959 
1347	 0.438627628277948 
1348	 0.438635718549431 
1349	 0.438599746379744 
1350	 0.438572858139611 
1351	 0.438516276792285 
1352	 0.438393396309449 
1353	 0.438298702830669 
1354	 0.438235211312122 
1355	 0.438128292480142 
1356	 0.43797780935522 
1357	 0.437852810021032 
1358	 0.437686279012971 
1359	 0.437577720458449 
1360	 0.437534473306901 
1361	 0.437467771646634 
1362	 0.437426148968236 
1363	 0.437380553271062 
1364	 0.437294118220295 
1365	 0.437202108291846 
1366	 0.437038967665657 
1367	 0.436836446194399 
1368	 0.436600709044163 
1369	 0.436312328919154 
1370	 0.435995124547167 
1371	 0.435611279893115 
1372	 0.435302738001891 
1373	 0.435017276959597 
1374	 0.434675502541751 
1375	 0.43433331092258 
1376	 0.434005384688063 
1377	 0.433633606656461 
1378	 0.433260999494102 
1379	 0.43295900984117 
1380	 0.432578540691629 
1381	 0.43208521165458 
1382	 0.43166335897991 
1383	 0.431273328790587 
1384	 0.430849387871766 
1385	 0.430457995447527 
1386	 0.430023254048027 
1387	 0.429488540296268 
1388	 0.429041290241052 
1389	 0.428632186506107 
1390	 0.428218340974576 
1391	 0.427827753855689 
1392	 0.427462587930052 
1393	 0.427162857701724 
1394	 0.426852198651805 
1395	 0.426576942993538 
1396	 0.426407175054826 
1397	 0.426111628675331 
1398	 0.425804232758173 
1399	 0.425380239254663 
1400	 0.424898634958919 
1401	 0.424331072626034 
1402	 0.423671688703496 
1403	 0.422944522790127 
1404	 0.422163563151325 
1405	 0.421292653237158 
1406	 0.420337780058381 
1407	 0.4193004119593 
1408	 0.41814727546151 
1409	 0.416990407709677 
1410	 0.415728824164395 
1411	 0.414520727940289 
1412	 0.413261651413292 
1413	 0.412109725467984 
1414	 0.411044172117772 
1415	 0.409937667769235 
1416	 0.408874805675758 
1417	 0.407803493347326 
1418	 0.406696970305418 
1419	 0.405598869068045 
1420	 0.404495342463256 
1421	 0.403447123043418 
1422	 0.402397760812701 
1423	 0.401390135476851 
1424	 0.400447698988707 
1425	 0.399520711495571 
1426	 0.398629739715879 
1427	 0.397719348731196 
1428	 0.396885408958185 
1429	 0.396070457563855 
1430	 0.395220460369165 
1431	 0.394390449188279 
1432	 0.3935050310384 
1433	 0.392612955947478 
1434	 0.391620449481218 
1435	 0.390579084926113 
1436	 0.389475357752354 
1437	 0.388267790392288 
1438	 0.387074519548434 
1439	 0.385810164151671 
1440	 0.384634576189959 
1441	 0.383380987110954 
1442	 0.382351595470774 
1443	 0.38138297490142 
1444	 0.380619585473039 
1445	 0.379955393466619 
1446	 0.379580703215566 
1447	 0.379362553474443 
1448	 0.37945730694375 
1449	 0.379882334664373 
1450	 0.38044829977506 
1451	 0.381278080969303 
1452	 0.382234091934177 
1453	 0.38348568094574 
1454	 0.384650416218871 
1455	 0.385980935420963 
1456	 0.387211434206052 
1457	 0.388424325879085 
1458	 0.389552662550485 
1459	 0.390656162787668 
1460	 0.391676843363118 
1461	 0.392570250836754 
1462	 0.393457371031097 
1463	 0.394294481994056 
1464	 0.395112411513692 
1465	 0.395914243625568 
1466	 0.396672999715106 
1467	 0.397359665862609 
1468	 0.398057465626663 
1469	 0.398741620602522 
1470	 0.39939174867172 
1471	 0.400032351139833 
1472	 0.400675001774412 
1473	 0.401290777652622 
1474	 0.401903739191044 
1475	 0.402417019146962 
1476	 0.402904100145755 
1477	 0.403323249953544 
1478	 0.403644142719568 
1479	 0.403940767218734 
1480	 0.40419972700255 
1481	 0.404434287269671 
1482	 0.404616462196144 
1483	 0.404769797598053 
1484	 0.404920463237421 
1485	 0.404995819876288 
1486	 0.404949900407204 
1487	 0.40499973902233 
1488	 0.404991174429528 
1489	 0.405127337060971 
1490	 0.405322474300341 
1491	 0.405626390971186 
1492	 0.406056622440769 
1493	 0.40650675846593 
1494	 0.40702050630961 
1495	 0.407614947545673 
1496	 0.408248396576376 
1497	 0.40897202192239 
1498	 0.409836041502353 
1499	 0.410682386570015 
1500	 0.411617867461538 
1501	 0.412494762917108 
1502	 0.41336954495943 
1503	 0.414222769657347 
1504	 0.415046793992993 
1505	 0.415859253973755 
1506	 0.416710263523308 
1507	 0.417461815008527 
1508	 0.418157057765844 
1509	 0.418810439360013 
1510	 0.419378878724397 
1511	 0.419926938308446 
1512	 0.420438399994609 
1513	 0.420929566424393 
1514	 0.421415207746122 
1515	 0.421827974401739 
1516	 0.422201233707624 
1517	 0.422525514362261 
1518	 0.422730108579063 
1519	 0.422969770098527 
1520	 0.423201334954839 
1521	 0.423442683318355 
1522	 0.423609398298279 
1523	 0.423796121263838 
1524	 0.423937769472332 
1525	 0.424013875629109 
1526	 0.424123108878795 
1527	 0.424254475007145 
1528	 0.424325224729165 
1529	 0.424359340479948 
1530	 0.424409213915424 
1531	 0.424427153836868 
1532	 0.424476100632022 
1533	 0.424534501735887 
1534	 0.424615974424367 
1535	 0.424693661752163 
1536	 0.424827799209684 
1537	 0.424988035023122 
1538	 0.425203792019576 
1539	 0.425456551092511 
1540	 0.425768218996419 
1541	 0.426136915956765 
1542	 0.4265422940556 
1543	 0.426982488771308 
1544	 0.427500306841174 
1545	 0.428091358703694 
1546	 0.428685275534553 
1547	 0.429365281819535 
1548	 0.429991732693656 
1549	 0.430597572055412 
1550	 0.431229727973695 
1551	 0.431851615115488 
1552	 0.432515281465622 
1553	 0.433217858277618 
1554	 0.43390702186592 
1555	 0.43464005912282 
1556	 0.435310848651567 
1557	 0.435928324593383 
1558	 0.436594413886533 
1559	 0.437300926808561 
1560	 0.43790661238379 
1561	 0.438506819566366 
1562	 0.439055748310573 
1563	 0.439469827034803 
1564	 0.439964755701144 
1565	 0.440485332057402 
1566	 0.44100470440707 
1567	 0.441524473208263 
1568	 0.442065152266781 
1569	 0.442648813598258 
1570	 0.443180205050685 
1571	 0.443695514361867 
1572	 0.444214496493842 
1573	 0.444715580783928 
1574	 0.445197910451557 
1575	 0.445676647806444 
1576	 0.446155420009089 
1577	 0.446624857358357 
1578	 0.447059948904547 
1579	 0.447486255918483 
1580	 0.447904864067576 
1581	 0.448267364747544 
1582	 0.448661696128558 
1583	 0.449068141163594 
1584	 0.449492815011857 
1585	 0.449921999530645 
1586	 0.450369568024682 
1587	 0.450865408098736 
1588	 0.451324986868211 
1589	 0.451783920610146 
1590	 0.452222547180669 
1591	 0.452649347068881 
1592	 0.453047345262166 
1593	 0.453374633553167 
1594	 0.453785119756952 
1595	 0.454233560882787 
1596	 0.454653273676958 
1597	 0.455106976482232 
1598	 0.455555239067808 
1599	 0.455977466761685 
1600	 0.456397153251628 
1601	 0.456845704123231 
1602	 0.457277297555901 
1603	 0.457693224106685 
1604	 0.458078342805915 
1605	 0.458434056061129 
1606	 0.458809034867121 
1607	 0.459171873142723 
1608	 0.459518609669494 
1609	 0.459866283881947 
1610	 0.460234249303102 
1611	 0.460624013736551 
1612	 0.460949119331502 
1613	 0.461295261902942 
1614	 0.461565097244481 
1615	 0.461665607392786 
1616	 0.461890697927163 
1617	 0.462211275541355 
1618	 0.462434621669474 
1619	 0.462689209041116 
1620	 0.46287328639348 
1621	 0.462925792823324 
1622	 0.463012799930257 
1623	 0.463074983350909 
1624	 0.463179027300001 
1625	 0.463303972133401 
1626	 0.46341204639418 
1627	 0.46356488674701 
1628	 0.463669342612925 
1629	 0.463700008943976 
1630	 0.46379452970794 
1631	 0.463939739665744 
1632	 0.464029168535872 
1633	 0.464101250189534 
1634	 0.464186972815262 
1635	 0.464208665978474 
1636	 0.464291849555174 
1637	 0.464476433628637 
1638	 0.464593374974775 
1639	 0.464675197590541 
1640	 0.464776060282441 
1641	 0.464885633504209 
1642	 0.464948482340401 
1643	 0.464999067310174 
1644	 0.465045092551221 
1645	 0.465099300760774 
1646	 0.465055849487119 
1647	 0.464959100107238 
1648	 0.464853428730461 
1649	 0.464696616858792 
1650	 0.464462232345793 
1651	 0.464265309071224 
1652	 0.46391256690893 
1653	 0.463407581755024 
1654	 0.462862759973066 
1655	 0.462155814799031 
1656	 0.461520489755338 
1657	 0.460879611664797 
1658	 0.460192245622233 
1659	 0.459516349640162 
1660	 0.458829305033366 
1661	 0.458138486106578 
1662	 0.457348228167617 
1663	 0.456524145243273 
1664	 0.455643397005772 
1665	 0.454650048254493 
1666	 0.453638595847753 
1667	 0.452662734742317 
1668	 0.45154549172703 
1669	 0.45030299316741 
1670	 0.449055287961341 
1671	 0.447631963746148 
1672	 0.446368440584582 
1673	 0.44518679254662 
1674	 0.443960407563848 
1675	 0.442842119356185 
1676	 0.441616459508789 
1677	 0.440323183692639 
1678	 0.439004263447895 
1679	 0.437625466926314 
1680	 0.43623994509198 
1681	 0.434820116199746 
1682	 0.433365756318531 
1683	 0.431926847862466 
1684	 0.430411029195509 
1685	 0.4288691660388 
1686	 0.427220116760613 
1687	 0.425444768569615 
1688	 0.423677483138113 
1689	 0.421863158393282 
1690	 0.419947216025281 
1691	 0.41802077093141 
1692	 0.416017850513991 
1693	 0.413897509934722 
1694	 0.411764054163255 
1695	 0.409611276595798 
1696	 0.407342804800516 
1697	 0.40497890546687 
1698	 0.402557212597342 
1699	 0.40004340721969 
1700	 0.397544731014801 
1701	 0.39499596710088 
1702	 0.392452005700481 
1703	 0.389829372475911 
1704	 0.387358388850335 
1705	 0.384869770289908 
1706	 0.382588558148406 
1707	 0.380524693504972 
1708	 0.37856245707692 
1709	 0.376756747207328 
1710	 0.375019725089477 
1711	 0.373300546121298 
1712	 0.371747371086553 
1713	 0.370190096404109 
1714	 0.368703058557815 
1715	 0.367432140427817 
1716	 0.366074353215043 
1717	 0.364758013358054 
1718	 0.363629110848028 
1719	 0.362456574601263 
1720	 0.361353328996358 
1721	 0.360286221625665 
1722	 0.359201527472649 
1723	 0.358278217642821 
1724	 0.357458329076202 
1725	 0.356864677141246 
1726	 0.356455655879636 
1727	 0.356107543808892 
1728	 0.356034551102395 
1729	 0.356292101733797 
1730	 0.356758935495182 
1731	 0.357434882337269 
1732	 0.358289577524295 
1733	 0.359113956606515 
1734	 0.360094742243783 
1735	 0.361223593328113 
1736	 0.362379436880171 
1737	 0.363487369418626 
1738	 0.364396196957235 
1739	 0.365125765292223 
1740	 0.365637393161429 
1741	 0.366069414544792 
1742	 0.366403788984441 
1743	 0.366574127892468 
1744	 0.366564170655195 
1745	 0.366530250010405 
1746	 0.366376937763357 
1747	 0.366110378502582 
1748	 0.365644058331774 
1749	 0.365391243429026 
1750	 0.365084748768625 
1751	 0.364950664758281 
1752	 0.36501001459861 
1753	 0.365117780662067 
1754	 0.365267546557897 
1755	 0.365532761393909 
1756	 0.365930292040651 
1757	 0.366387387082865 
1758	 0.366966420765063 
1759	 0.367793470633427 
1760	 0.368746181410409 
1761	 0.369898651278655 
1762	 0.371148368833796 
1763	 0.372487556128283 
1764	 0.373935274525072 
1765	 0.375396773222145 
1766	 0.377018380522918 
1767	 0.378664326414712 
1768	 0.380348727815951 
1769	 0.382143831253573 
1770	 0.383867095615373 
1771	 0.385575077573049 
1772	 0.387198732325898 
1773	 0.388707025249617 
1774	 0.390201637536029 
1775	 0.391630623562747 
1776	 0.393050704960801 
1777	 0.394406708286202 
1778	 0.395584869545616 
1779	 0.396669093068004 
1780	 0.39768925452926 
1781	 0.398634053516795 
1782	 0.399664153103711 
1783	 0.400695890118566 
1784	 0.401515143978398 
1785	 0.402333664487356 
1786	 0.403033106274401 
1787	 0.403541915444168 
1788	 0.404126265297117 
1789	 0.404615258341325 
1790	 0.4051474240288 
1791	 0.405737615221721 
1792	 0.406361109986597 
1793	 0.407053877734736 
1794	 0.407724735270927 
1795	 0.408251598238544 
1796	 0.408738674156041 
1797	 0.409224060749797 
1798	 0.409660403056307 
1799	 0.410144338550627 
1800	 0.410678818540878 
1801	 0.410198862990288 
1802	 0.410632633873723 
1803	 0.411022069179029 
1804	 0.411350566687013 
1805	 0.411675582718644 
1806	 0.412081678800929 
1807	 0.412476283354863 
1808	 0.412904321225878 
1809	 0.413467629465609 
1810	 0.413921305983102 
1811	 0.414284495589182 
1812	 0.414717185249733 
1813	 0.41518106666285 
1814	 0.41562554378857 
1815	 0.416070938433468 
1816	 0.416512174975614 
1817	 0.416857565326664 
1818	 0.417022741954874 
1819	 0.417378657287925 
1820	 0.417711898985958 
1821	 0.418152985696621 
1822	 0.418724838173847 
1823	 0.419370734799286 
1824	 0.419922114251939 
1825	 0.420440136909303 
1826	 0.420914519110649 
1827	 0.421313259128511 
1828	 0.421735348397865 
1829	 0.422150703496674 
1830	 0.422572140215719 
1831	 0.42299983412731 
1832	 0.423392054693601 
1833	 0.423799420224823 
1834	 0.424113904092842 
1835	 0.424427641027039 
1836	 0.424747402673978 
1837	 0.425087738271987 
1838	 0.425443370555136 
1839	 0.425813623644283 
1840	 0.426233427384689 
1841	 0.426592367992144 
1842	 0.426948306619153 
1843	 0.427265296024316 
1844	 0.427569553120588 
1845	 0.427814546958643 
1846	 0.428069343071524 
1847	 0.42826092746846 
1848	 0.428385672096489 
1849	 0.428396529472947 
1850	 0.428482654701452 
1851	 0.428575550472352 
1852	 0.428620723594821 
1853	 0.428641452633533 
1854	 0.428574892520738 
1855	 0.42834928921748 
1856	 0.428081239875501 
1857	 0.427829616001919 
1858	 0.427473328338884 
1859	 0.427098125396835 
1860	 0.426737570089108 
1861	 0.426273198645478 
1862	 0.425707286441595 
1863	 0.425167769391947 
1864	 0.424570322810082 
1865	 0.423788493340588 
1866	 0.422996267741595 
1867	 0.422102386031496 
1868	 0.421163361931409 
1869	 0.420139496385535 
1870	 0.419007722279192 
1871	 0.417800537677758 
1872	 0.416532540938152 
1873	 0.415170413464957 
1874	 0.413735739810773 
1875	 0.412279303468048 
1876	 0.410647556436969 
1877	 0.408919016863979 
1878	 0.407080464799412 
1879	 0.405120373562302 
1880	 0.403138570742825 
1881	 0.400999820914459 
1882	 0.398699299681762 
1883	 0.396395681964088 
1884	 0.394028334222467 
1885	 0.391364629769944 
1886	 0.388790081598284 
1887	 0.386045104164579 
1888	 0.382965876614844 
1889	 0.380016370650108 
1890	 0.376926163707841 
1891	 0.373744329124467 
1892	 0.370624963491198 
1893	 0.36741428014504 
1894	 0.364096330222383 
1895	 0.360819322112021 
1896	 0.357540052308677 
1897	 0.354248917871631 
1898	 0.351103295168403 
1899	 0.347916095339951 
1900	 0.344808747095012 
1901	 0.341718202678692 
1902	 0.338481760778226 
1903	 0.335444488877081 
1904	 0.332451739943439 
1905	 0.329436701884264 
1906	 0.326521405249869 
1907	 0.323964722055706 
1908	 0.321374307213402 
1909	 0.318923575561667 
1910	 0.316631434723341 
1911	 0.314262926207147 
1912	 0.312068681553561 
1913	 0.309800499308292 
1914	 0.307542002921548 
1915	 0.305427596879591 
1916	 0.303466678119207 
1917	 0.301373999714405 
1918	 0.299359477415663 
1919	 0.297430700019803 
1920	 0.295379768187274 
1921	 0.293408248470259 
1922	 0.291457731473662 
1923	 0.2894347202475 
1924	 0.287556159816504 
1925	 0.285705552318859 
1926	 0.283887502548025 
1927	 0.282167864722024 
1928	 0.280444979950829 
1929	 0.278706207188456 
1930	 0.277020948337511 
1931	 0.275431906009508 
1932	 0.273921611928613 
1933	 0.272512740048316 
1934	 0.271259012704864 
1935	 0.270152843475107 
1936	 0.2692162523753 
1937	 0.268401451674822 
1938	 0.267739134004176 
1939	 0.267219956766141 
1940	 0.266825523570984 
1941	 0.266570085914944 
1942	 0.26649858081015 
1943	 0.266562492487925 
1944	 0.266695177616383 
1945	 0.266950051949146 
1946	 0.267332984763023 
1947	 0.267815836157101 
1948	 0.268493625693384 
1949	 0.269295046847512 
1950	 0.270162031433108 
1951	 0.271126491676828 
1952	 0.272240668569089 
1953	 0.273403568076772 
1954	 0.274781233654517 
1955	 0.276429218012747 
1956	 0.278079079723347 
1957	 0.279811382404879 
1958	 0.281572529794565 
1959	 0.283113150071146 
1960	 0.284649633580373 
1961	 0.286078594630205 
1962	 0.287423529099921 
1963	 0.288618516735581 
1964	 0.289730344053983 
1965	 0.29068531157971 
1966	 0.291475724819005 
1967	 0.29220145250866 
1968	 0.292799125591748 
1969	 0.293416383114697 
1970	 0.29402663058125 
1971	 0.294594074587459 
1972	 0.295210064803026 
1973	 0.295846410768986 
1974	 0.296491471660148 
1975	 0.297160073200572 
1976	 0.297849072040677 
1977	 0.298485985609478 
1978	 0.299239984569361 
1979	 0.300059082734992 
1980	 0.300914073287992 
1981	 0.301840751368455 
1982	 0.302863984733256 
1983	 0.303863298275391 
1984	 0.304844232013795 
1985	 0.305835017136785 
1986	 0.306865447674424 
1987	 0.30798368638469 
1988	 0.309070514989486 
1989	 0.310395330972292 
1990	 0.311857425113941 
1991	 0.313440487430934 
1992	 0.31517247007816 
1993	 0.317101373062335 
1994	 0.319033832744577 
1995	 0.321086697703318 
1996	 0.323125584128447 
1997	 0.325266481582934 
1998	 0.327391233414511 
1999	 0.329538695644127 
2000	 0.331615391786833 
2001	 0.333808864960147 
2002	 0.33574938723808 
2003	 0.337592127136544 
2004	 0.339326010098723 
2005	 0.340836149564162 
2006	 0.34237129609815 
2007	 0.343886678197309 
2008	 0.345268213808058 
2009	 0.346652103834516 
2010	 0.347889391382881 
2011	 0.34883373369363 
2012	 0.349781677083054 
2013	 0.350641636267898 
2014	 0.351370933184933 
2015	 0.352041086743373 
2016	 0.352694060287702 
2017	 0.353195887959824 
2018	 0.353546226921919 
2019	 0.353855687825711 
2020	 0.354062260950921 
2021	 0.354219946587515 
2022	 0.354365788602517 
2023	 0.354411047840027 
2024	 0.3543871738105 
2025	 0.354297264498105 
2026	 0.35414299590997 
2027	 0.353882293933439 
2028	 0.353608599705864 
2029	 0.353269199365309 
2030	 0.352936654177702 
2031	 0.35255130831693 
2032	 0.352170033140754 
2033	 0.351808078195603 
2034	 0.35139493316763 
2035	 0.350948074470802 
2036	 0.350483629822539 
2037	 0.349946638907841 
2038	 0.349419066054969 
2039	 0.3489362264929 
2040	 0.348432390908949 
2041	 0.348002504764371 
2042	 0.347675704017928 
2043	 0.347263120061844 
2044	 0.34678184460672 
2045	 0.346432172621545 
2046	 0.3461355119083 
2047	 0.345816248921553 
2048	 0.345612568367702 
2049	 0.345337509423026 
2050	 0.344979663789543 
2051	 0.344637992480796 
2052	 0.344351871693352 
2053	 0.344043240991896 
2054	 0.343795275081582 
2055	 0.343581111821733 
2056	 0.343391095502139 
2057	 0.343244668686543 
2058	 0.343113386597543 
2059	 0.343016999070185 
2060	 0.342903175693455 
2061	 0.342777101643829 
2062	 0.342700275608741 
2063	 0.342609534452712 
2064	 0.342593453805705 
2065	 0.342655549036423 
2066	 0.342730251662849 
2067	 0.342824692046736 
2068	 0.342950453938678 
2069	 0.343096262048731 
2070	 0.343285292521807 
2071	 0.343419629485854 
2072	 0.34355884084197 
2073	 0.343698626023987 
2074	 0.343822656849436 
2075	 0.343913337938279 
2076	 0.344035425718521 
2077	 0.344086584435028 
2078	 0.34401886469297 
2079	 0.344022888559643 
2080	 0.344095012134451 
2081	 0.344072489918988 
2082	 0.344026306102046 
2083	 0.343953824900817 
2084	 0.343839362756748 
2085	 0.343660187532852 
2086	 0.343463175446192 
2087	 0.343277069350206 
2088	 0.343007529622046 
2089	 0.342648424822025 
2090	 0.34230227787722 
2091	 0.341908894214892 
2092	 0.341527575379783 
2093	 0.341147204298079 
2094	 0.340740098499188 
2095	 0.340287095895818 
2096	 0.339876732906691 
2097	 0.339484193432712 
2098	 0.339057861526393 
2099	 0.338676879896983 
2100	 0.338364365371701 
2101	 0.337913381974601 
2102	 0.337414650891749 
2103	 0.336890927978812 
2104	 0.336248805916175 
2105	 0.335691223795244 
2106	 0.33517435866847 
2107	 0.334615270765939 
2108	 0.334097056686608 
2109	 0.333492464305922 
2110	 0.332802005139676 
2111	 0.332136319254775 
2112	 0.331448338492212 
2113	 0.330730942299534 
2114	 0.330011109213159 
2115	 0.329266366528121 
2116	 0.328476202585088 
2117	 0.327691402015579 
2118	 0.326864326224806 
2119	 0.326026052727279 
2120	 0.325183779837519 
2121	 0.324274753904654 
2122	 0.323430940665635 
2123	 0.322620073259268 
2124	 0.321782307931664 
2125	 0.320968643528376 
2126	 0.320125708431988 
2127	 0.319280779475991 
2128	 0.318407889161551 
2129	 0.317484708786421 
2130	 0.316590023839605 
2131	 0.315654685904161 
2132	 0.314763230972964 
2133	 0.313863419394614 
2134	 0.313083146797737 
2135	 0.312236210626649 
2136	 0.311503317472566 
2137	 0.310736307688761 
2138	 0.309959818176151 
2139	 0.309262919791431 
2140	 0.308578547545699 
2141	 0.307975351775988 
2142	 0.307465707159452 
2143	 0.306954991180747 
2144	 0.306507302711369 
2145	 0.306060722218671 
2146	 0.305585796600316 
2147	 0.305211851871377 
2148	 0.304889661985477 
2149	 0.304602523400667 
2150	 0.30447184337373 
2151	 0.304250306535812 
2152	 0.303998049586414 
2153	 0.303727677047015 
2154	 0.303534568030817 
2155	 0.303347583522574 
2156	 0.303226929235857 
2157	 0.303205245140181 
2158	 0.303179763614145 
2159	 0.303175313935202 
2160	 0.303167813472377 
2161	 0.303187782903178 
2162	 0.303249333515381 
2163	 0.303360212133173 
2164	 0.303389076127872 
2165	 0.303423998081086 
2166	 0.303446837645089 
2167	 0.30340884746791 
2168	 0.303381314606559 
2169	 0.303315072580178 
2170	 0.303357071059484 
2171	 0.303414142627232 
2172	 0.303487673202892 
2173	 0.303618039936042 
2174	 0.303861406456799 
2175	 0.304014542353307 
2176	 0.304181000064837 
2177	 0.304414726222143 
2178	 0.304728826749383 
2179	 0.304983989215359 
2180	 0.305284039647569 
2181	 0.305498308903689 
2182	 0.305646352099215 
2183	 0.305819305154327 
2184	 0.305941529275548 
2185	 0.306114424689312 
2186	 0.306395317174047 
2187	 0.306501833140426 
2188	 0.306558180820192 
2189	 0.306552134383556 
2190	 0.306390246742453 
2191	 0.306277344572728 
2192	 0.3061775818473 
2193	 0.306039823711539 
2194	 0.305849609234959 
2195	 0.305666345254377 
2196	 0.305500824821678 
2197	 0.305268949399837 
2198	 0.30494672605437 
2199	 0.304692087160115 
2200	 0.30436492396879 
2201	 0.30396083967029 
2202	 0.303551423216527 
2203	 0.303139411159855 
2204	 0.30267573755681 
2205	 0.302121416843578 
2206	 0.301644289152491 
2207	 0.301188230206929 
2208	 0.300726926290015 
2209	 0.300301323010198 
2210	 0.299826754720679 
2211	 0.299254507197804 
2212	 0.298835000972144 
2213	 0.298405968745802 
2214	 0.298121861220025 
2215	 0.298109606848046 
2216	 0.297907271753717 
2217	 0.297685369334992 
2218	 0.297459828071766 
2219	 0.297109991917786 
2220	 0.296836931026647 
2221	 0.296633854990981 
2222	 0.296410614609329 
2223	 0.296274926995697 
2224	 0.296075211786084 
2225	 0.295793889540692 
2226	 0.295460200044995 
2227	 0.295057406873594 
2228	 0.294547941861353 
2229	 0.293996792421806 
2230	 0.293413015350751 
2231	 0.292768007679805 
2232	 0.292004142299496 
2233	 0.291239222831597 
2234	 0.290546394334655 
2235	 0.289576881407264 
2236	 0.288507371825859 
2237	 0.287281245758982 
2238	 0.285746560486468 
2239	 0.284303212326301 
2240	 0.282860937051868 
2241	 0.281248543641781 
2242	 0.279629105361937 
2243	 0.277806007095992 
2244	 0.275762163956676 
2245	 0.273658961734586 
2246	 0.271365328489168 
2247	 0.269068579584376 
2248	 0.26665477203355 
2249	 0.264248609137485 
2250	 0.261773914053268 
2251	 0.259419867016466 
2252	 0.256847511573902 
2253	 0.254328607265379 
2254	 0.251900249230838 
2255	 0.249256720213729 
2256	 0.246788067651649 
2257	 0.244416853701767 
2258	 0.24202411811825 
2259	 0.239634816251214 
2260	 0.23728105076921 
2261	 0.234964108765591 
2262	 0.232696234109026 
2263	 0.230373830622168 
2264	 0.228263485499692 
2265	 0.226339734990513 
2266	 0.224327083910636 
2267	 0.222473019066917 
2268	 0.220478801214034 
2269	 0.218307668808463 
2270	 0.216343185424793 
2271	 0.214305768028596 
2272	 0.212554614133157 
2273	 0.211115622584216 
2274	 0.209565443755079 
2275	 0.208279173805409 
2276	 0.20670807469093 
2277	 0.204875094819635 
2278	 0.203218811641188 
2279	 0.201457993593293 
2280	 0.199821540138724 
2281	 0.198472673760138 
2282	 0.19687746328853 
2283	 0.195172994690874 
2284	 0.193541060040246 
2285	 0.191534952541214 
2286	 0.189452507499149 
2287	 0.187362141256893 
2288	 0.18522296475132 
2289	 0.18337120683379 
2290	 0.181502538226538 
2291	 0.179782606861822 
2292	 0.17793983995497 
2293	 0.175635431879489 
2294	 0.173569925126182 
2295	 0.171669771044469 
2296	 0.169830209712956 
2297	 0.168312913236488 
2298	 0.167303673825101 
2299	 0.16610101367654 
2300	 0.164825281221714 
2301	 0.163962170092367 
2302	 0.163199983999387 
2303	 0.162911934745113 
2304	 0.163092678292052 
2305	 0.163321701997938 
2306	 0.163853892347844 
2307	 0.164531832444813 
2308	 0.165334816485291 
2309	 0.166432523936492 
2310	 0.167806298213039 
2311	 0.169334844796692 
2312	 0.171144067962027 
2313	 0.173049990868477 
2314	 0.175270049231668 
2315	 0.17735722695263 
2316	 0.179513604732512 
2317	 0.181630782555969 
2318	 0.1838685048834 
2319	 0.185778648369678 
2320	 0.187797729791298 
2321	 0.189248185770404 
2322	 0.19011807633168 
2323	 0.190957977033789 
2324	 0.191484516092016 
2325	 0.191881806017892 
2326	 0.192072595644932 
2327	 0.192262884763355 
2328	 0.192336309016008 
2329	 0.192192273965412 
2330	 0.192048869011483 
2331	 0.191619219022221 
2332	 0.190598801821442 
2333	 0.189736087702277 
2334	 0.188565318138369 
2335	 0.187195826919024 
2336	 0.18593060981 
2337	 0.184340449715249 
2338	 0.182941290197537 
2339	 0.181857310398179 
2340	 0.180880838157859 
2341	 0.179927011635712 
2342	 0.178617720442954 
2343	 0.177162634799506 
2344	 0.175857157398249 
2345	 0.174871707156639 
2346	 0.17458520474113 
2347	 0.174543513097798 
2348	 0.174402706499688 
2349	 0.174686162942691 
2350	 0.175214251433218 
2351	 0.176062697104013 
2352	 0.177340307334105 
2353	 0.178660371449074 
2354	 0.179945451316229 
2355	 0.181290654040493 
2356	 0.182557187187223 
2357	 0.183689589239747 
2358	 0.184741630792347 
2359	 0.185561788239206 
2360	 0.186168375615512 
2361	 0.186680936034381 
2362	 0.187082451165938 
2363	 0.187170495667681 
2364	 0.187116763827768 
2365	 0.18703698342044 
2366	 0.186978848816706 
2367	 0.186919622001173 
2368	 0.186827097222866 
2369	 0.186710752743254 
2370	 0.186411122454523 
2371	 0.186085508433617 
2372	 0.185756877257636 
2373	 0.185739662068664 
2374	 0.185712801464308 
2375	 0.185359175652219 
2376	 0.185130244592212 
2377	 0.184569875906005 
2378	 0.183986940804822 
2379	 0.184013803580586 
2380	 0.184166251732454 
2381	 0.18427641456376 
2382	 0.18427548620461 
2383	 0.184265977378638 
2384	 0.184169220762138 
2385	 0.183840702325199 
2386	 0.183693861539481 
2387	 0.183668883071 
2388	 0.18373948029331 
2389	 0.183810977458644 
2390	 0.183936913048124 
2391	 0.184365413288559 
2392	 0.184227414102269 
2393	 0.183875090868459 
2394	 0.183569025914926 
2395	 0.182853319073563 
2396	 0.18260350671767 
2397	 0.182615930604135 
2398	 0.182306915169988 
2399	 0.182020853798129 
2400	 0.181775123394857 
2401	 0.181324354125416 
2402	 0.181173538877634 
2403	 0.180939734614963 
2404	 0.180749118297358 
2405	 0.180956531257252 
2406	 0.180946460699599 
2407	 0.180895007760367 
2408	 0.180579917837775 
2409	 0.179825716038493 
2410	 0.179597379384714 
2411	 0.179861525323609 
2412	 0.180178687418662 
2413	 0.180426664277429 
2414	 0.18042966921421 
2415	 0.180138157130001 
2416	 0.179671470358522 
2417	 0.179362200084456 
2418	 0.17914449626064 
2419	 0.179171511218196 
2420	 0.179555960849761 
2421	 0.179632755246369 
2422	 0.179574046881839 
2423	 0.179403001453523 
2424	 0.179318133282692 
2425	 0.179719215652647 
2426	 0.180031841210843 
2427	 0.180168644293094 
2428	 0.180035083553547 
2429	 0.179789801333227 
2430	 0.179434532486482 
2431	 0.178869134527738 
2432	 0.178646328755863 
2433	 0.178510977496687 
2434	 0.178405894490352 
2435	 0.178961314656236 
2436	 0.179368417451638 
2437	 0.179008209977928 
2438	 0.178828144952509 
2439	 0.178376095413279 
2440	 0.177812127264352 
2441	 0.17791206468517 
2442	 0.177920595453651 
2443	 0.177907196674223 
2444	 0.177957899160468 
2445	 0.177385854843798 
2446	 0.176565513422284 
2447	 0.17604164713977 
2448	 0.175476360144073 
2449	 0.175592050759718 
2450	 0.176209030706243 
2451	 0.17631410021936 
2452	 0.176491264545686 
2453	 0.17606414843167 
2454	 0.174755464971716 
2455	 0.174278918685468 
2456	 0.174242195101005 
2457	 0.173444536444257 
2458	 0.172822364084152 
2459	 0.172340064357113 
2460	 0.171385276405176 
2461	 0.171097740053584 
2462	 0.170887955351088 
2463	 0.170440564677926 
2464	 0.170077900400383 
2465	 0.169239848095824 
2466	 0.169015542966543 
2467	 0.168535169753676 
2468	 0.167945798692698 
2469	 0.167805608322824 
2470	 0.167116318886395 
2471	 0.167217509258286 
2472	 0.167210596655876 
2473	 0.166693527866134 
2474	 0.166690937891376 
2475	 0.166780027240082 
2476	 0.166730037877508 
2477	 0.166494864067966 
2478	 0.16664267419722 
2479	 0.166319075464205 
2480	 0.165856085929659 
2481	 0.1658633200386 
2482	 0.166343893803348 
2483	 0.166476370563346 
2484	 0.165899366917216 
2485	 0.164723322122435 
2486	 0.164415445917031 
2487	 0.164649706507065 
2488	 0.165540749295988 
2489	 0.166572497567782 
2490	 0.166490021015293 
2491	 0.165654893968996 
2492	 0.16540250964467 
2493	 0.166464374580731 
2494	 0.166961622362034 
2495	 0.168200217885988 
2496	 0.168936186538218 
2497	 0.167076594128532 
2498	 0.167627304510717 
2499	 0.169540737866966 
2500	 0.169485359937292 
