Wavelength	Tablay400106.asd
350	 1.95668269689124E-02 
351	 8.62734932327425E-02 
352	 0.140373163721202 
353	 0.143733745362811 
354	 0.17292020544743 
355	 0.143068259250121 
356	 0.118965880745328 
357	 0.142411900057466 
358	 6.97627396410111E-02 
359	 2.07227123443789E-02 
360	 3.44458157282887E-02 
361	 9.02139612890506E-02 
362	 0.101672674180804 
363	 0.108748063621197 
364	 0.119795328565023 
365	 8.96618998612468E-02 
366	 8.38055034889206E-02 
367	 0.111366142723383 
368	 0.143369897255267 
369	 0.118850430775818 
370	 2.44421337498967E-02 
371	-3.58534086678478E-02 
372	 9.10616016391096E-02 
373	 8.01882962939999E-02 
374	 2.32294723632134E-02 
375	 4.90789146427751E-03 
376	 7.30769995073971E-02 
377	 7.65505209772842E-02 
378	 5.25128104685461E-02 
379	 5.59321089016031E-02 
380	 4.15077750574962E-02 
381	 3.97997355013581E-02 
382	 6.02762324852327E-02 
383	 9.21645923973061E-02 
384	 7.58499633461718E-02 
385	 6.02063059816029E-02 
386	 6.56362609065533E-02 
387	 5.44540165972519E-02 
388	 6.27565989924434E-02 
389	 6.87161282464422E-02 
390	 5.49859441412177E-02 
391	 7.70197996119827E-02 
392	 7.32572343688066E-02 
393	 4.90032882990798E-02 
394	 4.74732157793275E-02 
395	 4.44567098186645E-02 
396	 4.74927056042725E-02 
397	 5.65196333243697E-02 
398	 5.32595089826185E-02 
399	 7.08158941896552E-02 
400	 8.48109095792988E-02 
401	 7.01322357431584E-02 
402	 0.059596845787257 
403	 6.66588047719989E-02 
404	 8.26051549047315E-02 
405	 8.42283903599653E-02 
406	 7.70360770243485E-02 
407	 6.20269025571592E-02 
408	 4.74253346137109E-02 
409	 5.76710659400451E-02 
410	 0.064036658802621 
411	 6.19275168998319E-02 
412	 5.65453996461849E-02 
413	 5.79074458095038E-02 
414	 5.93036261306195E-02 
415	 0.060535035990449 
416	 6.73212214651858E-02 
417	 7.64907458937328E-02 
418	 7.66364130603073E-02 
419	 6.63968028506162E-02 
420	 7.07996467548155E-02 
421	 6.70956314919863E-02 
422	 5.87805904174097E-02 
423	 5.90408629632654E-02 
424	 6.92314312002235E-02 
425	 7.55599352910693E-02 
426	 7.35931415766376E-02 
427	 7.05552769824998E-02 
428	 6.82368300191229E-02 
429	 6.57288341306932E-02 
430	 6.33173521722138E-02 
431	 6.80594351819962E-02 
432	 7.15157365031567E-02 
433	 7.33467985547817E-02 
434	 7.67954426308784E-02 
435	 7.55682192205024E-02 
436	 7.34925273094358E-02 
437	 7.31600787086596E-02 
438	 7.39014563744091E-02 
439	 7.29383871604852E-02 
440	 7.02703476217305E-02 
441	 6.80172105954782E-02 
442	 7.35516253431208E-02 
443	 7.42108065370132E-02 
444	 7.04493118358382E-02 
445	 7.24463200846648E-02 
446	 7.29246773551577E-02 
447	 7.33878711495522E-02 
448	 7.59721347078779E-02 
449	 8.28526950710352E-02 
450	 7.89051032682183E-02 
451	 7.24697930689793E-02 
452	 7.72033101476048E-02 
453	 8.06002124528463E-02 
454	 0.080114419386237 
455	 7.77410986718957E-02 
456	 7.93741841053369E-02 
457	 7.87239555735224E-02 
458	 7.76837726775673E-02 
459	 7.87943691041818E-02 
460	 0.08156427529277 
461	 8.39492795979195E-02 
462	 8.47878853427485E-02 
463	 8.38634407446242E-02 
464	 8.30547901333163E-02 
465	 8.41977779833843E-02 
466	 8.63944137609984E-02 
467	 8.46746855407895E-02 
468	 8.67747782752693E-02 
469	 8.80084748595318E-02 
470	 8.40627777203551E-02 
471	 0.086497312043413 
472	 8.97511527326762E-02 
473	 9.01609987181605E-02 
474	 8.67347551832377E-02 
475	 8.86288903725852E-02 
476	 9.12006738462452E-02 
477	 0.09095961361118 
478	 9.16805597110111E-02 
479	 9.16477515544691E-02 
480	 9.19342579124862E-02 
481	 0.093907131247149 
482	 9.46066971538138E-02 
483	 9.50046081747894E-02 
484	 9.57100981541342E-02 
485	 9.66129286579799E-02 
486	 9.68639370950442E-02 
487	 9.69538761563135E-02 
488	 9.76310053170597E-02 
489	 9.96833499403163E-02 
490	 0.100370727919912 
491	 0.100229656882746 
492	 0.101360819815282 
493	 0.101113391284142 
494	 0.101812660329876 
495	 0.10406731291692 
496	 0.104960385773244 
497	 0.105314545122116 
498	 0.105468075715001 
499	 0.10583728177629 
500	 0.107650356319878 
501	 0.108494239090514 
502	 0.10840592176539 
503	 0.109501233428278 
504	 0.110359966979572 
505	 0.110723970238519 
506	 0.110945934372541 
507	 0.112400735911512 
508	 0.113574197747417 
509	 0.114218201353635 
510	 0.114684924004272 
511	 0.115289650266449 
512	 0.115865969991304 
513	 0.116454592696038 
514	 0.117415127448773 
515	 0.118276092367491 
516	 0.119188052091689 
517	 0.120181291235957 
518	 0.120240813880767 
519	 0.120679649425066 
520	 0.121638894268511 
521	 0.122453959123655 
522	 0.12327376323577 
523	 0.124056416602916 
524	 0.124861300724019 
525	 0.126073145265891 
526	 0.12659113550966 
527	 0.126703174912415 
528	 0.127180826663831 
529	 0.128466419451952 
530	 0.129383990395057 
531	 0.129798674012655 
532	 0.130716673740859 
533	 0.131268819996708 
534	 0.131644675240843 
535	 0.132161175786253 
536	 0.132875189282873 
537	 0.133475847812327 
538	 0.133847838262256 
539	 0.134051863611278 
540	 0.134564897801469 
541	 0.135163406653966 
542	 0.135520505821075 
543	 0.135224882829032 
544	 0.135391056920213 
545	 0.135931310315006 
546	 0.136385372060818 
547	 0.136487757461532 
548	 0.136540540258129 
549	 0.136642762337044 
550	 0.136695898926106 
551	 0.136770916328472 
552	 0.136920964927755 
553	 0.137094793437151 
554	 0.136979915237062 
555	 0.136900027328613 
556	 0.136691052846134 
557	 0.136104033787316 
558	 0.136064664784668 
559	 0.135914839020707 
560	 0.135499860617628 
561	 0.135569774184957 
562	 0.135038523803293 
563	 0.134435008181168 
564	 0.134335392392623 
565	 0.133772002128519 
566	 0.133265340838886 
567	 0.132834725884129 
568	 0.132159846364214 
569	 0.131794461267025 
570	 0.131240231238428 
571	 0.130328395686306 
572	 0.129928231026231 
573	 0.12944918665381 
574	 0.128742344144007 
575	 0.127858518322128 
576	 0.127005144108253 
577	 0.126318693147674 
578	 0.125633030698225 
579	 0.124476557246556 
580	 0.12357405146892 
581	 0.122785293168026 
582	 0.121890456576677 
583	 0.121099252887841 
584	 0.120206171574451 
585	 0.119202502199768 
586	 0.118173714361537 
587	 0.116921125024156 
588	 0.115700817444237 
589	 0.114616625545503 
590	 0.113442036325997 
591	 0.112435051915933 
592	 0.111430897588405 
593	 0.110268115510774 
594	 0.109409973482538 
595	 0.108361317766648 
596	 0.107087826154225 
597	 0.105966917931697 
598	 0.10488839465544 
599	 0.103862619912395 
600	 0.102893797081262 
601	 0.101997543492371 
602	 0.100705662267817 
603	 9.92712883045607E-02 
604	 9.82136749928237E-02 
605	 9.74413757704025E-02 
606	 9.64031772822921E-02 
607	 9.51365237801484E-02 
608	 0.094439399984058 
609	 0.093367764987055 
610	 9.21394233408002E-02 
611	 9.11297144369981E-02 
612	 9.02459350130591E-02 
613	 8.93542340014697E-02 
614	 8.85051255810018E-02 
615	 8.78265622976899E-02 
616	 8.69722764368479E-02 
617	 8.59470866888653E-02 
618	 0.084901350413058 
619	 8.41509926322912E-02 
620	 8.33989285252062E-02 
621	 8.25611251738596E-02 
622	 8.16784902576783E-02 
623	 8.10417110701671E-02 
624	 8.02530296598633E-02 
625	 7.93668119038989E-02 
626	 7.88500485243085E-02 
627	 7.83682510254132E-02 
628	 7.75236053266335E-02 
629	 7.63371727984858E-02 
630	 7.58867912740741E-02 
631	 7.54348699350829E-02 
632	 7.47980595608359E-02 
633	 7.40787094929708E-02 
634	 7.35831313216486E-02 
635	 7.30386972904293E-02 
636	 7.23946463241077E-02 
637	 7.19321072382888E-02 
638	 7.12455979796202E-02 
639	 7.05764277174705E-02 
640	 7.01712118494285E-02 
641	 0.06978703173535 
642	 6.92797596740874E-02 
643	 6.87572351633535E-02 
644	 0.068421931515707 
645	 6.77432759273032E-02 
646	 6.72044625679438E-02 
647	 6.69830487975965E-02 
648	 6.65650175428244E-02 
649	 6.61495576340127E-02 
650	 6.56902937393009E-02 
651	 6.51575589316187E-02 
652	 0.064864789402253 
653	 6.45515533720003E-02 
654	 6.41985068874698E-02 
655	 6.39700173895445E-02 
656	 6.35404223029447E-02 
657	 6.31022321222162E-02 
658	 6.28052993854322E-02 
659	 6.25466726097568E-02 
660	 0.062210756531042 
661	 6.17837440771318E-02 
662	 6.13396157609536E-02 
663	 0.061137787989678 
664	 6.09764682734864E-02 
665	 6.07188587983533E-02 
666	 6.03351994965864E-02 
667	 6.00214042466097E-02 
668	 0.059837948347651 
669	 5.97013360704436E-02 
670	 5.92097858981871E-02 
671	 5.89811089843338E-02 
672	 5.88809484577621E-02 
673	 5.85119742726268E-02 
674	 5.82304249365459E-02 
675	 5.81116661893659E-02 
676	 5.80516995215376E-02 
677	 5.77711523345507E-02 
678	 5.75166896511985E-02 
679	 5.73019451106791E-02 
680	 5.70875325591885E-02 
681	 5.68349054678425E-02 
682	 5.66467032982133E-02 
683	 5.65386310710887E-02 
684	 5.64530637816895E-02 
685	 0.056181636143333 
686	 5.59565892800144E-02 
687	 5.58569923941201E-02 
688	 5.56851965655667E-02 
689	 5.54667197675203E-02 
690	 5.52621913752244E-02 
691	 5.51136371007042E-02 
692	 5.49639237333219E-02 
693	 5.47330573904927E-02 
694	 0.054519844276063 
695	 0.054492310473626 
696	 0.05433977122045 
697	 0.05419949781268 
698	 5.41009081760333E-02 
699	 5.38124165031584E-02 
700	 5.37504330129864E-02 
701	 5.37905808320508E-02 
702	 0.053704970055046 
703	 5.35143325254517E-02 
704	 5.32853369318436E-02 
705	 5.31094838805731E-02 
706	 5.30660521681535E-02 
707	 0.05297999958563 
708	 5.28468897335821E-02 
709	 5.27095402356402E-02 
710	 5.26521229562938E-02 
711	 5.24835757425871E-02 
712	 5.23313563617286E-02 
713	 5.23196635440255E-02 
714	 5.21546392001601E-02 
715	 5.20795624429797E-02 
716	 5.20417699995257E-02 
717	 5.18096686578236E-02 
718	 5.16993449701211E-02 
719	 5.17332020353322E-02 
720	 5.17884089857039E-02 
721	 5.15629009183975E-02 
722	 5.15327479574036E-02 
723	 5.14889693714016E-02 
724	 5.11954050939758E-02 
725	 5.11514809695198E-02 
726	 5.12260780282779E-02 
727	 5.12299617920683E-02 
728	 5.09951244515706E-02 
729	 5.08907571723086E-02 
730	 5.08641433223427E-02 
731	 5.08284282194213E-02 
732	 5.07385113196046E-02 
733	 5.06953202673713E-02 
734	 5.06471531539449E-02 
735	 5.05358551034277E-02 
736	 5.04454865196069E-02 
737	 5.04101264289907E-02 
738	 5.04097831791728E-02 
739	 5.03880020359133E-02 
740	 5.03198941951138E-02 
741	 5.02121965035411E-02 
742	 5.01267702314148E-02 
743	 5.01978087717964E-02 
744	 5.02002979801964E-02 
745	 5.00967478440183E-02 
746	 0.049940805058835 
747	 4.98878964361152E-02 
748	 4.98718434785685E-02 
749	 4.98362190703471E-02 
750	 4.97532920710236E-02 
751	 4.97674916970733E-02 
752	 4.97591174471048E-02 
753	 4.97003862434189E-02 
754	 0.049712912270543 
755	 4.96628870459982E-02 
756	 4.95976138712251E-02 
757	 4.95853084228898E-02 
758	 4.96473522283096E-02 
759	 4.95872157176798E-02 
760	 4.94366964264942E-02 
761	 4.93520356182413E-02 
762	 4.94922496738233E-02 
763	 4.95767009698613E-02 
764	 4.95038867475374E-02 
765	 4.94051163762925E-02 
766	 4.94237122337426E-02 
767	 4.94169284122801E-02 
768	 4.92977649207346E-02 
769	 4.92389885235501E-02 
770	 4.92109734793684E-02 
771	 4.92030050106222E-02 
772	 0.049213447787893 
773	 0.049296090067046 
774	 4.92511302962909E-02 
775	 4.91195633290462E-02 
776	 4.91269254202187E-02 
777	 4.91544505475201E-02 
778	 4.91324921723206E-02 
779	 4.90529975368208E-02 
780	 4.89951189056916E-02 
781	 4.90403123073502E-02 
782	 4.90825695312741E-02 
783	 4.90270408731207E-02 
784	 4.90260086962329E-02 
785	 4.90025658254787E-02 
786	 4.89786902452341E-02 
787	 4.90179466169131E-02 
788	 0.049051799886849 
789	 4.90517882652256E-02 
790	 4.89785279206242E-02 
791	 4.87891087674555E-02 
792	 4.88339745711771E-02 
793	 0.048930591258116 
794	 4.89066122953052E-02 
795	 4.88977249872341E-02 
796	 4.88787791882266E-02 
797	 4.88833597714891E-02 
798	 0.048933318407939 
799	 0.048910584610924 
800	 4.88791858469519E-02 
801	 4.88697126874601E-02 
802	 4.88765997676558E-02 
803	 4.88793326023307E-02 
804	 4.88036207172648E-02 
805	 4.87293346124482E-02 
806	 4.89629107818059E-02 
807	 4.89351116399817E-02 
808	 4.88027216985891E-02 
809	 4.88138202877444E-02 
810	 4.89232541412478E-02 
811	 4.88913157706498E-02 
812	 4.88130572535982E-02 
813	 4.88774540258286E-02 
814	 4.88474649188086E-02 
815	 4.87534918015784E-02 
816	 0.048728797327122 
817	 4.89345524391664E-02 
818	 4.89351454783223E-02 
819	 0.048908166349855 
820	 4.89574845924119E-02 
821	 4.89089065026645E-02 
822	 4.89337431083859E-02 
823	 4.89289656626919E-02 
824	 4.88225695833628E-02 
825	 4.88518401258805E-02 
826	 4.90065676362802E-02 
827	 4.91431586817804E-02 
828	 4.91044723137679E-02 
829	 4.90457134014825E-02 
830	 4.90168575226806E-02 
831	 4.90473540556325E-02 
832	 4.91364121303015E-02 
833	 0.049145198079187 
834	 4.90523313623483E-02 
835	 4.89643362788043E-02 
836	 4.91376946733158E-02 
837	 4.94034487409063E-02 
838	 4.94838235321559E-02 
839	 4.92982342233034E-02 
840	 4.93657611339436E-02 
841	 4.94490499721638E-02 
842	 4.94738426153652E-02 
843	 4.94518401336572E-02 
844	 4.94890531212392E-02 
845	 4.96058235041738E-02 
846	 4.96762553449872E-02 
847	 4.95341080092267E-02 
848	 4.95737976562897E-02 
849	 4.97005997719168E-02 
850	 4.97987607360801E-02 
851	 4.98107376491166E-02 
852	 4.98387055787675E-02 
853	 4.98173809454008E-02 
854	 4.97827161260068E-02 
855	 5.00716967426314E-02 
856	 5.00904310346373E-02 
857	 5.00222322414816E-02 
858	 5.01582887947692E-02 
859	 0.05022166427274 
860	 0.050278653283757 
861	 5.03487794991309E-02 
862	 5.04178963987151E-02 
863	 5.04093580454079E-02 
864	 5.05197851374885E-02 
865	 5.06847809482458E-02 
866	 5.06429509891087E-02 
867	 5.06659909455496E-02 
868	 5.06817351299803E-02 
869	 5.06980822245275E-02 
870	 5.08826211018247E-02 
871	 5.10536343394148E-02 
872	 5.11766305588316E-02 
873	 5.12575164297768E-02 
874	 5.13088325925919E-02 
875	 5.14321282068403E-02 
876	 5.15155503870617E-02 
877	 5.14641045772356E-02 
878	 5.14668240872652E-02 
879	 5.16841241339142E-02 
880	 0.051889876925725 
881	 5.17982116765386E-02 
882	 5.18881284998064E-02 
883	 5.20190087303979E-02 
884	 5.21057990688019E-02 
885	 5.21663246344467E-02 
886	 5.25038299063051E-02 
887	 5.26833121594883E-02 
888	 5.25793869177559E-02 
889	 5.25234982397584E-02 
890	 0.052773919611289 
891	 5.30466824425725E-02 
892	 5.31002709895356E-02 
893	 5.29542089635177E-02 
894	 5.32369978332381E-02 
895	 5.35001001159028E-02 
896	 5.34208981311478E-02 
897	 5.37718836078104E-02 
898	 5.38061497193979E-02 
899	 0.053748622072507 
900	 5.39980070468281E-02 
901	 5.43022092778463E-02 
902	 5.44520497269961E-02 
903	 5.44831931160882E-02 
904	 5.45614276439102E-02 
905	 0.054751211619547 
906	 5.50170801619055E-02 
907	 5.51873038209171E-02 
908	 5.50944099108265E-02 
909	 5.52521695873383E-02 
910	 5.54832373552373E-02 
911	 5.56848602592437E-02 
912	 0.055895695047752 
913	 5.60184573401218E-02 
914	 5.61273139922646E-02 
915	 0.056301673999449 
916	 5.65792872617379E-02 
917	 5.68198284564572E-02 
918	 5.69140345560115E-02 
919	 5.69097919046207E-02 
920	 5.71036605432027E-02 
921	 5.73930369275938E-02 
922	 5.76872400486132E-02 
923	 5.79158478959475E-02 
924	 5.80581318357127E-02 
925	 5.82737430106478E-02 
926	 5.84176976839161E-02 
927	 5.84052939295906E-02 
928	 5.86854259860323E-02 
929	 5.90403053186096E-02 
930	 5.93376090463028E-02 
931	 5.95403781510562E-02 
932	 5.98610931083921E-02 
933	 5.99887366479082E-02 
934	 6.00339078903425E-02 
935	 0.060281026738939 
936	 6.05854727299069E-02 
937	 6.07265808659314E-02 
938	 6.08243581596624E-02 
939	 6.11675567069474E-02 
940	 6.14881109790063E-02 
941	 6.16186713717579E-02 
942	 6.16783176785607E-02 
943	 6.19606535869037E-02 
944	 6.21018906904295E-02 
945	 6.24836151496192E-02 
946	 6.29550548046612E-02 
947	 6.28529369871355E-02 
948	 6.30742712621726E-02 
949	 6.34416868788884E-02 
950	 6.37939468288358E-02 
951	 6.41747958088653E-02 
952	 6.42261685213282E-02 
953	 6.42644116199058E-02 
954	 6.45465060779752E-02 
955	 6.50317316700169E-02 
956	 6.53978360071857E-02 
957	 6.55253132236418E-02 
958	 6.55327863490287E-02 
959	 6.58199045956112E-02 
960	 6.63146582784857E-02 
961	 6.67692918656465E-02 
962	 6.70081382861208E-02 
963	 6.71006258336835E-02 
964	 6.70635465389852E-02 
965	 0.067237049215413 
966	 0.067695608724762 
967	 6.77694110251207E-02 
968	 6.80973116236824E-02 
969	 6.85207340104145E-02 
970	 6.87801224639495E-02 
971	 0.0689361870287 
972	 6.93749088932845E-02 
973	 6.97323692028964E-02 
974	 6.97284037115502E-02 
975	 6.99727848788784E-02 
976	 7.02955070100588E-02 
977	 7.06079495584344E-02 
978	 7.08313534255925E-02 
979	 7.08346911543921E-02 
980	 7.12140505927438E-02 
981	 7.15908908154565E-02 
982	 7.16129971028731E-02 
983	 7.21639437299922E-02 
984	 7.23611870869441E-02 
985	 7.24965487122649E-02 
986	 7.30224493478429E-02 
987	 7.35337908920756E-02 
988	 7.34595380051346E-02 
989	 7.35499686340824E-02 
990	 7.43864870406789E-02 
991	 7.42950413230219E-02 
992	 7.43526965319493E-02 
993	 7.47799480082123E-02 
994	 7.53191612241395E-02 
995	 7.52667738725229E-02 
996	 7.55693940160924E-02 
997	 7.57847594459119E-02 
998	 7.55002746003764E-02 
999	 7.61140554722053E-02 
1000	 7.67361552051769E-02 
1001	 0.077776329156567 
1002	 7.80658676646688E-02 
1003	 7.82406663539898E-02 
1004	 7.85810243992974E-02 
1005	 7.90386593574919E-02 
1006	 7.92687104902352E-02 
1007	 0.079527500439946 
1008	 7.97314122274194E-02 
1009	 7.96898277423039E-02 
1010	 7.98512885091709E-02 
1011	 8.00529622166736E-02 
1012	 8.03169684743274E-02 
1013	 8.08098897864201E-02 
1014	 8.10397632337568E-02 
1015	 8.11531350912593E-02 
1016	 8.13362494010113E-02 
1017	 8.14419841225692E-02 
1018	 8.15808688144525E-02 
1019	 8.19631045470882E-02 
1020	 8.23909812303608E-02 
1021	 0.082657816412877 
1022	 0.08287023080799 
1023	 8.30263779498102E-02 
1024	 8.29237907898389E-02 
1025	 8.31961740790412E-02 
1026	 8.37570602009309E-02 
1027	 8.39919985861161E-02 
1028	 8.41595610596198E-02 
1029	 8.45291949239051E-02 
1030	 8.46695143011746E-02 
1031	 8.47017742558152E-02 
1032	 8.51366788279768E-02 
1033	 8.52966299898793E-02 
1034	 8.52979505539184E-02 
1035	 8.54534661874396E-02 
1036	 8.55603436290693E-02 
1037	 8.56455151006364E-02 
1038	 8.58726719662454E-02 
1039	 8.62191030332327E-02 
1040	 8.63570631681451E-02 
1041	 8.64418959787008E-02 
1042	 0.086477431870347 
1043	 8.63038613911645E-02 
1044	 8.63319763862364E-02 
1045	 8.64791195209744E-02 
1046	 0.086759522354069 
1047	 8.69805017649749E-02 
1048	 0.087187187942398 
1049	 8.73738511434582E-02 
1050	 0.087476000526015 
1051	 8.77869348753535E-02 
1052	 8.80724784270334E-02 
1053	 8.82170091596647E-02 
1054	 8.82596789603469E-02 
1055	 8.84254656774872E-02 
1056	 8.85587590543942E-02 
1057	 8.86816080972812E-02 
1058	 8.88753431789973E-02 
1059	 8.91291032194439E-02 
1060	 8.91034657456566E-02 
1061	 8.88976510334276E-02 
1062	 8.90228994606559E-02 
1063	 8.92195120915162E-02 
1064	 8.95264225243004E-02 
1065	 8.98500816936059E-02 
1066	 8.99234920372294E-02 
1067	 8.99950260125112E-02 
1068	 8.99279561801821E-02 
1069	 8.98114240635992E-02 
1070	 8.98248993672033E-02 
1071	 8.99630731993024E-02 
1072	 8.98859160928822E-02 
1073	 8.98782538560174E-02 
1074	 9.00379676663076E-02 
1075	 9.00713078126865E-02 
1076	 9.02591116025012E-02 
1077	 9.03944977770108E-02 
1078	 9.04056989091442E-02 
1079	 0.090507726953174 
1080	 9.05202068605535E-02 
1081	 9.05780760498716E-02 
1082	 9.06809150482769E-02 
1083	 0.090714414505474 
1084	 9.07013505738553E-02 
1085	 9.06166329344786E-02 
1086	 9.06198751569801E-02 
1087	 9.06746364594064E-02 
1088	 9.07130023345961E-02 
1089	 9.07538493450128E-02 
1090	 9.08801006192436E-02 
1091	 9.08250379092358E-02 
1092	 9.07974734294739E-02 
1093	 9.08768066538361E-02 
1094	 0.090930736404176 
1095	 9.10713891982126E-02 
1096	 9.10782006271194E-02 
1097	 9.10295763957587E-02 
1098	 0.091031192807705 
1099	 9.09464963903412E-02 
1100	 9.09753707959861E-02 
1101	 9.09933982320745E-02 
1102	 9.09090793625409E-02 
1103	 9.09352920081012E-02 
1104	 9.10300286463188E-02 
1105	 9.11410783471593E-02 
1106	 9.12067031806962E-02 
1107	 9.12491770496607E-02 
1108	 9.11973248552258E-02 
1109	 9.11239675309559E-02 
1110	 9.11163636294423E-02 
1111	 9.12339809580151E-02 
1112	 0.091328183932438 
1113	 9.12889039666057E-02 
1114	 9.12608951380729E-02 
1115	 9.11544882689613E-02 
1116	 9.10471618184698E-02 
1117	 0.091051771980734 
1118	 9.10530329380813E-02 
1119	 9.10928049912905E-02 
1120	 9.11343174325911E-02 
1121	 9.12125340130238E-02 
1122	 9.12184033366187E-02 
1123	 9.12610330725221E-02 
1124	 9.11884100592496E-02 
1125	 9.10193864888824E-02 
1126	 9.10711719202078E-02 
1127	 9.11660963958764E-02 
1128	 9.12408668497679E-02 
1129	 9.13312651109714E-02 
1130	 9.12931408381243E-02 
1131	 9.12539866490358E-02 
1132	 9.11882349422053E-02 
1133	 9.10636099863422E-02 
1134	 9.10416419746491E-02 
1135	 9.10573272416106E-02 
1136	 9.10906641252584E-02 
1137	 9.10906094390778E-02 
1138	 9.11607982989664E-02 
1139	 9.11616541848026E-02 
1140	 9.10758131416941E-02 
1141	 9.10190063843909E-02 
1142	 0.090963054361843 
1143	 9.10439201450129E-02 
1144	 9.11734320212881E-02 
1145	 9.12230347351475E-02 
1146	 9.13226202763564E-02 
1147	 9.13661431495289E-02 
1148	 9.12608666259668E-02 
1149	 9.11714209833741E-02 
1150	 9.11151451710691E-02 
1151	 9.10851641160139E-02 
1152	 9.11040093378558E-02 
1153	 9.12625105532344E-02 
1154	 9.12696313699131E-02 
1155	 9.12070644378638E-02 
1156	 9.11830159024076E-02 
1157	 9.10696016623138E-02 
1158	 9.10415321787106E-02 
1159	 9.10761766440701E-02 
1160	 9.11552747376359E-02 
1161	 0.091170383038562 
1162	 9.11711423593191E-02 
1163	 9.12297719774964E-02 
1164	 9.12290848942044E-02 
1165	 9.12100524564005E-02 
1166	 9.12202763394382E-02 
1167	 0.091198390669413 
1168	 9.12040244084964E-02 
1169	 0.091237452660207 
1170	 9.13654962940269E-02 
1171	 9.14038427361994E-02 
1172	 9.13870324780339E-02 
1173	 9.14066878540224E-02 
1174	 9.14182623288511E-02 
1175	 9.14317468724268E-02 
1176	 0.091486615527981 
1177	 9.14982819007236E-02 
1178	 9.14884601873499E-02 
1179	 9.14439938454021E-02 
1180	 9.13914089104421E-02 
1181	 9.14247106555233E-02 
1182	 9.14830515989597E-02 
1183	 9.15155275311317E-02 
1184	 9.15093782996192E-02 
1185	 9.14572629897053E-02 
1186	 9.15104411189814E-02 
1187	 9.16160134203796E-02 
1188	 9.16685825690584E-02 
1189	 9.17915816693302E-02 
1190	 9.18466593950678E-02 
1191	 9.17886100368072E-02 
1192	 9.17970174107201E-02 
1193	 9.18360728804455E-02 
1194	 9.18824695576448E-02 
1195	 9.19376630484029E-02 
1196	 9.19834488385808E-02 
1197	 9.20302617992302E-02 
1198	 9.21200515687797E-02 
1199	 9.21039221424602E-02 
1200	 9.21560320528049E-02 
1201	 9.22509279906999E-02 
1202	 9.22404589500063E-02 
1203	 9.22764504931048E-02 
1204	 9.23717662631178E-02 
1205	 9.24421796038797E-02 
1206	 9.24943115543665E-02 
1207	 9.25774273206585E-02 
1208	 9.27021564405536E-02 
1209	 9.27842088159046E-02 
1210	 9.28521708098888E-02 
1211	 9.29210700154706E-02 
1212	 9.29590941662133E-02 
1213	 9.30167797053554E-02 
1214	 9.30913744647962E-02 
1215	 9.31711781207296E-02 
1216	 9.32586281234661E-02 
1217	 9.33530971669313E-02 
1218	 9.34872993192208E-02 
1219	 9.35593028165917E-02 
1220	 0.093569689523098 
1221	 9.36013357152049E-02 
1222	 9.37401259967661E-02 
1223	 9.38769818932949E-02 
1224	 9.39978601130813E-02 
1225	 9.42442160473839E-02 
1226	 9.43159001155842E-02 
1227	 9.42024668694765E-02 
1228	 9.42631238829341E-02 
1229	 9.43677092069712E-02 
1230	 0.094457981860006 
1231	 9.46245838492891E-02 
1232	 9.47323884635308E-02 
1233	 9.47726362888995E-02 
1234	 9.48463094369988E-02 
1235	 9.49145274407995E-02 
1236	 9.50183254417721E-02 
1237	 9.51746758973339E-02 
1238	 9.52947684148015E-02 
1239	 9.54094036687704E-02 
1240	 0.095548463314433 
1241	 9.56370254438309E-02 
1242	 9.56678243443096E-02 
1243	 9.57879291013936E-02 
1244	 9.59556608422179E-02 
1245	 9.60566555598262E-02 
1246	 9.61755840332415E-02 
1247	 9.62772931027128E-02 
1248	 9.63150258199644E-02 
1249	 0.096401333051085 
1250	 9.65146186738317E-02 
1251	 9.66249686188087E-02 
1252	 9.67567472873084E-02 
1253	 9.68554930874175E-02 
1254	 9.69300841286199E-02 
1255	 0.097047075228234 
1256	 9.71657435217973E-02 
1257	 9.72703994232242E-02 
1258	 9.73949221572299E-02 
1259	 9.75338921259972E-02 
1260	 9.76542641805722E-02 
1261	 9.77849234994205E-02 
1262	 9.79690537940321E-02 
1263	 9.81289591744511E-02 
1264	 9.82478847410161E-02 
1265	 9.83261445871614E-02 
1266	 9.84339348266669E-02 
1267	 9.85074998659568E-02 
1268	 9.86363365798416E-02 
1269	 9.88120197080106E-02 
1270	 9.89536872512151E-02 
1271	 9.90992677669214E-02 
1272	 9.92482770310319E-02 
1273	 9.93771894311279E-02 
1274	 9.95309378920277E-02 
1275	 9.97240065104539E-02 
1276	 9.98823818008106E-02 
1277	 0.100025418278642 
1278	 0.100175080071537 
1279	 0.100314529771407 
1280	 0.100451530774705 
1281	 0.100567681711383 
1282	 0.100724557132718 
1283	 0.100925664090181 
1284	 0.101084551540788 
1285	 0.101237612327023 
1286	 0.101407093717585 
1287	 0.101570236411001 
1288	 0.101698941248988 
1289	 0.101844441812427 
1290	 0.102015814091606 
1291	 0.102173626921631 
1292	 0.10229706538008 
1293	 0.102463238381049 
1294	 0.102677080443314 
1295	 0.10284435615118 
1296	 0.102988556758465 
1297	 0.103159742097715 
1298	 0.103333672702327 
1299	 0.103493574838049 
1300	 0.103665152370636 
1301	 0.103833053279647 
1302	 0.103952240421208 
1303	 0.10412447042855 
1304	 0.104363036761431 
1305	 0.104555329561523 
1306	 0.104744910287151 
1307	 0.104931145580585 
1308	 0.105042515029174 
1309	 0.105237768167317 
1310	 0.105428479357229 
1311	 0.105652440649624 
1312	 0.105841772884946 
1313	 0.106035154548134 
1314	 0.106223871808438 
1315	 0.106384986720988 
1316	 0.106577932996481 
1317	 0.106794225565612 
1318	 0.106998255868275 
1319	 0.107209319196154 
1320	 0.107409314804254 
1321	 0.107600033717915 
1322	 0.10779513195002 
1323	 0.10797359242325 
1324	 0.108180597903806 
1325	 0.108414400967907 
1326	 0.108628360995857 
1327	 0.108829900126583 
1328	 0.109061079150823 
1329	 0.109319041313432 
1330	 0.109540790481162 
1331	 0.109764644584515 
1332	 0.10998885178013 
1333	 0.110163482761581 
1334	 0.110365402861409 
1335	 0.110599734610608 
1336	 0.11088107066356 
1337	 0.111108914890289 
1338	 0.11133077965352 
1339	 0.111562678673556 
1340	 0.111765370195067 
1341	 0.112009081531199 
1342	 0.112316391640539 
1343	 0.112534225591318 
1344	 0.112700086518265 
1345	 0.112920754100175 
1346	 0.113109529231606 
1347	 0.113336769776185 
1348	 0.113649522610981 
1349	 0.11388773928097 
1350	 0.114074254093414 
1351	 0.114301496963648 
1352	 0.114521980518126 
1353	 0.114752227091329 
1354	 0.115004031621383 
1355	 0.115257885753692 
1356	 0.115524345641169 
1357	 0.115771343052856 
1358	 0.116024840780998 
1359	 0.1162700533952 
1360	 0.116498687148179 
1361	 0.116707615582494 
1362	 0.116966912497306 
1363	 0.117191424221406 
1364	 0.117450633862358 
1365	 0.117731701987775 
1366	 0.11799193112839 
1367	 0.118246423426187 
1368	 0.118521136081046 
1369	 0.118813091485649 
1370	 0.119060407341293 
1371	 0.119306212181676 
1372	 0.119543169588144 
1373	 0.119716084435189 
1374	 0.119960343436932 
1375	 0.120271489401996 
1376	 0.120522342756195 
1377	 0.120776049127194 
1378	 0.121011652597352 
1379	 0.12119427235818 
1380	 0.121412022237734 
1381	 0.121627986453967 
1382	 0.121879861654666 
1383	 0.122198671247863 
1384	 0.122448107758819 
1385	 0.122670336715915 
1386	 0.122909000619601 
1387	 0.123077753611967 
1388	 0.123307303824365 
1389	 0.123622965145487 
1390	 0.12389215694346 
1391	 0.124143183598931 
1392	 0.124427385119526 
1393	 0.124640904370628 
1394	 0.124858665382825 
1395	 0.125085831315422 
1396	 0.125300615673417 
1397	 0.125545565110526 
1398	 0.125802174451531 
1399	 0.126080896844366 
1400	 0.126403594532206 
1401	 0.126665519609042 
1402	 0.126919333645045 
1403	 0.12717146360584 
1404	 0.127384840291942 
1405	 0.127615076964809 
1406	 0.12787183362295 
1407	 0.128095200125191 
1408	 0.128273972785448 
1409	 0.128504783815479 
1410	 0.128771560444737 
1411	 0.128997669471881 
1412	 0.129198755060631 
1413	 0.129452472822511 
1414	 0.129716620294201 
1415	 0.129963393361279 
1416	 0.130249335461845 
1417	 0.130527816887337 
1418	 0.130750117263946 
1419	 0.131022021707243 
1420	 0.131379396509103 
1421	 0.131670211228594 
1422	 0.131897257789826 
1423	 0.132186972551711 
1424	 0.132487079639212 
1425	 0.132788350751721 
1426	 0.133110821589121 
1427	 0.133447686312188 
1428	 0.133756911356414 
1429	 0.134009957604093 
1430	 0.134293095882052 
1431	 0.134577713595587 
1432	 0.134894034673785 
1433	 0.13522792750552 
1434	 0.135531018861031 
1435	 0.135847898755755 
1436	 0.136160643557377 
1437	 0.13643487121532 
1438	 0.136741230238644 
1439	 0.137094686492595 
1440	 0.137399857808141 
1441	 0.137665164250244 
1442	 0.137977205352547 
1443	 0.138286554332257 
1444	 0.138621271734819 
1445	 0.139004674208017 
1446	 0.139352347642799 
1447	 0.139669541339265 
1448	 0.140042372912047 
1449	 0.140425704350965 
1450	 0.140831283537284 
1451	 0.141309342881061 
1452	 0.141735450230404 
1453	 0.142144581898999 
1454	 0.142549512202864 
1455	 0.142908316801637 
1456	 0.143319099154891 
1457	 0.14377733860922 
1458	 0.144196046900543 
1459	 0.14462328003634 
1460	 0.145045870805276 
1461	 0.145440676513893 
1462	 0.145830919315835 
1463	 0.146197934237978 
1464	 0.146611832129919 
1465	 0.147013444157169 
1466	 0.147477545360964 
1467	 0.14794870336135 
1468	 0.148414410755195 
1469	 0.148879123114259 
1470	 0.149268061088818 
1471	 0.149676688842712 
1472	 0.150074542228681 
1473	 0.15049249283426 
1474	 0.150912722412469 
1475	 0.151307145864273 
1476	 0.151697490172465 
1477	 0.152108689734574 
1478	 0.152489909242976 
1479	 0.152916408577903 
1480	 0.153409120611339 
1481	 0.153835518933864 
1482	 0.154229975597779 
1483	 0.154656690574174 
1484	 0.155078988994923 
1485	 0.155503025034083 
1486	 0.155963149293342 
1487	 0.156373118838552 
1488	 0.156735376160469 
1489	 0.157132273501474 
1490	 0.157525217097734 
1491	 0.157928580439346 
1492	 0.158340505596032 
1493	 0.158770849662254 
1494	 0.159233946459448 
1495	 0.159649361720594 
1496	 0.160054189483049 
1497	 0.16046730145841 
1498	 0.160833431936653 
1499	 0.161243033232324 
1500	 0.161714038404846 
1501	 0.162136831153342 
1502	 0.162532087475542 
1503	 0.162946662017422 
1504	 0.163319872616192 
1505	 0.163755494105304 
1506	 0.164301006482574 
1507	 0.164742557084967 
1508	 0.165135121238033 
1509	 0.165558892650341 
1510	 0.165926769375106 
1511	 0.166315830220927 
1512	 0.166755046727101 
1513	 0.167185195110898 
1514	 0.167619237655232 
1515	 0.168019500414907 
1516	 0.168369618213204 
1517	 0.168787429709041 
1518	 0.169239556137167 
1519	 0.169652457924527 
1520	 0.170117917299604 
1521	 0.17055193878879 
1522	 0.170895492939449 
1523	 0.171235437131985 
1524	 0.171574441325597 
1525	 0.171893877995861 
1526	 0.172269421001506 
1527	 0.172647510615708 
1528	 0.173057734601918 
1529	 0.173521547608844 
1530	 0.17396017766613 
1531	 0.174409312342823 
1532	 0.174830032071493 
1533	 0.175241625759422 
1534	 0.175660856625845 
1535	 0.176056608850641 
1536	 0.176478695629968 
1537	 0.176921138178833 
1538	 0.177362491628932 
1539	 0.177806252151187 
1540	 0.178254189549513 
1541	 0.178713927712482 
1542	 0.179169088827751 
1543	 0.179601569142966 
1544	 0.180092528294073 
1545	 0.180630273306777 
1546	 0.181123536341093 
1547	 0.181615548105478 
1548	 0.182140309786278 
1549	 0.182654770778503 
1550	 0.18317660159861 
1551	 0.183756617463704 
1552	 0.184285614998392 
1553	 0.18475778374591 
1554	 0.185275717473004 
1555	 0.18581858136113 
1556	 0.186340512429636 
1557	 0.186858293430625 
1558	 0.187388198202369 
1559	 0.187899094790472 
1560	 0.188446970213403 
1561	 0.189031692184214 
1562	 0.189602749070793 
1563	 0.190194667419188 
1564	 0.190762061137852 
1565	 0.191325492604746 
1566	 0.191868308573966 
1567	 0.192402268959113 
1568	 0.192909260840964 
1569	 0.193369712940757 
1570	 0.193867293963969 
1571	 0.19437224694884 
1572	 0.19486049510167 
1573	 0.195332335423506 
1574	 0.195853542344006 
1575	 0.196397206845705 
1576	 0.196917474089082 
1577	 0.19746758424421 
1578	 0.198013986673467 
1579	 0.198531471065028 
1580	 0.199053143421181 
1581	 0.199617037562486 
1582	 0.200136000344231 
1583	 0.200585284739052 
1584	 0.201092620963296 
1585	 0.201625079474978 
1586	 0.202147895438483 
1587	 0.202704566188458 
1588	 0.203231179618039 
1589	 0.2036780918629 
1590	 0.20422728769197 
1591	 0.204860160217288 
1592	 0.205437684255444 
1593	 0.206038483924106 
1594	 0.206646311137001 
1595	 0.207201467880853 
1596	 0.207793240726712 
1597	 0.208453620601523 
1598	 0.209077404349112 
1599	 0.209718121165654 
1600	 0.210293778655814 
1601	 0.210779487637125 
1602	 0.21134716618662 
1603	 0.211906357233957 
1604	 0.212479868678157 
1605	 0.213135509666746 
1606	 0.213759010463104 
1607	 0.214326399234738 
1608	 0.214947936180554 
1609	 0.215635249483956 
1610	 0.216268173677696 
1611	 0.216904253864677 
1612	 0.217515825609734 
1613	 0.218084810164234 
1614	 0.218648141995458 
1615	 0.219200305437727 
1616	 0.219752096462283 
1617	 0.220267389689559 
1618	 0.220814439531622 
1619	 0.221378247283726 
1620	 0.22194984142426 
1621	 0.222571288948578 
1622	 0.223136379874479 
1623	 0.223667481166287 
1624	 0.224211777482391 
1625	 0.224689803917899 
1626	 0.225247590543429 
1627	 0.225899908638077 
1628	 0.226478444951989 
1629	 0.22705198827616 
1630	 0.227623875597269 
1631	 0.228159331873346 
1632	 0.228696588783914 
1633	 0.229234361853858 
1634	 0.229787951828205 
1635	 0.230314236116921 
1636	 0.230876040806732 
1637	 0.231475413472255 
1638	 0.232082115442807 
1639	 0.232735301053429 
1640	 0.233338693380003 
1641	 0.233969829193444 
1642	 0.234525787606609 
1643	 0.234971207122589 
1644	 0.235463539814795 
1645	 0.235927596898042 
1646	 0.236419133334572 
1647	 0.236946155369438 
1648	 0.237486015389515 
1649	 0.238024753183522 
1650	 0.238585374363387 
1651	 0.239209876029595 
1652	 0.239762003343744 
1653	 0.240305081040862 
1654	 0.240813282992377 
1655	 0.241267076398585 
1656	 0.241709349389363 
1657	 0.242114260498914 
1658	 0.242541208080106 
1659	 0.242957428553843 
1660	 0.243375046451352 
1661	 0.243822869705023 
1662	 0.244226903040395 
1663	 0.244596691050128 
1664	 0.244964730366365 
1665	 0.245350881161739 
1666	 0.245670132443473 
1667	 0.245947824901841 
1668	 0.246213589430016 
1669	 0.246441822004834 
1670	 0.246614857676789 
1671	 0.246736707479272 
1672	 0.246884774806873 
1673	 0.24699656992453 
1674	 0.247107673796694 
1675	 0.247263327236168 
1676	 0.247350550023752 
1677	 0.24737609229123 
1678	 0.247411257802445 
1679	 0.24743478179557 
1680	 0.247434127659528 
1681	 0.247435185450985 
1682	 0.247365887324681 
1683	 0.247254757140148 
1684	 0.247114614814875 
1685	 0.246939356273611 
1686	 0.246701959762415 
1687	 0.246390505683986 
1688	 0.246096072810665 
1689	 0.245751346939058 
1690	 0.245427504815736 
1691	 0.245158627024836 
1692	 0.244804793702174 
1693	 0.244409082086265 
1694	 0.243966681523424 
1695	 0.243458576198789 
1696	 0.24294864179308 
1697	 0.242441525774006 
1698	 0.241824198544786 
1699	 0.241121302262566 
1700	 0.240475986008331 
1701	 0.239744015174788 
1702	 0.239138332303028 
1703	 0.238622766276637 
1704	 0.238064117456995 
1705	 0.237505357436616 
1706	 0.236871926187064 
1707	 0.236454737035155 
1708	 0.236092861553989 
1709	 0.23573615423164 
1710	 0.235556941436365 
1711	 0.235334409837486 
1712	 0.235090863061852 
1713	 0.234978059431544 
1714	 0.234877009558063 
1715	 0.23473083522519 
1716	 0.234636877412311 
1717	 0.234628705958501 
1718	 0.234549819657396 
1719	 0.234515332523005 
1720	 0.234546351624213 
1721	 0.234513140190181 
1722	 0.234591257111843 
1723	 0.234786272723111 
1724	 0.234989649987849 
1725	 0.235253957980743 
1726	 0.235557750240257 
1727	 0.235918142961017 
1728	 0.236403940685272 
1729	 0.237010690407915 
1730	 0.237747708333496 
1731	 0.238502236534734 
1732	 0.239273540523846 
1733	 0.240100266430109 
1734	 0.24100150310774 
1735	 0.24194825121986 
1736	 0.242812415973025 
1737	 0.243684053817181 
1738	 0.244420173711286 
1739	 0.245099195836585 
1740	 0.245786679862641 
1741	 0.246347763191483 
1742	 0.246789539458728 
1743	 0.247199242859929 
1744	 0.247518754023555 
1745	 0.247831583796828 
1746	 0.248087747328686 
1747	 0.248345588238017 
1748	 0.248584069674619 
1749	 0.248829083751135 
1750	 0.249028685303961 
1751	 0.249274353065041 
1752	 0.249539802897786 
1753	 0.249830776905564 
1754	 0.250118034760415 
1755	 0.250538356365613 
1756	 0.250993537692194 
1757	 0.251583815672195 
1758	 0.252300474131375 
1759	 0.253068486401086 
1760	 0.253846044803888 
1761	 0.254592834181356 
1762	 0.255373362150914 
1763	 0.256234397773894 
1764	 0.257107331680032 
1765	 0.25810213347348 
1766	 0.259215419714531 
1767	 0.260232826574492 
1768	 0.261342816727574 
1769	 0.26257387770712 
1770	 0.263632141520185 
1771	 0.264668689389748 
1772	 0.265692423777638 
1773	 0.26659096910505 
1774	 0.267532534211239 
1775	 0.26851300665509 
1776	 0.269485208567677 
1777	 0.270331634677888 
1778	 0.27115124728686 
1779	 0.272031506609149 
1780	 0.272749008109039 
1781	 0.273456684518235 
1782	 0.274185574246318 
1783	 0.274723723074929 
1784	 0.275293273416483 
1785	 0.275933270400964 
1786	 0.276513599445116 
1787	 0.277141017879742 
1788	 0.277668135274445 
1789	 0.278110736011387 
1790	 0.278550748280665 
1791	 0.278901181817361 
1792	 0.279334737246615 
1793	 0.279793846374636 
1794	 0.280278513807414 
1795	 0.280737644969365 
1796	 0.281191240204002 
1797	 0.281666895632921 
1798	 0.282097481537423 
1799	 0.28257046181986 
1800	 0.283104134473341 
1801	 0.280305019813756 
1802	 0.280852632267867 
1803	 0.28131162209636 
1804	 0.281782024531116 
1805	 0.282252105204172 
1806	 0.282674411849213 
1807	 0.282984193235228 
1808	 0.283404104125789 
1809	 0.283906850064884 
1810	 0.284323454154223 
1811	 0.284753156756498 
1812	 0.285158899113293 
1813	 0.285492078816852 
1814	 0.285828587462942 
1815	 0.286242080635142 
1816	 0.286670035816741 
1817	 0.287073586251799 
1818	 0.287479296681938 
1819	 0.287887511185644 
1820	 0.288287300666991 
1821	 0.288672060310759 
1822	 0.289047093187427 
1823	 0.289468745356172 
1824	 0.289796391638555 
1825	 0.290200638971264 
1826	 0.290607872648868 
1827	 0.291042591219268 
1828	 0.291419372738928 
1829	 0.291803487962716 
1830	 0.292170640271638 
1831	 0.292492598029562 
1832	 0.292854614380898 
1833	 0.293166851106706 
1834	 0.293402085632956 
1835	 0.293630516123627 
1836	 0.29389189263954 
1837	 0.294172659734279 
1838	 0.294501616369116 
1839	 0.294803726971877 
1840	 0.295066115086205 
1841	 0.295413139059505 
1842	 0.295805144721511 
1843	 0.296204327793602 
1844	 0.296644850418659 
1845	 0.296990620228583 
1846	 0.297316996051689 
1847	 0.29769105974795 
1848	 0.298055919626065 
1849	 0.298473707350503 
1850	 0.298833747913614 
1851	 0.299150595990128 
1852	 0.29947132217324 
1853	 0.299891451572248 
1854	 0.300219240579373 
1855	 0.300557180681481 
1856	 0.300965661611191 
1857	 0.301367412778767 
1858	 0.30181311558341 
1859	 0.302208224665311 
1860	 0.302659368787355 
1861	 0.303039174099884 
1862	 0.303371698325445 
1863	 0.30361555456925 
1864	 0.303915841445233 
1865	 0.304157362319969 
1866	 0.304319733386843 
1867	 0.304437187879399 
1868	 0.304508932167446 
1869	 0.304670241645623 
1870	 0.304763307237304 
1871	 0.304836161146741 
1872	 0.304868464292946 
1873	 0.30489618219267 
1874	 0.304808154010532 
1875	 0.304709134310963 
1876	 0.304631367643224 
1877	 0.30452887604225 
1878	 0.304311696054773 
1879	 0.304027686882022 
1880	 0.303720183716285 
1881	 0.303304709285856 
1882	 0.302774288087184 
1883	 0.302281225633748 
1884	 0.301741849896901 
1885	 0.300969647676212 
1886	 0.300241743623687 
1887	 0.299466527450314 
1888	 0.298518811017568 
1889	 0.297641574755443 
1890	 0.296680707164978 
1891	 0.295694257195718 
1892	 0.294686185723901 
1893	 0.293590161359056 
1894	 0.292420225777579 
1895	 0.291323895768001 
1896	 0.290090742290351 
1897	 0.288812039992063 
1898	 0.287710050679267 
1899	 0.286592575191664 
1900	 0.285529106160673 
1901	 0.284535259533863 
1902	 0.283470914822818 
1903	 0.282422212380662 
1904	 0.281386417746815 
1905	 0.280306143880101 
1906	 0.279307638441019 
1907	 0.278508517841656 
1908	 0.27772509059133 
1909	 0.277026394687232 
1910	 0.276416932347014 
1911	 0.275700303753005 
1912	 0.275011969674104 
1913	 0.27441049310885 
1914	 0.273819845811665 
1915	 0.273299878140157 
1916	 0.272858397952729 
1917	 0.272429300765722 
1918	 0.27200856241488 
1919	 0.271665515415098 
1920	 0.271350817682512 
1921	 0.271128348859575 
1922	 0.270927120289268 
1923	 0.270714706368199 
1924	 0.270517723672912 
1925	 0.27028326238653 
1926	 0.270130658300965 
1927	 0.270070320685586 
1928	 0.269982871808297 
1929	 0.269916712352982 
1930	 0.26985734131035 
1931	 0.269804111865875 
1932	 0.269729487664414 
1933	 0.26970055344933 
1934	 0.269783777914329 
1935	 0.269865696485869 
1936	 0.269989245730629 
1937	 0.270135029368426 
1938	 0.270292817696282 
1939	 0.27047008284972 
1940	 0.270675050112381 
1941	 0.270936019120868 
1942	 0.271147531941205 
1943	 0.271383178220606 
1944	 0.271687242522977 
1945	 0.271987921087821 
1946	 0.272345799471657 
1947	 0.272734923160192 
1948	 0.273177172934423 
1949	 0.273654128368254 
1950	 0.274106698597371 
1951	 0.274570776614385 
1952	 0.275095041571492 
1953	 0.275641370487994 
1954	 0.276133892718959 
1955	 0.276766828262206 
1956	 0.277412140050461 
1957	 0.278005399367096 
1958	 0.278654426466892 
1959	 0.27928079531711 
1960	 0.279840538878171 
1961	 0.280395258000582 
1962	 0.280963904169894 
1963	 0.281447067310423 
1964	 0.281857238820161 
1965	 0.282285423687766 
1966	 0.282679850084737 
1967	 0.283035885461888 
1968	 0.283443990546124 
1969	 0.283853639237718 
1970	 0.284280882972117 
1971	 0.284763195048837 
1972	 0.285220731028142 
1973	 0.285665139573541 
1974	 0.28605846106956 
1975	 0.286373198014258 
1976	 0.28674740480824 
1977	 0.287104425299192 
1978	 0.287469896236582 
1979	 0.28788161824323 
1980	 0.288256497564522 
1981	 0.288607647515807 
1982	 0.288986940650981 
1983	 0.289335906905511 
1984	 0.289687742843756 
1985	 0.289950029429633 
1986	 0.290229074274312 
1987	 0.290539538834913 
1988	 0.290825841258541 
1989	 0.291159206146604 
1990	 0.29157917152267 
1991	 0.29193896634616 
1992	 0.292256897038512 
1993	 0.292657552850489 
1994	 0.293049115014368 
1995	 0.293414512400361 
1996	 0.293789008907805 
1997	 0.294200505119467 
1998	 0.29459877811735 
1999	 0.294969864367277 
2000	 0.295352586218935 
2001	 0.29581436887685 
2002	 0.296142226836991 
2003	 0.296399168411985 
2004	 0.296671612479269 
2005	 0.296899041845251 
2006	 0.297072011967403 
2007	 0.297198570903673 
2008	 0.297357935806725 
2009	 0.297470765460421 
2010	 0.297532187146275 
2011	 0.297624079756818 
2012	 0.297687223752874 
2013	 0.297711818134093 
2014	 0.29768293413957 
2015	 0.297659558233471 
2016	 0.29766487412637 
2017	 0.297553436472689 
2018	 0.297341403842325 
2019	 0.297152546694971 
2020	 0.296894898090975 
2021	 0.296638908181627 
2022	 0.296461356416005 
2023	 0.296321259896268 
2024	 0.296119667286621 
2025	 0.295902891448852 
2026	 0.295686231567714 
2027	 0.295408380506998 
2028	 0.29518766122001 
2029	 0.29502019020321 
2030	 0.294822375090454 
2031	 0.294614634884126 
2032	 0.294417683778539 
2033	 0.294182977572507 
2034	 0.294011802347417 
2035	 0.293844614310374 
2036	 0.293758059363962 
2037	 0.293724676593518 
2038	 0.293766125630301 
2039	 0.29371834770858 
2040	 0.293641484393288 
2041	 0.293613246111046 
2042	 0.29354993986653 
2043	 0.293521092730679 
2044	 0.293609583731161 
2045	 0.293585289440077 
2046	 0.293501654904021 
2047	 0.293423454542961 
2048	 0.293251069962423 
2049	 0.293174148128233 
2050	 0.293163905879183 
2051	 0.293100620916894 
2052	 0.293153999107965 
2053	 0.29318142268671 
2054	 0.293138141342587 
2055	 0.293076583121537 
2056	 0.292967473128232 
2057	 0.292732487066864 
2058	 0.292634945913474 
2059	 0.292584631270976 
2060	 0.29251411855875 
2061	 0.292527792331606 
2062	 0.292450811028926 
2063	 0.292292750870315 
2064	 0.292170121969752 
2065	 0.292037754578704 
2066	 0.291897023520713 
2067	 0.291795551054797 
2068	 0.291669499492002 
2069	 0.291591774527004 
2070	 0.291530465684823 
2071	 0.291511193399393 
2072	 0.291562749066029 
2073	 0.291547288203074 
2074	 0.291548892009619 
2075	 0.291490465962641 
2076	 0.291359354654227 
2077	 0.29127127271488 
2078	 0.291195304883392 
2079	 0.291092865102201 
2080	 0.291004665817098 
2081	 0.290874509384047 
2082	 0.290691006047831 
2083	 0.290493349593308 
2084	 0.290359271586811 
2085	 0.290182616237399 
2086	 0.290022707516221 
2087	 0.289894591438793 
2088	 0.28973548579551 
2089	 0.289537259750807 
2090	 0.289382751719823 
2091	 0.289250853334406 
2092	 0.289103787085034 
2093	 0.288961302700604 
2094	 0.288826520636948 
2095	 0.28870167226953 
2096	 0.288553464496313 
2097	 0.288423027912261 
2098	 0.288247908473161 
2099	 0.288058079932909 
2100	 0.287868493783495 
2101	 0.287671740303572 
2102	 0.287488854328635 
2103	 0.28725770382979 
2104	 0.286977468812039 
2105	 0.286739817458292 
2106	 0.286485324472976 
2107	 0.286259474764844 
2108	 0.286066243959507 
2109	 0.285871107191842 
2110	 0.285674671188911 
2111	 0.285484504725772 
2112	 0.28532056832612 
2113	 0.285144786927249 
2114	 0.285002404026324 
2115	 0.284799578739061 
2116	 0.284573117076138 
2117	 0.284312000555294 
2118	 0.284028652656087 
2119	 0.283642550040913 
2120	 0.283423177283747 
2121	 0.283271443231707 
2122	 0.283082118906951 
2123	 0.282980008380007 
2124	 0.282810766386802 
2125	 0.2825512472325 
2126	 0.282373929942077 
2127	 0.282244440450345 
2128	 0.282095367148429 
2129	 0.28195010980867 
2130	 0.281828215892597 
2131	 0.281704457357133 
2132	 0.281603971190837 
2133	 0.281577836280924 
2134	 0.281490969007769 
2135	 0.281358424412312 
2136	 0.281236435983106 
2137	 0.281102193612035 
2138	 0.280916971820912 
2139	 0.280779568921032 
2140	 0.280678552390782 
2141	 0.28055224582952 
2142	 0.280408894612745 
2143	 0.280302321540443 
2144	 0.280214448729543 
2145	 0.280107389715837 
2146	 0.279991375340576 
2147	 0.279907955761302 
2148	 0.279851228577983 
2149	 0.279766342156396 
2150	 0.279705249551524 
2151	 0.279631783242454 
2152	 0.279527803672893 
2153	 0.279404680085737 
2154	 0.279332355530502 
2155	 0.279254750408031 
2156	 0.27912256475499 
2157	 0.278976319133628 
2158	 0.278773618952182 
2159	 0.278499096372359 
2160	 0.278271456257737 
2161	 0.277998219324571 
2162	 0.277790674512761 
2163	 0.277663849428943 
2164	 0.277446595169333 
2165	 0.277245268998541 
2166	 0.276977563178639 
2167	 0.276628722240423 
2168	 0.276283424957414 
2169	 0.275852855953816 
2170	 0.275513595892938 
2171	 0.275229905383084 
2172	 0.274897779585422 
2173	 0.274575912178811 
2174	 0.274280886318398 
2175	 0.273909015064796 
2176	 0.273639575605301 
2177	 0.273366974585475 
2178	 0.273177546106807 
2179	 0.272886866971497 
2180	 0.272599678615011 
2181	 0.272206626595719 
2182	 0.271710490568961 
2183	 0.271267743361296 
2184	 0.270793193285468 
2185	 0.270291835955686 
2186	 0.269825713150896 
2187	 0.269282892366027 
2188	 0.268655696957269 
2189	 0.268034348493146 
2190	 0.267375299229573 
2191	 0.266711524638677 
2192	 0.266154984603635 
2193	 0.265364227963961 
2194	 0.264407041466711 
2195	 0.263481901101292 
2196	 0.262460841142617 
2197	 0.261326073364032 
2198	 0.260267864044171 
2199	 0.259144795843248 
2200	 0.257875746784697 
2201	 0.256463263364653 
2202	 0.254983375382711 
2203	 0.253400859348843 
2204	 0.251800339627462 
2205	 0.250078314496856 
2206	 0.248404164303916 
2207	 0.246725360456738 
2208	 0.245005034111061 
2209	 0.243243196101846 
2210	 0.241503196253015 
2211	 0.239609044054823 
2212	 0.238021291062283 
2213	 0.236552102417759 
2214	 0.235196411526004 
2215	 0.233986351516095 
2216	 0.232962656493207 
2217	 0.23204687334556 
2218	 0.231302363956582 
2219	 0.230896239264902 
2220	 0.230460479495366 
2221	 0.230098704675482 
2222	 0.229785379005295 
2223	 0.22963358994209 
2224	 0.229406589458861 
2225	 0.229123167823555 
2226	 0.228842071616141 
2227	 0.228434680937592 
2228	 0.22788836815798 
2229	 0.227326272635908 
2230	 0.226753090637035 
2231	 0.226031564013351 
2232	 0.225172922189781 
2233	 0.224297177635172 
2234	 0.22339491335138 
2235	 0.222317043729132 
2236	 0.221192298954307 
2237	 0.219875464196132 
2238	 0.218274806412899 
2239	 0.216743595477982 
2240	 0.215139804421607 
2241	 0.213471476807402 
2242	 0.211836826836782 
2243	 0.210032773820776 
2244	 0.208140017116728 
2245	 0.206077795969531 
2246	 0.203769668767847 
2247	 0.201480361054494 
2248	 0.199071424287205 
2249	 0.196616963632725 
2250	 0.194174285126774 
2251	 0.191690124059144 
2252	 0.188795479261097 
2253	 0.186064415037978 
2254	 0.183205020769147 
2255	 0.180147194737462 
2256	 0.177391623559904 
2257	 0.174605720913637 
2258	 0.171943175225051 
2259	 0.169378296145835 
2260	 0.166876372362591 
2261	 0.164443308096786 
2262	 0.162100995213467 
2263	 0.159716724673506 
2264	 0.157764493172462 
2265	 0.15604298815637 
2266	 0.154451111313961 
2267	 0.153220401485625 
2268	 0.151988819500034 
2269	 0.15083124356549 
2270	 0.149839024891554 
2271	 0.148948434395803 
2272	 0.148280949662908 
2273	 0.147877212411292 
2274	 0.147425955309822 
2275	 0.147172964695278 
2276	 0.146904592173637 
2277	 0.146611968216871 
2278	 0.146339262885257 
2279	 0.146217678462551 
2280	 0.145982438081032 
2281	 0.14573433189073 
2282	 0.145355009162125 
2283	 0.144854196795228 
2284	 0.144316746353567 
2285	 0.143753763470418 
2286	 0.143357336432125 
2287	 0.142941726907044 
2288	 0.142461512374964 
2289	 0.142038210215354 
2290	 0.14143556777796 
2291	 0.140846475836879 
2292	 0.14030645462516 
2293	 0.139494135939755 
2294	 0.138730259662421 
2295	 0.138120275799051 
2296	 0.137434928865607 
2297	 0.136935436574887 
2298	 0.136547545010773 
2299	 0.136308298028434 
2300	 0.136122091076768 
2301	 0.136253330474101 
2302	 0.136655101723575 
2303	 0.137139610045109 
2304	 0.137923283083031 
2305	 0.138625665230671 
2306	 0.139293734210669 
2307	 0.140205645972996 
2308	 0.141167909439752 
2309	 0.142415528103129 
2310	 0.144072411921184 
2311	 0.145567976114297 
2312	 0.147142747597525 
2313	 0.14876291581976 
2314	 0.150443366627465 
2315	 0.152032908114911 
2316	 0.153857234849115 
2317	 0.155262141344112 
2318	 0.156369576730203 
2319	 0.157377119168545 
2320	 0.158111782892657 
2321	 0.158806868970681 
2322	 0.159454162557778 
2323	 0.159921564478024 
2324	 0.160265098643243 
2325	 0.160473443960125 
2326	 0.160501716818975 
2327	 0.160390485693934 
2328	 0.160169475604819 
2329	 0.159733343512782 
2330	 0.159095024558847 
2331	 0.158285707957981 
2332	 0.157451956927529 
2333	 0.156295019460645 
2334	 0.155024792499756 
2335	 0.153858837392487 
2336	 0.152391094821407 
2337	 0.151017112880533 
2338	 0.149709130760883 
2339	 0.147985216920659 
2340	 0.146307272277229 
2341	 0.144657605257481 
2342	 0.142679542369634 
2343	 0.141026761987252 
2344	 0.139605183900699 
2345	 0.138025885224299 
2346	 0.136984788425286 
2347	 0.13629518011502 
2348	 0.135641363358273 
2349	 0.135250885578114 
2350	 0.1349022288226 
2351	 0.134667386231486 
2352	 0.134567021107212 
2353	 0.134599870580773 
2354	 0.134759210501037 
2355	 0.135129352444512 
2356	 0.135761769719066 
2357	 0.136400241490592 
2358	 0.136949783092279 
2359	 0.137430851222255 
2360	 0.138034361023198 
2361	 0.138589115861406 
2362	 0.138955090866081 
2363	 0.139407539392189 
2364	 0.139596952121319 
2365	 0.139651707074102 
2366	 0.140199935355956 
2367	 0.140720231681258 
2368	 0.141034365519585 
2369	 0.141409876104505 
2370	 0.141524843672864 
2371	 0.141642425198824 
2372	 0.141678963296275 
2373	 0.141622689226772 
2374	 0.141855237437259 
2375	 0.141772368076469 
2376	 0.141653147593736 
2377	 0.141803352990664 
2378	 0.141650584691392 
2379	 0.14158903026996 
2380	 0.141794124481288 
2381	 0.141831417577514 
2382	 0.141902561472025 
2383	 0.142113762024057 
2384	 0.142088425959783 
2385	 0.141841953123735 
2386	 0.141826189297132 
2387	 0.141687093052987 
2388	 0.141659000868183 
2389	 0.142069866798164 
2390	 0.142001664519367 
2391	 0.141517502111612 
2392	 0.141497365901859 
2393	 0.141369519742981 
2394	 0.141383982256932 
2395	 0.142061506531838 
2396	 0.142058637694656 
2397	 0.14156668900533 
2398	 0.141387677617723 
2399	 0.141025703650783 
2400	 0.140966036663108 
2401	 0.141263089230583 
2402	 0.141229872327671 
2403	 0.14117000458613 
2404	 0.140886286231639 
2405	 0.140740865445171 
2406	 0.14112785233173 
2407	 0.141677414551007 
2408	 0.142176005310607 
2409	 0.142556627204315 
2410	 0.142837471485025 
2411	 0.142767571835478 
2412	 0.142710308345428 
2413	 0.143155336960577 
2414	 0.143364884768166 
2415	 0.143594979497599 
2416	 0.143816213153449 
2417	 0.144075730089073 
2418	 0.144608544133935 
2419	 0.144751563968567 
2420	 0.14475891992571 
2421	 0.144835908541704 
2422	 0.144964494148768 
2423	 0.14500393980336 
2424	 0.145140280895637 
2425	 0.145626898962471 
2426	 0.145988087569661 
2427	 0.145949633237344 
2428	 0.145980456658105 
2429	 0.146166795834103 
2430	 0.146184325546689 
2431	 0.146790636342555 
2432	 0.147707707099368 
2433	 0.148187517702785 
2434	 0.148703428443399 
2435	 0.149012109458378 
2436	 0.148713382385151 
2437	 0.14826104004709 
2438	 0.147790734356638 
2439	 0.147367515497247 
2440	 0.14753139191676 
2441	 0.148326988052139 
2442	 0.148951887101522 
2443	 0.149069344556128 
2444	 0.149011157688789 
2445	 0.14841684325013 
2446	 0.148068076042728 
2447	 0.148851668874993 
2448	 0.149887538868975 
2449	 0.150928427037826 
2450	 0.151392576179022 
2451	 0.151327058273147 
2452	 0.151681676010826 
2453	 0.15189893708901 
2454	 0.151853715186017 
2455	 0.151811968320555 
2456	 0.152075953374668 
2457	 0.152271003468926 
2458	 0.1522695040697 
2459	 0.153050450825953 
2460	 0.15330840178446 
2461	 0.153079252580053 
2462	 0.15410364598529 
2463	 0.155043109328748 
2464	 0.155184431786317 
2465	 0.155990985372043 
2466	 0.156600511297878 
2467	 0.156446566804526 
2468	 0.156305148771541 
2469	 0.155825722468357 
2470	 0.155254643766217 
2471	 0.155408840673862 
2472	 0.156220054212431 
2473	 0.156499870332878 
2474	 0.156778036239146 
2475	 0.156885337310217 
2476	 0.15611245847202 
2477	 0.156345199940568 
2478	 0.156789076593127 
2479	 0.156776080979646 
2480	 0.157784685160222 
2481	 0.158115758107314 
2482	 0.158378932144866 
2483	 0.15862292258728 
2484	 0.158832051721375 
2485	 0.159049134751217 
2486	 0.159727257194423 
2487	 0.160097076838862 
2488	 0.160004791634423 
2489	 0.159647627688884 
2490	 0.159599123782895 
2491	 0.160401733838696 
2492	 0.160801003617594 
2493	 0.161739514550555 
2494	 0.162953537129917 
2495	 0.162864480778318 
2496	 0.161901475077837 
2497	 0.161634968942902 
2498	 0.161998947055539 
2499	 0.16283241874392 
2500	 0.16562078462086 
