Wavelength	Tablay400025.asd
350	 0.290217517587439 
351	 0.306458891771815 
352	 0.27572450423472 
353	 0.217397802652679 
354	 0.22824830975045 
355	 0.266991494748478 
356	 0.269742595247767 
357	 0.215800578342608 
358	 0.228540593914299 
359	 0.211999365487135 
360	 0.194609674184458 
361	 0.243270067992469 
362	 0.210723219947506 
363	 0.201808998286687 
364	 0.236163323772204 
365	 0.185376041461856 
366	 0.16519124859392 
367	 0.181275560527101 
368	 0.202790701542017 
369	 0.194099661677464 
370	 0.17107580253467 
371	 0.157059409451201 
372	 0.177469106686122 
373	 0.197245197469152 
374	 0.184277364713159 
375	 0.144787397699033 
376	 0.137570627474767 
377	 0.131081183649288 
378	 0.150489400333141 
379	 0.196828185175002 
380	 0.145531266955656 
381	 0.129806049349679 
382	 0.156252160431096 
383	 0.151271926640039 
384	 0.110440367350404 
385	 0.113136348489618 
386	 0.161714548384625 
387	 0.140936945573064 
388	 0.133926436932852 
389	 0.138466589738055 
390	 0.13631644706495 
391	 0.136351061662774 
392	 0.120787200465332 
393	 0.10319831700321 
394	 0.110919748822688 
395	 0.101108492935732 
396	 9.48531723772593E-02 
397	 0.103638533409927 
398	 0.112065932973958 
399	 0.110052144119249 
400	 0.105212965553219 
401	 0.105914125364764 
402	 0.101193570437082 
403	 9.48984354206022E-02 
404	 9.32776130657905E-02 
405	 0.10212428397811 
406	 0.10267375676564 
407	 0.101916572202943 
408	 0.103185268025064 
409	 9.45068409638997E-02 
410	 0.095195574508954 
411	 9.94282708042285E-02 
412	 9.58084278936985E-02 
413	 8.65466770380862E-02 
414	 8.37859257346613E-02 
415	 0.087697220666117 
416	 8.78166467705792E-02 
417	 0.084449611759363 
418	 8.13231138170281E-02 
419	 8.13638166767923E-02 
420	 8.51936783008314E-02 
421	 8.46257858730015E-02 
422	 8.09910914492366E-02 
423	 7.90055658105175E-02 
424	 7.75676509890316E-02 
425	 7.80954989311164E-02 
426	 7.93549614840008E-02 
427	 0.077241700820053 
428	 7.76743860427239E-02 
429	 7.62329007629842E-02 
430	 7.09540845034525E-02 
431	 7.39057287840043E-02 
432	 7.33644714133489E-02 
433	 7.02152667037861E-02 
434	 7.14071082446678E-02 
435	 7.22230320867536E-02 
436	 7.35498069851586E-02 
437	 7.47941261836521E-02 
438	 7.21395657988668E-02 
439	 7.16540867582614E-02 
440	 7.19445793406504E-02 
441	 7.09001893381589E-02 
442	 7.27367499339099E-02 
443	 7.41171675973132E-02 
444	 7.32051352743024E-02 
445	 6.99035638572258E-02 
446	 6.83569947750466E-02 
447	 0.069887512002242 
448	 7.34313824231888E-02 
449	 7.44054635585811E-02 
450	 7.31281306719575E-02 
451	 7.21472554669532E-02 
452	 7.37515674112022E-02 
453	 7.27246417171842E-02 
454	 7.14810652951271E-02 
455	 0.071593361499909 
456	 7.30939976616469E-02 
457	 7.30742545043286E-02 
458	 7.30466379722393E-02 
459	 7.41567868638908E-02 
460	 7.33831390045706E-02 
461	 7.42037440019552E-02 
462	 7.56681217266546E-02 
463	 7.49395204206356E-02 
464	 7.46939854139397E-02 
465	 7.55470698824392E-02 
466	 7.70395631615082E-02 
467	 7.75007832092404E-02 
468	 7.78028650670628E-02 
469	 7.80062914627968E-02 
470	 7.82506444296707E-02 
471	 7.98835894980341E-02 
472	 8.12138748794043E-02 
473	 8.18006907497145E-02 
474	 8.22275893619956E-02 
475	 8.21875423555831E-02 
476	 8.26212073641356E-02 
477	 0.083998115922811 
478	 0.085628626334908 
479	 8.61743011426544E-02 
480	 8.68672930925551E-02 
481	 8.91875169733039E-02 
482	 8.94740998325535E-02 
483	 9.01790776370048E-02 
484	 9.19937086944588E-02 
485	 9.32311418776066E-02 
486	 9.43794429084847E-02 
487	 9.53742002210192E-02 
488	 9.62460205604243E-02 
489	 9.75976152552422E-02 
490	 9.91341724843203E-02 
491	 0.100664304715741 
492	 0.102068660334961 
493	 0.103261326085638 
494	 0.105304619434144 
495	 0.108017718391299 
496	 0.109009535863877 
497	 0.110724323101629 
498	 0.112397803759095 
499	 0.113028712600343 
500	 0.114955116458903 
501	 0.116784285808124 
502	 0.118362836906992 
503	 0.120647139500024 
504	 0.122641388642694 
505	 0.124241377337246 
506	 0.125693499702759 
507	 0.127661128194119 
508	 0.129662704632204 
509	 0.131649600115872 
510	 0.133638460708903 
511	 0.134784855975364 
512	 0.13624396163436 
513	 0.138260558409914 
514	 0.139747385929869 
515	 0.141639112249323 
516	 0.143575443067079 
517	 0.145146893598313 
518	 0.146888943718819 
519	 0.148727507644189 
520	 0.150502355977978 
521	 0.152043450238282 
522	 0.153822254154371 
523	 0.155741609427335 
524	 0.157641287822445 
525	 0.159455986559645 
526	 0.160832408913022 
527	 0.162295918574996 
528	 0.164396460891317 
529	 0.166026167311959 
530	 0.167387044587198 
531	 0.168801767233303 
532	 0.170599470976224 
533	 0.172283583885842 
534	 0.173889909873493 
535	 0.175500077291313 
536	 0.176940392915356 
537	 0.178643331879615 
538	 0.180383316571444 
539	 0.181672413731073 
540	 0.183171051997433 
541	 0.184552369209423 
542	 0.185735491853488 
543	 0.187199266114484 
544	 0.188624328315777 
545	 0.189915726545777 
546	 0.191077854417679 
547	 0.192206282574642 
548	 0.193558285626581 
549	 0.195009415745657 
550	 0.196133192105204 
551	 0.197471467554077 
552	 0.198735991522365 
553	 0.199810256705466 
554	 0.20143058515073 
555	 0.202794299213453 
556	 0.203987875487898 
557	 0.205417935779452 
558	 0.20649405261009 
559	 0.207480409322207 
560	 0.208571944046005 
561	 0.209758413643776 
562	 0.210873559231837 
563	 0.211935133846028 
564	 0.213000633835573 
565	 0.214055059474554 
566	 0.215135800115508 
567	 0.216101415005206 
568	 0.216732461209364 
569	 0.217553966495179 
570	 0.218227550812072 
571	 0.218662789218708 
572	 0.219567011296814 
573	 0.220552709392775 
574	 0.221485403054361 
575	 0.222308681898774 
576	 0.222917529640939 
577	 0.223538624637152 
578	 0.224225441079241 
579	 0.224815996174782 
580	 0.225298180326858 
581	 0.225896899952466 
582	 0.226738913016813 
583	 0.227478907839012 
584	 0.22829973307526 
585	 0.22914726877844 
586	 0.229854404448203 
587	 0.230580962203375 
588	 0.231202923885963 
589	 0.231702964504818 
590	 0.232272102712141 
591	 0.232992272184797 
592	 0.233796713562974 
593	 0.234565006813989 
594	 0.235195620387125 
595	 0.235899232301149 
596	 0.236610218466612 
597	 0.237049101125857 
598	 0.237720722204913 
599	 0.238370951298057 
600	 0.238823339075988 
601	 0.239420252066202 
602	 0.239905940688466 
603	 0.240408880747467 
604	 0.241132361766042 
605	 0.241636669252264 
606	 0.242041933944206 
607	 0.242464918201791 
608	 0.242954007561086 
609	 0.243511091779663 
610	 0.24400891256157 
611	 0.24437884610294 
612	 0.244840583839462 
613	 0.245339308141364 
614	 0.245790915113619 
615	 0.24612571784438 
616	 0.246630623122756 
617	 0.247012824007902 
618	 0.24718458855813 
619	 0.247536027201413 
620	 0.248160301627972 
621	 0.2487310582945 
622	 0.248940733810277 
623	 0.249343425153301 
624	 0.249685810786458 
625	 0.249932264716249 
626	 0.25027568308122 
627	 0.250751604706855 
628	 0.251125224599753 
629	 0.251316928688217 
630	 0.251774058092404 
631	 0.252103300800208 
632	 0.252320968322558 
633	 0.252600191151167 
634	 0.252839569935156 
635	 0.253146175441032 
636	 0.253534553238488 
637	 0.253887224676719 
638	 0.25396355797248 
639	 0.254113819465885 
640	 0.25459006271555 
641	 0.254831161206148 
642	 0.25513579675686 
643	 0.255434729076397 
644	 0.255482643881854 
645	 0.255599398549421 
646	 0.255870177024092 
647	 0.256257538016319 
648	 0.25659203108147 
649	 0.256694313377275 
650	 0.256778120027567 
651	 0.257070381705781 
652	 0.257280509501835 
653	 0.257461235514515 
654	 0.257666300247927 
655	 0.257928060037163 
656	 0.258072669541712 
657	 0.258157008137125 
658	 0.258271885423047 
659	 0.258505824056329 
660	 0.258689124919676 
661	 0.258873934434575 
662	 0.259136695682026 
663	 0.259200860578928 
664	 0.259304163745839 
665	 0.259536991809362 
666	 0.259802665487357 
667	 0.259872738168449 
668	 0.259854635553595 
669	 0.259900264462105 
670	 0.260089877724318 
671	 0.26028779699643 
672	 0.260435548021159 
673	 0.260515999305098 
674	 0.260495246961262 
675	 0.260603657275022 
676	 0.260837621446216 
677	 0.260897481798262 
678	 0.260961393736859 
679	 0.261057048067053 
680	 0.261174593487599 
681	 0.261303987026891 
682	 0.261348852350381 
683	 0.261426430815462 
684	 0.261703727201583 
685	 0.261741220960445 
686	 0.261718280408043 
687	 0.261764783685557 
688	 0.261846753721777 
689	 0.261950845277343 
690	 0.262009580696973 
691	 0.261992195948656 
692	 0.262028417894203 
693	 0.262075022813431 
694	 0.262154122383045 
695	 0.262304472532912 
696	 0.262316297041739 
697	 0.262366222082131 
698	 0.262496502222427 
699	 0.262463835187553 
700	 0.262575829298469 
701	 0.262679896897002 
702	 0.262609112360822 
703	 0.262650225049058 
704	 0.262738760173098 
705	 0.262833024561021 
706	 0.262907338286127 
707	 0.262895861455971 
708	 0.262930290297685 
709	 0.263040913726581 
710	 0.263045304400832 
711	 0.263130031602971 
712	 0.263235533990878 
713	 0.263268164036224 
714	 0.263297411652543 
715	 0.263363642327377 
716	 0.263451642866811 
717	 0.26350236523512 
718	 0.263434551732583 
719	 0.263422121120752 
720	 0.263532565674514 
721	 0.263597242639809 
722	 0.263726513018829 
723	 0.263812616311806 
724	 0.263771097210309 
725	 0.26385322876622 
726	 0.263980761647037 
727	 0.26408758750393 
728	 0.264133474866738 
729	 0.264203697354275 
730	 0.264242863261279 
731	 0.264246886710251 
732	 0.264324308466355 
733	 0.26439746362242 
734	 0.264459282621942 
735	 0.264524668517408 
736	 0.264608454598076 
737	 0.264723053953304 
738	 0.264851421511529 
739	 0.264958795944527 
740	 0.265042287759926 
741	 0.265149811704477 
742	 0.265285664081779 
743	 0.265381366790702 
744	 0.265479417188553 
745	 0.265599114040158 
746	 0.26572848475549 
747	 0.265765687682186 
748	 0.265859958658556 
749	 0.265993184957248 
750	 0.266077326379999 
751	 0.266318465320382 
752	 0.266520364299009 
753	 0.26660207289383 
754	 0.26668325730009 
755	 0.266868127720574 
756	 0.267051733679131 
757	 0.267135957252635 
758	 0.267186423919779 
759	 0.267294714156552 
760	 0.267454841238826 
761	 0.26761591202922 
762	 0.267805213838904 
763	 0.26793622214788 
764	 0.268029056438778 
765	 0.268217531236438 
766	 0.268446178160784 
767	 0.268683173102862 
768	 0.268878242346483 
769	 0.268910713943568 
770	 0.269059559257546 
771	 0.269290989710165 
772	 0.269483121682068 
773	 0.269727952995325 
774	 0.269913586597792 
775	 0.270029028236836 
776	 0.270157086037416 
777	 0.270371585946893 
778	 0.27063489711772 
779	 0.270883285004284 
780	 0.271041926301212 
781	 0.271242041269837 
782	 0.271486696959913 
783	 0.271729937460124 
784	 0.271894419400594 
785	 0.27210048926066 
786	 0.272327169731764 
787	 0.272490912047008 
788	 0.272707592141562 
789	 0.27292758785255 
790	 0.273129142267443 
791	 0.273341075637845 
792	 0.273532973954747 
793	 0.273759213829389 
794	 0.274032250078414 
795	 0.274219128874963 
796	 0.274443972317119 
797	 0.274653489109062 
798	 0.274769844933681 
799	 0.274916491747867 
800	 0.275126475944103 
801	 0.275361434900153 
802	 0.27554018919092 
803	 0.275717164376287 
804	 0.275887678284213 
805	 0.276054454252728 
806	 0.276241177322676 
807	 0.27641062046199 
808	 0.276541205255019 
809	 0.276664858279244 
810	 0.276967813038228 
811	 0.277159340634508 
812	 0.277267439794461 
813	 0.277435083588066 
814	 0.277539549310056 
815	 0.277669627273618 
816	 0.277855299732389 
817	 0.278060578716632 
818	 0.278269377257553 
819	 0.278386076781634 
820	 0.278432058893822 
821	 0.278628359659511 
822	 0.278805088173315 
823	 0.278939625604278 
824	 0.279063976929312 
825	 0.279261743214807 
826	 0.27936944080146 
827	 0.279462901886606 
828	 0.279668579804057 
829	 0.279709130329029 
830	 0.279803598288886 
831	 0.279978098182844 
832	 0.280070305289107 
833	 0.280073559150536 
834	 0.280115356051366 
835	 0.280236422479313 
836	 0.280313840735249 
837	 0.280513315154944 
838	 0.280667147352342 
839	 0.280658996196234 
840	 0.280742082185219 
841	 0.280837383458585 
842	 0.280922231126761 
843	 0.281000336571469 
844	 0.281115803627657 
845	 0.281176184262634 
846	 0.281167960326961 
847	 0.281148326960703 
848	 0.28119740921617 
849	 0.281225894266499 
850	 0.281235217579685 
851	 0.281356020115303 
852	 0.281480589129727 
853	 0.281462126622854 
854	 0.281322665672764 
855	 0.281448738139266 
856	 0.281497896812861 
857	 0.28150546670168 
858	 0.28156582843243 
859	 0.281539028524046 
860	 0.281509312459777 
861	 0.281552759045904 
862	 0.281685825907173 
863	 0.281637926907314 
864	 0.281612666182985 
865	 0.281635899652767 
866	 0.281576654968475 
867	 0.281644343856508 
868	 0.281690564064869 
869	 0.281645625077872 
870	 0.281613846382221 
871	 0.281627906253875 
872	 0.281663127132401 
873	 0.281670742109811 
874	 0.281577506993228 
875	 0.281607030635161 
876	 0.281669036089177 
877	 0.281625854190061 
878	 0.281543252748225 
879	 0.281575402624838 
880	 0.281617243390396 
881	 0.281507370986544 
882	 0.281529266770226 
883	 0.281541309208399 
884	 0.281523634452587 
885	 0.281544673783364 
886	 0.28141873439977 
887	 0.281431527396869 
888	 0.281572286059398 
889	 0.281468649952464 
890	 0.281479984384605 
891	 0.281508254090986 
892	 0.281468156889941 
893	 0.281433768360777 
894	 0.28148738463822 
895	 0.281508709429954 
896	 0.281432836123611 
897	 0.281488379374065 
898	 0.281378897539752 
899	 0.281275838584278 
900	 0.281384530885054 
901	 0.281414242969153 
902	 0.281382903922106 
903	 0.281314054360005 
904	 0.281231678867056 
905	 0.281100991625083 
906	 0.281152526221313 
907	 0.281282426772733 
908	 0.281197773098754 
909	 0.281190523412492 
910	 0.281075351746504 
911	 0.280930850036285 
912	 0.281089154688113 
913	 0.281209101905481 
914	 0.281194337483282 
915	 0.281107765883192 
916	 0.281158968068503 
917	 0.281227520840845 
918	 0.281174737949516 
919	 0.281018782312274 
920	 0.2810578036404 
921	 0.281106823993139 
922	 0.281105372698355 
923	 0.281074629271391 
924	 0.281166058217856 
925	 0.281122454997013 
926	 0.281069219935824 
927	 0.281177164420669 
928	 0.281335844103413 
929	 0.281407722804973 
930	 0.281411378849985 
931	 0.28142520905993 
932	 0.281435768692827 
933	 0.281467406943915 
934	 0.28151228692058 
935	 0.281550270767111 
936	 0.281603290909505 
937	 0.281646214064307 
938	 0.281664200634571 
939	 0.281686367457967 
940	 0.281971982347575 
941	 0.282175851912973 
942	 0.282173585961577 
943	 0.2820963706247 
944	 0.282055639262279 
945	 0.282046068214593 
946	 0.282091098211685 
947	 0.282244736205548 
948	 0.282397479256495 
949	 0.282467898397806 
950	 0.282451193127165 
951	 0.282430077344394 
952	 0.2824589471305 
953	 0.282491377428196 
954	 0.282559992434096 
955	 0.282815050980422 
956	 0.282668495945567 
957	 0.28252118279649 
958	 0.28269299079441 
959	 0.282986628011455 
960	 0.28299411721724 
961	 0.282865730326999 
962	 0.282795216477878 
963	 0.282755055030708 
964	 0.28287388162151 
965	 0.282954466613537 
966	 0.282891604569218 
967	 0.282971118028457 
968	 0.283139394289087 
969	 0.283236807775973 
970	 0.283194871924688 
971	 0.28325040036671 
972	 0.283300322894655 
973	 0.283365222507723 
974	 0.28344670668306 
975	 0.283405764304907 
976	 0.283295116861041 
977	 0.283256949421161 
978	 0.283360837118009 
979	 0.283380285154824 
980	 0.283404036912635 
981	 0.283448720475114 
982	 0.283524567489655 
983	 0.283718715747516 
984	 0.283598156311858 
985	 0.283538762491573 
986	 0.283875951376441 
987	 0.283809434170991 
988	 0.283940092958033 
989	 0.284124848335793 
990	 0.284054356344646 
991	 0.283765060193386 
992	 0.283972231680674 
993	 0.284248987714453 
994	 0.284057003783726 
995	 0.284032690585626 
996	 0.283877648669087 
997	 0.283932069383816 
998	 0.284383573536149 
999	 0.284207357064261 
1000	 0.28412107745764 
1001	 0.279608441481214 
1002	 0.279739217392175 
1003	 0.279889928862511 
1004	 0.279947759449505 
1005	 0.279909688954353 
1006	 0.279935988410096 
1007	 0.279943604276126 
1008	 0.279966610715289 
1009	 0.279994761634043 
1010	 0.280034857923039 
1011	 0.280116614371786 
1012	 0.280186039739892 
1013	 0.280226067625596 
1014	 0.280284242729352 
1015	 0.280358075296233 
1016	 0.280426650756929 
1017	 0.280393168858764 
1018	 0.280462100128676 
1019	 0.280639612652999 
1020	 0.280740675277092 
1021	 0.280779370409844 
1022	 0.280855178402868 
1023	 0.280881249455991 
1024	 0.280774115698358 
1025	 0.280715552927418 
1026	 0.28065603981501 
1027	 0.280659589832684 
1028	 0.280696783155252 
1029	 0.280681679740748 
1030	 0.280623070462912 
1031	 0.280781566589955 
1032	 0.280852515828634 
1033	 0.28076586460397 
1034	 0.280870668518958 
1035	 0.280944962576079 
1036	 0.280924506021842 
1037	 0.280876799123927 
1038	 0.280792805337299 
1039	 0.280515688817723 
1040	 0.280450373525263 
1041	 0.280414933000444 
1042	 0.280444636175371 
1043	 0.280617427636901 
1044	 0.280844993220173 
1045	 0.280887946505818 
1046	 0.280908172541165 
1047	 0.280844328412005 
1048	 0.280795474407979 
1049	 0.280967324734535 
1050	 0.281107806513791 
1051	 0.281238960350455 
1052	 0.28138124702866 
1053	 0.281446988718794 
1054	 0.281340837105527 
1055	 0.281433187262888 
1056	 0.281638449313481 
1057	 0.281714210593752 
1058	 0.281807101758409 
1059	 0.281816358634445 
1060	 0.281873276333885 
1061	 0.281935088346408 
1062	 0.28188296517822 
1063	 0.281964930202494 
1064	 0.281907960588184 
1065	 0.281793418862375 
1066	 0.281954717656924 
1067	 0.282142038199419 
1068	 0.282295399005345 
1069	 0.282407971256221 
1070	 0.282525760462651 
1071	 0.282640224518585 
1072	 0.282666854521621 
1073	 0.282611584475312 
1074	 0.282699639218658 
1075	 0.282785322246675 
1076	 0.282770184869855 
1077	 0.282810765983669 
1078	 0.282872361975332 
1079	 0.282832984629032 
1080	 0.282802222098662 
1081	 0.282855460666787 
1082	 0.282930181912722 
1083	 0.282981120124046 
1084	 0.28306026576676 
1085	 0.283108629163867 
1086	 0.283118790940618 
1087	 0.2830830473171 
1088	 0.28305330858444 
1089	 0.282979310710863 
1090	 0.283019899696308 
1091	 0.283136439461734 
1092	 0.28321491624026 
1093	 0.283348195746934 
1094	 0.283395319785709 
1095	 0.283356784517376 
1096	 0.283328356831826 
1097	 0.283331987010024 
1098	 0.283416983834484 
1099	 0.283521464625075 
1100	 0.283634760253136 
1101	 0.283691854994211 
1102	 0.283719121124029 
1103	 0.28378798673262 
1104	 0.283855584319191 
1105	 0.283914300845153 
1106	 0.28404226806601 
1107	 0.284203356596371 
1108	 0.28427171841421 
1109	 0.284323196268521 
1110	 0.284417259924256 
1111	 0.284431648573385 
1112	 0.284434194392483 
1113	 0.284556026676692 
1114	 0.284661923293887 
1115	 0.284783063817829 
1116	 0.284983269379532 
1117	 0.285124031135366 
1118	 0.285259849892388 
1119	 0.285406403575418 
1120	 0.285509022206913 
1121	 0.285555864323777 
1122	 0.285651636693957 
1123	 0.285801065274106 
1124	 0.285955433488979 
1125	 0.286089749617516 
1126	 0.286215063048078 
1127	 0.286274624812675 
1128	 0.286298801986039 
1129	 0.28639997812906 
1130	 0.28652529515237 
1131	 0.286686386212213 
1132	 0.286844617252651 
1133	 0.286973170358263 
1134	 0.287078837736038 
1135	 0.287172385943519 
1136	 0.287223209843284 
1137	 0.287303550726485 
1138	 0.287392190827405 
1139	 0.287481799528183 
1140	 0.287599423763773 
1141	 0.287639701592401 
1142	 0.28769164600503 
1143	 0.287760556225698 
1144	 0.287775495844679 
1145	 0.287811657587037 
1146	 0.287814931533094 
1147	 0.287776193264578 
1148	 0.287823816917792 
1149	 0.287868484261254 
1150	 0.287928058475186 
1151	 0.288001360458551 
1152	 0.288025415914278 
1153	 0.287999207952988 
1154	 0.287989053984751 
1155	 0.287964095464196 
1156	 0.287936836768511 
1157	 0.287894172536377 
1158	 0.287855500251661 
1159	 0.287795808728392 
1160	 0.287771599902414 
1161	 0.287809086041642 
1162	 0.287828366517253 
1163	 0.287815911608206 
1164	 0.287812758342291 
1165	 0.287783469470526 
1166	 0.287726515406923 
1167	 0.287669429485702 
1168	 0.287627140200604 
1169	 0.28758723831362 
1170	 0.287528932462774 
1171	 0.28748004072627 
1172	 0.287459121276853 
1173	 0.28742084601164 
1174	 0.287352886184718 
1175	 0.287304811018129 
1176	 0.287271855584923 
1177	 0.287232687249142 
1178	 0.287188732635404 
1179	 0.287151869107585 
1180	 0.287133841810878 
1181	 0.287146194349614 
1182	 0.287125816821657 
1183	 0.287120621132272 
1184	 0.287103031405058 
1185	 0.287032902228831 
1186	 0.287005427609507 
1187	 0.287003708225477 
1188	 0.286979364679444 
1189	 0.286934470696444 
1190	 0.286936655977246 
1191	 0.286943859590677 
1192	 0.28696914095351 
1193	 0.287048489663791 
1194	 0.287098544069117 
1195	 0.287132839345799 
1196	 0.287182825909502 
1197	 0.287229285168729 
1198	 0.287280312341885 
1199	 0.287399763199107 
1200	 0.287521947628745 
1201	 0.287621412354198 
1202	 0.287767016358104 
1203	 0.287894596185065 
1204	 0.287987300547871 
1205	 0.288120783207974 
1206	 0.288262987087109 
1207	 0.288465119843419 
1208	 0.288699536869326 
1209	 0.288939573999778 
1210	 0.28921900603072 
1211	 0.289515263301191 
1212	 0.289796075927086 
1213	 0.290145526786381 
1214	 0.290573119380428 
1215	 0.290982253251789 
1216	 0.291416775978058 
1217	 0.291857907139611 
1218	 0.292309881288878 
1219	 0.292754253991006 
1220	 0.293219383537021 
1221	 0.293722708320089 
1222	 0.294221224841347 
1223	 0.294724054255992 
1224	 0.295222850494142 
1225	 0.2957493193213 
1226	 0.296195811621915 
1227	 0.296587738951479 
1228	 0.297034070428787 
1229	 0.297457479202989 
1230	 0.297886795890693 
1231	 0.298386467527157 
1232	 0.298806804387716 
1233	 0.299141602752422 
1234	 0.299529363714098 
1235	 0.299918960822838 
1236	 0.300300684307218 
1237	 0.300729597063632 
1238	 0.301107278693732 
1239	 0.301440605889278 
1240	 0.301784693537491 
1241	 0.302108440631676 
1242	 0.302364205585892 
1243	 0.302656518210046 
1244	 0.302934745033506 
1245	 0.303241456031489 
1246	 0.303573362989188 
1247	 0.303876001273898 
1248	 0.304210028054884 
1249	 0.304468348791149 
1250	 0.304653338453892 
1251	 0.304886238107431 
1252	 0.305085952921767 
1253	 0.305319727330103 
1254	 0.305609436280712 
1255	 0.305864551207831 
1256	 0.306121138011715 
1257	 0.306356978489223 
1258	 0.30657554944385 
1259	 0.30678027964767 
1260	 0.306931560972703 
1261	 0.307133860733629 
1262	 0.30735163432271 
1263	 0.307578199444377 
1264	 0.307828652840088 
1265	 0.308139804520585 
1266	 0.30837704369204 
1267	 0.308602620440252 
1268	 0.308803432153556 
1269	 0.308945526158477 
1270	 0.309146205479963 
1271	 0.309328301098564 
1272	 0.309578956622878 
1273	 0.309902928427895 
1274	 0.310187631522289 
1275	 0.310491059697238 
1276	 0.310794445734487 
1277	 0.311079450215445 
1278	 0.311380194389591 
1279	 0.311740215757478 
1280	 0.31203061627902 
1281	 0.312247916234755 
1282	 0.312520066986752 
1283	 0.312794853872165 
1284	 0.313057268769556 
1285	 0.31332768179523 
1286	 0.313646255591662 
1287	 0.313908174741656 
1288	 0.314121185457815 
1289	 0.314371325247618 
1290	 0.314646805750172 
1291	 0.314872885402316 
1292	 0.315081994167105 
1293	 0.315284951888702 
1294	 0.31544739294987 
1295	 0.315636952607529 
1296	 0.315842660146337 
1297	 0.316034209184534 
1298	 0.31622074638313 
1299	 0.316407943532075 
1300	 0.316593783471342 
1301	 0.316772368269231 
1302	 0.316952442266083 
1303	 0.317122135497183 
1304	 0.317294767575315 
1305	 0.317439920299272 
1306	 0.317543279428048 
1307	 0.317676213335382 
1308	 0.317790525727844 
1309	 0.317943275443561 
1310	 0.318063096287624 
1311	 0.318189532914543 
1312	 0.318331584246496 
1313	 0.318460059954465 
1314	 0.318595980313711 
1315	 0.318761203218925 
1316	 0.31891125351331 
1317	 0.319034234847043 
1318	 0.319185290844337 
1319	 0.319371074920531 
1320	 0.31952478258706 
1321	 0.319689477238815 
1322	 0.31980619297237 
1323	 0.319845131570704 
1324	 0.319968123073197 
1325	 0.320097147138865 
1326	 0.32024612533664 
1327	 0.320474986034404 
1328	 0.320661917456753 
1329	 0.320841053654118 
1330	 0.320994013839591 
1331	 0.321133826873772 
1332	 0.321261211630952 
1333	 0.321370169192573 
1334	 0.321447568619051 
1335	 0.321550088241262 
1336	 0.321648243264541 
1337	 0.321766263754415 
1338	 0.321898854907635 
1339	 0.322020067652547 
1340	 0.322161701515441 
1341	 0.322260256474406 
1342	 0.322335634594759 
1343	 0.32241326654372 
1344	 0.322471193890039 
1345	 0.322531712414172 
1346	 0.322579601146991 
1347	 0.322649381170074 
1348	 0.322746310423127 
1349	 0.322796145529192 
1350	 0.322853541458058 
1351	 0.322877165237283 
1352	 0.322837390634467 
1353	 0.322824304364976 
1354	 0.32280951303437 
1355	 0.322798626885424 
1356	 0.322800746306651 
1357	 0.322786858469799 
1358	 0.322756328746817 
1359	 0.322740057836058 
1360	 0.322736684886009 
1361	 0.322705412683041 
1362	 0.322695740823266 
1363	 0.322685772340354 
1364	 0.322647449895075 
1365	 0.322599476708275 
1366	 0.322518569814262 
1367	 0.322422506446809 
1368	 0.322291286996255 
1369	 0.322121938362434 
1370	 0.3219496396398 
1371	 0.321758365531981 
1372	 0.321546670858601 
1373	 0.321317942787209 
1374	 0.32108112026177 
1375	 0.320827531760838 
1376	 0.320557229965237 
1377	 0.320272888540018 
1378	 0.319977359108695 
1379	 0.319654991863248 
1380	 0.319333615965861 
1381	 0.319016377706746 
1382	 0.31867661709888 
1383	 0.318329567593244 
1384	 0.317957447546326 
1385	 0.317575549581488 
1386	 0.317162888735979 
1387	 0.316692358773617 
1388	 0.316259169897231 
1389	 0.315808795437516 
1390	 0.315383419779765 
1391	 0.314982957703798 
1392	 0.31459731502009 
1393	 0.314225022264027 
1394	 0.313893289052869 
1395	 0.313568382758907 
1396	 0.3133119154958 
1397	 0.31293326282308 
1398	 0.312545927751523 
1399	 0.312068576160733 
1400	 0.311501654741726 
1401	 0.310916221414205 
1402	 0.310288747987504 
1403	 0.309617428120472 
1404	 0.308905388356489 
1405	 0.308150252781725 
1406	 0.307332655956331 
1407	 0.306522425809522 
1408	 0.305672591013677 
1409	 0.304817518877458 
1410	 0.30395500566195 
1411	 0.303085887814397 
1412	 0.302156224695145 
1413	 0.301310143747221 
1414	 0.300492039370132 
1415	 0.299698486393512 
1416	 0.298969888768812 
1417	 0.298222918122981 
1418	 0.297474746865591 
1419	 0.296741564315836 
1420	 0.295975362648998 
1421	 0.29529441816271 
1422	 0.294687165634619 
1423	 0.294066771944644 
1424	 0.293501286741045 
1425	 0.29291426084782 
1426	 0.292350650256658 
1427	 0.291788986418576 
1428	 0.291237130632858 
1429	 0.290758030547616 
1430	 0.290261524089675 
1431	 0.289777138694048 
1432	 0.289264072263419 
1433	 0.288765246945252 
1434	 0.288231439678867 
1435	 0.287661179682046 
1436	 0.28709545971929 
1437	 0.28652881516323 
1438	 0.28594948675441 
1439	 0.285345856351172 
1440	 0.284752720577456 
1441	 0.284093644547216 
1442	 0.283585886758727 
1443	 0.283097967067481 
1444	 0.282738733785353 
1445	 0.282459987028083 
1446	 0.28234195960709 
1447	 0.282316466597404 
1448	 0.282439170499105 
1449	 0.282760906122138 
1450	 0.283135462788062 
1451	 0.283624877467091 
1452	 0.284178047851148 
1453	 0.284856726022817 
1454	 0.285533558305832 
1455	 0.286296767675264 
1456	 0.287034411127828 
1457	 0.287824873359979 
1458	 0.288547041675994 
1459	 0.289257346198445 
1460	 0.289920307237224 
1461	 0.290517496302675 
1462	 0.291098114860233 
1463	 0.291621696589371 
1464	 0.292166652474603 
1465	 0.292713223539007 
1466	 0.293245804701468 
1467	 0.293756433298107 
1468	 0.294248035395354 
1469	 0.29470227503041 
1470	 0.295147340831143 
1471	 0.295598186617965 
1472	 0.296071673674334 
1473	 0.296483026351382 
1474	 0.29686357200791 
1475	 0.297237018666793 
1476	 0.297574355074996 
1477	 0.297922464805357 
1478	 0.29827977195737 
1479	 0.298596956435825 
1480	 0.298903878009639 
1481	 0.299165668177796 
1482	 0.299391733503071 
1483	 0.299599640726528 
1484	 0.299767181872689 
1485	 0.299933389277241 
1486	 0.30006775694623 
1487	 0.300229941979794 
1488	 0.300372370693473 
1489	 0.300562429941278 
1490	 0.300757509500028 
1491	 0.301017504513825 
1492	 0.301305857061336 
1493	 0.301664749123494 
1494	 0.302103184095801 
1495	 0.30255263082799 
1496	 0.303044553252628 
1497	 0.303569698821721 
1498	 0.304145446260798 
1499	 0.304713045165124 
1500	 0.305341665124187 
1501	 0.305916337631526 
1502	 0.306465951632363 
1503	 0.307005038678072 
1504	 0.307520521496764 
1505	 0.308027511687867 
1506	 0.308532808896045 
1507	 0.309013089177782 
1508	 0.30947390506822 
1509	 0.309918244200831 
1510	 0.31035986706026 
1511	 0.310750864241536 
1512	 0.311108944653544 
1513	 0.311442600433189 
1514	 0.311732657349254 
1515	 0.312002007533141 
1516	 0.312224702167302 
1517	 0.312464184392848 
1518	 0.312704505513278 
1519	 0.312918569911707 
1520	 0.313137051251059 
1521	 0.313342249084865 
1522	 0.313475308950268 
1523	 0.313602287568002 
1524	 0.313723541533481 
1525	 0.313820224210983 
1526	 0.313930793922173 
1527	 0.314053136258405 
1528	 0.314135419649879 
1529	 0.314201021858337 
1530	 0.314263073683027 
1531	 0.314299860219127 
1532	 0.314343084528165 
1533	 0.31437018894515 
1534	 0.314448763043165 
1535	 0.314532842164505 
1536	 0.31464502862029 
1537	 0.314812900751294 
1538	 0.314948210764578 
1539	 0.315050964596627 
1540	 0.315237890778018 
1541	 0.315448051393978 
1542	 0.315702799653189 
1543	 0.316037315855629 
1544	 0.316336077932322 
1545	 0.316632192004735 
1546	 0.316964197189147 
1547	 0.317306416344223 
1548	 0.317674489650319 
1549	 0.31808758595142 
1550	 0.318483261356855 
1551	 0.318903047107014 
1552	 0.319279360529718 
1553	 0.319643776329695 
1554	 0.319991007013332 
1555	 0.320295568174957 
1556	 0.320625828762663 
1557	 0.320946682476927 
1558	 0.321295428999152 
1559	 0.321674032568385 
1560	 0.322026072346448 
1561	 0.322382168091879 
1562	 0.322735562583651 
1563	 0.323074249204233 
1564	 0.323412469153017 
1565	 0.323759795071762 
1566	 0.324096862912395 
1567	 0.32442201530396 
1568	 0.324742174204501 
1569	 0.325071663838844 
1570	 0.325372823880482 
1571	 0.325648144050052 
1572	 0.3259260280091 
1573	 0.326193480809867 
1574	 0.326452242407831 
1575	 0.326689585067075 
1576	 0.326953343922378 
1577	 0.327225386684119 
1578	 0.327490208816646 
1579	 0.327782318123742 
1580	 0.328042771883185 
1581	 0.328270077597143 
1582	 0.328511283315862 
1583	 0.328739836158283 
1584	 0.328988091127598 
1585	 0.329243920744913 
1586	 0.329509573136173 
1587	 0.329805797338701 
1588	 0.330072007451065 
1589	 0.330338299671504 
1590	 0.330587691126181 
1591	 0.330792709602887 
1592	 0.331034786521898 
1593	 0.331298719389292 
1594	 0.331543725993221 
1595	 0.331801874822467 
1596	 0.332046455017832 
1597	 0.332238013217005 
1598	 0.332487910278071 
1599	 0.332804310376593 
1600	 0.333059505209434 
1601	 0.333320713344657 
1602	 0.333561127154806 
1603	 0.333718864199295 
1604	 0.333932228365041 
1605	 0.334184462585185 
1606	 0.3344203243381 
1607	 0.334681203430136 
1608	 0.334915660919925 
1609	 0.335141334748309 
1610	 0.335342655066383 
1611	 0.335509130372839 
1612	 0.335686881144375 
1613	 0.335862574875632 
1614	 0.336016190185111 
1615	 0.336151009208046 
1616	 0.336302284152413 
1617	 0.336444451768475 
1618	 0.336584962080464 
1619	 0.336737942856284 
1620	 0.336894990866929 
1621	 0.337066050450539 
1622	 0.337195474024973 
1623	 0.33731572769381 
1624	 0.337424791391082 
1625	 0.337469175740728 
1626	 0.337553184360767 
1627	 0.337676876184718 
1628	 0.337769935696179 
1629	 0.337867531786592 
1630	 0.337949759121153 
1631	 0.33800613597508 
1632	 0.338061951165326 
1633	 0.338077173766769 
1634	 0.338145319062334 
1635	 0.338258253041229 
1636	 0.3383403398731 
1637	 0.338448325096715 
1638	 0.338540951288763 
1639	 0.338606844487608 
1640	 0.338657784621063 
1641	 0.338696956093183 
1642	 0.338747762646572 
1643	 0.338785961513436 
1644	 0.338812488525249 
1645	 0.33887664156977 
1646	 0.33888990975247 
1647	 0.338829344602946 
1648	 0.338812015038698 
1649	 0.338809563284297 
1650	 0.338777466618567 
1651	 0.338754921157525 
1652	 0.338716821106081 
1653	 0.338653395335474 
1654	 0.338569933969528 
1655	 0.338493047362972 
1656	 0.338373950306264 
1657	 0.338210181475497 
1658	 0.33804069760739 
1659	 0.337856707589817 
1660	 0.33763983405235 
1661	 0.33739853500121 
1662	 0.337139912328389 
1663	 0.336847934813322 
1664	 0.336537554642002 
1665	 0.336238476526667 
1666	 0.335855155793173 
1667	 0.335413031062593 
1668	 0.334959695225446 
1669	 0.334490628360455 
1670	 0.333931024665889 
1671	 0.333315621460766 
1672	 0.332656391992346 
1673	 0.33191020077294 
1674	 0.331127928412228 
1675	 0.330306829738711 
1676	 0.329477816584037 
1677	 0.328628500189675 
1678	 0.327697102098045 
1679	 0.32672160125745 
1680	 0.325702887685825 
1681	 0.324586065824123 
1682	 0.323472244425501 
1683	 0.322386169557842 
1684	 0.321225040037496 
1685	 0.320007750777127 
1686	 0.318730926179407 
1687	 0.317342988933111 
1688	 0.316009381466014 
1689	 0.314698312793126 
1690	 0.313290046342952 
1691	 0.311875122270636 
1692	 0.310420603335829 
1693	 0.308844115597052 
1694	 0.307330205767789 
1695	 0.305874148577758 
1696	 0.304293574846471 
1697	 0.302660602126705 
1698	 0.30098781770269 
1699	 0.299216097262245 
1700	 0.297529203933428 
1701	 0.295853729614699 
1702	 0.294195088475487 
1703	 0.292534551579967 
1704	 0.29091623548344 
1705	 0.289267690895937 
1706	 0.287711823193973 
1707	 0.286397041302655 
1708	 0.285162658566165 
1709	 0.283968156663288 
1710	 0.282877549550974 
1711	 0.281750959345411 
1712	 0.280659781085111 
1713	 0.279676823801273 
1714	 0.278729039432027 
1715	 0.277870991165121 
1716	 0.277055278724831 
1717	 0.276235933305634 
1718	 0.275433723483642 
1719	 0.274613787964826 
1720	 0.273843894599498 
1721	 0.273136605163905 
1722	 0.272488191899007 
1723	 0.271945680437376 
1724	 0.271472048786816 
1725	 0.271082921007803 
1726	 0.270753121656203 
1727	 0.270523403690224 
1728	 0.270443117935569 
1729	 0.270532650325765 
1730	 0.270842982215329 
1731	 0.27126808491356 
1732	 0.271789350048758 
1733	 0.272369583507678 
1734	 0.273002614536116 
1735	 0.273675055357041 
1736	 0.274368092327133 
1737	 0.275051061785024 
1738	 0.275603464483776 
1739	 0.276059707288539 
1740	 0.276449756087896 
1741	 0.276673728367166 
1742	 0.276755710198896 
1743	 0.276786518164288 
1744	 0.276626867023485 
1745	 0.276510217892861 
1746	 0.276345911600864 
1747	 0.276224509764039 
1748	 0.276119985780507 
1749	 0.276013251091497 
1750	 0.275894011420047 
1751	 0.275841421481871 
1752	 0.275780568055559 
1753	 0.275798169669158 
1754	 0.275892185514239 
1755	 0.276047402928552 
1756	 0.276216909691141 
1757	 0.276524424052974 
1758	 0.276976850229627 
1759	 0.277451542444353 
1760	 0.278032248715065 
1761	 0.278709845892873 
1762	 0.279404674144249 
1763	 0.28027667959626 
1764	 0.281210459214952 
1765	 0.282200324719817 
1766	 0.28330033184836 
1767	 0.284285423619121 
1768	 0.285314009628119 
1769	 0.286397898760224 
1770	 0.287385959444199 
1771	 0.288494375258116 
1772	 0.289619760058108 
1773	 0.29058010120693 
1774	 0.291514125788563 
1775	 0.292383264179678 
1776	 0.293127028238422 
1777	 0.293895069473997 
1778	 0.294580172668356 
1779	 0.295107085505491 
1780	 0.295660671149232 
1781	 0.296152744880738 
1782	 0.296637750834593 
1783	 0.297208953156163 
1784	 0.297735385818131 
1785	 0.298228967766379 
1786	 0.298673878069642 
1787	 0.299067525852607 
1788	 0.29944019474987 
1789	 0.299775963330331 
1790	 0.300140488217796 
1791	 0.300490030918549 
1792	 0.300835805841745 
1793	 0.301170211085248 
1794	 0.301486882200994 
1795	 0.301798087699976 
1796	 0.30206037667126 
1797	 0.302384300182258 
1798	 0.302648736462897 
1799	 0.302888522048589 
1800	 0.303212168059814 
1801	 0.309986365609317 
1802	 0.3102491259925 
1803	 0.310524556798017 
1804	 0.310838773892892 
1805	 0.311141870015582 
1806	 0.311402779553814 
1807	 0.311659123062398 
1808	 0.311881083958912 
1809	 0.311996790506691 
1810	 0.312235326667159 
1811	 0.3125154969029 
1812	 0.312796177989615 
1813	 0.313137282887117 
1814	 0.313502519576716 
1815	 0.31376811695053 
1816	 0.314052504491268 
1817	 0.314344763309276 
1818	 0.314621418342526 
1819	 0.314915733663752 
1820	 0.315235449364162 
1821	 0.315535842505252 
1822	 0.315824819779441 
1823	 0.31613282299611 
1824	 0.316422328933345 
1825	 0.316738640544632 
1826	 0.317013227694906 
1827	 0.317267960554741 
1828	 0.317527726151196 
1829	 0.317773087323346 
1830	 0.317994611426848 
1831	 0.318201200222946 
1832	 0.318424260138698 
1833	 0.318602398156845 
1834	 0.31882740760358 
1835	 0.319121948058888 
1836	 0.319386103231222 
1837	 0.319625230055468 
1838	 0.319854608709966 
1839	 0.320092650401495 
1840	 0.320319822548973 
1841	 0.320532755336556 
1842	 0.320759033357143 
1843	 0.320960583544142 
1844	 0.321128545324659 
1845	 0.321283218016944 
1846	 0.321423000256726 
1847	 0.321509178819159 
1848	 0.321573209454101 
1849	 0.32157803620988 
1850	 0.321618027228544 
1851	 0.321649567911704 
1852	 0.321686139211197 
1853	 0.321715326234168 
1854	 0.32166228800621 
1855	 0.321551536810301 
1856	 0.321418962909786 
1857	 0.32124113997407 
1858	 0.321010784630256 
1859	 0.320765715824276 
1860	 0.320494256785512 
1861	 0.320169794365116 
1862	 0.31980240057323 
1863	 0.319454292569213 
1864	 0.319005097651714 
1865	 0.318474599895893 
1866	 0.31791951316889 
1867	 0.317281228719751 
1868	 0.316627195830094 
1869	 0.315902765083234 
1870	 0.315149953764593 
1871	 0.314387000122516 
1872	 0.31354568388358 
1873	 0.312642440671715 
1874	 0.311751563837209 
1875	 0.31073112652484 
1876	 0.309573686686331 
1877	 0.308405597420171 
1878	 0.307096256580096 
1879	 0.305683382142817 
1880	 0.304304320274418 
1881	 0.302834104359385 
1882	 0.301266205623806 
1883	 0.299656896355498 
1884	 0.297997598903309 
1885	 0.296164567090321 
1886	 0.294301672994027 
1887	 0.292283493259805 
1888	 0.290166147416725 
1889	 0.288146776281996 
1890	 0.285939346180948 
1891	 0.283731921555776 
1892	 0.281516707228434 
1893	 0.279167234334169 
1894	 0.276646082804859 
1895	 0.274233144532115 
1896	 0.271716013252046 
1897	 0.269173192024593 
1898	 0.266839540313943 
1899	 0.26439845952629 
1900	 0.262041142195121 
1901	 0.259705268638067 
1902	 0.25720915687465 
1903	 0.254863505336969 
1904	 0.252538931442847 
1905	 0.250202845726036 
1906	 0.247943873514177 
1907	 0.245889254882941 
1908	 0.243795092516454 
1909	 0.241836339470859 
1910	 0.239937445407056 
1911	 0.238005088251787 
1912	 0.23623874195617 
1913	 0.234409117648777 
1914	 0.23261026352606 
1915	 0.230964829996546 
1916	 0.22945542933668 
1917	 0.227912840206489 
1918	 0.226505787670117 
1919	 0.225173416414153 
1920	 0.223739711485726 
1921	 0.22237359572236 
1922	 0.221000087124359 
1923	 0.2196588456199 
1924	 0.218532714812503 
1925	 0.217385655784918 
1926	 0.216220617144952 
1927	 0.215090799460374 
1928	 0.213993508681888 
1929	 0.212847896025 
1930	 0.211793710952417 
1931	 0.210828846813837 
1932	 0.209870770388843 
1933	 0.209045465884133 
1934	 0.208303252923106 
1935	 0.2076818484003 
1936	 0.207187535783429 
1937	 0.206742207234544 
1938	 0.206364891361268 
1939	 0.206081452338594 
1940	 0.205866250254967 
1941	 0.205764446595755 
1942	 0.205732080918679 
1943	 0.205760308348437 
1944	 0.205870365774152 
1945	 0.206051011694796 
1946	 0.206323792930684 
1947	 0.206624309824694 
1948	 0.207002179670713 
1949	 0.207489994439275 
1950	 0.208061105420982 
1951	 0.208746879581176 
1952	 0.209487561503398 
1953	 0.210305823188637 
1954	 0.211199544112246 
1955	 0.212163993281341 
1956	 0.213176790381574 
1957	 0.214215098950296 
1958	 0.215237442409694 
1959	 0.216147581967979 
1960	 0.21703370683271 
1961	 0.217909720610907 
1962	 0.218760272286658 
1963	 0.219529863302776 
1964	 0.220304904827949 
1965	 0.220967100267415 
1966	 0.221508281369472 
1967	 0.222039072754819 
1968	 0.222545424689832 
1969	 0.223014624209375 
1970	 0.22349707382354 
1971	 0.223998448579079 
1972	 0.224476028085656 
1973	 0.224956573068947 
1974	 0.225480149046703 
1975	 0.226024114411355 
1976	 0.226582176417264 
1977	 0.227178343998149 
1978	 0.227790713726082 
1979	 0.22841592989356 
1980	 0.229040723971321 
1981	 0.229746123042519 
1982	 0.230405037782984 
1983	 0.231101562596426 
1984	 0.231833488842116 
1985	 0.232497752269022 
1986	 0.233232939489128 
1987	 0.233999948350612 
1988	 0.234725030515077 
1989	 0.235615125002856 
1990	 0.23658224659622 
1991	 0.237634306331274 
1992	 0.238805905934557 
1993	 0.240075340700827 
1994	 0.241312476138625 
1995	 0.242650038318402 
1996	 0.243937373842662 
1997	 0.245222423187389 
1998	 0.2465480442271 
1999	 0.247899523291615 
2000	 0.249215822550939 
2001	 0.250621834805839 
2002	 0.251861186942344 
2003	 0.253026674271301 
2004	 0.254150654885776 
2005	 0.255122871060999 
2006	 0.256163297856531 
2007	 0.257237801442605 
2008	 0.2582310198105 
2009	 0.259259474680116 
2010	 0.260193347458301 
2011	 0.260921944011165 
2012	 0.261612703712024 
2013	 0.262247721849755 
2014	 0.262730619417763 
2015	 0.263292396663768 
2016	 0.263893498982534 
2017	 0.264384995896163 
2018	 0.264879451012296 
2019	 0.265267121913084 
2020	 0.265502208655804 
2021	 0.26576316662105 
2022	 0.266082632256433 
2023	 0.266327522345174 
2024	 0.26662310843498 
2025	 0.266900487486279 
2026	 0.267055298868395 
2027	 0.26708461737594 
2028	 0.267141822938591 
2029	 0.267134674513485 
2030	 0.267142038092075 
2031	 0.267140940097278 
2032	 0.267123547679253 
2033	 0.267055878118471 
2034	 0.267024631315416 
2035	 0.266979757741282 
2036	 0.267014774710422 
2037	 0.267009289414533 
2038	 0.266960009946246 
2039	 0.266922996707097 
2040	 0.266847871373721 
2041	 0.266803069182135 
2042	 0.266763452612401 
2043	 0.266755240659206 
2044	 0.266752575918249 
2045	 0.266772391510912 
2046	 0.266879665737619 
2047	 0.266905302662005 
2048	 0.266882663701512 
2049	 0.26688126927212 
2050	 0.266867428327152 
2051	 0.266804280218923 
2052	 0.266802995869333 
2053	 0.266850423946461 
2054	 0.26688166249045 
2055	 0.266944527366549 
2056	 0.266947703160667 
2057	 0.266934084905225 
2058	 0.26691512298611 
2059	 0.26682834075791 
2060	 0.266805132605783 
2061	 0.266831463840794 
2062	 0.266819916191987 
2063	 0.26679964334404 
2064	 0.266798509580771 
2065	 0.266774760779936 
2066	 0.266786132954538 
2067	 0.266817899957965 
2068	 0.266880098531895 
2069	 0.266909851118734 
2070	 0.266927161098318 
2071	 0.266949647976128 
2072	 0.266976010021141 
2073	 0.266976895272106 
2074	 0.26700219893898 
2075	 0.266965900941461 
2076	 0.266856915419057 
2077	 0.266792852096288 
2078	 0.266703166662243 
2079	 0.266625266831414 
2080	 0.266586354893564 
2081	 0.266518490203291 
2082	 0.26641119085953 
2083	 0.266352491746504 
2084	 0.26628544915629 
2085	 0.266211995010472 
2086	 0.266108020354555 
2087	 0.265984484293288 
2088	 0.265872662064035 
2089	 0.265717240985726 
2090	 0.265619300972346 
2091	 0.265597577757851 
2092	 0.265478683079904 
2093	 0.265326954769932 
2094	 0.265190016348287 
2095	 0.265017524188577 
2096	 0.264838500753174 
2097	 0.26468575429223 
2098	 0.264493392963704 
2099	 0.264307020011997 
2100	 0.264077985490126 
2101	 0.263842750291022 
2102	 0.263622225500692 
2103	 0.263364226454197 
2104	 0.263047157399315 
2105	 0.262766899262637 
2106	 0.262488684059388 
2107	 0.262215033118611 
2108	 0.261983852316804 
2109	 0.261673522610176 
2110	 0.261337378108126 
2111	 0.260980854698131 
2112	 0.260531061083283 
2113	 0.260135470583716 
2114	 0.259780067713985 
2115	 0.25939211690609 
2116	 0.259030924594156 
2117	 0.258589852961133 
2118	 0.258192011607322 
2119	 0.257804770964617 
2120	 0.257349272857205 
2121	 0.256855552613082 
2122	 0.256422124418768 
2123	 0.255943905429656 
2124	 0.255505003935837 
2125	 0.255169773137385 
2126	 0.254745715691491 
2127	 0.254235382365892 
2128	 0.253803359389447 
2129	 0.253370458859657 
2130	 0.252974824150375 
2131	 0.252655675139936 
2132	 0.252299586499389 
2133	 0.251942286241264 
2134	 0.251604043629766 
2135	 0.251172692808656 
2136	 0.250750202901918 
2137	 0.250405240528601 
2138	 0.250077947338769 
2139	 0.249743338251185 
2140	 0.249484547837981 
2141	 0.249180282732088 
2142	 0.248822098962475 
2143	 0.248510734373154 
2144	 0.248228009483867 
2145	 0.247955157868679 
2146	 0.247684164898747 
2147	 0.247425000713154 
2148	 0.247191041597177 
2149	 0.246958370459827 
2150	 0.246723816758704 
2151	 0.246508891186843 
2152	 0.246301066571956 
2153	 0.246130209499793 
2154	 0.245954808108894 
2155	 0.245789187649687 
2156	 0.245613334157059 
2157	 0.245441962433314 
2158	 0.245270140062452 
2159	 0.245079589787214 
2160	 0.244916748478504 
2161	 0.244757006024503 
2162	 0.24462559040724 
2163	 0.244541084560137 
2164	 0.244423186829636 
2165	 0.244343450108427 
2166	 0.244191226276855 
2167	 0.243959974332407 
2168	 0.243769619145293 
2169	 0.243559350498984 
2170	 0.243364762905284 
2171	 0.243170445561906 
2172	 0.243012091456651 
2173	 0.242879555672909 
2174	 0.242744528555272 
2175	 0.242590433241575 
2176	 0.242490683793797 
2177	 0.242396284804243 
2178	 0.242297777983176 
2179	 0.242193611051599 
2180	 0.242125765353874 
2181	 0.242043597199693 
2182	 0.241920475512009 
2183	 0.241841871439366 
2184	 0.241802760942586 
2185	 0.241756631468017 
2186	 0.241715841661079 
2187	 0.241672088797326 
2188	 0.241661763012937 
2189	 0.241599014754607 
2190	 0.241506824391086 
2191	 0.24140789507405 
2192	 0.241250305292715 
2193	 0.241146705043888 
2194	 0.241091682328283 
2195	 0.240995262769411 
2196	 0.24091651360824 
2197	 0.240803708244895 
2198	 0.240658086809548 
2199	 0.240467291126964 
2200	 0.240321880541961 
2201	 0.240204470882927 
2202	 0.24004050886073 
2203	 0.239869812752302 
2204	 0.239681242365638 
2205	 0.239437573218918 
2206	 0.239243764523008 
2207	 0.239085779837352 
2208	 0.238897595025291 
2209	 0.238693904775017 
2210	 0.238523055507075 
2211	 0.238380191055785 
2212	 0.238171915238317 
2213	 0.237931393057766 
2214	 0.237738666226377 
2215	 0.237490652101285 
2216	 0.237308320632931 
2217	 0.23721682212209 
2218	 0.23711609742266 
2219	 0.23701626703591 
2220	 0.236932042323135 
2221	 0.236906792473629 
2222	 0.236833524077866 
2223	 0.236721441338902 
2224	 0.23662085802236 
2225	 0.236555710481417 
2226	 0.236555924629274 
2227	 0.236496511868152 
2228	 0.23653612721874 
2229	 0.236364770507871 
2230	 0.236055712590097 
2231	 0.23573847164911 
2232	 0.235331136522455 
2233	 0.234904141730364 
2234	 0.234491108568469 
2235	 0.233927712080166 
2236	 0.233264919448905 
2237	 0.232554049950722 
2238	 0.231750578044483 
2239	 0.230875816816337 
2240	 0.22997329343955 
2241	 0.228911008739868 
2242	 0.227662454992979 
2243	 0.226439357687827 
2244	 0.225146152831271 
2245	 0.223802526866686 
2246	 0.222449535808151 
2247	 0.220997770479351 
2248	 0.219447011256583 
2249	 0.217840791352352 
2250	 0.216150017752568 
2251	 0.214437600337278 
2252	 0.212614805645397 
2253	 0.210821710910736 
2254	 0.208966526690508 
2255	 0.207089784093322 
2256	 0.205344507206072 
2257	 0.203560717167244 
2258	 0.20187979170897 
2259	 0.200367325282379 
2260	 0.198662732283783 
2261	 0.196905879880696 
2262	 0.195190988195959 
2263	 0.193297981029249 
2264	 0.191700829967174 
2265	 0.190296826145738 
2266	 0.188860415418872 
2267	 0.187587959365707 
2268	 0.186212166705719 
2269	 0.184809707571286 
2270	 0.18342486209398 
2271	 0.181964763982175 
2272	 0.180651423558216 
2273	 0.179436675752843 
2274	 0.178175328425375 
2275	 0.177041550781897 
2276	 0.175800876317085 
2277	 0.1744352622704 
2278	 0.173147206203567 
2279	 0.171887513120673 
2280	 0.170578454289961 
2281	 0.169284114473633 
2282	 0.167952807890968 
2283	 0.166601117467159 
2284	 0.165199489934645 
2285	 0.163625183351155 
2286	 0.162098874571083 
2287	 0.160425549005472 
2288	 0.158608141897817 
2289	 0.156942250779181 
2290	 0.155224814650933 
2291	 0.153533037921512 
2292	 0.151967750282434 
2293	 0.150290841603056 
2294	 0.14872654155446 
2295	 0.147307014513389 
2296	 0.145772454320365 
2297	 0.144443560538802 
2298	 0.143250130925128 
2299	 0.142195078305637 
2300	 0.141205052195227 
2301	 0.140520288833344 
2302	 0.140018264361628 
2303	 0.139758189707611 
2304	 0.139809917713505 
2305	 0.139898647895329 
2306	 0.140213918169711 
2307	 0.140622042777565 
2308	 0.141075610820038 
2309	 0.141794466526955 
2310	 0.142735180459853 
2311	 0.143776520878483 
2312	 0.145082565479671 
2313	 0.146396027574031 
2314	 0.147864658394217 
2315	 0.149261311321399 
2316	 0.150737741893654 
2317	 0.152109709857496 
2318	 0.153498265222048 
2319	 0.154702046219489 
2320	 0.155856386394452 
2321	 0.15679001721783 
2322	 0.15757385124823 
2323	 0.158139582929464 
2324	 0.158467074465537 
2325	 0.158708747350374 
2326	 0.158662611060802 
2327	 0.158633203352806 
2328	 0.158576296138868 
2329	 0.158378571989016 
2330	 0.158063755088526 
2331	 0.157709526986443 
2332	 0.157277364808883 
2333	 0.156644893379948 
2334	 0.155756164595678 
2335	 0.154865350389099 
2336	 0.15383509679941 
2337	 0.152725543964917 
2338	 0.151734792320208 
2339	 0.150698363811336 
2340	 0.149613204794598 
2341	 0.14845121785112 
2342	 0.14738317910425 
2343	 0.146510189501831 
2344	 0.145689077355554 
2345	 0.145137160159723 
2346	 0.144778140463215 
2347	 0.144470999596971 
2348	 0.144534895778395 
2349	 0.144821360741902 
2350	 0.145234382030843 
2351	 0.145919876501799 
2352	 0.146577843317316 
2353	 0.147395364231172 
2354	 0.148327251741459 
2355	 0.149328757204215 
2356	 0.150286376992743 
2357	 0.151018082614511 
2358	 0.151715837045002 
2359	 0.152134329858183 
2360	 0.152460054574726 
2361	 0.152783093484825 
2362	 0.152892914001578 
2363	 0.152932498529919 
2364	 0.152873557615857 
2365	 0.152658337278719 
2366	 0.152545954878289 
2367	 0.152413611928821 
2368	 0.152332010333397 
2369	 0.152330565901243 
2370	 0.152022874998482 
2371	 0.151740487695774 
2372	 0.151470708028428 
2373	 0.151126075484314 
2374	 0.151139053665787 
2375	 0.151203342412206 
2376	 0.15115886585125 
2377	 0.151185950595408 
2378	 0.15087000625569 
2379	 0.1504214702719 
2380	 0.15023931044407 
2381	 0.15006663790356 
2382	 0.149966799671047 
2383	 0.15015813480616 
2384	 0.150131459008223 
2385	 0.149901274186383 
2386	 0.149880648827996 
2387	 0.149980096133603 
2388	 0.150013375808243 
2389	 0.150131780358096 
2390	 0.150238100211228 
2391	 0.150319783275453 
2392	 0.150276675581752 
2393	 0.15017355164101 
2394	 0.150064395211833 
2395	 0.149886495616348 
2396	 0.14962278218671 
2397	 0.149237923347259 
2398	 0.149184732600052 
2399	 0.149248653297363 
2400	 0.1491309507171 
2401	 0.149176432404149 
2402	 0.149043410955582 
2403	 0.148792216658582 
2404	 0.148645717215176 
2405	 0.148698550967299 
2406	 0.148500117535715 
2407	 0.148192215689801 
2408	 0.147994578810708 
2409	 0.147799225991807 
2410	 0.147871835523492 
2411	 0.147661384019093 
2412	 0.147101113674684 
2413	 0.146982876783206 
2414	 0.146958420713519 
2415	 0.146747830105522 
2416	 0.146913958547936 
2417	 0.146943735603439 
2418	 0.146593943487788 
2419	 0.146635094327835 
2420	 0.146515726511689 
2421	 0.14614682326781 
2422	 0.146074522825416 
2423	 0.145920265045743 
2424	 0.145713652317018 
2425	 0.145681729762987 
2426	 0.14550499414493 
2427	 0.145055133487306 
2428	 0.1446532148617 
2429	 0.144446802497361 
2430	 0.144520833872265 
2431	 0.144725556460834 
2432	 0.144725960708307 
2433	 0.144644521883222 
2434	 0.144392276512461 
2435	 0.143821801084988 
2436	 0.143422987290362 
2437	 0.143304837820031 
2438	 0.142930882133175 
2439	 0.142550952167375 
2440	 0.142497491370575 
2441	 0.142325091918688 
2442	 0.142058139439485 
2443	 0.141846302860084 
2444	 0.141521983195216 
2445	 0.141085646825049 
2446	 0.140673096224722 
2447	 0.1406087368156 
2448	 0.140397127367034 
2449	 0.140158878365317 
2450	 0.140364545254763 
2451	 0.140219505075658 
2452	 0.139966475185235 
2453	 0.139686005575809 
2454	 0.139348862890003 
2455	 0.139146912123286 
2456	 0.13887050170922 
2457	 0.138308902765942 
2458	 0.137682791526606 
2459	 0.137158326284695 
2460	 0.136460285639601 
2461	 0.136637622868603 
2462	 0.13676350604664 
2463	 0.136461545614424 
2464	 0.136727170242636 
2465	 0.136497038509022 
2466	 0.136010763978703 
2467	 0.13554335936942 
2468	 0.134732434506106 
2469	 0.134184271192528 
2470	 0.133742164319952 
2471	 0.133159494471323 
2472	 0.132726088968815 
2473	 0.132154689648189 
2474	 0.132056524173037 
2475	 0.132405393627264 
2476	 0.132613232392251 
2477	 0.132948972846698 
2478	 0.132786145416555 
2479	 0.132379191551865 
2480	 0.131655335112721 
2481	 0.131890359243601 
2482	 0.133033708546732 
2483	 0.133557090593813 
2484	 0.13394007024583 
2485	 0.133389473856718 
2486	 0.132967194143175 
2487	 0.132507921673333 
2488	 0.131930962872817 
2489	 0.131709132630645 
2490	 0.131662985605544 
2491	 0.132103333291053 
2492	 0.133351423660776 
2493	 0.134154387890079 
2494	 0.134116887980718 
2495	 0.134130847237707 
2496	 0.133763640534543 
2497	 0.133433735079764 
2498	 0.133319861437969 
2499	 0.132793464877964 
2500	 0.13261556771126 
