Wavelength	Tablay400014.asd
350	 0.329622890388949 
351	 0.335732603195201 
352	 0.331785935616528 
353	 0.315323353427326 
354	 0.330215119586122 
355	 0.303618355619101 
356	 0.279298214509924 
357	 0.294910376569914 
358	 0.25602203426591 
359	 0.248297381097812 
360	 0.274300787892821 
361	 0.287380197755853 
362	 0.250705819115122 
363	 0.228606114404677 
364	 0.2415476134751 
365	 0.236419020245563 
366	 0.225799853412493 
367	 0.219984093798167 
368	 0.224465044289244 
369	 0.232858384915068 
370	 0.221206650250763 
371	 0.208222857309647 
372	 0.228679976747926 
373	 0.223320573238656 
374	 0.202824212108812 
375	 0.186355978029024 
376	 0.19487606170786 
377	 0.181692613616877 
378	 0.173195674749886 
379	 0.191019230003836 
380	 0.171392879411712 
381	 0.167259802908367 
382	 0.177898860710019 
383	 0.172429962122693 
384	 0.175335039891298 
385	 0.169295228736378 
386	 0.153418895396741 
387	 0.155810684702407 
388	 0.158156656714898 
389	 0.153614477122735 
390	 0.144894880592871 
391	 0.158979578631636 
392	 0.156088067302851 
393	 0.137558559985961 
394	 0.130520075445322 
395	 0.138337276753534 
396	 0.146337678877596 
397	 0.143752017211851 
398	 0.128062479050729 
399	 0.127552727345541 
400	 0.130873695083664 
401	 0.123786590931861 
402	 0.130243574287876 
403	 0.126858117406404 
404	 0.11628310195656 
405	 0.119093923796395 
406	 0.117977220661662 
407	 0.116043807629223 
408	 0.115708007209333 
409	 0.112008587050425 
410	 0.113630461402717 
411	 0.117606232443041 
412	 0.117226995791583 
413	 0.106496193543787 
414	 0.102056470832196 
415	 0.105785746250489 
416	 0.105950074163881 
417	 0.104529176912008 
418	 0.10408116134286 
419	 0.10533771382852 
420	 0.104576767050557 
421	 0.10267126215935 
422	 0.101436158058405 
423	 0.102759749501299 
424	 0.106576876329521 
425	 0.108513578448738 
426	 0.106843738793121 
427	 0.102994930261457 
428	 0.102269509618999 
429	 0.103342110535434 
430	 0.104134489378101 
431	 0.105641616161965 
432	 0.104184544247495 
433	 0.102860490700037 
434	 0.106979869414026 
435	 0.107034377385694 
436	 0.106535429348429 
437	 0.107757620789326 
438	 0.10914114200667 
439	 0.107765781262164 
440	 0.107174048389928 
441	 0.110772568866343 
442	 0.114113888529779 
443	 0.115365696313157 
444	 0.115159089980183 
445	 0.1158855039921 
446	 0.117144155523854 
447	 0.119207004192421 
448	 0.121723885315594 
449	 0.122987291973313 
450	 0.123329123398743 
451	 0.124091637182561 
452	 0.126503275800424 
453	 0.128764607863706 
454	 0.130118016741442 
455	 0.131011415808147 
456	 0.133028264207214 
457	 0.134422632622019 
458	 0.135774713221687 
459	 0.13780056949294 
460	 0.14013747233941 
461	 0.143290017194865 
462	 0.146073837210212 
463	 0.146961454802139 
464	 0.149118913294864 
465	 0.151460811917951 
466	 0.153450038207618 
467	 0.15604466220347 
468	 0.158780116779233 
469	 0.161427313526538 
470	 0.163791102438848 
471	 0.165390101531583 
472	 0.168472983897115 
473	 0.172091402047722 
474	 0.173183355548833 
475	 0.175606115680478 
476	 0.178814805694895 
477	 0.181837270996002 
478	 0.18428272446847 
479	 0.186597316815875 
480	 0.189658593115849 
481	 0.193891672458033 
482	 0.196155464428788 
483	 0.1980938625863 
484	 0.200595484693974 
485	 0.203323571746368 
486	 0.206425923209393 
487	 0.209572968545869 
488	 0.212468142171075 
489	 0.215226688739247 
490	 0.217849864946824 
491	 0.220544519674091 
492	 0.22357870200101 
493	 0.226708603448133 
494	 0.229753148634803 
495	 0.232529310752348 
496	 0.234756308265203 
497	 0.237847413600822 
498	 0.241208093849992 
499	 0.243900980178052 
500	 0.24633974344955 
501	 0.249132187200508 
502	 0.252042171619586 
503	 0.25421584725167 
504	 0.257215763417239 
505	 0.260229081109893 
506	 0.262655873595612 
507	 0.265374861138641 
508	 0.268230892368974 
509	 0.271047245737256 
510	 0.273629138738982 
511	 0.275840473162942 
512	 0.278292915905286 
513	 0.281043254024331 
514	 0.283390777822024 
515	 0.285935058077625 
516	 0.288517373239467 
517	 0.290879623881403 
518	 0.293046825598638 
519	 0.295349915443906 
520	 0.2980077197833 
521	 0.301028686941896 
522	 0.302939497078904 
523	 0.304923197171316 
524	 0.307592214298303 
525	 0.309739029307504 
526	 0.311887909330931 
527	 0.314151765811579 
528	 0.316493041955457 
529	 0.318827536481183 
530	 0.320917758911978 
531	 0.322890358846106 
532	 0.325222301085367 
533	 0.327389107235354 
534	 0.32953394565307 
535	 0.331787754950972 
536	 0.333812221465869 
537	 0.336069578080283 
538	 0.338436576308742 
539	 0.34050429173272 
540	 0.342395657544939 
541	 0.344355908376708 
542	 0.346465656753342 
543	 0.348543036487388 
544	 0.350416592578388 
545	 0.352296953648118 
546	 0.354395211650108 
547	 0.356361985810911 
548	 0.358246256555872 
549	 0.360141838089181 
550	 0.362151703386855 
551	 0.364033812517172 
552	 0.365834356564411 
553	 0.367661665572974 
554	 0.369654229045488 
555	 0.371459980375766 
556	 0.373215654006208 
557	 0.375193623888817 
558	 0.376771492660608 
559	 0.378335458319466 
560	 0.38006867446219 
561	 0.381743031154037 
562	 0.383311072249049 
563	 0.384801894576094 
564	 0.386245417494088 
565	 0.387546407434347 
566	 0.388872939995395 
567	 0.390252793735094 
568	 0.39161873426881 
569	 0.393089189580374 
570	 0.394701680462642 
571	 0.396405028773309 
572	 0.397977498190009 
573	 0.399667521619572 
574	 0.40136446115585 
575	 0.402890134314815 
576	 0.404504766821747 
577	 0.406086239613734 
578	 0.407658346816724 
579	 0.409425420513662 
580	 0.410945973960014 
581	 0.41242917148049 
582	 0.414093579330801 
583	 0.415726233203618 
584	 0.417101321003683 
585	 0.418361834970775 
586	 0.419828084325872 
587	 0.421239869966127 
588	 0.422409831423342 
589	 0.423431280697157 
590	 0.424833349052093 
591	 0.426081840415134 
592	 0.427266807220363 
593	 0.428565005139407 
594	 0.429669101200754 
595	 0.430636458809764 
596	 0.431577003089948 
597	 0.432615093636247 
598	 0.433524990756041 
599	 0.434261418724973 
600	 0.434898475502453 
601	 0.435709076301884 
602	 0.436464441641177 
603	 0.437056138397675 
604	 0.43748148875573 
605	 0.438058051747964 
606	 0.438675891293692 
607	 0.439259066684591 
608	 0.439820632958505 
609	 0.440290170663609 
610	 0.440688107993266 
611	 0.441068909722922 
612	 0.441495593470179 
613	 0.442028893299814 
614	 0.442557209844436 
615	 0.442885995401272 
616	 0.443164714197153 
617	 0.443544600620774 
618	 0.444010008686029 
619	 0.444250980701051 
620	 0.444535839755217 
621	 0.444884178171431 
622	 0.445229929084803 
623	 0.445512627835862 
624	 0.445805092493901 
625	 0.44611647773407 
626	 0.446389782503129 
627	 0.446553635887398 
628	 0.446751240043137 
629	 0.447068304330167 
630	 0.447356772878259 
631	 0.447609380561286 
632	 0.447805314632899 
633	 0.447938842101791 
634	 0.448093865053788 
635	 0.448292333439273 
636	 0.448527288798849 
637	 0.448764740632393 
638	 0.448928487539863 
639	 0.449100786387831 
640	 0.449336309921181 
641	 0.449466024164806 
642	 0.449568000151005 
643	 0.449709258284545 
644	 0.449928164882366 
645	 0.450066074728533 
646	 0.450242523671499 
647	 0.450475406261918 
648	 0.450564811890286 
649	 0.450558996633404 
650	 0.450592938113553 
651	 0.45077774231693 
652	 0.451011058332692 
653	 0.45115238472496 
654	 0.45120683289816 
655	 0.451299064332357 
656	 0.451479708451307 
657	 0.451637391607451 
658	 0.451691254908878 
659	 0.451662611905268 
660	 0.45175281667106 
661	 0.451890721615141 
662	 0.451938261842353 
663	 0.452034037923102 
664	 0.45210697115804 
665	 0.452144343859403 
666	 0.452201130788007 
667	 0.452244530544062 
668	 0.452289637924637 
669	 0.452355873818609 
670	 0.452461460512952 
671	 0.452501413214725 
672	 0.452498380831149 
673	 0.452523036291502 
674	 0.452505207496159 
675	 0.45258688978009 
676	 0.452746043105248 
677	 0.452752095479214 
678	 0.452730130402001 
679	 0.452733871550005 
680	 0.452790245391993 
681	 0.452918199479025 
682	 0.452864538799987 
683	 0.452759182905736 
684	 0.452881752843343 
685	 0.45283972767936 
686	 0.452877674930249 
687	 0.453028958674941 
688	 0.452944783736665 
689	 0.453003537886251 
690	 0.453040001649823 
691	 0.452895216123965 
692	 0.452929092026135 
693	 0.45301521321446 
694	 0.453040743185756 
695	 0.452937491355693 
696	 0.452932830918488 
697	 0.452977974541058 
698	 0.4529974744291 
699	 0.452926221074895 
700	 0.452995334601989 
701	 0.453063440169474 
702	 0.452970124993773 
703	 0.45290294204258 
704	 0.452898235016977 
705	 0.452943141597498 
706	 0.45298195316981 
707	 0.452900535048328 
708	 0.452824845395364 
709	 0.452831108787772 
710	 0.452863014274491 
711	 0.452845743625864 
712	 0.452820580203737 
713	 0.452835628968386 
714	 0.452810188782675 
715	 0.452754048362292 
716	 0.452699307235838 
717	 0.452686822147029 
718	 0.452687891033081 
719	 0.452680130148979 
720	 0.452650415042666 
721	 0.452592962259601 
722	 0.452660783741504 
723	 0.452728306578356 
724	 0.452658032439014 
725	 0.452624579364569 
726	 0.452575636248173 
727	 0.45256125670593 
728	 0.452671414572278 
729	 0.45261161545848 
730	 0.452540774143438 
731	 0.452555645358199 
732	 0.452549883150122 
733	 0.452588136511708 
734	 0.452632004421559 
735	 0.452631446794732 
736	 0.452602147644745 
737	 0.452578690160494 
738	 0.452583588699629 
739	 0.452619146715845 
740	 0.452603092223816 
741	 0.452548349235822 
742	 0.45251008310669 
743	 0.452587134367077 
744	 0.452530310494919 
745	 0.452503187500631 
746	 0.452643089154297 
747	 0.452611733552929 
748	 0.45258305640574 
749	 0.452617154732821 
750	 0.452688864868891 
751	 0.452676223942572 
752	 0.452674945886707 
753	 0.45274314060598 
754	 0.452858457952303 
755	 0.452859646982289 
756	 0.45288754950323 
757	 0.453047249622049 
758	 0.453134492335318 
759	 0.453192907009922 
760	 0.453239219147898 
761	 0.453276700644955 
762	 0.453267800314304 
763	 0.453357086323512 
764	 0.453509118441255 
765	 0.453505862167925 
766	 0.453682623331509 
767	 0.45385612259109 
768	 0.453882861391198 
769	 0.4539322549079 
770	 0.454048582432419 
771	 0.454194011543197 
772	 0.45430298980061 
773	 0.454377159057224 
774	 0.454446711967351 
775	 0.454531508100056 
776	 0.454639169149259 
777	 0.45476076738533 
778	 0.454910818614301 
779	 0.455077735452771 
780	 0.455202385342624 
781	 0.455309203230226 
782	 0.455421304647602 
783	 0.455540907546449 
784	 0.455587595867911 
785	 0.455701774270223 
786	 0.455857418238562 
787	 0.455950527876882 
788	 0.456092336031081 
789	 0.456187314030443 
790	 0.456239850896304 
791	 0.456385654258931 
792	 0.456520106196187 
793	 0.456629044887296 
794	 0.456721429903307 
795	 0.456813199077033 
796	 0.456908039797863 
797	 0.45704473273746 
798	 0.457231568326111 
799	 0.457282250090641 
800	 0.457329638240949 
801	 0.45745318855443 
802	 0.457660644714431 
803	 0.457813124119895 
804	 0.457940463040441 
805	 0.458054919374292 
806	 0.458106862449526 
807	 0.458159863355981 
808	 0.458260822477468 
809	 0.458423201416914 
810	 0.458598645827951 
811	 0.458656400389321 
812	 0.45868842846569 
813	 0.458839588076989 
814	 0.458915580621318 
815	 0.458970640697422 
816	 0.459056362638312 
817	 0.459193111280399 
818	 0.459215175452172 
819	 0.459257210312434 
820	 0.459375070971489 
821	 0.459421753591107 
822	 0.459470639105837 
823	 0.459544167359249 
824	 0.459634756506986 
825	 0.459687858735569 
826	 0.45969618577685 
827	 0.459704932261766 
828	 0.459766118381749 
829	 0.459814557232066 
830	 0.45988310792608 
831	 0.45995150529201 
832	 0.459953989881422 
833	 0.459895358273139 
834	 0.459844379998401 
835	 0.459846941956741 
836	 0.459897117576826 
837	 0.459933400919458 
838	 0.459967082198906 
839	 0.459987908210441 
840	 0.459847280227219 
841	 0.45986127092336 
842	 0.459965367091673 
843	 0.45997034574412 
844	 0.459929977295731 
845	 0.459925852744681 
846	 0.459951957326879 
847	 0.45994547825388 
848	 0.459982096282979 
849	 0.459958535997535 
850	 0.45986758440129 
851	 0.459840199487056 
852	 0.459832231868673 
853	 0.459824714420611 
854	 0.459831298417105 
855	 0.459934560424008 
856	 0.459934728198124 
857	 0.459895339753832 
858	 0.459905420899814 
859	 0.459807800211465 
860	 0.459773905167032 
861	 0.459798209399333 
862	 0.459782425368002 
863	 0.45969879014341 
864	 0.459601690672811 
865	 0.459536471637766 
866	 0.459523464831383 
867	 0.459499304214305 
868	 0.459436214775799 
869	 0.459364080238198 
870	 0.459374106773329 
871	 0.459280432155442 
872	 0.459165426521842 
873	 0.459114702484055 
874	 0.459086835741762 
875	 0.459054926415597 
876	 0.459012657807112 
877	 0.458942876939307 
878	 0.458745190350223 
879	 0.458659741151376 
880	 0.458650920589549 
881	 0.458565483663559 
882	 0.458434522653764 
883	 0.458369749483823 
884	 0.458336912194157 
885	 0.458211552321104 
886	 0.45814049518031 
887	 0.458083455187379 
888	 0.457986276865907 
889	 0.457816888839516 
890	 0.457738104446896 
891	 0.45771292319973 
892	 0.457654322395233 
893	 0.457462804474869 
894	 0.457476208044519 
895	 0.457441163455829 
896	 0.457184107646186 
897	 0.4571283272127 
898	 0.457123533626892 
899	 0.4571192395299 
900	 0.457080634190877 
901	 0.456912151162116 
902	 0.45691116724224 
903	 0.457006141232281 
904	 0.456974868965866 
905	 0.456914107496668 
906	 0.456809298964416 
907	 0.456767220409933 
908	 0.456920021376575 
909	 0.456945829197371 
910	 0.456817173048775 
911	 0.456647718054768 
912	 0.456629955557117 
913	 0.456590496119494 
914	 0.456567265012726 
915	 0.456565585178492 
916	 0.456511252306473 
917	 0.456467666082175 
918	 0.45644745384909 
919	 0.456432951685618 
920	 0.45637168953293 
921	 0.456415301905094 
922	 0.456448781084315 
923	 0.456373319743229 
924	 0.456299496062309 
925	 0.456401237507236 
926	 0.456462472529976 
927	 0.456288736034284 
928	 0.456202838341941 
929	 0.456218125290836 
930	 0.456302219119923 
931	 0.456386958979492 
932	 0.456398948263773 
933	 0.456313668899582 
934	 0.456261497351042 
935	 0.456372114967818 
936	 0.456304915434276 
937	 0.45638412647954 
938	 0.45648702767789 
939	 0.456286750690846 
940	 0.456446036435925 
941	 0.456493181086267 
942	 0.456375360103829 
943	 0.456448956057203 
944	 0.456597925346267 
945	 0.456640994055305 
946	 0.456570730019006 
947	 0.456556605079734 
948	 0.45649418281292 
949	 0.456469509026037 
950	 0.456534450395149 
951	 0.456652375493289 
952	 0.456606054216716 
953	 0.456589400064894 
954	 0.456701230807813 
955	 0.456788682310744 
956	 0.456841071863503 
957	 0.45679287390486 
958	 0.456696589345226 
959	 0.456796545020162 
960	 0.45677443199557 
961	 0.456759442157389 
962	 0.456842878747422 
963	 0.456836872500679 
964	 0.456705639870286 
965	 0.456722313425399 
966	 0.456973185296313 
967	 0.456962651725871 
968	 0.456869711623071 
969	 0.4568533957663 
970	 0.456999701059689 
971	 0.4572217130068 
972	 0.457394696680917 
973	 0.457293960834064 
974	 0.456970302911038 
975	 0.457264280391143 
976	 0.45734342209875 
977	 0.457215959494563 
978	 0.457130478338974 
979	 0.457158857499044 
980	 0.457273504350222 
981	 0.457417129086613 
982	 0.457501334725963 
983	 0.457369402893421 
984	 0.457375573552976 
985	 0.457456116395685 
986	 0.457473966534708 
987	 0.457604799463134 
988	 0.457647651958412 
989	 0.457620085376035 
990	 0.457589968016096 
991	 0.457477670582186 
992	 0.457555488600796 
993	 0.457657847976528 
994	 0.457566868645214 
995	 0.457451151248333 
996	 0.457581715318148 
997	 0.457683321059692 
998	 0.457496834976417 
999	 0.457533364411798 
1000	 0.457382574853095 
1001	 0.450997917736851 
1002	 0.450901159715883 
1003	 0.450986287068168 
1004	 0.450911969146176 
1005	 0.45071189476752 
1006	 0.450637460992485 
1007	 0.450533991203476 
1008	 0.450530409493692 
1009	 0.450673873477403 
1010	 0.450702009720257 
1011	 0.45075749317185 
1012	 0.450744312266691 
1013	 0.450627956203928 
1014	 0.450563995490866 
1015	 0.450487180495582 
1016	 0.450410782280348 
1017	 0.450448277555675 
1018	 0.450430455217047 
1019	 0.450386531812739 
1020	 0.450374161938034 
1021	 0.450311359596248 
1022	 0.450158527705395 
1023	 0.450126942149249 
1024	 0.450176803091074 
1025	 0.450116298292839 
1026	 0.450020793893387 
1027	 0.449963741353139 
1028	 0.449808566316024 
1029	 0.449796434650502 
1030	 0.449880152151209 
1031	 0.449952232701868 
1032	 0.45001584399032 
1033	 0.450028809739919 
1034	 0.450037831408238 
1035	 0.450027079611047 
1036	 0.450026417974563 
1037	 0.449998543929257 
1038	 0.450059663076212 
1039	 0.450205822001546 
1040	 0.450234725220179 
1041	 0.450264755892316 
1042	 0.450293109123195 
1043	 0.450242044358531 
1044	 0.450195807525866 
1045	 0.450276725381958 
1046	 0.450256418898239 
1047	 0.450129055753172 
1048	 0.450062731088254 
1049	 0.450032551671744 
1050	 0.45001281845841 
1051	 0.44994109991812 
1052	 0.449891403225627 
1053	 0.449920330893514 
1054	 0.45000156801199 
1055	 0.450035884855927 
1056	 0.450201590921033 
1057	 0.4501746267184 
1058	 0.450044280586217 
1059	 0.449784786203725 
1060	 0.449563820197608 
1061	 0.449440373496233 
1062	 0.449336518317563 
1063	 0.449303491085003 
1064	 0.449247390218228 
1065	 0.449223887673539 
1066	 0.449253260789256 
1067	 0.449212859796395 
1068	 0.449141627801109 
1069	 0.4490463097146 
1070	 0.448949145482345 
1071	 0.448798602025188 
1072	 0.44871040533948 
1073	 0.448694069814239 
1074	 0.448650981571782 
1075	 0.448504776654492 
1076	 0.448326656670249 
1077	 0.448220988569243 
1078	 0.448092079610547 
1079	 0.448021352721258 
1080	 0.448089588137003 
1081	 0.448071062163414 
1082	 0.447997032505718 
1083	 0.447936340607624 
1084	 0.447813663800442 
1085	 0.447684791597618 
1086	 0.447555446131772 
1087	 0.447411216141583 
1088	 0.447294748067464 
1089	 0.447236774340312 
1090	 0.447203768081396 
1091	 0.447226873742722 
1092	 0.447221598293337 
1093	 0.447150410269057 
1094	 0.44708088661847 
1095	 0.446995062368794 
1096	 0.446940480423755 
1097	 0.446944509106572 
1098	 0.446934847925618 
1099	 0.446883582315321 
1100	 0.446863777469292 
1101	 0.446858900098988 
1102	 0.446819996628241 
1103	 0.446825569801215 
1104	 0.44686427842434 
1105	 0.44690099538126 
1106	 0.446943064018172 
1107	 0.447076055039131 
1108	 0.447118893633085 
1109	 0.447114799464711 
1110	 0.447203032149031 
1111	 0.447202639445076 
1112	 0.447187396133696 
1113	 0.447280708309084 
1114	 0.447327707146204 
1115	 0.447324999060913 
1116	 0.447362312546465 
1117	 0.447358820927107 
1118	 0.447393320652785 
1119	 0.447428034739367 
1120	 0.447504664055918 
1121	 0.44761263361521 
1122	 0.447753383467729 
1123	 0.447857233539834 
1124	 0.447881490477487 
1125	 0.447955026545775 
1126	 0.448033120245959 
1127	 0.448110042868804 
1128	 0.448211340321177 
1129	 0.448325384694018 
1130	 0.448449761849633 
1131	 0.448527769563936 
1132	 0.448610364352931 
1133	 0.448681047526029 
1134	 0.448708841735566 
1135	 0.448764994293745 
1136	 0.448866169039851 
1137	 0.448925430736346 
1138	 0.448958055384516 
1139	 0.448999838431144 
1140	 0.449023884823155 
1141	 0.449075085372721 
1142	 0.449126789773944 
1143	 0.449194896891508 
1144	 0.449269576686955 
1145	 0.449288662529386 
1146	 0.449269991495238 
1147	 0.449238950701956 
1148	 0.449221015027484 
1149	 0.44917928391112 
1150	 0.449115888109383 
1151	 0.449118658656872 
1152	 0.449122375758911 
1153	 0.449132456528481 
1154	 0.449130310116752 
1155	 0.449163731927188 
1156	 0.44914313298395 
1157	 0.449080036806482 
1158	 0.449027860799532 
1159	 0.448980706528736 
1160	 0.448913343202313 
1161	 0.448784912171258 
1162	 0.448667269948832 
1163	 0.448535572216883 
1164	 0.44839275666927 
1165	 0.448361742749751 
1166	 0.448325677070314 
1167	 0.448269183611537 
1168	 0.448261985804785 
1169	 0.44821875837598 
1170	 0.448156562096813 
1171	 0.448074011167327 
1172	 0.447976375229845 
1173	 0.447880806549581 
1174	 0.44775016964215 
1175	 0.447644014297051 
1176	 0.447584824156654 
1177	 0.447474350315622 
1178	 0.447346408527672 
1179	 0.447194329744216 
1180	 0.447035316180275 
1181	 0.446884891268164 
1182	 0.446727515908939 
1183	 0.4466014459695 
1184	 0.446494671069666 
1185	 0.446328886467027 
1186	 0.446187050311014 
1187	 0.446056711788308 
1188	 0.445922415487588 
1189	 0.445770848113437 
1190	 0.445655661131257 
1191	 0.445574810747825 
1192	 0.44546067966541 
1193	 0.445318611145141 
1194	 0.445225895027779 
1195	 0.445146104384732 
1196	 0.44507038508942 
1197	 0.445028896058757 
1198	 0.444998471818147 
1199	 0.444942721701533 
1200	 0.444856203072143 
1201	 0.44482455577117 
1202	 0.444841263108738 
1203	 0.444879525465518 
1204	 0.444993181159221 
1205	 0.445072910967141 
1206	 0.445165190260201 
1207	 0.445263995174936 
1208	 0.445330400112734 
1209	 0.445456335612934 
1210	 0.445604947252667 
1211	 0.445812290589896 
1212	 0.44606508986152 
1213	 0.44636331350626 
1214	 0.446695380065115 
1215	 0.447087479313242 
1216	 0.447549466714932 
1217	 0.448015549240849 
1218	 0.448525663554996 
1219	 0.449078002350211 
1220	 0.449609623853484 
1221	 0.450152067742004 
1222	 0.450681828396517 
1223	 0.451222977791854 
1224	 0.451767403735497 
1225	 0.452312447704466 
1226	 0.452844454743531 
1227	 0.453392280167662 
1228	 0.453906762601509 
1229	 0.454412805581753 
1230	 0.454878540422033 
1231	 0.455316576719464 
1232	 0.455746659996287 
1233	 0.456144954639371 
1234	 0.45652454807859 
1235	 0.45687690345159 
1236	 0.457243503382557 
1237	 0.457618288750996 
1238	 0.457952495637502 
1239	 0.458291386884728 
1240	 0.458592870002388 
1241	 0.458854755956202 
1242	 0.459077269362048 
1243	 0.459336033433522 
1244	 0.45960749494037 
1245	 0.459860790891229 
1246	 0.46010276537401 
1247	 0.460368780698097 
1248	 0.460639899592058 
1249	 0.460902018139495 
1250	 0.461206479709268 
1251	 0.461443057539088 
1252	 0.461596416430964 
1253	 0.461830361996472 
1254	 0.462084088633326 
1255	 0.462322387224876 
1256	 0.462595750883169 
1257	 0.462862296647873 
1258	 0.463111809503919 
1259	 0.463351804482953 
1260	 0.463579075138997 
1261	 0.463842296952448 
1262	 0.464112007528832 
1263	 0.464383262232089 
1264	 0.464648732269369 
1265	 0.464953392908437 
1266	 0.465228942849077 
1267	 0.46547143094253 
1268	 0.465718260725114 
1269	 0.465981960036089 
1270	 0.466219900095919 
1271	 0.466445590448101 
1272	 0.466641752245192 
1273	 0.466824651690057 
1274	 0.46698757622962 
1275	 0.467083708439749 
1276	 0.467232397566567 
1277	 0.467418278662948 
1278	 0.467566141947107 
1279	 0.467705273484743 
1280	 0.467853821248693 
1281	 0.467985829399363 
1282	 0.468114511206177 
1283	 0.46825111604776 
1284	 0.468390212318569 
1285	 0.468526167139198 
1286	 0.468654059276769 
1287	 0.468763433698833 
1288	 0.468888042053355 
1289	 0.468962569559247 
1290	 0.468988750954088 
1291	 0.469030553444584 
1292	 0.469041031968952 
1293	 0.469096253437753 
1294	 0.469162889500648 
1295	 0.469238685775686 
1296	 0.469350749981066 
1297	 0.469438016374109 
1298	 0.469519351942233 
1299	 0.469597700065831 
1300	 0.469672523294303 
1301	 0.469741914360348 
1302	 0.469804476606357 
1303	 0.469867397909884 
1304	 0.469897290651175 
1305	 0.46997508339631 
1306	 0.470101622249671 
1307	 0.470195817193973 
1308	 0.470290862780266 
1309	 0.470415460492332 
1310	 0.470478997960803 
1311	 0.470472925756954 
1312	 0.470562612831823 
1313	 0.470657938105302 
1314	 0.47079612004846 
1315	 0.471010279168398 
1316	 0.471170081956273 
1317	 0.471324121843941 
1318	 0.471481831088932 
1319	 0.471630034229315 
1320	 0.471783838363657 
1321	 0.471934978609061 
1322	 0.472103160156754 
1323	 0.472294227697335 
1324	 0.472452812940168 
1325	 0.472604409681567 
1326	 0.472762263794154 
1327	 0.472883590837886 
1328	 0.473038619204804 
1329	 0.473231755990773 
1330	 0.47340826004002 
1331	 0.473590634315276 
1332	 0.473766239067941 
1333	 0.473924849240831 
1334	 0.474100381481501 
1335	 0.474269190390208 
1336	 0.474427352011022 
1337	 0.474617702102801 
1338	 0.474838767218189 
1339	 0.475005153223211 
1340	 0.475166351187848 
1341	 0.475323207373988 
1342	 0.475461746456492 
1343	 0.475568917190431 
1344	 0.47564988231211 
1345	 0.475773297549227 
1346	 0.475892145594851 
1347	 0.475985715318115 
1348	 0.476113538690451 
1349	 0.476212425887697 
1350	 0.47622979715479 
1351	 0.47631249056553 
1352	 0.476462972763042 
1353	 0.476561617258678 
1354	 0.476649976518509 
1355	 0.476733591712184 
1356	 0.476803073171622 
1357	 0.476854196337492 
1358	 0.476895447070962 
1359	 0.47693562873266 
1360	 0.476966254491274 
1361	 0.476974463125903 
1362	 0.476987331463019 
1363	 0.476983461958859 
1364	 0.476970514668693 
1365	 0.476930303487106 
1366	 0.476905639341398 
1367	 0.47689900771296 
1368	 0.476841418421734 
1369	 0.476777248998443 
1370	 0.476668990650366 
1371	 0.476503194551939 
1372	 0.476365412853349 
1373	 0.476236331100643 
1374	 0.476055265940518 
1375	 0.475865630266673 
1376	 0.475639767068519 
1377	 0.475339548035221 
1378	 0.475074321645507 
1379	 0.474820548088818 
1380	 0.474543626216825 
1381	 0.474271252258134 
1382	 0.473969011311078 
1383	 0.473648292805914 
1384	 0.473298206277013 
1385	 0.47289260140681 
1386	 0.472524263488852 
1387	 0.472139084785498 
1388	 0.471784928966363 
1389	 0.471445697704907 
1390	 0.471145292042236 
1391	 0.470856629126943 
1392	 0.470604737435615 
1393	 0.470426593412975 
1394	 0.470290233365918 
1395	 0.47014008984212 
1396	 0.470036149508659 
1397	 0.469881476713148 
1398	 0.469709418182256 
1399	 0.469530939970264 
1400	 0.46937195504347 
1401	 0.469122980370341 
1402	 0.46886335769792 
1403	 0.468492466927042 
1404	 0.468020980285848 
1405	 0.467537129399328 
1406	 0.46699763407028 
1407	 0.466419837788329 
1408	 0.465795388070427 
1409	 0.465149651178194 
1410	 0.464427035918535 
1411	 0.463743454915855 
1412	 0.463020829328605 
1413	 0.462379770838768 
1414	 0.461784350421303 
1415	 0.46119842072639 
1416	 0.4606468166697 
1417	 0.460127198655772 
1418	 0.45962709157743 
1419	 0.459141406797268 
1420	 0.45870541798113 
1421	 0.458272716653227 
1422	 0.457834069646319 
1423	 0.457419345205082 
1424	 0.457037942883284 
1425	 0.456642339035922 
1426	 0.456288979194216 
1427	 0.45596145978098 
1428	 0.455624086397627 
1429	 0.455291312810626 
1430	 0.454962793002055 
1431	 0.454614301691727 
1432	 0.454312123811592 
1433	 0.454049719200183 
1434	 0.453755727934757 
1435	 0.453471936074432 
1436	 0.453167641761511 
1437	 0.452830303637648 
1438	 0.452534123809568 
1439	 0.452244654543696 
1440	 0.451977979265687 
1441	 0.451729914046046 
1442	 0.451496308947277 
1443	 0.451241655774707 
1444	 0.451082016924716 
1445	 0.450930166682864 
1446	 0.450905613257491 
1447	 0.450982378832701 
1448	 0.451113593436826 
1449	 0.451335342812706 
1450	 0.451612108703497 
1451	 0.451938349218679 
1452	 0.452351036517529 
1453	 0.45285921501017 
1454	 0.453397038801103 
1455	 0.454035296396288 
1456	 0.454657029925088 
1457	 0.455319885104185 
1458	 0.455971252595081 
1459	 0.456622255555518 
1460	 0.457279824435804 
1461	 0.45795762184743 
1462	 0.458607880502092 
1463	 0.459247210165717 
1464	 0.459885958026991 
1465	 0.460526451799957 
1466	 0.461139073905203 
1467	 0.461684093723743 
1468	 0.462250461824934 
1469	 0.46279916451396 
1470	 0.463300368827378 
1471	 0.463852425765842 
1472	 0.464457086138682 
1473	 0.464998926399699 
1474	 0.465522583226606 
1475	 0.466041080496083 
1476	 0.466539072904844 
1477	 0.467032805544756 
1478	 0.467524002608383 
1479	 0.467995861643826 
1480	 0.468452763816979 
1481	 0.468898075582656 
1482	 0.469332243976577 
1483	 0.469753087937035 
1484	 0.470171451781624 
1485	 0.470547133872343 
1486	 0.470882361768061 
1487	 0.471236436521655 
1488	 0.471545735515462 
1489	 0.471910035344236 
1490	 0.472321872086542 
1491	 0.472705699150532 
1492	 0.473095156943366 
1493	 0.473488418862051 
1494	 0.473856630264916 
1495	 0.474261066357938 
1496	 0.474673854901264 
1497	 0.475125233081641 
1498	 0.475628804832436 
1499	 0.476109457153125 
1500	 0.476614340853792 
1501	 0.477104794513771 
1502	 0.477583404060162 
1503	 0.478051746081903 
1504	 0.478528203348957 
1505	 0.478980122984693 
1506	 0.479409984571818 
1507	 0.47982829686286 
1508	 0.480222506402247 
1509	 0.480622590480263 
1510	 0.481038821864509 
1511	 0.481405766407959 
1512	 0.481757329881514 
1513	 0.482082622601958 
1514	 0.482342740969383 
1515	 0.482620051272195 
1516	 0.482919335577203 
1517	 0.483173631381487 
1518	 0.483396745034219 
1519	 0.483617681635963 
1520	 0.483815758027421 
1521	 0.483984786244424 
1522	 0.484173305767149 
1523	 0.484374711815621 
1524	 0.484548254337008 
1525	 0.48471259828781 
1526	 0.484857087436429 
1527	 0.484986978107322 
1528	 0.485099375926184 
1529	 0.485177806124634 
1530	 0.485297438603275 
1531	 0.485412485470922 
1532	 0.485553062922038 
1533	 0.485735979322884 
1534	 0.485875171735213 
1535	 0.485994887315831 
1536	 0.486143951662376 
1537	 0.486296039404442 
1538	 0.486437074143837 
1539	 0.486578380101037 
1540	 0.486755427925145 
1541	 0.486911228500247 
1542	 0.487133521265908 
1543	 0.487433616762699 
1544	 0.487692562243916 
1545	 0.487950286825963 
1546	 0.488233208370964 
1547	 0.488522206610796 
1548	 0.488821961558548 
1549	 0.489153581884418 
1550	 0.489467564333175 
1551	 0.489770345932821 
1552	 0.490087414979664 
1553	 0.490408283504257 
1554	 0.490738770535382 
1555	 0.491098440603766 
1556	 0.49141470908921 
1557	 0.491716570131127 
1558	 0.492017302884997 
1559	 0.49228742775716 
1560	 0.492572457644443 
1561	 0.492862641663604 
1562	 0.49316121786416 
1563	 0.493458938964169 
1564	 0.493762414522867 
1565	 0.494078848763437 
1566	 0.494395976942981 
1567	 0.494734497075872 
1568	 0.495029101581683 
1569	 0.495297989521457 
1570	 0.495584328659298 
1571	 0.495843417519006 
1572	 0.496119213375493 
1573	 0.496415097240779 
1574	 0.49671615541326 
1575	 0.4970362140357 
1576	 0.497317119710881 
1577	 0.497583488619902 
1578	 0.497863669343831 
1579	 0.498102687504695 
1580	 0.49838047799896 
1581	 0.498713886678342 
1582	 0.499011919933404 
1583	 0.499315619870564 
1584	 0.499587822083165 
1585	 0.499808255722719 
1586	 0.500074781631288 
1587	 0.500353254580396 
1588	 0.500618806870123 
1589	 0.500905109453378 
1590	 0.501185851664377 
1591	 0.501424475086543 
1592	 0.501710166908918 
1593	 0.50205195882507 
1594	 0.502356572367966 
1595	 0.502677928311634 
1596	 0.502963342349117 
1597	 0.503194591203062 
1598	 0.503456709194697 
1599	 0.503732568829008 
1600	 0.503982572550523 
1601	 0.50423001304243 
1602	 0.504474269046674 
1603	 0.504676264743212 
1604	 0.504913275528531 
1605	 0.505186055533203 
1606	 0.505437171317055 
1607	 0.505708929095273 
1608	 0.505944360256194 
1609	 0.506130650526942 
1610	 0.50635151236783 
1611	 0.506571657722965 
1612	 0.506788564905729 
1613	 0.507036300411402 
1614	 0.507258413108468 
1615	 0.50745068572497 
1616	 0.507656495526391 
1617	 0.507885667463036 
1618	 0.508069653561464 
1619	 0.508230681202129 
1620	 0.508386925611169 
1621	 0.508485025828566 
1622	 0.508627384091325 
1623	 0.508816192420073 
1624	 0.508963182567929 
1625	 0.509131489541835 
1626	 0.509248586801935 
1627	 0.509279399788813 
1628	 0.509365332829287 
1629	 0.509454904788923 
1630	 0.509541133519025 
1631	 0.509673586085235 
1632	 0.509766729063303 
1633	 0.509802069335745 
1634	 0.509890756440019 
1635	 0.509993954024771 
1636	 0.510095857021197 
1637	 0.510245556584549 
1638	 0.510355219952155 
1639	 0.510443138435444 
1640	 0.510524924133553 
1641	 0.510574288308029 
1642	 0.510648924700808 
1643	 0.510733900751758 
1644	 0.510810268439843 
1645	 0.510922035811997 
1646	 0.510979674552734 
1647	 0.511002465979913 
1648	 0.511013990374655 
1649	 0.51100271957372 
1650	 0.510957712916823 
1651	 0.510893703369043 
1652	 0.510804835512607 
1653	 0.510672379925083 
1654	 0.510538603132555 
1655	 0.510405414897524 
1656	 0.51022507314275 
1657	 0.510018952003167 
1658	 0.509781993012359 
1659	 0.50951666425451 
1660	 0.509205104825705 
1661	 0.508879838918938 
1662	 0.508479826219384 
1663	 0.507997934023093 
1664	 0.507493782319619 
1665	 0.506959679188913 
1666	 0.506344520570718 
1667	 0.505704666427562 
1668	 0.504976332373829 
1669	 0.504132017496533 
1670	 0.50326104400709 
1671	 0.502349594452287 
1672	 0.50135319710155 
1673	 0.500327763798912 
1674	 0.49916945618272 
1675	 0.497863667061233 
1676	 0.496570426009273 
1677	 0.495204866228033 
1678	 0.493818267224469 
1679	 0.492432417963584 
1680	 0.490943199154939 
1681	 0.489380686317052 
1682	 0.487741131374277 
1683	 0.486025093113051 
1684	 0.484288997655187 
1685	 0.482536616621205 
1686	 0.480629948518302 
1687	 0.47859543010618 
1688	 0.476548383292995 
1689	 0.474394183511368 
1690	 0.47218503403923 
1691	 0.469984114424117 
1692	 0.467727338654868 
1693	 0.46536498803304 
1694	 0.462982089012841 
1695	 0.460570169584717 
1696	 0.458089952331855 
1697	 0.455540209045669 
1698	 0.452912586139076 
1699	 0.450235441018799 
1700	 0.447591371129848 
1701	 0.444834453154106 
1702	 0.44221658182669 
1703	 0.43962492662292 
1704	 0.437119801993809 
1705	 0.434645351567307 
1706	 0.432271480521157 
1707	 0.430182970974723 
1708	 0.428204529469467 
1709	 0.426350282615732 
1710	 0.424665493610896 
1711	 0.423004703638075 
1712	 0.421511058039084 
1713	 0.420079282271589 
1714	 0.418709521816039 
1715	 0.417532803027806 
1716	 0.416377177457409 
1717	 0.415266389261319 
1718	 0.41418159533262 
1719	 0.413080708644304 
1720	 0.412084469140078 
1721	 0.411165732949417 
1722	 0.410367166011907 
1723	 0.409739513170855 
1724	 0.409189263374466 
1725	 0.40878262033767 
1726	 0.408582545537762 
1727	 0.408559211375425 
1728	 0.408713176245256 
1729	 0.40914804980175 
1730	 0.409896597965778 
1731	 0.410815356741968 
1732	 0.41199091467318 
1733	 0.413309394125377 
1734	 0.414720777606839 
1735	 0.416326897167797 
1736	 0.417946426599502 
1737	 0.419495444589301 
1738	 0.420871037885375 
1739	 0.421992086406094 
1740	 0.4229192265738 
1741	 0.423641518236769 
1742	 0.424155011953308 
1743	 0.424505768490882 
1744	 0.424588931684979 
1745	 0.424636204415635 
1746	 0.424501231231636 
1747	 0.424346999373136 
1748	 0.42409114425639 
1749	 0.423891167482076 
1750	 0.423648112272212 
1751	 0.4234691327515 
1752	 0.423290725185707 
1753	 0.423204279139712 
1754	 0.423112342887505 
1755	 0.42323543433768 
1756	 0.423508971214908 
1757	 0.423853284810073 
1758	 0.424313421453051 
1759	 0.424831511323394 
1760	 0.425541648454137 
1761	 0.426416461365943 
1762	 0.427402606897424 
1763	 0.428564952001676 
1764	 0.429817751893875 
1765	 0.431223966426809 
1766	 0.432829290941141 
1767	 0.434495798359493 
1768	 0.436253896542332 
1769	 0.438051444558962 
1770	 0.439757241121592 
1771	 0.441503967300274 
1772	 0.443189406025107 
1773	 0.444750561596572 
1774	 0.446302524291181 
1775	 0.447674424985475 
1776	 0.448982635856121 
1777	 0.450259309429724 
1778	 0.451364576236553 
1779	 0.452398786278529 
1780	 0.453333630198222 
1781	 0.454166249236846 
1782	 0.455017853353425 
1783	 0.455839916751341 
1784	 0.456635022333758 
1785	 0.457360232420452 
1786	 0.458007845401094 
1787	 0.458602094014902 
1788	 0.459129945283186 
1789	 0.459568263281027 
1790	 0.460031021773136 
1791	 0.460436032276613 
1792	 0.46081804888651 
1793	 0.461194592179643 
1794	 0.461539311964083 
1795	 0.461878973379433 
1796	 0.462201958453127 
1797	 0.462547519753891 
1798	 0.462916068019156 
1799	 0.463323191800279 
1800	 0.463734373912552 
1801	 0.467654629693271 
1802	 0.467996749610954 
1803	 0.468325070418442 
1804	 0.468679020801283 
1805	 0.469069698246375 
1806	 0.469372151903474 
1807	 0.469586434435431 
1808	 0.469878805670995 
1809	 0.470149464404891 
1810	 0.470462052542061 
1811	 0.470827400723205 
1812	 0.471190400419783 
1813	 0.471566616300337 
1814	 0.471958189088386 
1815	 0.472320958401497 
1816	 0.472696512377595 
1817	 0.473077826056252 
1818	 0.473437673432417 
1819	 0.473822672351467 
1820	 0.474230528169671 
1821	 0.474638936284346 
1822	 0.4750313588351 
1823	 0.475470918092544 
1824	 0.475942633856028 
1825	 0.476429114632879 
1826	 0.476870188446828 
1827	 0.477316229248205 
1828	 0.477733765172024 
1829	 0.478095446387348 
1830	 0.478485082280611 
1831	 0.478872570572296 
1832	 0.479285952777527 
1833	 0.479675154114866 
1834	 0.480058457547232 
1835	 0.480424210234303 
1836	 0.480777649579051 
1837	 0.481150405244164 
1838	 0.48151906819356 
1839	 0.481888034179622 
1840	 0.482278542203152 
1841	 0.482656596896844 
1842	 0.483014837672313 
1843	 0.483391439955184 
1844	 0.483781833459258 
1845	 0.484155450910875 
1846	 0.484531730793708 
1847	 0.484884961009727 
1848	 0.485190526392295 
1849	 0.485466236512135 
1850	 0.485705669370537 
1851	 0.485881239624376 
1852	 0.48608219103951 
1853	 0.48629327262209 
1854	 0.486472667793893 
1855	 0.486637568922435 
1856	 0.486758550430366 
1857	 0.486766774019603 
1858	 0.486723328684045 
1859	 0.486693823821477 
1860	 0.486639553284841 
1861	 0.486549658275948 
1862	 0.486456953904501 
1863	 0.486339384222913 
1864	 0.48613797948155 
1865	 0.485878552150434 
1866	 0.485574385798316 
1867	 0.485196723684716 
1868	 0.484783662722917 
1869	 0.4843049624237 
1870	 0.483780025345599 
1871	 0.483215750353369 
1872	 0.482617256259018 
1873	 0.481973412014081 
1874	 0.481286304468537 
1875	 0.48058595349782 
1876	 0.479741170585928 
1877	 0.478840910212179 
1878	 0.477793536958199 
1879	 0.476643289905757 
1880	 0.475492972838377 
1881	 0.47425439699847 
1882	 0.472921953960785 
1883	 0.471617420941436 
1884	 0.470167913163229 
1885	 0.468501972573591 
1886	 0.466817760496111 
1887	 0.464923421820112 
1888	 0.462889094674712 
1889	 0.460945626038742 
1890	 0.458830629047382 
1891	 0.456674888302059 
1892	 0.454547277871264 
1893	 0.452298537159976 
1894	 0.449918499327566 
1895	 0.447562861305587 
1896	 0.445144982078206 
1897	 0.442706553746122 
1898	 0.440425715023054 
1899	 0.438100351248433 
1900	 0.435876221706541 
1901	 0.43373720647968 
1902	 0.43150125923358 
1903	 0.429423383849497 
1904	 0.427414267217099 
1905	 0.42545607028803 
1906	 0.423557651535666 
1907	 0.421884817069429 
1908	 0.420233189330332 
1909	 0.418681222376158 
1910	 0.417244871619969 
1911	 0.415749272458462 
1912	 0.414381672174675 
1913	 0.413085213387034 
1914	 0.411818613623979 
1915	 0.410687906273765 
1916	 0.409699321480017 
1917	 0.408738225088175 
1918	 0.407865841216244 
1919	 0.407088669691621 
1920	 0.40632763799942 
1921	 0.405690754655631 
1922	 0.405049680883404 
1923	 0.404418374417317 
1924	 0.403911056594361 
1925	 0.403398325953927 
1926	 0.402958586855513 
1927	 0.402618486420749 
1928	 0.402291406068226 
1929	 0.401995242566258 
1930	 0.401744397477996 
1931	 0.401538736633903 
1932	 0.401341834498483 
1933	 0.401170902667228 
1934	 0.401067446386364 
1935	 0.400997412348615 
1936	 0.400993441298231 
1937	 0.401032197594127 
1938	 0.4011167928552 
1939	 0.401250252693229 
1940	 0.401428350553218 
1941	 0.401670087801172 
1942	 0.401951133095825 
1943	 0.402280853479542 
1944	 0.402636164941968 
1945	 0.403025982281177 
1946	 0.403482424639461 
1947	 0.40399557900877 
1948	 0.404578106941009 
1949	 0.405199827419218 
1950	 0.405808998714923 
1951	 0.406408132299173 
1952	 0.407082905174237 
1953	 0.407776941621415 
1954	 0.408509848502191 
1955	 0.409357656671699 
1956	 0.410216716880712 
1957	 0.411059538776817 
1958	 0.41189997495471 
1959	 0.412701432900937 
1960	 0.413504901217877 
1961	 0.414271736158227 
1962	 0.415029025573099 
1963	 0.415746591600577 
1964	 0.416408075808432 
1965	 0.417066208977717 
1966	 0.41770716374183 
1967	 0.418349675947885 
1968	 0.418943688382102 
1969	 0.41952955775987 
1970	 0.420065185697862 
1971	 0.42057946179331 
1972	 0.421137858504955 
1973	 0.421689313757558 
1974	 0.422266825336164 
1975	 0.422901585247963 
1976	 0.423501995458524 
1977	 0.424091924300029 
1978	 0.424701192774877 
1979	 0.425340754957319 
1980	 0.42589782941079 
1981	 0.426512903699509 
1982	 0.427118226606703 
1983	 0.427735519408039 
1984	 0.428410514574599 
1985	 0.429032190857818 
1986	 0.429649823729873 
1987	 0.430290443100364 
1988	 0.430867785391568 
1989	 0.431576668957032 
1990	 0.432367789587202 
1991	 0.433157431432285 
1992	 0.43399846414306 
1993	 0.434904835639932 
1994	 0.435724599919845 
1995	 0.436613698640225 
1996	 0.437545729921432 
1997	 0.438421430970093 
1998	 0.439344523312244 
1999	 0.4403432790911 
2000	 0.441243235725731 
2001	 0.442171682672921 
2002	 0.442975901248287 
2003	 0.443666982973936 
2004	 0.444358546283903 
2005	 0.444945482140695 
2006	 0.445568956517726 
2007	 0.446218349138169 
2008	 0.446828872262951 
2009	 0.447380975015413 
2010	 0.447962438592139 
2011	 0.448436455137142 
2012	 0.448859494207589 
2013	 0.449254672365042 
2014	 0.449604377533841 
2015	 0.449917883913921 
2016	 0.450206473495105 
2017	 0.450437220621655 
2018	 0.450623687494337 
2019	 0.450773672192342 
2020	 0.450870761546444 
2021	 0.450916240758604 
2022	 0.450965545407294 
2023	 0.450993394867166 
2024	 0.450961196760918 
2025	 0.450892647590798 
2026	 0.450773277421886 
2027	 0.450553785662636 
2028	 0.450379004486123 
2029	 0.45021141531455 
2030	 0.449994591435547 
2031	 0.449750293589971 
2032	 0.449516741390631 
2033	 0.449249100644027 
2034	 0.448973919901763 
2035	 0.448706718913142 
2036	 0.448435921644901 
2037	 0.448119297640434 
2038	 0.447795304428716 
2039	 0.447507122573577 
2040	 0.447220098692256 
2041	 0.44697742277412 
2042	 0.44678097352202 
2043	 0.446568817400537 
2044	 0.446384795197671 
2045	 0.446178487869092 
2046	 0.445950235469754 
2047	 0.445745644673057 
2048	 0.445556931933358 
2049	 0.445361717892312 
2050	 0.445166874108245 
2051	 0.444983683376491 
2052	 0.444805740395542 
2053	 0.444622891471171 
2054	 0.444437124223483 
2055	 0.444257231152288 
2056	 0.444072989068297 
2057	 0.443877764956755 
2058	 0.443696703033291 
2059	 0.443543190785809 
2060	 0.443365526577759 
2061	 0.443165342224316 
2062	 0.442972497825922 
2063	 0.442768983042671 
2064	 0.442575077303612 
2065	 0.442375724126076 
2066	 0.442211049047423 
2067	 0.442041024023533 
2068	 0.441872921384438 
2069	 0.441703298096412 
2070	 0.441537891812482 
2071	 0.441365800164608 
2072	 0.441185268127686 
2073	 0.441022466429234 
2074	 0.440867270956661 
2075	 0.440709302137824 
2076	 0.440563558682052 
2077	 0.440405587589546 
2078	 0.440248247066891 
2079	 0.440072636052592 
2080	 0.439870378168118 
2081	 0.439693345823158 
2082	 0.439491463487612 
2083	 0.439345154607134 
2084	 0.439210975827234 
2085	 0.439058815571181 
2086	 0.438892604439804 
2087	 0.438694771735551 
2088	 0.438534551099649 
2089	 0.438396086923522 
2090	 0.438222766010873 
2091	 0.438058799508616 
2092	 0.437880693758441 
2093	 0.437670211270101 
2094	 0.437462252055499 
2095	 0.437282149386086 
2096	 0.437051550413603 
2097	 0.436800217668427 
2098	 0.43649921555617 
2099	 0.436193674726242 
2100	 0.435875732228004 
2101	 0.43555545502919 
2102	 0.435231652775881 
2103	 0.434904056547013 
2104	 0.434558904922618 
2105	 0.434226930745792 
2106	 0.433908251093172 
2107	 0.433560311017721 
2108	 0.4332234734457 
2109	 0.432842495510035 
2110	 0.432412189445944 
2111	 0.431993777347373 
2112	 0.431576564988 
2113	 0.431121610174266 
2114	 0.43062904735975 
2115	 0.430156811310081 
2116	 0.42967059770265 
2117	 0.429174356299394 
2118	 0.428672090816255 
2119	 0.428194666276426 
2120	 0.427677925611117 
2121	 0.42708811123514 
2122	 0.426600984212696 
2123	 0.426125261547098 
2124	 0.425708087281082 
2125	 0.42536648589165 
2126	 0.425021616130852 
2127	 0.424689989668737 
2128	 0.424414383650596 
2129	 0.42416857461225 
2130	 0.423962577249787 
2131	 0.423814755827709 
2132	 0.423685622928386 
2133	 0.423590866592591 
2134	 0.423527659323262 
2135	 0.423468597534938 
2136	 0.423406418653786 
2137	 0.423354112461285 
2138	 0.423310944999197 
2139	 0.423246916251863 
2140	 0.423166504832953 
2141	 0.423133552523844 
2142	 0.423079677951423 
2143	 0.423088265497356 
2144	 0.423189183846009 
2145	 0.423235752329019 
2146	 0.4232527182675 
2147	 0.423329963729216 
2148	 0.423388580206723 
2149	 0.423519625152765 
2150	 0.423756145771504 
2151	 0.423963223033253 
2152	 0.424182111511779 
2153	 0.424433993822304 
2154	 0.424687850621006 
2155	 0.4248961340645 
2156	 0.425043951301595 
2157	 0.425144633156265 
2158	 0.425268605036923 
2159	 0.425342444312156 
2160	 0.425425582587386 
2161	 0.425571721836179 
2162	 0.425604671845528 
2163	 0.425547568058663 
2164	 0.425513162715877 
2165	 0.42544964484673 
2166	 0.425374323600255 
2167	 0.425312141453949 
2168	 0.425188417482679 
2169	 0.424970003804242 
2170	 0.424812241733994 
2171	 0.424633269035808 
2172	 0.424490978588913 
2173	 0.424400770497881 
2174	 0.424306710015386 
2175	 0.424258052756512 
2176	 0.424202595414162 
2177	 0.424120361258458 
2178	 0.42405523778647 
2179	 0.42397099970732 
2180	 0.423828385438063 
2181	 0.423746828195292 
2182	 0.423708683497805 
2183	 0.423635310483325 
2184	 0.423564070509849 
2185	 0.423486360292327 
2186	 0.423402339059293 
2187	 0.42329915310481 
2188	 0.423226864047411 
2189	 0.423073654964614 
2190	 0.422851981309165 
2191	 0.422630540356193 
2192	 0.422358444345845 
2193	 0.422092754107485 
2194	 0.421797782751333 
2195	 0.42153984309407 
2196	 0.42133506415229 
2197	 0.421055530423285 
2198	 0.420743627260288 
2199	 0.420453903954534 
2200	 0.420087250328893 
2201	 0.419620195562761 
2202	 0.419208070752321 
2203	 0.418789944447297 
2204	 0.418378377296005 
2205	 0.417994235364497 
2206	 0.41753462741739 
2207	 0.417066436374005 
2208	 0.41655192983047 
2209	 0.415962431878477 
2210	 0.415381889797567 
2211	 0.414734444204443 
2212	 0.414174085880312 
2213	 0.413660591146737 
2214	 0.413113793844141 
2215	 0.412656077056844 
2216	 0.412091425587454 
2217	 0.411421597659508 
2218	 0.41078550113439 
2219	 0.410133642838291 
2220	 0.409465106435133 
2221	 0.408816682891626 
2222	 0.408098992692055 
2223	 0.407383143604181 
2224	 0.406647925009621 
2225	 0.405968971598455 
2226	 0.405277133814135 
2227	 0.404455577410389 
2228	 0.403614335088148 
2229	 0.402633504776694 
2230	 0.401497042233896 
2231	 0.40035180969984 
2232	 0.399182474068063 
2233	 0.397842238307389 
2234	 0.396420838808987 
2235	 0.39484601523898 
2236	 0.393148298039027 
2237	 0.391278435995494 
2238	 0.389172350827213 
2239	 0.38711018219443 
2240	 0.384924187222512 
2241	 0.382684900379441 
2242	 0.380608127871889 
2243	 0.37813061112081 
2244	 0.375344858935226 
2245	 0.372532720696137 
2246	 0.369325044771907 
2247	 0.366309055901124 
2248	 0.3634178080325 
2249	 0.360383851011109 
2250	 0.357312359032289 
2251	 0.354277977957805 
2252	 0.350952590253268 
2253	 0.347716681503291 
2254	 0.344431353463642 
2255	 0.341124067464017 
2256	 0.338091406111738 
2257	 0.334998032739244 
2258	 0.332054187397404 
2259	 0.329345587346861 
2260	 0.326444654209107 
2261	 0.323479740894047 
2262	 0.320642091223162 
2263	 0.317713130399427 
2264	 0.314997893917499 
2265	 0.312488511889771 
2266	 0.309965639369301 
2267	 0.307598295257195 
2268	 0.305097658202162 
2269	 0.302537705020692 
2270	 0.300093024749683 
2271	 0.297557433089075 
2272	 0.295237620045986 
2273	 0.293153118507786 
2274	 0.290983580257905 
2275	 0.288974655371909 
2276	 0.286788163886624 
2277	 0.28451647424956 
2278	 0.282232323910733 
2279	 0.279753094403809 
2280	 0.277402869663439 
2281	 0.275187028054233 
2282	 0.27284223482199 
2283	 0.270474010867148 
2284	 0.268158593472711 
2285	 0.265576982184778 
2286	 0.262864796008226 
2287	 0.260124600788209 
2288	 0.257266575077117 
2289	 0.254470474934854 
2290	 0.251640066623029 
2291	 0.248831224183069 
2292	 0.245951496007672 
2293	 0.242932675978659 
2294	 0.240015028654688 
2295	 0.237005219870951 
2296	 0.234089371573305 
2297	 0.231566607399397 
2298	 0.229227489293434 
2299	 0.227224546334954 
2300	 0.225648440635827 
2301	 0.224152231844604 
2302	 0.222789717925701 
2303	 0.221919769606653 
2304	 0.221319185480085 
2305	 0.221111721685933 
2306	 0.221420374806237 
2307	 0.221899216600337 
2308	 0.222691447677269 
2309	 0.223735671740345 
2310	 0.225037779162286 
2311	 0.226693793475688 
2312	 0.228737023401844 
2313	 0.230934058758427 
2314	 0.233612522359753 
2315	 0.236184729545369 
2316	 0.238947797444146 
2317	 0.241552109379025 
2318	 0.24426756070552 
2319	 0.246656723026277 
2320	 0.248951751407336 
2321	 0.250912583962762 
2322	 0.252638553696592 
2323	 0.254071257077019 
2324	 0.255211659180785 
2325	 0.256067348719639 
2326	 0.256544242071574 
2327	 0.256871753923176 
2328	 0.256911789944463 
2329	 0.256798962215072 
2330	 0.256524674157451 
2331	 0.255973748214329 
2332	 0.255283128272657 
2333	 0.254349288374892 
2334	 0.253195955728771 
2335	 0.251872250939282 
2336	 0.25032095935897 
2337	 0.24861145060194 
2338	 0.24682425691816 
2339	 0.245019717756564 
2340	 0.243250023972863 
2341	 0.241570095440119 
2342	 0.239871207335051 
2343	 0.238274586958359 
2344	 0.236860991571552 
2345	 0.235562104560746 
2346	 0.234749496423438 
2347	 0.23441587977801 
2348	 0.234332812659968 
2349	 0.234852146373793 
2350	 0.235710038400906 
2351	 0.236771535599924 
2352	 0.238266948449641 
2353	 0.239953703622381 
2354	 0.241597093301548 
2355	 0.243387684502839 
2356	 0.244999175062361 
2357	 0.246392433404167 
2358	 0.24792253136311 
2359	 0.249190082803558 
2360	 0.25027563115671 
2361	 0.251127327534769 
2362	 0.251532451776673 
2363	 0.251717447467154 
2364	 0.251841987583825 
2365	 0.251913727829293 
2366	 0.251858168058879 
2367	 0.251719426258837 
2368	 0.251613206816469 
2369	 0.251485628242141 
2370	 0.251408798125892 
2371	 0.251466175337484 
2372	 0.251396755843485 
2373	 0.251325074633112 
2374	 0.251331056343476 
2375	 0.251247233538734 
2376	 0.251245622974552 
2377	 0.251268269602633 
2378	 0.25121504344075 
2379	 0.251116105983494 
2380	 0.251096584375831 
2381	 0.251160503664609 
2382	 0.251101619871405 
2383	 0.250977182544766 
2384	 0.251031881751407 
2385	 0.251056395220817 
2386	 0.251125052450459 
2387	 0.251396625783156 
2388	 0.25160476698224 
2389	 0.251697729551554 
2390	 0.251915012897323 
2391	 0.2522627696728 
2392	 0.252503777180192 
2393	 0.252840158153625 
2394	 0.252992225622062 
2395	 0.252911626025889 
2396	 0.253077259148434 
2397	 0.253227846136092 
2398	 0.253469168757878 
2399	 0.253956686520756 
2400	 0.254259261690852 
2401	 0.254523545511523 
2402	 0.254446886223212 
2403	 0.254512345552221 
2404	 0.254686544624663 
2405	 0.254818605638201 
2406	 0.254937711735521 
2407	 0.254970115637606 
2408	 0.254916934971031 
2409	 0.254884607782837 
2410	 0.254873113216975 
2411	 0.25481082929843 
2412	 0.254782739363234 
2413	 0.254745834439673 
2414	 0.254805576255936 
2415	 0.255167669770512 
2416	 0.255423711373914 
2417	 0.255432219544396 
2418	 0.255519727889757 
2419	 0.255521215313595 
2420	 0.25541394039455 
2421	 0.255458923125313 
2422	 0.255487233557067 
2423	 0.255542361073234 
2424	 0.25576277390101 
2425	 0.25570714510192 
2426	 0.255622077212907 
2427	 0.255694707002603 
2428	 0.255614746257508 
2429	 0.255917390598119 
2430	 0.256180519345522 
2431	 0.255990596112885 
2432	 0.255903087443422 
2433	 0.255672279659641 
2434	 0.255468616603558 
2435	 0.255531957589289 
2436	 0.255312942092271 
2437	 0.255158060364968 
2438	 0.255358714917715 
2439	 0.255503241477002 
2440	 0.256046061913147 
2441	 0.256654552355597 
2442	 0.256536791257353 
2443	 0.256197637387562 
2444	 0.255339880690276 
2445	 0.254314704164281 
2446	 0.254282668227669 
2447	 0.254606963650303 
2448	 0.255061098118403 
2449	 0.255572974180915 
2450	 0.255426725132979 
2451	 0.254780633308601 
2452	 0.254399511398544 
2453	 0.254078449732223 
2454	 0.253608424175834 
2455	 0.253498340434813 
2456	 0.253079809125278 
2457	 0.252772095987828 
2458	 0.252849272032121 
2459	 0.252252533079491 
2460	 0.251743957327618 
2461	 0.251638494282314 
2462	 0.25118391945374 
2463	 0.251080461210296 
2464	 0.251200217789908 
2465	 0.25079813727827 
2466	 0.250793235000848 
2467	 0.251012824057127 
2468	 0.251327237211855 
2469	 0.251426109300269 
2470	 0.250846060330069 
2471	 0.25057501097635 
2472	 0.250315592758674 
2473	 0.250517305857955 
2474	 0.25111950648489 
2475	 0.251375137143005 
2476	 0.25180888552757 
2477	 0.252178614274302 
2478	 0.252744584482212 
2479	 0.253314431632095 
2480	 0.253661774889893 
2481	 0.253820677064959 
2482	 0.253583927339893 
2483	 0.253697822239234 
2484	 0.253978572509245 
2485	 0.254485596245258 
2486	 0.255131406685712 
2487	 0.25609334633727 
2488	 0.25663484163825 
2489	 0.256890227835067 
2490	 0.257268913573348 
2491	 0.257433244418131 
2492	 0.257773678976486 
2493	 0.258699684499553 
2494	 0.259412942673044 
2495	 0.259421567965757 
2496	 0.259858270250473 
2497	 0.260128571996973 
2498	 0.260535965044117 
2499	 0.261681005038948 
2500	 0.262455542310908 
