Wavelength	Tablay400029.asd
350	 0.164230256961763 
351	 0.119988351266713 
352	 0.111135257560084 
353	 0.14561063010173 
354	 0.108920814469919 
355	 0.165580846588321 
356	 0.218873663397694 
357	 0.183324844015691 
358	 0.146853660600573 
359	 0.142368255682293 
360	 0.173331027550861 
361	 0.208870668018963 
362	 0.158630053817072 
363	 0.141289054516801 
364	 0.185513505051994 
365	 0.157263624711168 
366	 0.119383967456275 
367	 0.122430296934341 
368	 0.178403143458273 
369	 0.190571516210582 
370	 0.126553736183165 
371	 7.14858728229742E-02 
372	 0.156560625847093 
373	 0.172929225927452 
374	 0.143517908932366 
375	 0.107454948049431 
376	 9.25077306769471E-02 
377	 9.92443894792885E-02 
378	 0.110911366096323 
379	 0.109509370836277 
380	 7.10788476269623E-02 
381	 7.64263364791576E-02 
382	 0.103615056566514 
383	 0.080192334018765 
384	 0.102004234422229 
385	 0.129336585825013 
386	 0.13001579810936 
387	 0.104784741407283 
388	 0.106450591127159 
389	 0.105623608033263 
390	 7.98428744610304E-02 
391	 0.11678646613365 
392	 0.127400846224335 
393	 0.104661346272243 
394	 9.52898147888739E-02 
395	 8.84081202755869E-02 
396	 0.076750455459736 
397	 6.49838547426687E-02 
398	 7.68663157685024E-02 
399	 8.59834965566449E-02 
400	 8.97116816736415E-02 
401	 9.04320408423208E-02 
402	 7.61688652511071E-02 
403	 6.73488925781986E-02 
404	 7.05424561468081E-02 
405	 7.93215513721809E-02 
406	 8.15319192143778E-02 
407	 0.078600902732147 
408	 7.31964715340482E-02 
409	 6.45904870659104E-02 
410	 6.56741156995725E-02 
411	 7.33277276159453E-02 
412	 7.73979655445864E-02 
413	 6.02209374055266E-02 
414	 0.055487772204253 
415	 6.92559271516403E-02 
416	 0.080366671648026 
417	 8.15203171173916E-02 
418	 6.88178843487581E-02 
419	 5.03976449647923E-02 
420	 6.20270430650889E-02 
421	 0.065215365274502 
422	 6.28106308412261E-02 
423	 6.93806932477974E-02 
424	 6.05120906953594E-02 
425	 6.02744211233225E-02 
426	 7.03994129062239E-02 
427	 6.57478086592827E-02 
428	 6.18528165409432E-02 
429	 5.89844670818204E-02 
430	 5.61667908366116E-02 
431	 5.87373936590648E-02 
432	 6.12084482621489E-02 
433	 6.20927525596122E-02 
434	 0.062200447013847 
435	 6.15554812055413E-02 
436	 5.99183768911953E-02 
437	 5.84290068517282E-02 
438	 0.060501043671971 
439	 5.84726310155561E-02 
440	 5.56536207702359E-02 
441	 5.68724046527567E-02 
442	 6.00384615835248E-02 
443	 6.09888968811141E-02 
444	 5.92737619326219E-02 
445	 5.74346458003816E-02 
446	 5.61268483892946E-02 
447	 5.69031498003146E-02 
448	 5.91757296479772E-02 
449	 0.057608784183193 
450	 5.74187351595448E-02 
451	 5.82862710456607E-02 
452	 5.81172317640254E-02 
453	 0.057151434660624 
454	 5.73251530090293E-02 
455	 5.79241738535478E-02 
456	 5.54837902887874E-02 
457	 5.57403448005764E-02 
458	 5.70371754595862E-02 
459	 5.70752166271997E-02 
460	 5.64679444726117E-02 
461	 5.59837805040611E-02 
462	 5.58434457842941E-02 
463	 5.59398576900481E-02 
464	 5.65473928135525E-02 
465	 5.62917766063278E-02 
466	 5.48899849784464E-02 
467	 5.37729138386649E-02 
468	 5.51384816706553E-02 
469	 5.61735329384857E-02 
470	 5.44834443080217E-02 
471	 5.53528397261817E-02 
472	 5.69091550873857E-02 
473	 5.73056277407885E-02 
474	 5.52341839394059E-02 
475	 5.41912358236484E-02 
476	 5.40432052538224E-02 
477	 5.43453803564903E-02 
478	 5.55875249645849E-02 
479	 0.055714232234425 
480	 5.50617269587649E-02 
481	 5.48267570721586E-02 
482	 0.054989066937448 
483	 5.57860471882567E-02 
484	 5.63600440084849E-02 
485	 5.47498282232492E-02 
486	 5.43591632986789E-02 
487	 5.47616584503871E-02 
488	 5.49225027533466E-02 
489	 5.47117786120593E-02 
490	 5.50265486761372E-02 
491	 5.52457200809246E-02 
492	 5.42738972016411E-02 
493	 5.53165795139589E-02 
494	 5.59340398889363E-02 
495	 5.52849028082545E-02 
496	 5.61483293329515E-02 
497	 5.63424376099686E-02 
498	 5.61550805808594E-02 
499	 5.64204100539679E-02 
500	 5.70920142586771E-02 
501	 5.69582091447749E-02 
502	 5.64003340008393E-02 
503	 5.70438166831052E-02 
504	 5.70474146413672E-02 
505	 5.71236304220892E-02 
506	 5.76970505877444E-02 
507	 5.73339999712594E-02 
508	 5.80014364304757E-02 
509	 5.91475584229586E-02 
510	 5.93530724197861E-02 
511	 0.059444406304214 
512	 5.94781206439269E-02 
513	 5.95328469969062E-02 
514	 5.97811427325021E-02 
515	 6.04554471155104E-02 
516	 6.10638783036728E-02 
517	 6.11126318317759E-02 
518	 6.06054961444651E-02 
519	 6.08832964234356E-02 
520	 6.18232644103388E-02 
521	 6.23564078659717E-02 
522	 6.29594168436856E-02 
523	 0.06347674222296 
524	 6.38794318978385E-02 
525	 6.45730568319341E-02 
526	 6.48788356434043E-02 
527	 6.49828822543792E-02 
528	 6.53544949184037E-02 
529	 6.61955834977404E-02 
530	 0.066934390266436 
531	 6.73415702249247E-02 
532	 6.76029045504631E-02 
533	 0.068550268497976 
534	 6.93190843314326E-02 
535	 6.94134686197126E-02 
536	 7.04845248880064E-02 
537	 7.14096221632956E-02 
538	 7.20733293039264E-02 
539	 7.28762502630335E-02 
540	 7.34955320666805E-02 
541	 7.40568397941599E-02 
542	 7.47178618368236E-02 
543	 7.56431654874013E-02 
544	 0.076172877439428 
545	 0.076561113322884 
546	 7.71914154669909E-02 
547	 7.76493112675537E-02 
548	 7.82063546447565E-02 
549	 7.88576541969658E-02 
550	 7.93545967821799E-02 
551	 7.99665524178676E-02 
552	 8.04299487837878E-02 
553	 8.07305497499892E-02 
554	 8.17861231201997E-02 
555	 8.23761449250347E-02 
556	 8.26310979212481E-02 
557	 8.32568780111352E-02 
558	 8.40282838107836E-02 
559	 8.47480996507123E-02 
560	 8.54202554227936E-02 
561	 8.63266494712091E-02 
562	 8.70830348246783E-02 
563	 8.77903638796133E-02 
564	 8.85639712995507E-02 
565	 8.90417311146692E-02 
566	 8.95536613428476E-02 
567	 9.00810478915059E-02 
568	 9.03633552415059E-02 
569	 9.06322247444983E-02 
570	 9.07866075449212E-02 
571	 9.08982694508633E-02 
572	 9.15462825500864E-02 
573	 9.19514541925285E-02 
574	 9.21749066096327E-02 
575	 9.25888666265054E-02 
576	 9.33807647593937E-02 
577	 9.39202995600889E-02 
578	 0.094119598645822 
579	 9.45491254278909E-02 
580	 9.48791304586739E-02 
581	 9.53253607265006E-02 
582	 9.59409281510266E-02 
583	 0.095838643235188 
584	 9.63368002123901E-02 
585	 9.71640978315816E-02 
586	 9.72491492211315E-02 
587	 9.75671945684761E-02 
588	 9.79070939193541E-02 
589	 9.82290166415557E-02 
590	 9.90164470831457E-02 
591	 9.95275652283696E-02 
592	 9.97884997512584E-02 
593	 0.100014022475665 
594	 0.100049968199069 
595	 0.100327491614909 
596	 0.100856336430954 
597	 0.10126700124711 
598	 0.101411807870631 
599	 0.101598045604643 
600	 0.102015540732593 
601	 0.102364678184008 
602	 0.102812140048804 
603	 0.103128191786572 
604	 0.103073287625193 
605	 0.103524583994761 
606	 0.103863963451685 
607	 0.104002057596666 
608	 0.104643968757631 
609	 0.104759038267411 
610	 0.104793122676931 
611	 0.105226742845457 
612	 0.105357693040374 
613	 0.105696040430666 
614	 0.106184462455349 
615	 0.106421484206413 
616	 0.106520060853125 
617	 0.106605302334092 
618	 0.10681329671681 
619	 0.107310760836038 
620	 0.107749405008422 
621	 0.107991881548392 
622	 0.10807457421662 
623	 0.108422583861349 
624	 0.108883903048734 
625	 0.109291151469345 
626	 0.109506635233584 
627	 0.109742468692868 
628	 0.109912086073255 
629	 0.110019081339647 
630	 0.110450561069844 
631	 0.110819522323401 
632	 0.111025479146624 
633	 0.111141764276314 
634	 0.111448863553917 
635	 0.111860031354052 
636	 0.112241608631409 
637	 0.112448947687851 
638	 0.112607342392581 
639	 0.112908192659989 
640	 0.113426446599487 
641	 0.113861938185227 
642	 0.114050175954571 
643	 0.114215165499483 
644	 0.114741081133696 
645	 0.115056049680849 
646	 0.115331804841489 
647	 0.115687867936192 
648	 0.116017934342917 
649	 0.116127568508639 
650	 0.116383532300735 
651	 0.117056829325078 
652	 0.11725897236892 
653	 0.117434916941591 
654	 0.117775806312486 
655	 0.118219836032181 
656	 0.118631082730861 
657	 0.119052283019237 
658	 0.119474440323385 
659	 0.119693026339209 
660	 0.120022221869375 
661	 0.120394643016635 
662	 0.120670655190874 
663	 0.121156363130085 
664	 0.121621661788921 
665	 0.121964973139855 
666	 0.122250773529879 
667	 0.122620527311292 
668	 0.12299916486875 
669	 0.123330338581374 
670	 0.123739729711588 
671	 0.124040941642783 
672	 0.124294966873001 
673	 0.124661986818918 
674	 0.125127532482525 
675	 0.125567724368165 
676	 0.125966143488836 
677	 0.12644390791733 
678	 0.126771371848858 
679	 0.127115087046779 
680	 0.127603278482177 
681	 0.127961104310084 
682	 0.128323850489166 
683	 0.12873282818582 
684	 0.129167012892175 
685	 0.12954268559051 
686	 0.129920105526437 
687	 0.130332767123256 
688	 0.130756799593396 
689	 0.131171921949154 
690	 0.131549131960948 
691	 0.131901533521859 
692	 0.132387673979662 
693	 0.132845583722079 
694	 0.133263232906499 
695	 0.133712799953253 
696	 0.134080182723774 
697	 0.134443269401057 
698	 0.134840202355173 
699	 0.135206289283734 
700	 0.135758843020103 
701	 0.136301392983785 
702	 0.136639471760248 
703	 0.137040145811786 
704	 0.137551215724324 
705	 0.138052068596418 
706	 0.138357025367525 
707	 0.138861658514253 
708	 0.139374314682331 
709	 0.13978509199137 
710	 0.140247180969491 
711	 0.140715967054879 
712	 0.141140805300877 
713	 0.14149778437836 
714	 0.141862402792607 
715	 0.142340665844944 
716	 0.142882098214445 
717	 0.14333781272276 
718	 0.143803951556178 
719	 0.144324866817116 
720	 0.144856033437814 
721	 0.145208951856904 
722	 0.145657420479067 
723	 0.146191637971553 
724	 0.146717592448416 
725	 0.147191134600846 
726	 0.147627120721839 
727	 0.148024516964291 
728	 0.148388941043482 
729	 0.148935665619484 
730	 0.149368722290508 
731	 0.14962779052924 
732	 0.150140792892721 
733	 0.150656505648098 
734	 0.151067217794551 
735	 0.151377512332808 
736	 0.15184695523352 
737	 0.152322628754323 
738	 0.152761940308305 
739	 0.153202323025561 
740	 0.153669152362206 
741	 0.154173582731055 
742	 0.15468163597664 
743	 0.155099864430657 
744	 0.155480187031641 
745	 0.155909989960295 
746	 0.156426174141286 
747	 0.156884794224487 
748	 0.157231445532454 
749	 0.157532836737276 
750	 0.157906270804359 
751	 0.15825196628184 
752	 0.158605459634202 
753	 0.158953373540021 
754	 0.159208249429295 
755	 0.159599112284794 
756	 0.159995670419371 
757	 0.160270818634877 
758	 0.160542543279368 
759	 0.160891189003859 
760	 0.161262836185367 
761	 0.161562451459103 
762	 0.161915704368918 
763	 0.162201921948212 
764	 0.16243968200396 
765	 0.162800826112128 
766	 0.163136276688108 
767	 0.163353466738825 
768	 0.163481370312792 
769	 0.16379631902317 
770	 0.164112743344671 
771	 0.164427874790475 
772	 0.164764870045047 
773	 0.164950591375542 
774	 0.165185051890336 
775	 0.165460337532666 
776	 0.165611222114198 
777	 0.16587879254132 
778	 0.166056982125093 
779	 0.166114484793772 
780	 0.166418245307505 
781	 0.166645524024541 
782	 0.166766549695646 
783	 0.166852680837715 
784	 0.166997659956723 
785	 0.167277142940501 
786	 0.167544121913486 
787	 0.167593794688561 
788	 0.167814326633185 
789	 0.167991906114936 
790	 0.168056893339122 
791	 0.168171937317489 
792	 0.168290917904731 
793	 0.168424912130685 
794	 0.16856990563753 
795	 0.168661231908362 
796	 0.168773131496608 
797	 0.168864874830086 
798	 0.16888562239034 
799	 0.168944510316106 
800	 0.169033350849653 
801	 0.169122096007747 
802	 0.169171537818088 
803	 0.169197790460918 
804	 0.169192422104334 
805	 0.169176910529452 
806	 0.169217762410094 
807	 0.169287777303131 
808	 0.16933743451807 
809	 0.169342160380113 
810	 0.169363964862187 
811	 0.169402337293237 
812	 0.169435736651437 
813	 0.169445532101382 
814	 0.169495602996282 
815	 0.169531115407814 
816	 0.169534383540463 
817	 0.169526475713424 
818	 0.169495646633433 
819	 0.169457729704275 
820	 0.169438124560257 
821	 0.169471544349099 
822	 0.169431112435029 
823	 0.169376010835371 
824	 0.169387055601016 
825	 0.169456460874984 
826	 0.169440290554491 
827	 0.169398681123278 
828	 0.169433348918081 
829	 0.169265124597242 
830	 0.169237116170376 
831	 0.169345061906023 
832	 0.169281348555458 
833	 0.169278489413796 
834	 0.16921424475066 
835	 0.169068355008585 
836	 0.169044176977614 
837	 0.169121220319694 
838	 0.169105491164917 
839	 0.168904649711031 
840	 0.168817203898364 
841	 0.168834784803137 
842	 0.168859208379682 
843	 0.168790519149419 
844	 0.168752866141302 
845	 0.168731538271382 
846	 0.168695956345694 
847	 0.168621217167863 
848	 0.168622156405441 
849	 0.168468833020842 
850	 0.168213707114603 
851	 0.168276611692551 
852	 0.168284943884748 
853	 0.168239499134286 
854	 0.168177048204101 
855	 0.168041492727553 
856	 0.167944364124844 
857	 0.16792758781707 
858	 0.167970402291956 
859	 0.167943931795384 
860	 0.167832897311127 
861	 0.167700135136233 
862	 0.16763957807107 
863	 0.167655034743858 
864	 0.167685330378728 
865	 0.167694852372166 
866	 0.167676112930183 
867	 0.167600266591245 
868	 0.167528518259083 
869	 0.167505662833657 
870	 0.167533465986928 
871	 0.167574076923606 
872	 0.167557868131972 
873	 0.167475526568305 
874	 0.167456033966818 
875	 0.167425079895724 
876	 0.167451150760059 
877	 0.167561743898152 
878	 0.167492974470337 
879	 0.167464990092716 
880	 0.167464353456347 
881	 0.167402452497394 
882	 0.167458677453975 
883	 0.167517759586545 
884	 0.167492645247185 
885	 0.167375873340723 
886	 0.167490519131879 
887	 0.167616951749718 
888	 0.16759427973049 
889	 0.167434754644507 
890	 0.167575948655876 
891	 0.167667307091946 
892	 0.167528208948633 
893	 0.167509772972085 
894	 0.167551999634862 
895	 0.167631470579906 
896	 0.167723195241158 
897	 0.167806344634374 
898	 0.167766828419551 
899	 0.16773515072717 
900	 0.167840697000579 
901	 0.167861453484574 
902	 0.167961538715793 
903	 0.168079055695713 
904	 0.168075433653939 
905	 0.168034460439375 
906	 0.168181002229197 
907	 0.168385269174309 
908	 0.16832608066972 
909	 0.168305858959949 
910	 0.168352312732886 
911	 0.168435359430583 
912	 0.168500829441117 
913	 0.168614665179712 
914	 0.168700154734562 
915	 0.168717321041886 
916	 0.168709956227762 
917	 0.16885460544094 
918	 0.16891130757298 
919	 0.168840128806079 
920	 0.16911351730868 
921	 0.16924322676874 
922	 0.169227752038726 
923	 0.169258546646775 
924	 0.169679466716057 
925	 0.16993052819961 
926	 0.169922409751895 
927	 0.169824757503546 
928	 0.170056569902451 
929	 0.170309640773674 
930	 0.170507881234108 
931	 0.170643520892422 
932	 0.170514118936611 
933	 0.170660592911202 
934	 0.170938860642548 
935	 0.17095433495317 
936	 0.17121919105173 
937	 0.171482207281146 
938	 0.171685807034814 
939	 0.171926509911573 
940	 0.172189487015388 
941	 0.172317337957721 
942	 0.172323956060821 
943	 0.172390138106488 
944	 0.172682422598236 
945	 0.173075015503005 
946	 0.173354002461646 
947	 0.173322556613983 
948	 0.173421060240194 
949	 0.173605967070311 
950	 0.173816309214804 
951	 0.174056761100246 
952	 0.174195102097035 
953	 0.174237880092934 
954	 0.174347743131987 
955	 0.174829870127368 
956	 0.175235046067126 
957	 0.1754447630509 
958	 0.175523127424849 
959	 0.175698985448283 
960	 0.175658491205525 
961	 0.175876447884837 
962	 0.176424437553305 
963	 0.176272581258925 
964	 0.176290684731975 
965	 0.176607374419686 
966	 0.177004780145277 
967	 0.176960787884742 
968	 0.177351314652818 
969	 0.177814605037838 
970	 0.177922009096938 
971	 0.178000700776911 
972	 0.178262801496366 
973	 0.178422293647522 
974	 0.178324821773272 
975	 0.178633046033582 
976	 0.178833486125958 
977	 0.17918729012429 
978	 0.179787456750596 
979	 0.179446416821096 
980	 0.179637640714639 
981	 0.180052916964685 
982	 0.180139743968043 
983	 0.180671189302835 
984	 0.180690471032336 
985	 0.180866183502545 
986	 0.181727581553255 
987	 0.181358307172799 
988	 0.181752553373133 
989	 0.182406345417718 
990	 0.182377727876858 
991	 0.182498831671758 
992	 0.18262225368059 
993	 0.182963856162029 
994	 0.183510473937059 
995	 0.183080497267293 
996	 0.18340647789376 
997	 0.18415237514734 
998	 0.184447025402701 
999	 0.184385993965514 
1000	 0.184538753690592 
1001	 0.187686569604185 
1002	 0.188043421595071 
1003	 0.188411990678254 
1004	 0.188708835965985 
1005	 0.188996481859056 
1006	 0.189294350454169 
1007	 0.189501778737853 
1008	 0.189799966337884 
1009	 0.190155044449009 
1010	 0.190534762404152 
1011	 0.190959925377923 
1012	 0.191330464430173 
1013	 0.191734040162055 
1014	 0.192122243623223 
1015	 0.192412643965061 
1016	 0.19285636861571 
1017	 0.193194117868225 
1018	 0.193368604094358 
1019	 0.193624055253601 
1020	 0.193774095801947 
1021	 0.194168060358526 
1022	 0.194879160313265 
1023	 0.195260298302975 
1024	 0.195570358867056 
1025	 0.195948219579415 
1026	 0.196166639936108 
1027	 0.196467415825088 
1028	 0.196903387206639 
1029	 0.197350405005603 
1030	 0.197523494428665 
1031	 0.197578272916695 
1032	 0.197861380275353 
1033	 0.198161966632822 
1034	 0.198626610859713 
1035	 0.199051280739938 
1036	 0.199312529063085 
1037	 0.199395117351449 
1038	 0.199703496894768 
1039	 0.200036227854249 
1040	 0.200325832859489 
1041	 0.200733125057609 
1042	 0.201022709810624 
1043	 0.201157001262968 
1044	 0.201315224270111 
1045	 0.201713691073935 
1046	 0.202093379958855 
1047	 0.202341884835869 
1048	 0.202605841111622 
1049	 0.202829166890482 
1050	 0.20300331667191 
1051	 0.203239995693449 
1052	 0.203662159987098 
1053	 0.204049610058129 
1054	 0.204467240744824 
1055	 0.204900480204848 
1056	 0.205333135214878 
1057	 0.205749426660527 
1058	 0.206203222430029 
1059	 0.206648699843021 
1060	 0.20697013291843 
1061	 0.207440709158591 
1062	 0.207769649448625 
1063	 0.208118861255055 
1064	 0.208755217355955 
1065	 0.209283898870053 
1066	 0.20980336302131 
1067	 0.210470247766351 
1068	 0.210923149335695 
1069	 0.211388740235173 
1070	 0.211866491874742 
1071	 0.212415600337638 
1072	 0.212763911255473 
1073	 0.213221609051464 
1074	 0.213689397688265 
1075	 0.214167004432822 
1076	 0.214773014385805 
1077	 0.215263573782522 
1078	 0.215783456264454 
1079	 0.21639867024512 
1080	 0.217064861889577 
1081	 0.217702563188399 
1082	 0.21817553140024 
1083	 0.218631523812665 
1084	 0.219079609603505 
1085	 0.219590315303306 
1086	 0.220132693532778 
1087	 0.22079973434264 
1088	 0.221383010789315 
1089	 0.221839738881922 
1090	 0.22231787110599 
1091	 0.222939000283589 
1092	 0.223500688168915 
1093	 0.224058883194324 
1094	 0.224653447552779 
1095	 0.225046610859823 
1096	 0.225555712876293 
1097	 0.226199681587017 
1098	 0.226667992449712 
1099	 0.227151169388568 
1100	 0.227633841376622 
1101	 0.227892448686675 
1102	 0.228124999219128 
1103	 0.228477912882328 
1104	 0.228872523245285 
1105	 0.229216660548326 
1106	 0.229668541146124 
1107	 0.230178218912741 
1108	 0.230572867588632 
1109	 0.230979247055364 
1110	 0.231361601448704 
1111	 0.231810290284069 
1112	 0.232279387390922 
1113	 0.232612585287636 
1114	 0.233033750862178 
1115	 0.233469097091685 
1116	 0.233800460915611 
1117	 0.234172682543805 
1118	 0.234534230119875 
1119	 0.234847094046876 
1120	 0.235157763938157 
1121	 0.235471972121518 
1122	 0.235833347424362 
1123	 0.236109066265824 
1124	 0.236346629480036 
1125	 0.23659456645891 
1126	 0.2368033417022 
1127	 0.237074704899186 
1128	 0.237402402525158 
1129	 0.237664897670409 
1130	 0.237906726032857 
1131	 0.238176344991523 
1132	 0.238433024632311 
1133	 0.238676289790544 
1134	 0.238965358918016 
1135	 0.239247052344555 
1136	 0.239488476347557 
1137	 0.239731952739098 
1138	 0.240034521770188 
1139	 0.240288432520231 
1140	 0.240491503189867 
1141	 0.240696889852538 
1142	 0.240941794590759 
1143	 0.241146759357099 
1144	 0.241383453108059 
1145	 0.241651875338594 
1146	 0.24188884320109 
1147	 0.242154116246403 
1148	 0.242426776978771 
1149	 0.242653384767873 
1150	 0.24292606088627 
1151	 0.243212782008651 
1152	 0.243483718481943 
1153	 0.243762765123056 
1154	 0.244026620160032 
1155	 0.244244374741342 
1156	 0.244526827444672 
1157	 0.244819425978766 
1158	 0.245130299679013 
1159	 0.245513966590128 
1160	 0.245872289663294 
1161	 0.246106767764593 
1162	 0.246339045146132 
1163	 0.246585587419439 
1164	 0.246793238751894 
1165	 0.247035245644401 
1166	 0.247350612643084 
1167	 0.247607264018888 
1168	 0.24784954415169 
1169	 0.248156497897684 
1170	 0.248526610275317 
1171	 0.248866898826033 
1172	 0.249260251058127 
1173	 0.24957057317684 
1174	 0.24984549786613 
1175	 0.250082251538211 
1176	 0.250230765378631 
1177	 0.250451482561477 
1178	 0.250675344119175 
1179	 0.250917691796853 
1180	 0.251179226454003 
1181	 0.251443219813307 
1182	 0.251723244256751 
1183	 0.251979077887845 
1184	 0.252259278308646 
1185	 0.25256530398463 
1186	 0.2528647448469 
1187	 0.253184945399965 
1188	 0.253456321114341 
1189	 0.253685511590011 
1190	 0.253968367913122 
1191	 0.254253662493003 
1192	 0.254538445552911 
1193	 0.254845544583142 
1194	 0.25516056532609 
1195	 0.255510506470447 
1196	 0.255786629351037 
1197	 0.255991105580356 
1198	 0.256309737214084 
1199	 0.256621081752234 
1200	 0.256815209451582 
1201	 0.257173373718307 
1202	 0.257548257711325 
1203	 0.257836586538496 
1204	 0.258229389570719 
1205	 0.258609776804472 
1206	 0.259024486927464 
1207	 0.259388930889657 
1208	 0.259730524716355 
1209	 0.260100387368944 
1210	 0.260456479871949 
1211	 0.260832559472991 
1212	 0.261248612838977 
1213	 0.261666040607475 
1214	 0.262038754912043 
1215	 0.262473802607653 
1216	 0.262989264969299 
1217	 0.263466855257675 
1218	 0.263957104762142 
1219	 0.264425968837415 
1220	 0.264956906376557 
1221	 0.265482471159533 
1222	 0.26601433067909 
1223	 0.266653361909241 
1224	 0.26719319458023 
1225	 0.267701105462886 
1226	 0.268171223953069 
1227	 0.268583010692186 
1228	 0.269027763071968 
1229	 0.269428868640941 
1230	 0.269904873259832 
1231	 0.270500553201662 
1232	 0.27094549227693 
1233	 0.271315886387471 
1234	 0.271724611924795 
1235	 0.272016219148758 
1236	 0.272416425083052 
1237	 0.272970674420123 
1238	 0.273426552651241 
1239	 0.273833363696021 
1240	 0.274306627611302 
1241	 0.274656159300654 
1242	 0.274981396652452 
1243	 0.275346540986864 
1244	 0.275694918271626 
1245	 0.276066270031519 
1246	 0.276477781252446 
1247	 0.276859744107818 
1248	 0.277242785808252 
1249	 0.277610449853398 
1250	 0.277980222449471 
1251	 0.278313203602683 
1252	 0.278608250618472 
1253	 0.278920047698679 
1254	 0.279205133336279 
1255	 0.279509258569894 
1256	 0.279831486256103 
1257	 0.280150710409548 
1258	 0.280508062865277 
1259	 0.280805399675727 
1260	 0.2810671472208 
1261	 0.281329570260566 
1262	 0.28154264031908 
1263	 0.281767498814992 
1264	 0.281996255918745 
1265	 0.282237125143842 
1266	 0.282477676654837 
1267	 0.282709280538927 
1268	 0.282958897299374 
1269	 0.283254893711913 
1270	 0.283470591963937 
1271	 0.283650029206728 
1272	 0.283836958443623 
1273	 0.283922197452272 
1274	 0.284150341502458 
1275	 0.284484329455246 
1276	 0.284758718907165 
1277	 0.285068031827796 
1278	 0.285378175490849 
1279	 0.285616468032332 
1280	 0.28594049131721 
1281	 0.286351254105153 
1282	 0.286745819153092 
1283	 0.287152756737466 
1284	 0.287583238756402 
1285	 0.288029387940545 
1286	 0.288475899117799 
1287	 0.288965760136804 
1288	 0.289504969280289 
1289	 0.290016445330533 
1290	 0.29053988659791 
1291	 0.291059853778156 
1292	 0.291544117121781 
1293	 0.292103781838681 
1294	 0.292735494714697 
1295	 0.293295240302901 
1296	 0.293850058443424 
1297	 0.294423001930163 
1298	 0.294981050373831 
1299	 0.295513089917568 
1300	 0.296049347840236 
1301	 0.296597764815544 
1302	 0.297114195430723 
1303	 0.297630778966662 
1304	 0.298184745029631 
1305	 0.298718330611322 
1306	 0.299224184822901 
1307	 0.29971557050453 
1308	 0.300155003131606 
1309	 0.30069886204758 
1310	 0.301134171580252 
1311	 0.301512304668054 
1312	 0.301928739974566 
1313	 0.302351882561391 
1314	 0.302715352709737 
1315	 0.303061502535814 
1316	 0.303404680843302 
1317	 0.303692640536175 
1318	 0.304005624092516 
1319	 0.304349948847362 
1320	 0.304658578545992 
1321	 0.304937896883402 
1322	 0.305218191589198 
1323	 0.305493966186164 
1324	 0.305760347235241 
1325	 0.306035452744427 
1326	 0.306267096568654 
1327	 0.306478847364239 
1328	 0.306669123738134 
1329	 0.306811983781153 
1330	 0.306962037121867 
1331	 0.307102248420505 
1332	 0.30723892583129 
1333	 0.307392378839077 
1334	 0.307509492173268 
1335	 0.307587312097892 
1336	 0.307632945506003 
1337	 0.307696509241718 
1338	 0.307709840497625 
1339	 0.307793367341249 
1340	 0.307946682390464 
1341	 0.308013508808491 
1342	 0.308080453758312 
1343	 0.308096409179058 
1344	 0.308061700463632 
1345	 0.308009999192926 
1346	 0.307875409460609 
1347	 0.30785763599071 
1348	 0.307873833013039 
1349	 0.307875366171613 
1350	 0.307988504278035 
1351	 0.307988617776877 
1352	 0.307901697845869 
1353	 0.307832564584103 
1354	 0.307689031962504 
1355	 0.307628989227303 
1356	 0.307617591409824 
1357	 0.307590696381003 
1358	 0.307641651939424 
1359	 0.307625216853778 
1360	 0.307558261777895 
1361	 0.30746948878192 
1362	 0.307427636062067 
1363	 0.307364370673072 
1364	 0.307306304316886 
1365	 0.307267259013313 
1366	 0.307230092834675 
1367	 0.307186562766351 
1368	 0.307127256835914 
1369	 0.307096008165664 
1370	 0.307010026161933 
1371	 0.306875889649524 
1372	 0.30675022986958 
1373	 0.306601089724912 
1374	 0.306477579478376 
1375	 0.30636407559357 
1376	 0.306224998151215 
1377	 0.306079898500812 
1378	 0.305945777129863 
1379	 0.305777571806439 
1380	 0.305653674948469 
1381	 0.305598295851139 
1382	 0.305478230649643 
1383	 0.305321805484623 
1384	 0.305194138955382 
1385	 0.305018851960775 
1386	 0.304904972478357 
1387	 0.304888605874284 
1388	 0.304810121254716 
1389	 0.304697617805105 
1390	 0.304622548987581 
1391	 0.304541336271375 
1392	 0.304440322718738 
1393	 0.304423765683273 
1394	 0.304435006648645 
1395	 0.304474873248118 
1396	 0.30456172377799 
1397	 0.304608434792759 
1398	 0.304687248911526 
1399	 0.304706999399499 
1400	 0.30469939904111 
1401	 0.304647127176985 
1402	 0.304576813817011 
1403	 0.304446471451675 
1404	 0.304249742978302 
1405	 0.304059918074204 
1406	 0.303825730199979 
1407	 0.303607176227569 
1408	 0.303398109576638 
1409	 0.30314931827286 
1410	 0.302843808631293 
1411	 0.302604925179654 
1412	 0.302365202431848 
1413	 0.302150881951646 
1414	 0.302019359145672 
1415	 0.301829320257485 
1416	 0.301582604640933 
1417	 0.301387799941922 
1418	 0.301188532250707 
1419	 0.301025672202881 
1420	 0.300898377531128 
1421	 0.300799411895383 
1422	 0.300747023233733 
1423	 0.300672017435186 
1424	 0.300603717747779 
1425	 0.30056617569645 
1426	 0.300487258022856 
1427	 0.300381768451357 
1428	 0.300266555557437 
1429	 0.300223036486905 
1430	 0.300197535935308 
1431	 0.30019506589296 
1432	 0.300211429062918 
1433	 0.300279699477787 
1434	 0.300305078248194 
1435	 0.300347043167915 
1436	 0.300342129198697 
1437	 0.300304578908722 
1438	 0.300273008329074 
1439	 0.300203072548644 
1440	 0.300163219332938 
1441	 0.30010915559477 
1442	 0.300126916093714 
1443	 0.300186329950584 
1444	 0.300245926111233 
1445	 0.300325881018082 
1446	 0.300461576551198 
1447	 0.300580101100064 
1448	 0.300803928802255 
1449	 0.301130203708945 
1450	 0.301476513086438 
1451	 0.301893993232816 
1452	 0.302313494477766 
1453	 0.302760256736696 
1454	 0.303235847469219 
1455	 0.303737190174045 
1456	 0.304253139218622 
1457	 0.304839593744389 
1458	 0.305372646652084 
1459	 0.305883296126999 
1460	 0.306402628160662 
1461	 0.306907772425403 
1462	 0.307400919124845 
1463	 0.30789664103773 
1464	 0.30838195489851 
1465	 0.308842102562593 
1466	 0.3093124122086 
1467	 0.309737844086989 
1468	 0.310192270219165 
1469	 0.31068755214032 
1470	 0.311133761551735 
1471	 0.311590501798464 
1472	 0.312087104631597 
1473	 0.312518264813607 
1474	 0.312902716847987 
1475	 0.313286560932695 
1476	 0.313643441628373 
1477	 0.31402417370473 
1478	 0.314385943354867 
1479	 0.314779871568403 
1480	 0.315223042320013 
1481	 0.315598317849029 
1482	 0.315965142821256 
1483	 0.316306711889462 
1484	 0.316575801012419 
1485	 0.316918119941458 
1486	 0.317293577323875 
1487	 0.317633400446663 
1488	 0.317977533819899 
1489	 0.318338669374095 
1490	 0.318697527673678 
1491	 0.319041447331905 
1492	 0.319398440470957 
1493	 0.319753501495032 
1494	 0.320062404041965 
1495	 0.32041525502227 
1496	 0.32080927909463 
1497	 0.32119803885478 
1498	 0.321585217439148 
1499	 0.321996654452577 
1500	 0.322439857691525 
1501	 0.322864765845166 
1502	 0.323295272438499 
1503	 0.323721159914227 
1504	 0.324159269187621 
1505	 0.32455902683858 
1506	 0.324953003535047 
1507	 0.32532047184713 
1508	 0.325637334778999 
1509	 0.325958704321025 
1510	 0.326263194590537 
1511	 0.326571502830042 
1512	 0.326888990233448 
1513	 0.327180127473714 
1514	 0.327476333960725 
1515	 0.327738890146331 
1516	 0.327932072436611 
1517	 0.328165946439582 
1518	 0.328397613724749 
1519	 0.328640460263986 
1520	 0.328934531709711 
1521	 0.329211152397703 
1522	 0.329381158496156 
1523	 0.32956709848467 
1524	 0.329764802052284 
1525	 0.329919341244162 
1526	 0.330114124645694 
1527	 0.330367928577207 
1528	 0.330556267415773 
1529	 0.330696396311669 
1530	 0.330893233402733 
1531	 0.331120850864742 
1532	 0.33128332664234 
1533	 0.33143960017956 
1534	 0.331591089723208 
1535	 0.331676156001922 
1536	 0.331839735821501 
1537	 0.332066366266059 
1538	 0.33223303253018 
1539	 0.332397138170815 
1540	 0.332548667453579 
1541	 0.332634385825459 
1542	 0.332834707964633 
1543	 0.333085328728537 
1544	 0.333333847900694 
1545	 0.333656437887709 
1546	 0.333925672154592 
1547	 0.334166568478426 
1548	 0.334422431952539 
1549	 0.334665980807865 
1550	 0.33494524860563 
1551	 0.33526604285034 
1552	 0.335526575594953 
1553	 0.335794139660345 
1554	 0.336025915525442 
1555	 0.336170823896044 
1556	 0.336395615266276 
1557	 0.336648700981345 
1558	 0.336902961315302 
1559	 0.337208385860445 
1560	 0.337458155500894 
1561	 0.337675670160804 
1562	 0.337911485168614 
1563	 0.338119813478936 
1564	 0.338360298511118 
1565	 0.338638095009641 
1566	 0.33888958504414 
1567	 0.339139150255733 
1568	 0.339385455332069 
1569	 0.339620575037714 
1570	 0.339857793046109 
1571	 0.340118989693275 
1572	 0.340330642997939 
1573	 0.340497338149154 
1574	 0.340694711608576 
1575	 0.340849565935433 
1576	 0.341067600301665 
1577	 0.341349961350359 
1578	 0.341605814402721 
1579	 0.341909636054254 
1580	 0.342142800656621 
1581	 0.342310514925311 
1582	 0.342520757550697 
1583	 0.34271680330614 
1584	 0.342915981273303 
1585	 0.343145713833868 
1586	 0.343359452331814 
1587	 0.343543580625136 
1588	 0.343746361863292 
1589	 0.343971740750794 
1590	 0.344181151708645 
1591	 0.344380034294776 
1592	 0.344584777371492 
1593	 0.344799779826147 
1594	 0.344993176781027 
1595	 0.345154617551986 
1596	 0.345356691207042 
1597	 0.345578227795446 
1598	 0.345777684375268 
1599	 0.346015344150909 
1600	 0.346213637089588 
1601	 0.346340487769634 
1602	 0.346514175970547 
1603	 0.346718855032551 
1604	 0.346891915342018 
1605	 0.347061493304041 
1606	 0.347237213181997 
1607	 0.347389285944878 
1608	 0.347554915914139 
1609	 0.34774875024859 
1610	 0.347923388151268 
1611	 0.348085270070964 
1612	 0.348247262618713 
1613	 0.348421970472938 
1614	 0.348566134481742 
1615	 0.348696666869302 
1616	 0.348807306517217 
1617	 0.348873093643958 
1618	 0.348960414394653 
1619	 0.349042831507672 
1620	 0.349134268153964 
1621	 0.349281455740107 
1622	 0.349346401081285 
1623	 0.349354526889346 
1624	 0.349381143571933 
1625	 0.349288433089372 
1626	 0.349336999293105 
1627	 0.3495353539618 
1628	 0.349643378268122 
1629	 0.349796468136583 
1630	 0.349910128540825 
1631	 0.349920720343611 
1632	 0.349980666730182 
1633	 0.350069147956122 
1634	 0.350150512122498 
1635	 0.350262363036221 
1636	 0.35033062953991 
1637	 0.350365236730921 
1638	 0.350417963141199 
1639	 0.350406702652781 
1640	 0.350470631782257 
1641	 0.350656496365219 
1642	 0.350734366714146 
1643	 0.350802277620827 
1644	 0.350841362298036 
1645	 0.350776562164562 
1646	 0.350745646071225 
1647	 0.350712158544832 
1648	 0.350706484039809 
1649	 0.350733225672778 
1650	 0.350729321298228 
1651	 0.350760054815932 
1652	 0.350732390589403 
1653	 0.350628246424667 
1654	 0.350554925438772 
1655	 0.350499928776582 
1656	 0.350392806888295 
1657	 0.35029139008047 
1658	 0.350124491724434 
1659	 0.349846940266718 
1660	 0.349634240297321 
1661	 0.349449759385058 
1662	 0.349211209871338 
1663	 0.348995374750667 
1664	 0.348713121533983 
1665	 0.348370690521905 
1666	 0.347982980091438 
1667	 0.347532318770221 
1668	 0.347096114408783 
1669	 0.346632720195719 
1670	 0.346125010963904 
1671	 0.345678875285199 
1672	 0.345068501668102 
1673	 0.344299450315008 
1674	 0.34355970216247 
1675	 0.342773750313234 
1676	 0.341920590451963 
1677	 0.341066134224119 
1678	 0.340126347178099 
1679	 0.339027581835409 
1680	 0.338012838583713 
1681	 0.337012409245217 
1682	 0.335954567793512 
1683	 0.334969476025975 
1684	 0.333812075105806 
1685	 0.332508674516888 
1686	 0.331241357320075 
1687	 0.329897095473156 
1688	 0.328512440060409 
1689	 0.327134720680293 
1690	 0.325677946368879 
1691	 0.324118389214715 
1692	 0.322618409702371 
1693	 0.321132081355782 
1694	 0.319561006358671 
1695	 0.317976635238633 
1696	 0.316326086530984 
1697	 0.314560765639149 
1698	 0.312869488970266 
1699	 0.311222013595548 
1700	 0.309477631094789 
1701	 0.307686389546872 
1702	 0.305948408791733 
1703	 0.304078922127904 
1704	 0.302448716013578 
1705	 0.300947619215613 
1706	 0.29939695578691 
1707	 0.298126398003772 
1708	 0.296898609212296 
1709	 0.295767153339057 
1710	 0.294829353152043 
1711	 0.293879586116465 
1712	 0.292966532031491 
1713	 0.292096442496576 
1714	 0.291209383616793 
1715	 0.290410953801003 
1716	 0.289702364209908 
1717	 0.289065791557477 
1718	 0.288521136383502 
1719	 0.287967210740817 
1720	 0.287383111440436 
1721	 0.286789531243166 
1722	 0.286260274089965 
1723	 0.285848362797234 
1724	 0.285553060323346 
1725	 0.28543119579139 
1726	 0.285356078096832 
1727	 0.285374482166137 
1728	 0.285559844231558 
1729	 0.285860626066133 
1730	 0.286349157528192 
1731	 0.286948500399049 
1732	 0.287625632677499 
1733	 0.288348627111914 
1734	 0.289170630626145 
1735	 0.29012548385006 
1736	 0.291006694769329 
1737	 0.291774832620095 
1738	 0.292304601603049 
1739	 0.292790152661627 
1740	 0.293229368724292 
1741	 0.293537222013677 
1742	 0.293791557066753 
1743	 0.293893324704138 
1744	 0.293730130564216 
1745	 0.293653567951975 
1746	 0.293519389157012 
1747	 0.293375326734871 
1748	 0.293226634330314 
1749	 0.293101602878558 
1750	 0.292924035011704 
1751	 0.292855759853587 
1752	 0.292855595335234 
1753	 0.292903697287681 
1754	 0.292960656789373 
1755	 0.293159081052761 
1756	 0.293475993554755 
1757	 0.293756894392039 
1758	 0.294159404575832 
1759	 0.294616638446014 
1760	 0.295200620842033 
1761	 0.295973410539928 
1762	 0.296809956932109 
1763	 0.297731939197071 
1764	 0.29871072113717 
1765	 0.299733911906142 
1766	 0.300843073057972 
1767	 0.30199489680209 
1768	 0.303255272451377 
1769	 0.304573485051925 
1770	 0.305817189166732 
1771	 0.306956953649884 
1772	 0.30792086583724 
1773	 0.308843129951452 
1774	 0.309801689916448 
1775	 0.310734492217292 
1776	 0.311686704771678 
1777	 0.312487943240755 
1778	 0.313181435176571 
1779	 0.313918103408445 
1780	 0.314529855122048 
1781	 0.315053619469163 
1782	 0.315650981686988 
1783	 0.316155375885794 
1784	 0.316567276684267 
1785	 0.317075668877562 
1786	 0.317446774532627 
1787	 0.317657871278622 
1788	 0.318014160060273 
1789	 0.318381371620862 
1790	 0.31867953852699 
1791	 0.319036572664057 
1792	 0.319302043968252 
1793	 0.319475579416488 
1794	 0.31969403398483 
1795	 0.319848869409702 
1796	 0.320018156674611 
1797	 0.320268227684705 
1798	 0.320600202594986 
1799	 0.320939589719118 
1800	 0.321169142684288 
1801	 0.33396905380198 
1802	 0.334193729732129 
1803	 0.334463461676366 
1804	 0.334710106387696 
1805	 0.334917412779161 
1806	 0.335136375850473 
1807	 0.335362225455319 
1808	 0.335611212204678 
1809	 0.335820670390159 
1810	 0.336084403900911 
1811	 0.336457865036274 
1812	 0.336740634708453 
1813	 0.33696371438246 
1814	 0.337246921571785 
1815	 0.337490214243057 
1816	 0.337738188578726 
1817	 0.338038429250473 
1818	 0.338388656957919 
1819	 0.338735108351582 
1820	 0.339112648377084 
1821	 0.33948061997295 
1822	 0.33986810792225 
1823	 0.340248715295072 
1824	 0.340576242268737 
1825	 0.340951588500953 
1826	 0.341311456393595 
1827	 0.341659044693886 
1828	 0.341991219167566 
1829	 0.342359607018959 
1830	 0.342660175217735 
1831	 0.342884287042646 
1832	 0.343161846874321 
1833	 0.343451927660951 
1834	 0.34370458340442 
1835	 0.344092478571759 
1836	 0.344477910471189 
1837	 0.344809759302577 
1838	 0.345155927029589 
1839	 0.345468721143584 
1840	 0.345703864640739 
1841	 0.346004984695845 
1842	 0.34635250216928 
1843	 0.346645614558364 
1844	 0.346948188588342 
1845	 0.347150358586291 
1846	 0.347388706036502 
1847	 0.347655584596808 
1848	 0.347901942921501 
1849	 0.348179619928177 
1850	 0.348441368975441 
1851	 0.348685672261911 
1852	 0.348908761652838 
1853	 0.349163683603143 
1854	 0.349363022422122 
1855	 0.349510420423635 
1856	 0.349697116234655 
1857	 0.349820964890891 
1858	 0.349847892039269 
1859	 0.349863570345489 
1860	 0.349823661906741 
1861	 0.349761387243742 
1862	 0.349643113293718 
1863	 0.349578906603779 
1864	 0.349474998727605 
1865	 0.349327485252819 
1866	 0.349127543240116 
1867	 0.34887981069456 
1868	 0.348629496962232 
1869	 0.348254297852696 
1870	 0.347885235797552 
1871	 0.347529948803069 
1872	 0.347127111074414 
1873	 0.34666523867514 
1874	 0.346220149990893 
1875	 0.345765711036672 
1876	 0.345088939685234 
1877	 0.344398568026622 
1878	 0.343666162365964 
1879	 0.342819972131242 
1880	 0.341987325116223 
1881	 0.341042692926042 
1882	 0.340008150672439 
1883	 0.338916108312746 
1884	 0.337785584804349 
1885	 0.336455763603791 
1886	 0.335101087670409 
1887	 0.333570224990489 
1888	 0.331797019225287 
1889	 0.330104896196872 
1890	 0.328306613094012 
1891	 0.326492346572733 
1892	 0.324741463389594 
1893	 0.322871385022815 
1894	 0.320897223094516 
1895	 0.318904928935574 
1896	 0.316879404593752 
1897	 0.314816801424647 
1898	 0.312873041535686 
1899	 0.310906816822389 
1900	 0.309021910383776 
1901	 0.307256201892015 
1902	 0.305373839963079 
1903	 0.30364969487037 
1904	 0.301970948642492 
1905	 0.300340699933779 
1906	 0.298658281854518 
1907	 0.297206586792625 
1908	 0.295783160806542 
1909	 0.294411395288522 
1910	 0.293180881811899 
1911	 0.291954716992746 
1912	 0.290813588775441 
1913	 0.289732384195737 
1914	 0.288756868124987 
1915	 0.287834557281892 
1916	 0.287016923940991 
1917	 0.286202140574593 
1918	 0.285448338564956 
1919	 0.28474408366646 
1920	 0.284092666650453 
1921	 0.283510197375459 
1922	 0.282966715494565 
1923	 0.282386136793091 
1924	 0.281832762472654 
1925	 0.281372604279207 
1926	 0.280964709288773 
1927	 0.280651332355369 
1928	 0.280300295588362 
1929	 0.279988794667403 
1930	 0.279669487860556 
1931	 0.279334187117989 
1932	 0.27907102808183 
1933	 0.278898432799076 
1934	 0.278773300406682 
1935	 0.278686512851073 
1936	 0.278681954267955 
1937	 0.278718608340355 
1938	 0.27881112954635 
1939	 0.278941721447915 
1940	 0.279126439592333 
1941	 0.279341054457581 
1942	 0.279628872924874 
1943	 0.279931088035495 
1944	 0.280252672463023 
1945	 0.280604612039523 
1946	 0.2809656369768 
1947	 0.281399313692526 
1948	 0.281918857712349 
1949	 0.282511549036099 
1950	 0.283079054095084 
1951	 0.283671138678918 
1952	 0.284269281341789 
1953	 0.284852085285064 
1954	 0.285461285764686 
1955	 0.286184120490403 
1956	 0.286938780898455 
1957	 0.287765727471066 
1958	 0.288587502880018 
1959	 0.289294419843678 
1960	 0.290004092791308 
1961	 0.290694241978966 
1962	 0.291340168087665 
1963	 0.291980052606903 
1964	 0.292626134498889 
1965	 0.293215823537827 
1966	 0.293770768806124 
1967	 0.29430416377971 
1968	 0.294768996425119 
1969	 0.295269720978606 
1970	 0.295744337386829 
1971	 0.296198156663432 
1972	 0.296712270373746 
1973	 0.29722764253155 
1974	 0.297743872204814 
1975	 0.298286787573008 
1976	 0.298811168386119 
1977	 0.299299284220242 
1978	 0.299831763799673 
1979	 0.300385906928479 
1980	 0.300962304073179 
1981	 0.3014907124595 
1982	 0.302008100536196 
1983	 0.302539803490689 
1984	 0.303032688360015 
1985	 0.303607433571644 
1986	 0.304280565150391 
1987	 0.304888561926218 
1988	 0.305478705708262 
1989	 0.306102468595085 
1990	 0.306680928017084 
1991	 0.307341654947215 
1992	 0.308046645049179 
1993	 0.308815754492726 
1994	 0.309651236883351 
1995	 0.310468954053255 
1996	 0.311205542171897 
1997	 0.311987708392147 
1998	 0.312756371583329 
1999	 0.313451817121077 
2000	 0.314229263771535 
2001	 0.315147768541184 
2002	 0.315869318082074 
2003	 0.316534351202921 
2004	 0.317158341191758 
2005	 0.317629007742684 
2006	 0.318166852568081 
2007	 0.318728898190225 
2008	 0.31925638697766 
2009	 0.319800626439968 
2010	 0.320320046050527 
2011	 0.320717006734948 
2012	 0.321095938704191 
2013	 0.321445394994747 
2014	 0.321739557676096 
2015	 0.321969688324443 
2016	 0.32214639359569 
2017	 0.32233228326199 
2018	 0.322460908410366 
2019	 0.322590233361691 
2020	 0.322728647159965 
2021	 0.322879592080199 
2022	 0.322945768008103 
2023	 0.322853687053344 
2024	 0.322799184401314 
2025	 0.322726340391873 
2026	 0.322637318025727 
2027	 0.322548640548844 
2028	 0.322422699517224 
2029	 0.322250005854123 
2030	 0.322089517536597 
2031	 0.321913196343755 
2032	 0.321740817237059 
2033	 0.321575889017653 
2034	 0.321388954212779 
2035	 0.321217484782838 
2036	 0.320958131337901 
2037	 0.32072319783637 
2038	 0.320499846027018 
2039	 0.320270882378869 
2040	 0.320004930957715 
2041	 0.319858383828041 
2042	 0.319787317536317 
2043	 0.319647836844366 
2044	 0.319568754297609 
2045	 0.319435947184393 
2046	 0.31918327001856 
2047	 0.319039481661766 
2048	 0.318968331192451 
2049	 0.318875076533633 
2050	 0.318833269516086 
2051	 0.31875963222478 
2052	 0.318614968722161 
2053	 0.318432661733242 
2054	 0.318291719961558 
2055	 0.318111036633833 
2056	 0.317988497872181 
2057	 0.317922884306956 
2058	 0.317840053133498 
2059	 0.317781458810615 
2060	 0.31768160648637 
2061	 0.317558931083286 
2062	 0.317470501371288 
2063	 0.317356428603901 
2064	 0.317270745470165 
2065	 0.317279924668691 
2066	 0.317187644203929 
2067	 0.317067227494002 
2068	 0.316957745792002 
2069	 0.316833838941998 
2070	 0.316657235662756 
2071	 0.316563079164909 
2072	 0.316516848041216 
2073	 0.316432267223412 
2074	 0.316377685010964 
2075	 0.316286673331336 
2076	 0.316147106384652 
2077	 0.316038063311994 
2078	 0.315955448933809 
2079	 0.315846446332382 
2080	 0.315686482226716 
2081	 0.315584302604169 
2082	 0.315528851662293 
2083	 0.315429817759082 
2084	 0.315349157264504 
2085	 0.315287732153829 
2086	 0.315160582254542 
2087	 0.314945082767827 
2088	 0.314803113337094 
2089	 0.314680753809564 
2090	 0.314535096887196 
2091	 0.314407703190946 
2092	 0.314255591588827 
2093	 0.314099151563035 
2094	 0.313899735940805 
2095	 0.313642042706086 
2096	 0.313427757914449 
2097	 0.313200900985531 
2098	 0.312955707500041 
2099	 0.312777175533918 
2100	 0.312685030645603 
2101	 0.31252701703753 
2102	 0.312396993599671 
2103	 0.312166311964756 
2104	 0.31186153518009 
2105	 0.311591936683011 
2106	 0.31129051011357 
2107	 0.310981538588289 
2108	 0.310683398544619 
2109	 0.310383873995085 
2110	 0.310074018721751 
2111	 0.309714546028718 
2112	 0.309337818400434 
2113	 0.30896461644989 
2114	 0.308492970274949 
2115	 0.308106758259828 
2116	 0.30785282746231 
2117	 0.307484680135131 
2118	 0.307111785383472 
2119	 0.306749168813401 
2120	 0.306362083982202 
2121	 0.305894192350749 
2122	 0.305512723225711 
2123	 0.3051745293484 
2124	 0.304813366876883 
2125	 0.304479291495537 
2126	 0.304109057843582 
2127	 0.303698834496443 
2128	 0.303332957333774 
2129	 0.302918000463866 
2130	 0.30261178724573 
2131	 0.302421417883911 
2132	 0.302181381629736 
2133	 0.301915796723354 
2134	 0.301777522512147 
2135	 0.301637289263025 
2136	 0.301425814599393 
2137	 0.301223859568028 
2138	 0.301037143330586 
2139	 0.300874688883173 
2140	 0.300657863212752 
2141	 0.30053416833336 
2142	 0.300500819822854 
2143	 0.300445859026784 
2144	 0.300418756446349 
2145	 0.300374110126045 
2146	 0.300320806329826 
2147	 0.30031305169775 
2148	 0.300306277885055 
2149	 0.300325098999366 
2150	 0.300415781521397 
2151	 0.300473733479009 
2152	 0.300523342365583 
2153	 0.300576313301024 
2154	 0.300595022015113 
2155	 0.300613341182817 
2156	 0.30068857867668 
2157	 0.300776188790411 
2158	 0.300876453302494 
2159	 0.301062251143811 
2160	 0.301144773953305 
2161	 0.301182401964128 
2162	 0.301226015669459 
2163	 0.30123320581021 
2164	 0.301229995983428 
2165	 0.301255676592751 
2166	 0.301195754044405 
2167	 0.30103349356407 
2168	 0.300951856272281 
2169	 0.30088999485215 
2170	 0.300780603207275 
2171	 0.300647948058661 
2172	 0.30055877951475 
2173	 0.30044649125533 
2174	 0.300335228214825 
2175	 0.300293012479936 
2176	 0.300325884977941 
2177	 0.30027191986032 
2178	 0.300182529486517 
2179	 0.300103305242603 
2180	 0.299995674871393 
2181	 0.299929774810076 
2182	 0.299882487742775 
2183	 0.299817200009756 
2184	 0.299801212673783 
2185	 0.299691830605521 
2186	 0.299521232964551 
2187	 0.299368124102086 
2188	 0.299155374795168 
2189	 0.29897171481361 
2190	 0.298783621616412 
2191	 0.29863671270407 
2192	 0.298532655010891 
2193	 0.298407541729614 
2194	 0.298322051624029 
2195	 0.298189397427669 
2196	 0.298090183412516 
2197	 0.29784841746854 
2198	 0.297462451425805 
2199	 0.297246376883435 
2200	 0.29692235187637 
2201	 0.296484873190999 
2202	 0.296157409862718 
2203	 0.295871431679308 
2204	 0.295584743121913 
2205	 0.295353468540972 
2206	 0.29505078631679 
2207	 0.294720592071603 
2208	 0.294392968443452 
2209	 0.294028278533409 
2210	 0.293671391622718 
2211	 0.29335005594436 
2212	 0.292993262848665 
2213	 0.292554056591807 
2214	 0.29220754171253 
2215	 0.29196631962957 
2216	 0.291591282535376 
2217	 0.291156794264399 
2218	 0.290776013234638 
2219	 0.290339884455684 
2220	 0.289906601476935 
2221	 0.289507082189272 
2222	 0.289157462381309 
2223	 0.288760522564791 
2224	 0.288338227424642 
2225	 0.287960979282645 
2226	 0.287496657975433 
2227	 0.286902502928812 
2228	 0.286188130725722 
2229	 0.285458572529011 
2230	 0.284600556880008 
2231	 0.28379602808282 
2232	 0.283070284974225 
2233	 0.282079538836016 
2234	 0.281007344086611 
2235	 0.279798290486193 
2236	 0.278361901046916 
2237	 0.276925914213648 
2238	 0.275377116108103 
2239	 0.273852202121366 
2240	 0.272338656097276 
2241	 0.27064209168365 
2242	 0.268950036147901 
2243	 0.267050456787069 
2244	 0.264887602786377 
2245	 0.262730144362127 
2246	 0.260405144564676 
2247	 0.258106526956231 
2248	 0.255771613766308 
2249	 0.253414547188028 
2250	 0.251028405046921 
2251	 0.248672484032457 
2252	 0.246194354744266 
2253	 0.243769731622685 
2254	 0.241234348078218 
2255	 0.238693703153477 
2256	 0.236345759039626 
2257	 0.233907756290739 
2258	 0.231608351689471 
2259	 0.229486789105759 
2260	 0.227216411545661 
2261	 0.224870360763533 
2262	 0.222714631448557 
2263	 0.220580706473236 
2264	 0.218528029539308 
2265	 0.21662490018514 
2266	 0.214716941219132 
2267	 0.212843981624643 
2268	 0.210975100953092 
2269	 0.209208229719977 
2270	 0.207408244846013 
2271	 0.205488349137237 
2272	 0.203745187845936 
2273	 0.202180646139171 
2274	 0.200493844900734 
2275	 0.198872382667572 
2276	 0.197159735832816 
2277	 0.195324530577941 
2278	 0.193515254603743 
2279	 0.19164683711373 
2280	 0.189889695500141 
2281	 0.188190943927231 
2282	 0.186429797338288 
2283	 0.184749813117074 
2284	 0.182995626720027 
2285	 0.181023945040421 
2286	 0.17919320040364 
2287	 0.177265806772351 
2288	 0.175094146459656 
2289	 0.173085780257312 
2290	 0.171115982955692 
2291	 0.169142741441614 
2292	 0.167324129761612 
2293	 0.165400843091565 
2294	 0.16344200624628 
2295	 0.16178714224196 
2296	 0.16031572199382 
2297	 0.158954755311661 
2298	 0.157828407294977 
2299	 0.15686595201482 
2300	 0.155976750522293 
2301	 0.155351295213584 
2302	 0.154980833102769 
2303	 0.154821856552467 
2304	 0.154853304570287 
2305	 0.15513681878033 
2306	 0.15575755973694 
2307	 0.156488910557991 
2308	 0.157420037166768 
2309	 0.158470305388355 
2310	 0.159686893385006 
2311	 0.161043022091423 
2312	 0.162649040940566 
2313	 0.16422731444017 
2314	 0.16607983612604 
2315	 0.167675016587521 
2316	 0.169105130098326 
2317	 0.170598597546453 
2318	 0.172066478270166 
2319	 0.173386757774462 
2320	 0.17491759983708 
2321	 0.175951557489224 
2322	 0.176576429888768 
2323	 0.177140754511002 
2324	 0.177372222559026 
2325	 0.17757477270868 
2326	 0.177763216995882 
2327	 0.177729468611054 
2328	 0.177425731659391 
2329	 0.177142473372648 
2330	 0.176715313422941 
2331	 0.176283125331079 
2332	 0.175780622256283 
2333	 0.175015611604877 
2334	 0.174043366221414 
2335	 0.172860776880117 
2336	 0.171419773713476 
2337	 0.170023419365844 
2338	 0.168797978009402 
2339	 0.167412766618529 
2340	 0.166136301906057 
2341	 0.165256814771168 
2342	 0.164314447795907 
2343	 0.163215066733582 
2344	 0.162472316641224 
2345	 0.162113379489005 
2346	 0.161839988408319 
2347	 0.16193990325658 
2348	 0.162351792323452 
2349	 0.162814415905276 
2350	 0.163442320604004 
2351	 0.164350786933641 
2352	 0.165387861601596 
2353	 0.166261836031966 
2354	 0.167081300292091 
2355	 0.168112920648072 
2356	 0.169245861882294 
2357	 0.170259246201875 
2358	 0.171197712967145 
2359	 0.171935132327136 
2360	 0.172379388406889 
2361	 0.172764951405413 
2362	 0.173037052202719 
2363	 0.173205539751436 
2364	 0.173315388118823 
2365	 0.173253135506654 
2366	 0.173145725621827 
2367	 0.17306412974422 
2368	 0.172880398552648 
2369	 0.17266670834617 
2370	 0.172614967567439 
2371	 0.172709588428692 
2372	 0.172922408911044 
2373	 0.173054941061314 
2374	 0.173004646154891 
2375	 0.172814960230193 
2376	 0.172625737869896 
2377	 0.172411306912466 
2378	 0.172227033495895 
2379	 0.172392013851507 
2380	 0.172307055167448 
2381	 0.172121722114945 
2382	 0.172223230224734 
2383	 0.17248832438944 
2384	 0.172567271942936 
2385	 0.172809454241034 
2386	 0.173006585653203 
2387	 0.172922930702779 
2388	 0.173126726441099 
2389	 0.173783294466067 
2390	 0.173834794814695 
2391	 0.173535459620185 
2392	 0.173633174029382 
2393	 0.173521354769001 
2394	 0.173736537484134 
2395	 0.17456116791556 
2396	 0.174857022998066 
2397	 0.174918736823112 
2398	 0.174892440816406 
2399	 0.174550277865569 
2400	 0.17458465443208 
2401	 0.174831091273426 
2402	 0.17490513929813 
2403	 0.175048616588773 
2404	 0.175074703919479 
2405	 0.174740218658617 
2406	 0.174296457341798 
2407	 0.173939740920532 
2408	 0.173926615622618 
2409	 0.173832270827782 
2410	 0.17384094126733 
2411	 0.174056217540566 
2412	 0.173936198120655 
2413	 0.174024589666407 
2414	 0.174370267204896 
2415	 0.174496191309063 
2416	 0.174412449994583 
2417	 0.174272527112868 
2418	 0.174077737347783 
2419	 0.173918390883259 
2420	 0.174053507966032 
2421	 0.17445698808207 
2422	 0.174736425993366 
2423	 0.174846256189896 
2424	 0.174663906344874 
2425	 0.174018946378344 
2426	 0.173747201927003 
2427	 0.173700065738292 
2428	 0.17368655065612 
2429	 0.17381351152997 
2430	 0.173838251558335 
2431	 0.174141891267533 
2432	 0.1747772161737 
2433	 0.175079949431758 
2434	 0.174683696466646 
2435	 0.174369082198346 
2436	 0.173817006557125 
2437	 0.173280521138816 
2438	 0.173345705824058 
2439	 0.173317658426055 
2440	 0.17340852946017 
2441	 0.173435841807202 
2442	 0.173475346379083 
2443	 0.173252315595107 
2444	 0.172123125567647 
2445	 0.17115395619363 
2446	 0.171153364810018 
2447	 0.171442619984276 
2448	 0.171564100707172 
2449	 0.171930925047883 
2450	 0.171726724625003 
2451	 0.170633665030722 
2452	 0.170144431690737 
2453	 0.170260109308315 
2454	 0.169787402190144 
2455	 0.169302637051608 
2456	 0.169391488879065 
2457	 0.16855311389169 
2458	 0.167556249652592 
2459	 0.167192224190895 
2460	 0.166602640131513 
2461	 0.166614872926725 
2462	 0.166716596995466 
2463	 0.166427544116588 
2464	 0.165914614998299 
2465	 0.16510761678791 
2466	 0.164511518557838 
2467	 0.16394912865447 
2468	 0.163834562965256 
2469	 0.164011415430481 
2470	 0.163578061447366 
2471	 0.163640092228357 
2472	 0.163596421168265 
2473	 0.162844767625764 
2474	 0.16286498760269 
2475	 0.162696232214771 
2476	 0.162057096508061 
2477	 0.161735038242387 
2478	 0.161896944138908 
2479	 0.162250978189024 
2480	 0.162658075341679 
2481	 0.162800932662328 
2482	 0.162242966372669 
2483	 0.162603832072955 
2484	 0.162998411191067 
2485	 0.164070192868455 
2486	 0.164638346011125 
2487	 0.16385716972207 
2488	 0.163019751260993 
2489	 0.161431106365631 
2490	 0.160795413954666 
2491	 0.161887649672272 
2492	 0.162474183307756 
2493	 0.16364966350958 
2494	 0.165297300922389 
2495	 0.165906163390914 
2496	 0.166350777459741 
2497	 0.166900875570955 
2498	 0.166552704832671 
2499	 0.166129688492395 
2500	 0.166264175453027 
