Wavelength	Tablay400074.asd
350	 0.212373082201593 
351	 0.258360252953347 
352	 0.250646140275856 
353	 0.20188424799141 
354	 0.229076722126838 
355	 0.182745761445955 
356	 0.164557287584017 
357	 0.237573307664177 
358	 0.220329674168153 
359	 0.198121370321087 
360	 0.196405216030886 
361	 0.198774704350511 
362	 0.166535968221152 
363	 0.160115637472324 
364	 0.177850630988122 
365	 0.108790256170875 
366	 0.12863137952599 
367	 0.15722581337316 
368	 0.11840972366105 
369	 0.13991431919997 
370	 0.138758130277903 
371	 0.117244065603068 
372	 0.123749300825146 
373	 0.138429262464152 
374	 0.131733952775899 
375	 0.104053371179127 
376	 0.105665281345861 
377	 7.44025399365943E-02 
378	 5.70452475770974E-02 
379	 8.84425001832085E-02 
380	 0.104406233415735 
381	 0.101659484829858 
382	 9.42135570018764E-02 
383	 0.100837447318893 
384	 8.83978497612753E-02 
385	 9.26694212062838E-02 
386	 0.114367170752502 
387	 9.33560135856805E-02 
388	 8.29498057196118E-02 
389	 8.71863691733348E-02 
390	 9.49016539970678E-02 
391	 9.46068789493348E-02 
392	 9.46441696922495E-02 
393	 9.47667746023371E-02 
394	 8.87379114525203E-02 
395	 7.08673230481846E-02 
396	 6.08228041516696E-02 
397	 0.06470198824769 
398	 6.24570423579797E-02 
399	 7.10212498362104E-02 
400	 8.44411986800419E-02 
401	 9.18126952563547E-02 
402	 8.22156152519782E-02 
403	 6.82128764347408E-02 
404	 6.30348704477498E-02 
405	 7.67917041145563E-02 
406	 7.16558142058533E-02 
407	 5.81527363544925E-02 
408	 5.05348063394346E-02 
409	 5.76885778024098E-02 
410	 6.47263234680392E-02 
411	 0.06595721511844 
412	 6.08437484590091E-02 
413	 5.56166552911366E-02 
414	 5.32990773713615E-02 
415	 5.40762061487215E-02 
416	 5.56770805547751E-02 
417	 6.01973826421035E-02 
418	 6.09582119313025E-02 
419	 5.51612613908394E-02 
420	 5.09317044594712E-02 
421	 5.05077682477875E-02 
422	 0.052577694933924 
423	 5.37996588719011E-02 
424	 4.87784178620715E-02 
425	 0.049695914013248 
426	 5.66544162522856E-02 
427	 5.56485590411555E-02 
428	 5.22343847876569E-02 
429	 0.046464424115806 
430	 3.98608195117376E-02 
431	 4.18546421291198E-02 
432	 4.29161059687027E-02 
433	 4.33316427065497E-02 
434	 4.75708647545261E-02 
435	 4.61402444636759E-02 
436	 4.60590160297686E-02 
437	 4.94561356856063E-02 
438	 4.88652135884752E-02 
439	 4.53522090161366E-02 
440	 4.35832806911087E-02 
441	 4.64191963484838E-02 
442	 4.52314742944926E-02 
443	 4.36215645173225E-02 
444	 4.25547405404692E-02 
445	 4.08825796781269E-02 
446	 4.11011069184451E-02 
447	 4.25010016300356E-02 
448	 4.37910186427192E-02 
449	 4.36294380024353E-02 
450	 4.17082813107393E-02 
451	 4.06365174771507E-02 
452	 4.28217598770357E-02 
453	 4.25385808671395E-02 
454	 4.21824244819656E-02 
455	 4.22788506816235E-02 
456	 4.08493356908667E-02 
457	 3.89601387972406E-02 
458	 3.82018505374459E-02 
459	 0.039245395730795 
460	 4.00479845238993E-02 
461	 4.04101748489253E-02 
462	 3.97947181026618E-02 
463	 3.80277063951535E-02 
464	 3.89031463201573E-02 
465	 3.98600700061088E-02 
466	 3.95442965279787E-02 
467	 3.93968383971035E-02 
468	 4.04474342833764E-02 
469	 4.10658468146779E-02 
470	 3.98207091305744E-02 
471	 3.92768810224354E-02 
472	 3.87161326245081E-02 
473	 3.81797846062232E-02 
474	 3.82784486827323E-02 
475	 3.81593350713439E-02 
476	 3.77300475193669E-02 
477	 3.73540802085647E-02 
478	 3.82705948849689E-02 
479	 3.79883516339227E-02 
480	 3.74839419423948E-02 
481	 3.84397143409763E-02 
482	 3.82165580270445E-02 
483	 3.76905026274219E-02 
484	 3.73559629013587E-02 
485	 3.70083382278519E-02 
486	 3.68302188914505E-02 
487	 3.64623989377719E-02 
488	 3.57473243793375E-02 
489	 3.53332357069676E-02 
490	 3.59651498828808E-02 
491	 3.68190068442169E-02 
492	 3.64128535315525E-02 
493	 3.61153706844598E-02 
494	 3.66347442227875E-02 
495	 3.74313519235784E-02 
496	 0.036030825408411 
497	 3.57012386038506E-02 
498	 3.61165798160953E-02 
499	 3.61555283532449E-02 
500	 3.63983587356946E-02 
501	 3.68560316315656E-02 
502	 0.03686980160052 
503	 3.54007380684967E-02 
504	 3.46473302681861E-02 
505	 3.50760390743956E-02 
506	 3.62429918190256E-02 
507	 3.66118107689108E-02 
508	 3.57074413408734E-02 
509	 3.49934053801675E-02 
510	 0.036090934381791 
511	 3.51528712441056E-02 
512	 3.44662830090681E-02 
513	 3.49174161585024E-02 
514	 3.50158873487985E-02 
515	 3.46925601495248E-02 
516	 3.45208709163646E-02 
517	 3.47500591427481E-02 
518	 3.36917902306195E-02 
519	 3.36556055786021E-02 
520	 3.45238202074986E-02 
521	 0.034581607483622 
522	 3.43922220379749E-02 
523	 3.42575459025358E-02 
524	 0.03431123885499 
525	 0.034452035431905 
526	 3.43910297758793E-02 
527	 3.41964252260215E-02 
528	 3.41034060716868E-02 
529	 3.45192503517368E-02 
530	 3.43296757494084E-02 
531	 3.36214579415079E-02 
532	 3.37711348579328E-02 
533	 3.42003215381768E-02 
534	 3.42411100678613E-02 
535	 3.37161417385794E-02 
536	 3.38843590606099E-02 
537	 3.40453914488428E-02 
538	 3.40167519102095E-02 
539	 3.39372139173954E-02 
540	 0.034139649498967 
541	 3.40840000986415E-02 
542	 3.37010759239701E-02 
543	 3.38174413503658E-02 
544	 3.38058380115408E-02 
545	 3.37617849734876E-02 
546	 3.38843596582464E-02 
547	 3.38526711591979E-02 
548	 3.38283936321417E-02 
549	 3.38820966027894E-02 
550	 3.39766658027882E-02 
551	 0.03387198127072 
552	 3.36850139675964E-02 
553	 3.35820366302778E-02 
554	 3.36903368186293E-02 
555	 3.37864429306943E-02 
556	 3.38887052888884E-02 
557	 3.40797658798828E-02 
558	 3.39786774817254E-02 
559	 3.40747576161115E-02 
560	 3.44379251539261E-02 
561	 3.44616833845175E-02 
562	 3.42813949294488E-02 
563	 3.42716157798501E-02 
564	 3.46307107177469E-02 
565	 3.46241780939247E-02 
566	 3.47337508274812E-02 
567	 3.48960714604387E-02 
568	 3.47066714903715E-02 
569	 3.50435652424459E-02 
570	 3.53763929465521E-02 
571	 3.53676362240352E-02 
572	 3.55269689548814E-02 
573	 3.56684994872504E-02 
574	 3.58262004586904E-02 
575	 3.60817693335897E-02 
576	 3.63436655240238E-02 
577	 3.67274677201192E-02 
578	 3.71858369413473E-02 
579	 3.74820875817062E-02 
580	 3.77367452432648E-02 
581	 3.80950065880044E-02 
582	 3.86204799105576E-02 
583	 3.91130996028997E-02 
584	 3.96032224542424E-02 
585	 4.01795118048076E-02 
586	 4.09135774062778E-02 
587	 0.041362231751053 
588	 4.18553274430515E-02 
589	 4.25894034783693E-02 
590	 4.33997720475016E-02 
591	 4.42119910544088E-02 
592	 4.49818074317657E-02 
593	 4.57254962811387E-02 
594	 4.65937108164442E-02 
595	 4.76914193324574E-02 
596	 4.89296336031671E-02 
597	 5.00690132805091E-02 
598	 5.12537161548506E-02 
599	 5.24710012334712E-02 
600	 0.053748249230335 
601	 5.52537001140774E-02 
602	 5.68856125312109E-02 
603	 5.86147893820445E-02 
604	 6.04442975594898E-02 
605	 0.062407112292887 
606	 6.45705036723752E-02 
607	 6.69671351452019E-02 
608	 6.95768553668676E-02 
609	 7.23420482760432E-02 
610	 7.52159078227314E-02 
611	 0.078256193217714 
612	 8.17913327150369E-02 
613	 8.56096595159583E-02 
614	 8.95999882752938E-02 
615	 9.37527707652409E-02 
616	 9.82206057975904E-02 
617	 0.102886440583435 
618	 0.107688903058902 
619	 0.112726542939228 
620	 0.117975113182677 
621	 0.123517404599304 
622	 0.129352914781144 
623	 0.13492348684194 
624	 0.140740034737043 
625	 0.146828210893452 
626	 0.152739869485052 
627	 0.158678532504185 
628	 0.164517876692663 
629	 0.170200137795979 
630	 0.175989299085797 
631	 0.181515898853588 
632	 0.186797856455686 
633	 0.191987525394858 
634	 0.196940338701647 
635	 0.201931797272573 
636	 0.206850219290514 
637	 0.211061798810427 
638	 0.215385031356551 
639	 0.21958292303271 
640	 0.223340737403506 
641	 0.226984498666705 
642	 0.230296678834978 
643	 0.233421329440954 
644	 0.236649985105794 
645	 0.239356247789794 
646	 0.241832070760217 
647	 0.244283376937184 
648	 0.246593863975484 
649	 0.24885262621168 
650	 0.250950843833028 
651	 0.252787324354281 
652	 0.254513884146507 
653	 0.256360990390893 
654	 0.258205933693158 
655	 0.259671240660037 
656	 0.260985970128859 
657	 0.262308753450547 
658	 0.263662638390633 
659	 0.264817112733089 
660	 0.265842244801057 
661	 0.266874220639305 
662	 0.268006247725606 
663	 0.268916121966356 
664	 0.26988540769002 
665	 0.270948708202904 
666	 0.271862019195948 
667	 0.272532878888088 
668	 0.273211142694604 
669	 0.274031500056467 
670	 0.274640956981222 
671	 0.275290938129072 
672	 0.275935846395065 
673	 0.27645336458464 
674	 0.277153428915509 
675	 0.277755613353697 
676	 0.278237557356865 
677	 0.278936010696282 
678	 0.27948006901293 
679	 0.279936499518804 
680	 0.280408372204073 
681	 0.280779285308322 
682	 0.281121575655227 
683	 0.281622730393041 
684	 0.282417305971622 
685	 0.282719809424301 
686	 0.282997254978757 
687	 0.283476409166843 
688	 0.283862192711726 
689	 0.284318033535257 
690	 0.284737377774341 
691	 0.285012861569154 
692	 0.285244740788659 
693	 0.285581951415761 
694	 0.286001191882204 
695	 0.286373626903596 
696	 0.286729445791471 
697	 0.287055247886356 
698	 0.28734532905114 
699	 0.287607992405495 
700	 0.287928630848555 
701	 0.288322777199856 
702	 0.288719423932593 
703	 0.288798944307793 
704	 0.289026816956349 
705	 0.289408211859614 
706	 0.289650529905518 
707	 0.290024954603149 
708	 0.290368232277433 
709	 0.290577743776594 
710	 0.290734626034903 
711	 0.29093258249836 
712	 0.29121691590084 
713	 0.291557471693709 
714	 0.291721194711231 
715	 0.291923140093374 
716	 0.292187070403245 
717	 0.29240497710559 
718	 0.292701835039796 
719	 0.293028966375351 
720	 0.293282514955676 
721	 0.293288160366856 
722	 0.293597051225715 
723	 0.293965569545395 
724	 0.294073954966798 
725	 0.294329423781543 
726	 0.294628378477952 
727	 0.294917474995263 
728	 0.295182231209145 
729	 0.295360195581534 
730	 0.295510298465919 
731	 0.295722703201297 
732	 0.296120648024307 
733	 0.296281656690668 
734	 0.296375680201274 
735	 0.29664579945442 
736	 0.296904844109215 
737	 0.297150076455556 
738	 0.297368223049801 
739	 0.29755321699072 
740	 0.297828671462562 
741	 0.298085460019772 
742	 0.298263641202938 
743	 0.298416330201101 
744	 0.298663699051 
745	 0.298971688980656 
746	 0.2992391248709 
747	 0.299278764447109 
748	 0.299524430749783 
749	 0.299937725985887 
750	 0.300218254821553 
751	 0.300399675891117 
752	 0.300613114295325 
753	 0.300921025998609 
754	 0.301279639619071 
755	 0.301548822378749 
756	 0.301741917248919 
757	 0.301952536014417 
758	 0.302397509901811 
759	 0.302706616947432 
760	 0.302916410629451 
761	 0.303228884257529 
762	 0.303535307682407 
763	 0.303839164898435 
764	 0.304163118070493 
765	 0.304536137829092 
766	 0.304822372272445 
767	 0.305049854437238 
768	 0.305291416716912 
769	 0.30564241819113 
770	 0.306023690208539 
771	 0.30636137673918 
772	 0.306618992531173 
773	 0.306919041940664 
774	 0.307271003447141 
775	 0.307624814817473 
776	 0.307898575256425 
777	 0.308160517477464 
778	 0.308500304347861 
779	 0.308907618082668 
780	 0.309204550813829 
781	 0.309463220914985 
782	 0.309768280665879 
783	 0.310150535915786 
784	 0.310431827701467 
785	 0.310789103791633 
786	 0.311167481031902 
787	 0.311412783349107 
788	 0.311693397659338 
789	 0.312073101541907 
790	 0.312491925402404 
791	 0.312766703140123 
792	 0.31290997122816 
793	 0.313182717667854 
794	 0.313684989803024 
795	 0.314018585944313 
796	 0.314282350136486 
797	 0.31459354233948 
798	 0.315015996608635 
799	 0.315286401278123 
800	 0.315511912199458 
801	 0.315784974085018 
802	 0.316154443657597 
803	 0.316489073267054 
804	 0.31679796677427 
805	 0.31709566299756 
806	 0.317375640782537 
807	 0.317631783039595 
808	 0.317940063129346 
809	 0.318323926900161 
810	 0.318603386614077 
811	 0.318835896185777 
812	 0.319098434782166 
813	 0.319442023967966 
814	 0.319716884521544 
815	 0.319933932124432 
816	 0.320178649446453 
817	 0.3205588333886 
818	 0.320759775320397 
819	 0.320955175395807 
820	 0.321237854364483 
821	 0.321443888609801 
822	 0.32176299319309 
823	 0.322009911364079 
824	 0.32206736261182 
825	 0.322330693297218 
826	 0.322615244479795 
827	 0.322821663871956 
828	 0.322927174837652 
829	 0.323080349417355 
830	 0.323373759804026 
831	 0.32366104283822 
832	 0.323654164306894 
833	 0.323823058996792 
834	 0.324086084360876 
835	 0.324311521948908 
836	 0.324426928897292 
837	 0.324542800086593 
838	 0.32468031039541 
839	 0.324842099540087 
840	 0.325061850058405 
841	 0.325162829448258 
842	 0.325248547057905 
843	 0.32547699636986 
844	 0.325674320770059 
845	 0.325723895651416 
846	 0.325701265305805 
847	 0.325809094269734 
848	 0.326058020536231 
849	 0.326267554853566 
850	 0.326364147939122 
851	 0.326442403682566 
852	 0.326645794894072 
853	 0.32681612831006 
854	 0.32686356346335 
855	 0.326986709856272 
856	 0.326970488935965 
857	 0.326990170503076 
858	 0.327209103042165 
859	 0.327305972657767 
860	 0.327358562572386 
861	 0.327453639550611 
862	 0.327634883479098 
863	 0.327679790021183 
864	 0.327697351108808 
865	 0.327760714776227 
866	 0.327875114156417 
867	 0.327917513994603 
868	 0.327869311575856 
869	 0.327816496332127 
870	 0.327949909134669 
871	 0.328213019071275 
872	 0.328277283326515 
873	 0.328073008489603 
874	 0.328215208287764 
875	 0.328273252145807 
876	 0.328286257229464 
877	 0.32836195454552 
878	 0.32831454172771 
879	 0.328357745449021 
880	 0.328359094511171 
881	 0.328150293113875 
882	 0.328314326793549 
883	 0.328567402510338 
884	 0.328678225170578 
885	 0.328558740917936 
886	 0.328561160506811 
887	 0.328594867249328 
888	 0.328568575857563 
889	 0.328467303882928 
890	 0.328498591445419 
891	 0.328583752767276 
892	 0.328600013724469 
893	 0.328450491160901 
894	 0.328548404815334 
895	 0.328716190994075 
896	 0.328741813919994 
897	 0.328745524411806 
898	 0.32865669782286 
899	 0.328633749267328 
900	 0.328776065058927 
901	 0.328663197115533 
902	 0.328714558369632 
903	 0.328923461320843 
904	 0.329051236154406 
905	 0.328917958870855 
906	 0.328922683898478 
907	 0.329057216112326 
908	 0.329032889296375 
909	 0.328997684635745 
910	 0.3290669775716 
911	 0.329178609689978 
912	 0.329131096352827 
913	 0.329178238242081 
914	 0.329387667917695 
915	 0.329623095946242 
916	 0.329554795598004 
917	 0.329727146831396 
918	 0.329844632539254 
919	 0.329763360889994 
920	 0.329927086159812 
921	 0.330024018377414 
922	 0.329984082622996 
923	 0.329921133401696 
924	 0.330255362741785 
925	 0.330375430646609 
926	 0.330232552445871 
927	 0.330084542943846 
928	 0.330526835947144 
929	 0.330683788848808 
930	 0.330629690325901 
931	 0.330749097706617 
932	 0.330816697972006 
933	 0.330958016377133 
934	 0.331132573886026 
935	 0.331216941082717 
936	 0.33116681872132 
937	 0.331252333160034 
938	 0.331555882983432 
939	 0.331936310841323 
940	 0.33185094014203 
941	 0.331892501651558 
942	 0.332169005551345 
943	 0.332300157804274 
944	 0.332310957082901 
945	 0.332242318447677 
946	 0.332217051637761 
947	 0.332411354236428 
948	 0.332827950192863 
949	 0.333143434425195 
950	 0.333181404101176 
951	 0.333040499794813 
952	 0.333065541195895 
953	 0.333123617816447 
954	 0.333218957160547 
955	 0.333658032602064 
956	 0.333959382205818 
957	 0.333914829510888 
958	 0.333675497306894 
959	 0.33384328738261 
960	 0.334065789114594 
961	 0.334300807876094 
962	 0.334483077680251 
963	 0.334385780827377 
964	 0.334292766030674 
965	 0.334289398589022 
966	 0.334421572359611 
967	 0.334785362970683 
968	 0.334871239108404 
969	 0.334815234068287 
970	 0.334904095567528 
971	 0.335284683625481 
972	 0.335532179883126 
973	 0.335397803866469 
974	 0.335029955617469 
975	 0.335431379811381 
976	 0.335695061926376 
977	 0.335711988863456 
978	 0.335698632852011 
979	 0.336015608388108 
980	 0.336137740180153 
981	 0.336106125210567 
982	 0.336140558088024 
983	 0.336346960830515 
984	 0.336523194785982 
985	 0.33689280390509 
986	 0.337458938528777 
987	 0.337023132638509 
988	 0.336783125472931 
989	 0.336925021735844 
990	 0.337169891004811 
991	 0.337084001956024 
992	 0.337162565146933 
993	 0.337428782890977 
994	 0.337671318205129 
995	 0.337563915917645 
996	 0.337405121121926 
997	 0.337630265278366 
998	 0.338213197352327 
999	 0.337516055610307 
1000	 0.337448225619128 
1001	 0.340291007322403 
1002	 0.34010572372264 
1003	 0.340118263908225 
1004	 0.340137016549074 
1005	 0.340025215466785 
1006	 0.340037075151249 
1007	 0.340200654546462 
1008	 0.340302817702111 
1009	 0.340371395894612 
1010	 0.340469360458803 
1011	 0.340664008967229 
1012	 0.340746818693322 
1013	 0.340721098369069 
1014	 0.34079650597335 
1015	 0.340914232226144 
1016	 0.340971567041082 
1017	 0.341035700327629 
1018	 0.341075118567009 
1019	 0.341152034399626 
1020	 0.34119634497689 
1021	 0.341166514145533 
1022	 0.34111189057878 
1023	 0.341069557556877 
1024	 0.340822119802225 
1025	 0.340877916076936 
1026	 0.341179023553844 
1027	 0.3413664807061 
1028	 0.341646673520358 
1029	 0.341890534513613 
1030	 0.342000806093553 
1031	 0.341995047650467 
1032	 0.342017511370841 
1033	 0.342112097973298 
1034	 0.342214321106143 
1035	 0.34243347958482 
1036	 0.342620124027294 
1037	 0.342829341126984 
1038	 0.342990499247415 
1039	 0.343220764986958 
1040	 0.343317977506611 
1041	 0.343287985316683 
1042	 0.34338984797215 
1043	 0.343570303179467 
1044	 0.34349422019846 
1045	 0.343401014181756 
1046	 0.343525683139506 
1047	 0.343645911796677 
1048	 0.343692064920107 
1049	 0.343878386396922 
1050	 0.344021760976086 
1051	 0.344026680787929 
1052	 0.344055836137801 
1053	 0.344074734081456 
1054	 0.34415105175245 
1055	 0.34413291896021 
1056	 0.344005555537615 
1057	 0.34398531122567 
1058	 0.343953334012406 
1059	 0.343972504502746 
1060	 0.344185362907383 
1061	 0.344313132933587 
1062	 0.344434250881914 
1063	 0.344346701394577 
1064	 0.344104992102031 
1065	 0.344071612358735 
1066	 0.343983213220923 
1067	 0.343966924721618 
1068	 0.344154895661156 
1069	 0.344168592039919 
1070	 0.344177849360597 
1071	 0.344157050948042 
1072	 0.344257164894979 
1073	 0.344210122877089 
1074	 0.344134343528076 
1075	 0.344147674923398 
1076	 0.344205461012827 
1077	 0.344184187661076 
1078	 0.344224287218774 
1079	 0.34430214166777 
1080	 0.344122421195624 
1081	 0.344008893283538 
1082	 0.343976694936193 
1083	 0.343917101304611 
1084	 0.34411038274618 
1085	 0.344226432448462 
1086	 0.344212103414728 
1087	 0.344089432742553 
1088	 0.344089008747852 
1089	 0.344078645299683 
1090	 0.34404906612839 
1091	 0.344218076979206 
1092	 0.344341009511865 
1093	 0.344366934087306 
1094	 0.34449408294041 
1095	 0.344554251166871 
1096	 0.344589002228869 
1097	 0.344601523402331 
1098	 0.344576308551877 
1099	 0.344764176496094 
1100	 0.344872674405892 
1101	 0.344808467410424 
1102	 0.344912548305783 
1103	 0.344999331530238 
1104	 0.34503501298387 
1105	 0.345116833480671 
1106	 0.345303970938905 
1107	 0.345363063584308 
1108	 0.345484307282079 
1109	 0.345682212335002 
1110	 0.345910219646095 
1111	 0.346154113478326 
1112	 0.346251305988501 
1113	 0.346321372934129 
1114	 0.346445492242126 
1115	 0.346563312289494 
1116	 0.346763802392035 
1117	 0.346977749175451 
1118	 0.347196310187656 
1119	 0.347455394691094 
1120	 0.347663685770057 
1121	 0.347853580481078 
1122	 0.348060745046761 
1123	 0.348232339723764 
1124	 0.348278519645013 
1125	 0.348409940380083 
1126	 0.348553508027502 
1127	 0.348720972176005 
1128	 0.348945881137778 
1129	 0.349069072668753 
1130	 0.349274168377257 
1131	 0.349478342433862 
1132	 0.349606060857675 
1133	 0.349836270870323 
1134	 0.349993353363418 
1135	 0.350151520492952 
1136	 0.350278373233741 
1137	 0.350436321723417 
1138	 0.350588445864373 
1139	 0.350794788946611 
1140	 0.351082322215297 
1141	 0.351226424467642 
1142	 0.351321271821384 
1143	 0.351425753273708 
1144	 0.351440384286987 
1145	 0.351463945041862 
1146	 0.351569293194304 
1147	 0.351621713111496 
1148	 0.351649224814999 
1149	 0.351692747259845 
1150	 0.351709192523619 
1151	 0.351757386866852 
1152	 0.351796476047504 
1153	 0.35180246088154 
1154	 0.35181479824531 
1155	 0.351855865991338 
1156	 0.351887719042687 
1157	 0.351942576405933 
1158	 0.351962395304521 
1159	 0.351999733560202 
1160	 0.351898220522164 
1161	 0.351928010028372 
1162	 0.351936654061497 
1163	 0.351890927826806 
1164	 0.351911213623056 
1165	 0.3517823063818 
1166	 0.35157387580216 
1167	 0.3515302102313 
1168	 0.351558673413247 
1169	 0.351494211090248 
1170	 0.351452831793345 
1171	 0.351360702934836 
1172	 0.351115764510254 
1173	 0.351017772869199 
1174	 0.351026142736352 
1175	 0.35098345431197 
1176	 0.350995843699657 
1177	 0.350951534393821 
1178	 0.350860282567221 
1179	 0.350760974896076 
1180	 0.350635251871514 
1181	 0.350443851184286 
1182	 0.350320898452436 
1183	 0.350273911497534 
1184	 0.350235687424524 
1185	 0.35020078096765 
1186	 0.350178676598862 
1187	 0.350179474602352 
1188	 0.350089922458539 
1189	 0.349967767208196 
1190	 0.349901917568467 
1191	 0.349742410738886 
1192	 0.349688588535626 
1193	 0.349711316958648 
1194	 0.34979030682762 
1195	 0.349976325498316 
1196	 0.350086896212758 
1197	 0.350278909098608 
1198	 0.350347902506438 
1199	 0.35027389090354 
1200	 0.350286723964887 
1201	 0.350343705811979 
1202	 0.350439437772453 
1203	 0.350641963759494 
1204	 0.350818219578728 
1205	 0.351005184306723 
1206	 0.351158062461736 
1207	 0.35143487230612 
1208	 0.351791874623669 
1209	 0.352116172031638 
1210	 0.352454891437291 
1211	 0.35287208116761 
1212	 0.35330501843751 
1213	 0.353779711623959 
1214	 0.354342989745402 
1215	 0.354938851431376 
1216	 0.355513900090805 
1217	 0.356156529401469 
1218	 0.356882345141068 
1219	 0.357672041157786 
1220	 0.358426528344359 
1221	 0.359208193296471 
1222	 0.359945031010897 
1223	 0.360659599742761 
1224	 0.36138239946728 
1225	 0.362107128821595 
1226	 0.362787322419877 
1227	 0.36346548194667 
1228	 0.364100331242367 
1229	 0.364670108551371 
1230	 0.365274757852301 
1231	 0.36586942263162 
1232	 0.366468399360318 
1233	 0.367091438089111 
1234	 0.36766525368713 
1235	 0.368242531250629 
1236	 0.368769932503891 
1237	 0.369230412295348 
1238	 0.369709448331011 
1239	 0.370156661522375 
1240	 0.370612301943912 
1241	 0.371097377514933 
1242	 0.371547543800332 
1243	 0.372001370585001 
1244	 0.372441472897711 
1245	 0.372899485273906 
1246	 0.373368933082537 
1247	 0.373819974360713 
1248	 0.37429719330488 
1249	 0.374702763043025 
1250	 0.375058976508089 
1251	 0.375421833838965 
1252	 0.375682653776865 
1253	 0.376086528814618 
1254	 0.376608836012882 
1255	 0.377034445363399 
1256	 0.377501285750911 
1257	 0.377937545634035 
1258	 0.378272052399141 
1259	 0.378653081299724 
1260	 0.379107342219333 
1261	 0.379497032668692 
1262	 0.379824072122893 
1263	 0.380170294256053 
1264	 0.380571508551232 
1265	 0.380977489767451 
1266	 0.381397239031618 
1267	 0.381918946721306 
1268	 0.382302664774124 
1269	 0.382612244597464 
1270	 0.382929480057099 
1271	 0.383179361460704 
1272	 0.383482818024102 
1273	 0.383814221731948 
1274	 0.38412018641134 
1275	 0.38442341303967 
1276	 0.38472541190015 
1277	 0.385032408972781 
1278	 0.385299813656362 
1279	 0.385573648705342 
1280	 0.385807847506169 
1281	 0.385956366856679 
1282	 0.386149969496072 
1283	 0.386356234700684 
1284	 0.386549360822562 
1285	 0.386743674326684 
1286	 0.386958427964329 
1287	 0.387142902666282 
1288	 0.387305628066482 
1289	 0.387468338268031 
1290	 0.38761912707183 
1291	 0.387784869740446 
1292	 0.387934658169597 
1293	 0.38811956531921 
1294	 0.388376093784575 
1295	 0.388520142732145 
1296	 0.38859675927058 
1297	 0.388734924281568 
1298	 0.388810203383243 
1299	 0.388956368130072 
1300	 0.38920547545316 
1301	 0.389405261691126 
1302	 0.389643242270622 
1303	 0.38979229121602 
1304	 0.389860667203537 
1305	 0.389971211479591 
1306	 0.390000134565169 
1307	 0.390102131421464 
1308	 0.390270223042276 
1309	 0.390468758333122 
1310	 0.390639708038383 
1311	 0.390839841892734 
1312	 0.390976034768168 
1313	 0.391051085292699 
1314	 0.391215076815649 
1315	 0.391365816320438 
1316	 0.391579492239135 
1317	 0.391915446922102 
1318	 0.392126957267118 
1319	 0.392269370418002 
1320	 0.39248845369549 
1321	 0.39268215133463 
1322	 0.392918209007308 
1323	 0.393252442656021 
1324	 0.393519967712313 
1325	 0.393774020620687 
1326	 0.393996077416638 
1327	 0.394179885222866 
1328	 0.394375475170171 
1329	 0.394513505778456 
1330	 0.394714394544263 
1331	 0.394998152179944 
1332	 0.395215857631895 
1333	 0.395403042717433 
1334	 0.395628065964138 
1335	 0.395834033601159 
1336	 0.396006041482217 
1337	 0.396171955473995 
1338	 0.396373829037729 
1339	 0.396499939474996 
1340	 0.396547129548942 
1341	 0.396648575551181 
1342	 0.396743755940414 
1343	 0.396858204325224 
1344	 0.397000768362321 
1345	 0.397113950700817 
1346	 0.397225223707872 
1347	 0.397322714137974 
1348	 0.397422099276136 
1349	 0.397485085482898 
1350	 0.397525559299113 
1351	 0.397559913070238 
1352	 0.397572585912765 
1353	 0.397566970398115 
1354	 0.397543903288905 
1355	 0.397521309561003 
1356	 0.397449740806862 
1357	 0.397427122921102 
1358	 0.397458632678151 
1359	 0.397453920482 
1360	 0.397452158473419 
1361	 0.397435781642413 
1362	 0.397420177675755 
1363	 0.397453292728312 
1364	 0.39743872808571 
1365	 0.397451359181157 
1366	 0.397409578031457 
1367	 0.397325867190973 
1368	 0.39721991794829 
1369	 0.397115931717177 
1370	 0.396953275331895 
1371	 0.396723300559466 
1372	 0.396513719061891 
1373	 0.396270156905292 
1374	 0.396048091967816 
1375	 0.395845709664924 
1376	 0.395609658139782 
1377	 0.395369232281907 
1378	 0.395109789917983 
1379	 0.394825823627917 
1380	 0.394525040628054 
1381	 0.394205761023091 
1382	 0.393883714507525 
1383	 0.39355273510883 
1384	 0.393199906214419 
1385	 0.392810354811066 
1386	 0.392457404767201 
1387	 0.392104565329094 
1388	 0.391755365316305 
1389	 0.391419477019791 
1390	 0.391109661828292 
1391	 0.390769598664688 
1392	 0.390484121810839 
1393	 0.39032294933875 
1394	 0.390180809359487 
1395	 0.390006087526947 
1396	 0.389892659902272 
1397	 0.389689686549835 
1398	 0.389464165505781 
1399	 0.389129710474471 
1400	 0.388771856157158 
1401	 0.388280129044393 
1402	 0.387665139749222 
1403	 0.386990779087746 
1404	 0.38620934158138 
1405	 0.385430106481305 
1406	 0.384612126519956 
1407	 0.383713825542875 
1408	 0.38276938035613 
1409	 0.381776706457896 
1410	 0.380668182325894 
1411	 0.379586833081195 
1412	 0.378474502191623 
1413	 0.377403121521862 
1414	 0.376303224147927 
1415	 0.375264903749359 
1416	 0.374273786820667 
1417	 0.373289072324701 
1418	 0.372339848656881 
1419	 0.371399972551621 
1420	 0.37047759484976 
1421	 0.36956782793022 
1422	 0.36862620610109 
1423	 0.367767603763919 
1424	 0.366980691132873 
1425	 0.36617488269321 
1426	 0.365448579973398 
1427	 0.364753253015738 
1428	 0.363980876840632 
1429	 0.363267119772036 
1430	 0.362546128776552 
1431	 0.361863751218915 
1432	 0.361068914152021 
1433	 0.360254681717241 
1434	 0.359389027581958 
1435	 0.358429192132858 
1436	 0.3574770131422 
1437	 0.356536491644386 
1438	 0.355529865067795 
1439	 0.354419774237795 
1440	 0.353405111865826 
1441	 0.352331357602673 
1442	 0.351415603559128 
1443	 0.350490761435156 
1444	 0.349848561391922 
1445	 0.349326167018702 
1446	 0.349051237572317 
1447	 0.348968831104423 
1448	 0.349155103163681 
1449	 0.349617796642719 
1450	 0.350203824447083 
1451	 0.351106515369946 
1452	 0.352010185368895 
1453	 0.353056669873875 
1454	 0.354092567027269 
1455	 0.355240297918519 
1456	 0.356333427567946 
1457	 0.357436714485026 
1458	 0.358510730735835 
1459	 0.359624876942673 
1460	 0.360618393807712 
1461	 0.361533387036973 
1462	 0.362410955064585 
1463	 0.363167885842415 
1464	 0.363940420058322 
1465	 0.364709606801164 
1466	 0.365466947615256 
1467	 0.36613709805705 
1468	 0.366783140004722 
1469	 0.367404359330509 
1470	 0.367972095217735 
1471	 0.36852768649432 
1472	 0.36905824418265 
1473	 0.369618168162275 
1474	 0.370147911805323 
1475	 0.370711265171344 
1476	 0.371368229516717 
1477	 0.371853120039846 
1478	 0.372278903884536 
1479	 0.372646100792957 
1480	 0.372919296599499 
1481	 0.373158011843017 
1482	 0.373347222741702 
1483	 0.3735215636529 
1484	 0.373620062233782 
1485	 0.37374428906249 
1486	 0.373854246512109 
1487	 0.373977966994568 
1488	 0.374063482988756 
1489	 0.374231658209157 
1490	 0.374396490609084 
1491	 0.374690214835957 
1492	 0.375044186896102 
1493	 0.3755086150154 
1494	 0.376104387663053 
1495	 0.376731573959249 
1496	 0.377437519003595 
1497	 0.378196009773859 
1498	 0.379073326088842 
1499	 0.379884751126138 
1500	 0.380735421268156 
1501	 0.381556995379497 
1502	 0.382323072399778 
1503	 0.383109349718146 
1504	 0.383936142034917 
1505	 0.384711009816229 
1506	 0.3854828540097 
1507	 0.386192357328193 
1508	 0.386853771711702 
1509	 0.387480811696262 
1510	 0.388045919580931 
1511	 0.388602585176873 
1512	 0.389161739475062 
1513	 0.389649553036226 
1514	 0.390110073321484 
1515	 0.39050454908834 
1516	 0.390777211237628 
1517	 0.391081468652652 
1518	 0.39135534700825 
1519	 0.391628245953978 
1520	 0.391917334081704 
1521	 0.392207914547952 
1522	 0.39242719196283 
1523	 0.392604455055544 
1524	 0.392753419954228 
1525	 0.392847648445017 
1526	 0.392945505429094 
1527	 0.393014175216676 
1528	 0.3931081861036 
1529	 0.39319542344078 
1530	 0.39328069877199 
1531	 0.393387673879877 
1532	 0.393448235705645 
1533	 0.393469322207045 
1534	 0.393525928384184 
1535	 0.393554836626453 
1536	 0.393662878678003 
1537	 0.39380172226395 
1538	 0.393988159293582 
1539	 0.394227506566085 
1540	 0.394488958657026 
1541	 0.394771602947832 
1542	 0.395126810505827 
1543	 0.39552480114739 
1544	 0.395976369085065 
1545	 0.396489717321842 
1546	 0.397052030750413 
1547	 0.397688436973959 
1548	 0.398303005108689 
1549	 0.398957673902822 
1550	 0.399618201636657 
1551	 0.400284064768463 
1552	 0.400942655286623 
1553	 0.401647494266068 
1554	 0.402290561562292 
1555	 0.40289279800815 
1556	 0.403489862415501 
1557	 0.404041803652899 
1558	 0.404642371755508 
1559	 0.405276930914524 
1560	 0.405854730839282 
1561	 0.406437988234859 
1562	 0.406995382351912 
1563	 0.407468442193119 
1564	 0.408013254859791 
1565	 0.408625829416904 
1566	 0.409163603256508 
1567	 0.409697662287607 
1568	 0.410199101780699 
1569	 0.410614560755584 
1570	 0.411095260838197 
1571	 0.411617560692227 
1572	 0.412095172707297 
1573	 0.412560496534627 
1574	 0.41304390342468 
1575	 0.413504013969677 
1576	 0.41397984330101 
1577	 0.414501132103595 
1578	 0.414986387144748 
1579	 0.415461670160558 
1580	 0.415907698789857 
1581	 0.416312309488278 
1582	 0.416746341453975 
1583	 0.417166504002697 
1584	 0.417598988535312 
1585	 0.41808336236187 
1586	 0.418512265458754 
1587	 0.41887619113376 
1588	 0.419298416523869 
1589	 0.419764116917897 
1590	 0.42016445091657 
1591	 0.42055402765612 
1592	 0.420952212383944 
1593	 0.421261842267146 
1594	 0.421655286928003 
1595	 0.42215768334965 
1596	 0.422587679811239 
1597	 0.423016004539933 
1598	 0.423420043062403 
1599	 0.423731405219785 
1600	 0.42413703703144 
1601	 0.424601502858249 
1602	 0.425040514578828 
1603	 0.425549075010306 
1604	 0.425986290524922 
1605	 0.426372722967396 
1606	 0.426743564613031 
1607	 0.427057186978805 
1608	 0.42740722201505 
1609	 0.427758333345762 
1610	 0.428106705923012 
1611	 0.428534869449231 
1612	 0.428843993442412 
1613	 0.429032667270991 
1614	 0.429291022960212 
1615	 0.429499464330128 
1616	 0.429749978265575 
1617	 0.430096325096431 
1618	 0.430384131520895 
1619	 0.430651731516919 
1620	 0.430900150234814 
1621	 0.431110796353092 
1622	 0.431339450056705 
1623	 0.431592154405641 
1624	 0.431780566008592 
1625	 0.431927490542102 
1626	 0.432097207385035 
1627	 0.432216242117982 
1628	 0.432364719428547 
1629	 0.432580111739362 
1630	 0.432738017006603 
1631	 0.432861786671615 
1632	 0.432987518918127 
1633	 0.433068205102113 
1634	 0.433188598994559 
1635	 0.43331980051653 
1636	 0.433463273767578 
1637	 0.43365776559798 
1638	 0.43380716708764 
1639	 0.433908639850878 
1640	 0.434071416328246 
1641	 0.434286814946466 
1642	 0.434435408374754 
1643	 0.434606005905227 
1644	 0.434730940053102 
1645	 0.434787617835893 
1646	 0.43481584467549 
1647	 0.434833768978325 
1648	 0.434815322728426 
1649	 0.434713794669436 
1650	 0.434640248191386 
1651	 0.434594490963426 
1652	 0.43449496282574 
1653	 0.434396322458817 
1654	 0.434223683780112 
1655	 0.433986303465649 
1656	 0.433718219279968 
1657	 0.433411092319791 
1658	 0.433049736592896 
1659	 0.432629954702024 
1660	 0.43218630053675 
1661	 0.431699133677237 
1662	 0.431172623961596 
1663	 0.430626868401995 
1664	 0.430026746098772 
1665	 0.42935923967794 
1666	 0.428654783830016 
1667	 0.427924482232311 
1668	 0.427136321327389 
1669	 0.426298623473826 
1670	 0.425412238359495 
1671	 0.424506937684947 
1672	 0.423467994895783 
1673	 0.422341878434549 
1674	 0.42115456082739 
1675	 0.419850439470737 
1676	 0.4185170015658 
1677	 0.41715733011732 
1678	 0.415689957584464 
1679	 0.414128260541084 
1680	 0.412520853678175 
1681	 0.410825186170548 
1682	 0.409088449580181 
1683	 0.407291570174508 
1684	 0.405490968233449 
1685	 0.403667278053313 
1686	 0.401776166135185 
1687	 0.399817132034229 
1688	 0.397846836303643 
1689	 0.395845265364464 
1690	 0.39375435984675 
1691	 0.391646598787276 
1692	 0.389502710806297 
1693	 0.38727397782655 
1694	 0.385033773521617 
1695	 0.382778101279189 
1696	 0.380428286423668 
1697	 0.378020413382167 
1698	 0.375495357472981 
1699	 0.372870708832686 
1700	 0.370321663947377 
1701	 0.367670623194944 
1702	 0.365154520019843 
1703	 0.362663606530624 
1704	 0.360304223029073 
1705	 0.357987163814116 
1706	 0.355738625891623 
1707	 0.353811460524434 
1708	 0.351945519801676 
1709	 0.350243456475626 
1710	 0.34873216168466 
1711	 0.34720458728429 
1712	 0.345797974033367 
1713	 0.34440418311225 
1714	 0.34302823371559 
1715	 0.341863099849266 
1716	 0.340707233614253 
1717	 0.339616231909286 
1718	 0.338568931140567 
1719	 0.337407371921259 
1720	 0.336322498001067 
1721	 0.335252031809389 
1722	 0.334238570892778 
1723	 0.333485383282079 
1724	 0.332816423530435 
1725	 0.332223157137504 
1726	 0.331778455386705 
1727	 0.331486487110379 
1728	 0.331397845989342 
1729	 0.331569696283751 
1730	 0.331960849476809 
1731	 0.332448852781267 
1732	 0.333090807600078 
1733	 0.333821280277718 
1734	 0.334798981767103 
1735	 0.335876467114458 
1736	 0.33687230689175 
1737	 0.33790600724649 
1738	 0.338646746093105 
1739	 0.339253431528171 
1740	 0.339721290915949 
1741	 0.34001665103856 
1742	 0.340123918252521 
1743	 0.340224404816945 
1744	 0.340162344884085 
1745	 0.340104092042086 
1746	 0.340014028998534 
1747	 0.339866325024621 
1748	 0.339612753287686 
1749	 0.339479308388747 
1750	 0.339335918588191 
1751	 0.339313816111244 
1752	 0.339361536634521 
1753	 0.339497846189214 
1754	 0.339680226235898 
1755	 0.340046779951112 
1756	 0.340540054458138 
1757	 0.341173524025107 
1758	 0.341943556032452 
1759	 0.342801948937339 
1760	 0.343834808707395 
1761	 0.345009483350299 
1762	 0.346207720626569 
1763	 0.347464066397425 
1764	 0.348761031269513 
1765	 0.350106228701625 
1766	 0.351665844626331 
1767	 0.353350435745393 
1768	 0.355138457029203 
1769	 0.356977958053907 
1770	 0.358628479699893 
1771	 0.360256170924747 
1772	 0.361891486441268 
1773	 0.363331853427814 
1774	 0.364737145085492 
1775	 0.366113885462762 
1776	 0.367336957612893 
1777	 0.36851487718215 
1778	 0.369668117002343 
1779	 0.370727199727221 
1780	 0.371668481758205 
1781	 0.372589263616059 
1782	 0.373539742045964 
1783	 0.374370507530773 
1784	 0.375217517587479 
1785	 0.376099286518028 
1786	 0.376845231221533 
1787	 0.377551572841558 
1788	 0.378211423479082 
1789	 0.378704394610917 
1790	 0.379338438289265 
1791	 0.380074455260395 
1792	 0.380717165903732 
1793	 0.381384410362125 
1794	 0.381919270688798 
1795	 0.382352449050364 
1796	 0.382855497148507 
1797	 0.38335417249912 
1798	 0.383870312277965 
1799	 0.384527696741777 
1800	 0.385043683772969 
1801	 0.375610120875497 
1802	 0.376098128527324 
1803	 0.376552438316284 
1804	 0.376962073662942 
1805	 0.377353538890996 
1806	 0.377732088661426 
1807	 0.378049582147848 
1808	 0.378461110402893 
1809	 0.378956550352329 
1810	 0.379338244308473 
1811	 0.3796975541417 
1812	 0.380079905152478 
1813	 0.380407738945888 
1814	 0.380703240527069 
1815	 0.3811016259598 
1816	 0.381593434242617 
1817	 0.382014211235478 
1818	 0.382397612795378 
1819	 0.382828151533611 
1820	 0.383253256357252 
1821	 0.383700465552578 
1822	 0.384169616377908 
1823	 0.384708423373633 
1824	 0.385138663684912 
1825	 0.385556229651924 
1826	 0.385952483315659 
1827	 0.386284628406718 
1828	 0.386629854708629 
1829	 0.386930347581254 
1830	 0.387315373972431 
1831	 0.387748583394167 
1832	 0.388154065974312 
1833	 0.388502625009155 
1834	 0.388930693002302 
1835	 0.389287649484019 
1836	 0.389533474009188 
1837	 0.389825878474891 
1838	 0.390179586674669 
1839	 0.390440312514489 
1840	 0.390573718962229 
1841	 0.390848233877589 
1842	 0.391200019714604 
1843	 0.391458799179577 
1844	 0.391779949741797 
1845	 0.39208755135483 
1846	 0.392219304394738 
1847	 0.392406884860286 
1848	 0.392593505100265 
1849	 0.392826629057863 
1850	 0.392914461869722 
1851	 0.392973273615465 
1852	 0.392956942481493 
1853	 0.392908477939014 
1854	 0.39274710162631 
1855	 0.392545013872047 
1856	 0.392384553953646 
1857	 0.392096849941792 
1858	 0.391770043610373 
1859	 0.391403217784206 
1860	 0.39104829472247 
1861	 0.390563982545444 
1862	 0.389978939553593 
1863	 0.389363450879976 
1864	 0.388685522280682 
1865	 0.387976802383137 
1866	 0.387254174503594 
1867	 0.386425783666578 
1868	 0.385562952881808 
1869	 0.384634095774768 
1870	 0.383593510695528 
1871	 0.382469639207675 
1872	 0.381286893934612 
1873	 0.379996055473169 
1874	 0.378680889750582 
1875	 0.377410316941932 
1876	 0.375905753966773 
1877	 0.374445340196168 
1878	 0.372845008719284 
1879	 0.371007619643675 
1880	 0.369282430593656 
1881	 0.367414798787943 
1882	 0.365414280735085 
1883	 0.363389520926126 
1884	 0.361341958974129 
1885	 0.359007257890565 
1886	 0.356754211627028 
1887	 0.354371929321533 
1888	 0.351746475988895 
1889	 0.349267246319944 
1890	 0.346600832986809 
1891	 0.343892387391663 
1892	 0.341276751619887 
1893	 0.338519859727479 
1894	 0.33560950702002 
1895	 0.332819542863078 
1896	 0.3300252800316 
1897	 0.327124132012501 
1898	 0.324518700143 
1899	 0.321888810527815 
1900	 0.319271994338601 
1901	 0.316796722649056 
1902	 0.314153255574423 
1903	 0.311593166914585 
1904	 0.309117937670412 
1905	 0.306633345983823 
1906	 0.304243778054284 
1907	 0.302191031491331 
1908	 0.300159312134786 
1909	 0.298153195941356 
1910	 0.296238526773531 
1911	 0.294194248397842 
1912	 0.292250053492185 
1913	 0.290381852585389 
1914	 0.288505979829825 
1915	 0.286768966411712 
1916	 0.285185714248709 
1917	 0.283564166081258 
1918	 0.281959953876982 
1919	 0.280373150708612 
1920	 0.27866889776888 
1921	 0.277037926768468 
1922	 0.275400851733755 
1923	 0.273751780561846 
1924	 0.272244811770838 
1925	 0.270673406309363 
1926	 0.269133209558672 
1927	 0.267627528769398 
1928	 0.26613561201376 
1929	 0.264598443530899 
1930	 0.263210321265778 
1931	 0.261858636512044 
1932	 0.260599511322618 
1933	 0.259493458245989 
1934	 0.258372781376684 
1935	 0.257371772425332 
1936	 0.256572666944071 
1937	 0.255912185936057 
1938	 0.255426683537213 
1939	 0.255044990983819 
1940	 0.254818947857974 
1941	 0.254671023559781 
1942	 0.25459037896008 
1943	 0.254625108549301 
1944	 0.254767538789464 
1945	 0.255007416064665 
1946	 0.255398520410327 
1947	 0.255882292765371 
1948	 0.256502059099405 
1949	 0.257254244343396 
1950	 0.258092200707931 
1951	 0.259072950522971 
1952	 0.260121336140863 
1953	 0.261230774234114 
1954	 0.262457151744969 
1955	 0.263894092919082 
1956	 0.26534589622752 
1957	 0.266908445149746 
1958	 0.268547277072909 
1959	 0.269940323818201 
1960	 0.271285554902767 
1961	 0.272543963527134 
1962	 0.27367476512293 
1963	 0.274725004132706 
1964	 0.27573734890059 
1965	 0.276603476916003 
1966	 0.277323436394459 
1967	 0.278011828144909 
1968	 0.278598657450573 
1969	 0.279208825765492 
1970	 0.279774488293051 
1971	 0.280257786201218 
1972	 0.28079542245374 
1973	 0.28129409194348 
1974	 0.281900593778542 
1975	 0.282605547442074 
1976	 0.283321072928334 
1977	 0.284089732968425 
1978	 0.284872259799238 
1979	 0.285675279662084 
1980	 0.286494743477561 
1981	 0.287366974271466 
1982	 0.28827710564597 
1983	 0.28922153500044 
1984	 0.290114634387072 
1985	 0.291023487028526 
1986	 0.29198446455771 
1987	 0.293016905786629 
1988	 0.294047428593182 
1989	 0.295268468619247 
1990	 0.296582921803637 
1991	 0.298020577227644 
1992	 0.299618247811415 
1993	 0.301325711105275 
1994	 0.303004586151802 
1995	 0.304802442767673 
1996	 0.306600615826728 
1997	 0.308436064620588 
1998	 0.310340526467156 
1999	 0.312360753080687 
2000	 0.314275799259253 
2001	 0.316316105896069 
2002	 0.318095368484054 
2003	 0.319722430223564 
2004	 0.32133094710589 
2005	 0.322805725539879 
2006	 0.324233808627006 
2007	 0.325660994518368 
2008	 0.32695144324931 
2009	 0.32816458553436 
2010	 0.329313178344723 
2011	 0.330294735642534 
2012	 0.331249990525385 
2013	 0.332121350575597 
2014	 0.332863391164511 
2015	 0.333596485129097 
2016	 0.334287316386013 
2017	 0.334913782821244 
2018	 0.335503094195587 
2019	 0.335993909366183 
2020	 0.336383215254986 
2021	 0.336785206168059 
2022	 0.337097184128554 
2023	 0.337268729544422 
2024	 0.337360684729839 
2025	 0.337403072688451 
2026	 0.337469150545345 
2027	 0.337516292516139 
2028	 0.33748099646178 
2029	 0.337464753216439 
2030	 0.337346340190893 
2031	 0.337027275870702 
2032	 0.336839039654747 
2033	 0.336693047011923 
2034	 0.336489452384516 
2035	 0.336286964236334 
2036	 0.336096727774721 
2037	 0.335794519693086 
2038	 0.335592107154737 
2039	 0.335445945234056 
2040	 0.335384581221843 
2041	 0.335251901562577 
2042	 0.335183404877491 
2043	 0.335019469668477 
2044	 0.334761277277376 
2045	 0.334561125301081 
2046	 0.334334032723654 
2047	 0.334138689914549 
2048	 0.333970114567135 
2049	 0.333804786927691 
2050	 0.333636785247775 
2051	 0.333514822751739 
2052	 0.333402855737907 
2053	 0.333270394199196 
2054	 0.333155226401166 
2055	 0.333068491321138 
2056	 0.332946768880375 
2057	 0.3327878225237 
2058	 0.332690014271683 
2059	 0.332625580803235 
2060	 0.332514141493641 
2061	 0.332417314111439 
2062	 0.332316570938606 
2063	 0.332150045702106 
2064	 0.332033360686738 
2065	 0.331941697947019 
2066	 0.331904597112669 
2067	 0.331825089276477 
2068	 0.331744944105758 
2069	 0.331661534941556 
2070	 0.331566053545056 
2071	 0.331472113248588 
2072	 0.331391493083032 
2073	 0.331284049595032 
2074	 0.331170186746972 
2075	 0.331042284396223 
2076	 0.330861618138253 
2077	 0.330730541777621 
2078	 0.330619878859954 
2079	 0.330500011653618 
2080	 0.330442283428103 
2081	 0.330324377271498 
2082	 0.330196561306027 
2083	 0.329999549184555 
2084	 0.329730832961109 
2085	 0.329511314096893 
2086	 0.329275712019282 
2087	 0.329012416178194 
2088	 0.32876680876911 
2089	 0.328555675789099 
2090	 0.328281599100398 
2091	 0.327969044491623 
2092	 0.327689782386031 
2093	 0.327363807367026 
2094	 0.327098828959394 
2095	 0.326937766550668 
2096	 0.3266715867658 
2097	 0.326392676328706 
2098	 0.326093241450606 
2099	 0.32567316255119 
2100	 0.325220793017132 
2101	 0.324779212620473 
2102	 0.324320064445233 
2103	 0.323837169810236 
2104	 0.323309887252119 
2105	 0.322839144542468 
2106	 0.322397879914299 
2107	 0.321882977691542 
2108	 0.321369968423956 
2109	 0.320846349186459 
2110	 0.320239992934084 
2111	 0.319676530487991 
2112	 0.319149948506043 
2113	 0.318622250556203 
2114	 0.318098577719587 
2115	 0.317553104789145 
2116	 0.317030752803397 
2117	 0.316479900086187 
2118	 0.315884791203521 
2119	 0.315246385076099 
2120	 0.314599095245144 
2121	 0.313901639939044 
2122	 0.313240344474658 
2123	 0.3125476742636 
2124	 0.311921779156268 
2125	 0.311356550967641 
2126	 0.310755159228935 
2127	 0.310177259652039 
2128	 0.309584320537444 
2129	 0.308955197707066 
2130	 0.308357907630729 
2131	 0.307768601967057 
2132	 0.307199472129446 
2133	 0.306693874939378 
2134	 0.306096237520238 
2135	 0.305503374009215 
2136	 0.305023527207649 
2137	 0.304546634782099 
2138	 0.304079814663415 
2139	 0.303668448402357 
2140	 0.303330936693823 
2141	 0.302962999922247 
2142	 0.302596954614537 
2143	 0.302272593051436 
2144	 0.30197206543385 
2145	 0.301683224060882 
2146	 0.301421243607077 
2147	 0.301176027644934 
2148	 0.300940711718034 
2149	 0.300723410277272 
2150	 0.300550237981925 
2151	 0.30037441135782 
2152	 0.300210941680057 
2153	 0.300019459200927 
2154	 0.299948911400864 
2155	 0.299837901057121 
2156	 0.299710697839426 
2157	 0.299638925802223 
2158	 0.299458965682197 
2159	 0.299138739758588 
2160	 0.298985915430957 
2161	 0.298904978602855 
2162	 0.298734508548851 
2163	 0.298608920581057 
2164	 0.298444388361367 
2165	 0.298157794274742 
2166	 0.297953000984379 
2167	 0.297784132860075 
2168	 0.297654729024363 
2169	 0.297563253846851 
2170	 0.297462716618609 
2171	 0.297416166359473 
2172	 0.297352937260978 
2173	 0.297293167146159 
2174	 0.297169518609521 
2175	 0.297096475861394 
2176	 0.297068603194239 
2177	 0.297024982468193 
2178	 0.297004689685619 
2179	 0.296944727004217 
2180	 0.296844017568077 
2181	 0.296811033299729 
2182	 0.296742236461126 
2183	 0.296794415287309 
2184	 0.297003316640565 
2185	 0.297076684224312 
2186	 0.297225426768019 
2187	 0.297194081891566 
2188	 0.296966533067139 
2189	 0.296838959349585 
2190	 0.296645202637088 
2191	 0.296504088075131 
2192	 0.296438807222593 
2193	 0.296333786104567 
2194	 0.296226423600435 
2195	 0.296092333177051 
2196	 0.295949127810812 
2197	 0.295790100600862 
2198	 0.295616929164557 
2199	 0.29533020924512 
2200	 0.295059199593414 
2201	 0.294778700316177 
2202	 0.294405097850433 
2203	 0.293936333302579 
2204	 0.29356780870311 
2205	 0.29314204575867 
2206	 0.292805005149752 
2207	 0.292596186532946 
2208	 0.292312087902731 
2209	 0.292048225800532 
2210	 0.291686983455371 
2211	 0.291293572176361 
2212	 0.290843097637945 
2213	 0.290263334066485 
2214	 0.289769154052444 
2215	 0.289185302059369 
2216	 0.288778223023141 
2217	 0.288494506145609 
2218	 0.288225487630529 
2219	 0.288132769587368 
2220	 0.287946184007005 
2221	 0.287736098658096 
2222	 0.28748526036669 
2223	 0.287222735790839 
2224	 0.287088389439126 
2225	 0.286990832316036 
2226	 0.286809074073582 
2227	 0.286602487753341 
2228	 0.286402711435301 
2229	 0.286056580206135 
2230	 0.285668996767506 
2231	 0.285133609423187 
2232	 0.284424877222953 
2233	 0.2837346926886 
2234	 0.283045613484645 
2235	 0.282114937806498 
2236	 0.281118095403022 
2237	 0.279909496847816 
2238	 0.278360140353472 
2239	 0.276903329249609 
2240	 0.275456561100159 
2241	 0.273788190137196 
2242	 0.27204416665438 
2243	 0.270141855665338 
2244	 0.267946887254002 
2245	 0.265813505705471 
2246	 0.263592128666723 
2247	 0.261357864803468 
2248	 0.259223224167018 
2249	 0.256822025378254 
2250	 0.254190693337492 
2251	 0.251671010336185 
2252	 0.248801556972998 
2253	 0.245984647219712 
2254	 0.243388404537221 
2255	 0.240729593897054 
2256	 0.238347153697709 
2257	 0.235943202218766 
2258	 0.23338581718868 
2259	 0.230716576228556 
2260	 0.228247769940964 
2261	 0.225745229890422 
2262	 0.223323002083267 
2263	 0.22109400735005 
2264	 0.218744455818106 
2265	 0.216232516621458 
2266	 0.21396854896886 
2267	 0.211848166222918 
2268	 0.20976612178511 
2269	 0.207857776152379 
2270	 0.205838926020285 
2271	 0.203762106736108 
2272	 0.201821123021261 
2273	 0.199894158392505 
2274	 0.198029671730392 
2275	 0.196314677266195 
2276	 0.194554398475937 
2277	 0.192854016189685 
2278	 0.191089967941806 
2279	 0.189295185116523 
2280	 0.187467236223835 
2281	 0.185615184851464 
2282	 0.183681401660293 
2283	 0.181654626231136 
2284	 0.179725309353013 
2285	 0.177604714800368 
2286	 0.175420652455638 
2287	 0.173401350778026 
2288	 0.171135217723744 
2289	 0.168949158897105 
2290	 0.166778018553819 
2291	 0.164417843417096 
2292	 0.162187297890942 
2293	 0.1598950460465 
2294	 0.1576309157506 
2295	 0.155647154239071 
2296	 0.15370634091612 
2297	 0.15196313275872 
2298	 0.150411143724916 
2299	 0.149088774060411 
2300	 0.147873017117844 
2301	 0.147075193648089 
2302	 0.146630008672226 
2303	 0.146374774047112 
2304	 0.146412819731649 
2305	 0.146638437385987 
2306	 0.147145383689068 
2307	 0.1478158354003 
2308	 0.148731765558027 
2309	 0.149795728115174 
2310	 0.151028937225681 
2311	 0.152486429288506 
2312	 0.154221716078987 
2313	 0.156015055223796 
2314	 0.158049052763465 
2315	 0.160088598783326 
2316	 0.162319282344304 
2317	 0.164337333935361 
2318	 0.166435389758337 
2319	 0.168275179124599 
2320	 0.170055535954112 
2321	 0.171451611445522 
2322	 0.172540509166859 
2323	 0.173451227148684 
2324	 0.173999077347822 
2325	 0.174424125875617 
2326	 0.174727960885179 
2327	 0.174838528874466 
2328	 0.174621136254798 
2329	 0.174352825229188 
2330	 0.174040029196669 
2331	 0.173390663902551 
2332	 0.172657899853056 
2333	 0.171969187433297 
2334	 0.17088901045775 
2335	 0.169922846622858 
2336	 0.168812150817557 
2337	 0.16734934206632 
2338	 0.165946665789679 
2339	 0.16435861223538 
2340	 0.162826958915335 
2341	 0.161564809264072 
2342	 0.16043456963162 
2343	 0.15946297808911 
2344	 0.158508384094236 
2345	 0.157674314949294 
2346	 0.156956353765378 
2347	 0.156640916821362 
2348	 0.156729501947845 
2349	 0.157058290266518 
2350	 0.158027044463534 
2351	 0.159096771700365 
2352	 0.160142143353679 
2353	 0.161546586506705 
2354	 0.162508822343517 
2355	 0.163616012387376 
2356	 0.165252528229664 
2357	 0.166742402411909 
2358	 0.168059054196845 
2359	 0.168905497192899 
2360	 0.16932023583061 
2361	 0.169462176034748 
2362	 0.169724829859167 
2363	 0.170093256120362 
2364	 0.170166443304438 
2365	 0.170049283868532 
2366	 0.169673566475095 
2367	 0.169282538360847 
2368	 0.169037033027179 
2369	 0.168898286700877 
2370	 0.168898595993303 
2371	 0.16884168047237 
2372	 0.168760261928223 
2373	 0.168414697050505 
2374	 0.167958020952801 
2375	 0.167700312824326 
2376	 0.167368929071473 
2377	 0.167261236991168 
2378	 0.167387801014105 
2379	 0.16725489567512 
2380	 0.167124105508954 
2381	 0.167048104998134 
2382	 0.167061799393094 
2383	 0.167227005756208 
2384	 0.167134444224447 
2385	 0.167032845580205 
2386	 0.166909613822371 
2387	 0.166342979286993 
2388	 0.166316341770005 
2389	 0.166723575502344 
2390	 0.166839686843284 
2391	 0.167141623269089 
2392	 0.167209494326268 
2393	 0.166978663929723 
2394	 0.16683753058068 
2395	 0.166601523360821 
2396	 0.16655005561627 
2397	 0.166799249165597 
2398	 0.166664509284995 
2399	 0.166272121480535 
2400	 0.16615860130389 
2401	 0.165843272085704 
2402	 0.165798320824373 
2403	 0.166002301587308 
2404	 0.166070533833293 
2405	 0.166043706549162 
2406	 0.165884502459023 
2407	 0.16585411323008 
2408	 0.165939466913391 
2409	 0.165773793932327 
2410	 0.165743262644623 
2411	 0.165471288187501 
2412	 0.164798166618768 
2413	 0.164550047601643 
2414	 0.164543492649536 
2415	 0.16490617425888 
2416	 0.165579803345679 
2417	 0.165948911777855 
2418	 0.166025777425069 
2419	 0.16590359076887 
2420	 0.165654368291738 
2421	 0.165776087834977 
2422	 0.166006368426004 
2423	 0.166029654141078 
2424	 0.166050919677375 
2425	 0.165786707061758 
2426	 0.165472242568182 
2427	 0.165389813396999 
2428	 0.165529849325501 
2429	 0.165737122401318 
2430	 0.165657177311039 
2431	 0.165888364075314 
2432	 0.166038906416533 
2433	 0.165669400594806 
2434	 0.165884701500424 
2435	 0.165720395064195 
2436	 0.164706878044544 
2437	 0.164098282812556 
2438	 0.163735859508734 
2439	 0.163487867482505 
2440	 0.163674227920545 
2441	 0.164061014110563 
2442	 0.164253061763514 
2443	 0.16414052355971 
2444	 0.163896957183322 
2445	 0.163944794943277 
2446	 0.163629284853487 
2447	 0.163037423227141 
2448	 0.163445693349828 
2449	 0.163437769472987 
2450	 0.163030544739688 
2451	 0.162945548154439 
2452	 0.162318905738493 
2453	 0.161445214436445 
2454	 0.160717291053232 
2455	 0.160174911480989 
2456	 0.159205986545039 
2457	 0.158629815149512 
2458	 0.158353453875607 
2459	 0.157827825587303 
2460	 0.157914448494624 
2461	 0.157996584964092 
2462	 0.157799780894706 
2463	 0.158022826434824 
2464	 0.158196065382756 
2465	 0.157651775867065 
2466	 0.157271610419698 
2467	 0.156298816362434 
2468	 0.15455085914411 
2469	 0.154321071444544 
2470	 0.154944801340647 
2471	 0.155644933471899 
2472	 0.157226502022359 
2473	 0.15797186561019 
2474	 0.157619328370805 
2475	 0.157755452022669 
2476	 0.157490962441342 
2477	 0.156884973757112 
2478	 0.156739536308663 
2479	 0.156414278934739 
2480	 0.155998854525809 
2481	 0.156077309687251 
2482	 0.156535680209243 
2483	 0.15669882777601 
2484	 0.156710413568729 
2485	 0.156330961534625 
2486	 0.155791946739604 
2487	 0.155431608714183 
2488	 0.155544063787737 
2489	 0.156130001209792 
2490	 0.156874501830875 
2491	 0.157905780450233 
2492	 0.158150113396384 
2493	 0.157612052619005 
2494	 0.157453060861552 
2495	 0.156749074901722 
2496	 0.157268065456907 
2497	 0.159097072559883 
2498	 0.159638395918716 
2499	 0.159749656859417 
2500	 0.160447351607883 
