Wavelength	Tablay400026.asd
350	 0.162853778510865 
351	 0.173442787103701 
352	 0.182488121222777 
353	 0.176843769468118 
354	 0.146405236176138 
355	 0.164200954236562 
356	 0.16823458941858 
357	 0.114534888546877 
358	 8.06848943743038E-02 
359	 0.110247359359058 
360	 0.172869219605609 
361	 0.190961669675871 
362	 0.155320985881231 
363	 0.140494523558695 
364	 0.165556711762858 
365	 0.156469521490454 
366	 0.103602102806391 
367	 0.064421883271692 
368	 8.92537628647164E-02 
369	 0.17056853645317 
370	 0.161230950941399 
371	 9.85172541639835E-02 
372	 0.111823081755513 
373	 0.121914620259183 
374	 0.123389605359503 
375	 0.117889211697277 
376	 0.105435636088104 
377	 0.103629130087679 
378	 0.120329047181968 
379	 0.145885507489437 
380	 0.118786743201706 
381	 9.92597265881103E-02 
382	 0.101360485396166 
383	 0.104235938039375 
384	 8.00454422006402E-02 
385	 6.01604051054455E-02 
386	 7.08314637063502E-02 
387	 0.122661480043699 
388	 0.135664250680277 
389	 0.115447074856765 
390	 9.20295926165617E-02 
391	 8.35785674292097E-02 
392	 8.13909890436165E-02 
393	 8.14275343758204E-02 
394	 0.081852231048091 
395	 6.80440193406569E-02 
396	 7.04126917440341E-02 
397	 9.34511523019069E-02 
398	 9.54024210315859E-02 
399	 0.094170672270888 
400	 9.06595466753057E-02 
401	 8.33501120326603E-02 
402	 7.60520294804786E-02 
403	 7.68430488632063E-02 
404	 8.70982520859357E-02 
405	 0.101118067777656 
406	 8.72233862966633E-02 
407	 7.30007668736703E-02 
408	 7.45105548488282E-02 
409	 7.08347736184769E-02 
410	 6.64733325687934E-02 
411	 6.92754752571641E-02 
412	 8.11061060215472E-02 
413	 6.99217763396708E-02 
414	 5.92300710620835E-02 
415	 6.06122467032538E-02 
416	 7.12573328180449E-02 
417	 7.70874434353846E-02 
418	 7.26093218740829E-02 
419	 6.17981744149583E-02 
420	 6.69117402507164E-02 
421	 6.60008341246335E-02 
422	 6.24948461993733E-02 
423	 6.67720877811798E-02 
424	 0.06546884758911 
425	 6.59571911233302E-02 
426	 6.94013077724986E-02 
427	 6.88687906457077E-02 
428	 6.76979073166784E-02 
429	 6.08226780367269E-02 
430	 4.94451811628857E-02 
431	 5.82757732162241E-02 
432	 6.37799257226174E-02 
433	 6.32921461945635E-02 
434	 6.50394228902668E-02 
435	 6.46219864962805E-02 
436	 6.30847790917138E-02 
437	 6.19351537821942E-02 
438	 6.26152161852331E-02 
439	 6.15878998371391E-02 
440	 6.09234585753286E-02 
441	 6.25198157502892E-02 
442	 6.08201650936624E-02 
443	 6.03594234652664E-02 
444	 6.13306501662916E-02 
445	 6.06026429798597E-02 
446	 6.04194751228352E-02 
447	 6.12583394073701E-02 
448	 6.28621081751858E-02 
449	 6.44626006755725E-02 
450	 6.24141274991344E-02 
451	 6.03202137297433E-02 
452	 6.30253840524437E-02 
453	 6.53634370581032E-02 
454	 6.47795830214962E-02 
455	 0.062546648237107 
456	 6.35954489627936E-02 
457	 6.27048261168469E-02 
458	 6.11467506578463E-02 
459	 6.09323664932408E-02 
460	 6.22761213998593E-02 
461	 6.30470134314166E-02 
462	 6.26256530652189E-02 
463	 6.14380955046132E-02 
464	 6.05287850682006E-02 
465	 6.06823803837214E-02 
466	 6.12813138051281E-02 
467	 5.96793172117776E-02 
468	 0.059778231173851 
469	 6.04046040477466E-02 
470	 5.97139356398263E-02 
471	 5.92215298847511E-02 
472	 5.91114554240475E-02 
473	 5.90186807688195E-02 
474	 5.83839756628413E-02 
475	 6.03215976385601E-02 
476	 6.06503659914812E-02 
477	 5.79476176777641E-02 
478	 5.90535941005434E-02 
479	 5.96086520175244E-02 
480	 5.96842558547003E-02 
481	 6.04677853553002E-02 
482	 5.97273701672418E-02 
483	 5.92699328696108E-02 
484	 0.059718956256023 
485	 6.00930124426232E-02 
486	 5.93066844289563E-02 
487	 0.058910636904266 
488	 5.98772863786535E-02 
489	 5.95512425032977E-02 
490	 5.99107702671139E-02 
491	 6.04679183378432E-02 
492	 5.96569244666042E-02 
493	 5.97849584258915E-02 
494	 6.05416496082818E-02 
495	 6.10360979044487E-02 
496	 0.059841006195767 
497	 6.01152085989864E-02 
498	 6.09173606460283E-02 
499	 0.060686077842027 
500	 6.10554898444802E-02 
501	 6.18172915147756E-02 
502	 6.22814783899003E-02 
503	 6.15702196304469E-02 
504	 6.19805462611353E-02 
505	 6.24411430185263E-02 
506	 6.22936389520072E-02 
507	 6.34585841404365E-02 
508	 6.34031749804033E-02 
509	 6.30041826171648E-02 
510	 6.41039432173386E-02 
511	 0.064263422161152 
512	 6.39103577894627E-02 
513	 6.37654744454647E-02 
514	 6.45888363300683E-02 
515	 6.51377131988045E-02 
516	 6.57108591108941E-02 
517	 6.65687633820219E-02 
518	 6.63341587438718E-02 
519	 6.68299146299249E-02 
520	 6.78261478610386E-02 
521	 6.77989647278007E-02 
522	 6.75552639854868E-02 
523	 6.79680409627893E-02 
524	 6.92469320792816E-02 
525	 7.04744943396473E-02 
526	 7.10334956276014E-02 
527	 7.10661717012453E-02 
528	 7.11305594001909E-02 
529	 0.072133666792151 
530	 7.26842529545511E-02 
531	 7.28082485714358E-02 
532	 0.074075305351855 
533	 7.46773453116103E-02 
534	 7.52188075853859E-02 
535	 7.62663033269002E-02 
536	 7.67349604580581E-02 
537	 7.74860356938016E-02 
538	 7.84840264071806E-02 
539	 7.92091941821531E-02 
540	 7.95175132095143E-02 
541	 8.01137682515472E-02 
542	 8.11943610623878E-02 
543	 8.20468070599202E-02 
544	 8.26019821905215E-02 
545	 0.083067016879935 
546	 8.36944700472111E-02 
547	 8.44229669695174E-02 
548	 8.52292418977231E-02 
549	 8.59347009129996E-02 
550	 8.62738485735551E-02 
551	 8.69744891240669E-02 
552	 0.087804123148932 
553	 8.84792443152767E-02 
554	 8.90505809413498E-02 
555	 8.95049544745809E-02 
556	 9.00584857549614E-02 
557	 9.09521947432763E-02 
558	 9.18111549482453E-02 
559	 9.22987293948554E-02 
560	 9.26439829868581E-02 
561	 9.38395477752911E-02 
562	 9.45614475353705E-02 
563	 9.51956003492376E-02 
564	 9.61950318046797E-02 
565	 9.64037721461912E-02 
566	 9.67102243920081E-02 
567	 9.72706587236565E-02 
568	 9.76829948477242E-02 
569	 9.81159142240897E-02 
570	 9.82858504540299E-02 
571	 9.82510925873264E-02 
572	 9.89228236944626E-02 
573	 9.95395410723424E-02 
574	 0.100178362158792 
575	 0.101044353680417 
576	 0.101199269793804 
577	 0.101424999022725 
578	 0.102005646647147 
579	 0.102538389310299 
580	 0.103079218015442 
581	 0.103434505918749 
582	 0.103547248898883 
583	 0.103877153077931 
584	 0.104402763113799 
585	 0.104967735455232 
586	 0.105345293865437 
587	 0.105526645257502 
588	 0.105679243810386 
589	 0.106017570104348 
590	 0.106819866146586 
591	 0.107366380590323 
592	 0.10767578418218 
593	 0.107968393111257 
594	 0.108193432583674 
595	 0.10850505292257 
596	 0.108884600961239 
597	 0.109169329354894 
598	 0.109494571228083 
599	 0.109713989382713 
600	 0.109817839291142 
601	 0.110259983598698 
602	 0.110509244502029 
603	 0.110735653515084 
604	 0.111295090704272 
605	 0.111610116940189 
606	 0.111839347551946 
607	 0.11213577999569 
608	 0.112564593405767 
609	 0.112863483936227 
610	 0.1129824276071 
611	 0.112995151678171 
612	 0.113124028762747 
613	 0.113583549704507 
614	 0.11408628045789 
615	 0.11411206277329 
616	 0.114314829005637 
617	 0.114603559849359 
618	 0.114873282191938 
619	 0.115175200315605 
620	 0.11546371601679 
621	 0.1157178281676 
622	 0.115955585379996 
623	 0.116342833815808 
624	 0.116625944661741 
625	 0.116821080368972 
626	 0.117187909533406 
627	 0.117384293178918 
628	 0.11749435256482 
629	 0.117687669514721 
630	 0.118165713787274 
631	 0.118574144951587 
632	 0.118856826620372 
633	 0.119093775590822 
634	 0.119253703196583 
635	 0.119554980439389 
636	 0.119944978967987 
637	 0.120022755961658 
638	 0.120474982244076 
639	 0.120923383682293 
640	 0.121027323809609 
641	 0.121455090704094 
642	 0.12182154943087 
643	 0.122139107072067 
644	 0.1226114402471 
645	 0.122765395072844 
646	 0.123024647037202 
647	 0.123489610970352 
648	 0.123548461418787 
649	 0.123839333956562 
650	 0.124239812427914 
651	 0.12451455650254 
652	 0.125007058293842 
653	 0.125366975675956 
654	 0.125612164404993 
655	 0.126046959650188 
656	 0.126438384126036 
657	 0.126773580743991 
658	 0.12706949537396 
659	 0.127318639296066 
660	 0.127655789836642 
661	 0.128042249540093 
662	 0.128383166398465 
663	 0.128670269124681 
664	 0.129070846949959 
665	 0.12956545837223 
666	 0.129942427440308 
667	 0.130192185262422 
668	 0.130486039098858 
669	 0.130917594539765 
670	 0.131296656885836 
671	 0.131587954002597 
672	 0.13188442866689 
673	 0.132306685471627 
674	 0.132688722687853 
675	 0.133073440700441 
676	 0.133464924204125 
677	 0.133802625507419 
678	 0.134198041797607 
679	 0.134593770635389 
680	 0.134950922553856 
681	 0.135416382454113 
682	 0.135859275288891 
683	 0.13623947314195 
684	 0.13658634631632 
685	 0.137034648799576 
686	 0.137475217886933 
687	 0.137829423069291 
688	 0.138097821202469 
689	 0.138514391022065 
690	 0.138912295020625 
691	 0.139180245992176 
692	 0.139815015071144 
693	 0.14026126314918 
694	 0.140505411137741 
695	 0.140881605536038 
696	 0.14145900310682 
697	 0.141933752005745 
698	 0.142232436178735 
699	 0.14270991493921 
700	 0.14317515815916 
701	 0.143569781974136 
702	 0.143925295156649 
703	 0.144484952282141 
704	 0.144915322915619 
705	 0.145267081373466 
706	 0.145817728205782 
707	 0.146194693765002 
708	 0.14654233107137 
709	 0.146979246098545 
710	 0.147465476173396 
711	 0.148027090230149 
712	 0.148529011214427 
713	 0.148874736903747 
714	 0.149292976749935 
715	 0.14973879813383 
716	 0.150189592137816 
717	 0.150644212580121 
718	 0.151129172621223 
719	 0.151627533195229 
720	 0.152092930046138 
721	 0.152431809881454 
722	 0.152875678505467 
723	 0.153394783506575 
724	 0.153882883917716 
725	 0.154279889047262 
726	 0.154723433572933 
727	 0.15519308269777 
728	 0.155575870722981 
729	 0.156071167148782 
730	 0.156531858152014 
731	 0.156895522170758 
732	 0.157305875074279 
733	 0.157793636483166 
734	 0.158259433738535 
735	 0.158612342660468 
736	 0.158941467876642 
737	 0.159327847706474 
738	 0.159786552422272 
739	 0.160272865850265 
740	 0.160673825702336 
741	 0.161060497855461 
742	 0.161483388453099 
743	 0.161925454278084 
744	 0.162403809044934 
745	 0.16287007056047 
746	 0.163267262921496 
747	 0.163555078192146 
748	 0.163919022358063 
749	 0.164348282360911 
750	 0.164722002179121 
751	 0.16506392393755 
752	 0.165391098194701 
753	 0.165714117395297 
754	 0.166034633625562 
755	 0.166348679250546 
756	 0.166669866934446 
757	 0.16698270357253 
758	 0.167161978079826 
759	 0.167423735150482 
760	 0.167742090866433 
761	 0.168004368627261 
762	 0.168360941164106 
763	 0.168707746961438 
764	 0.16895700558557 
765	 0.169077095942547 
766	 0.169396034654154 
767	 0.169747044263039 
768	 0.169978987028406 
769	 0.170209046681898 
770	 0.170405746290817 
771	 0.170632043118027 
772	 0.170934643071845 
773	 0.171130830949324 
774	 0.171312857706224 
775	 0.171518627364373 
776	 0.171731392626407 
777	 0.171972310798075 
778	 0.172117905246578 
779	 0.172188928984203 
780	 0.172479738076458 
781	 0.172648378390833 
782	 0.17269282029813 
783	 0.172741732642117 
784	 0.173014687417666 
785	 0.173225309717802 
786	 0.173320941038505 
787	 0.173398627632896 
788	 0.173526053551416 
789	 0.173665507953048 
790	 0.173784761713132 
791	 0.173874711217529 
792	 0.17395945648971 
793	 0.174071646106903 
794	 0.174205772253308 
795	 0.174263851568659 
796	 0.174299725286749 
797	 0.174328515548999 
798	 0.174352895760748 
799	 0.174372034616288 
800	 0.174441834405715 
801	 0.174533391239514 
802	 0.174559509470761 
803	 0.174566167641913 
804	 0.174519867403887 
805	 0.174463248206101 
806	 0.17455913138444 
807	 0.174620013035138 
808	 0.174595462630531 
809	 0.174520674090369 
810	 0.174570877288845 
811	 0.174559499470857 
812	 0.174512769614439 
813	 0.174522225610698 
814	 0.174457835030491 
815	 0.174417860539768 
816	 0.174398211452018 
817	 0.174310859140614 
818	 0.174332956945691 
819	 0.174399449385433 
820	 0.174404949884613 
821	 0.174242297204122 
822	 0.174279752017299 
823	 0.174326794603118 
824	 0.174174229283926 
825	 0.174021802073749 
826	 0.174092450581297 
827	 0.174173483399359 
828	 0.173957812114102 
829	 0.173871364170023 
830	 0.173895474162503 
831	 0.173903434295031 
832	 0.173734384236997 
833	 0.173666545848166 
834	 0.173642132085505 
835	 0.173581640561824 
836	 0.173453229860798 
837	 0.173504017052336 
838	 0.173522103605042 
839	 0.173341708313458 
840	 0.173250612930363 
841	 0.173204168465345 
842	 0.1731510892816 
843	 0.17307108395626 
844	 0.173152961785222 
845	 0.173144554137249 
846	 0.172969971178918 
847	 0.172726240756836 
848	 0.172626658918213 
849	 0.172598458434888 
850	 0.17253302477812 
851	 0.172345347608344 
852	 0.17243710141938 
853	 0.172436243736287 
854	 0.172158178167413 
855	 0.172153086367883 
856	 0.17208333168552 
857	 0.171993585216594 
858	 0.171986894467934 
859	 0.171961023663339 
860	 0.171812656229584 
861	 0.171641545494565 
862	 0.17161633777709 
863	 0.171628691100142 
864	 0.171606520940675 
865	 0.171556400648213 
866	 0.171540114080891 
867	 0.171453428659203 
868	 0.171380777567973 
869	 0.171368916132289 
870	 0.171376182193563 
871	 0.171322110045809 
872	 0.171314784503324 
873	 0.171371243327859 
874	 0.171210553515595 
875	 0.171150419571776 
876	 0.171158336540873 
877	 0.171121279004526 
878	 0.171051806255324 
879	 0.171108549081863 
880	 0.171142496966697 
881	 0.170969678918277 
882	 0.171073253163937 
883	 0.171214060332997 
884	 0.171212945280448 
885	 0.171025391503703 
886	 0.170984615140982 
887	 0.171049436072949 
888	 0.171076445083851 
889	 0.170900838708693 
890	 0.171028055940373 
891	 0.171124679851201 
892	 0.171035752530687 
893	 0.171163733108313 
894	 0.171124274431545 
895	 0.171080264645449 
896	 0.171203259170221 
897	 0.171359343516781 
898	 0.171175641511604 
899	 0.171000208819487 
900	 0.171218474497632 
901	 0.171342383825125 
902	 0.171447104585803 
903	 0.171448443785914 
904	 0.171287883948165 
905	 0.171423388830882 
906	 0.171543623562456 
907	 0.171574304678493 
908	 0.171623402272222 
909	 0.171535999464032 
910	 0.171533053296132 
911	 0.171676040235998 
912	 0.17182413802767 
913	 0.171876068051231 
914	 0.171951223342344 
915	 0.172039884976908 
916	 0.171934311599484 
917	 0.172122993700008 
918	 0.172268905301714 
919	 0.172191544340669 
920	 0.172305572669618 
921	 0.17242124430993 
922	 0.172476130662863 
923	 0.172517474219788 
924	 0.172794051970093 
925	 0.173001002918114 
926	 0.173064028557134 
927	 0.173047508697095 
928	 0.173184845582154 
929	 0.173257788203607 
930	 0.173293886537194 
931	 0.173418368349972 
932	 0.173691840549732 
933	 0.173941971632181 
934	 0.174040125981998 
935	 0.174000567974677 
936	 0.174386112171194 
937	 0.174479325422963 
938	 0.174413455913005 
939	 0.174805247004777 
940	 0.174952672231917 
941	 0.175228032383829 
942	 0.175563733147133 
943	 0.175524688332796 
944	 0.175497931516955 
945	 0.175732985447156 
946	 0.176060281896592 
947	 0.175994349384362 
948	 0.176315362640101 
949	 0.176642945013122 
950	 0.176781402113226 
951	 0.176973020432305 
952	 0.177118479812268 
953	 0.177259463812238 
954	 0.177396662838404 
955	 0.177452245681859 
956	 0.17773038266438 
957	 0.1780522011812 
958	 0.178235485001623 
959	 0.178286282399399 
960	 0.178430136292143 
961	 0.178745562049907 
962	 0.179087562004367 
963	 0.178989776168681 
964	 0.178949864776562 
965	 0.179215440659404 
966	 0.179659839249984 
967	 0.179518620203999 
968	 0.17978744206497 
969	 0.180143733554051 
970	 0.180218869441086 
971	 0.180509108343711 
972	 0.180832392550069 
973	 0.181059641737265 
974	 0.181136482735544 
975	 0.181158466503424 
976	 0.181342595240682 
977	 0.181688210677742 
978	 0.182034320508678 
979	 0.181999052249354 
980	 0.182193335693237 
981	 0.182408734532492 
982	 0.182427259035026 
983	 0.182974495233272 
984	 0.183062854349128 
985	 0.183017303249465 
986	 0.183347194228087 
987	 0.183510551556663 
988	 0.183848257030256 
989	 0.184168585815544 
990	 0.184248309788748 
991	 0.184406046793905 
992	 0.184522693154606 
993	 0.184860573980018 
994	 0.185512945572842 
995	 0.185615261531352 
996	 0.185630433167325 
997	 0.185799459107339 
998	 0.186197025483581 
999	 0.186682755938064 
1000	 0.186826875838192 
1001	 0.189601557838775 
1002	 0.189813099085899 
1003	 0.189850146594759 
1004	 0.190229935574789 
1005	 0.191045256631561 
1006	 0.191487823039134 
1007	 0.191924253852419 
1008	 0.192244535094024 
1009	 0.192303321889557 
1010	 0.192574014066441 
1011	 0.192867339381479 
1012	 0.193174262546839 
1013	 0.193646181441448 
1014	 0.194045411675795 
1015	 0.194452539567285 
1016	 0.194701270462328 
1017	 0.19497640381118 
1018	 0.195133627707895 
1019	 0.195405130903836 
1020	 0.195873378101607 
1021	 0.196209789977562 
1022	 0.196644370750469 
1023	 0.19699325731651 
1024	 0.197164643624296 
1025	 0.197479779592763 
1026	 0.19792736095719 
1027	 0.198265613802603 
1028	 0.198567978998831 
1029	 0.198890052673818 
1030	 0.199212244722159 
1031	 0.199505985103974 
1032	 0.199895049566309 
1033	 0.200165467374953 
1034	 0.200351629677223 
1035	 0.200656544115134 
1036	 0.200766133315882 
1037	 0.200582129234382 
1038	 0.200805315405616 
1039	 0.201129073592604 
1040	 0.201443452525934 
1041	 0.202164686289088 
1042	 0.202529374176642 
1043	 0.202686432593189 
1044	 0.202745606874103 
1045	 0.202942739187631 
1046	 0.203030490115581 
1047	 0.203313120043245 
1048	 0.203658068142862 
1049	 0.20391623926378 
1050	 0.204389914413386 
1051	 0.204745418077823 
1052	 0.204944302644923 
1053	 0.20528207814443 
1054	 0.205568877505638 
1055	 0.205922455048117 
1056	 0.206569024652616 
1057	 0.206976672623193 
1058	 0.20723410344989 
1059	 0.20749077359842 
1060	 0.207927036877608 
1061	 0.208270591975575 
1062	 0.208798044096989 
1063	 0.209356086105392 
1064	 0.209832053699051 
1065	 0.210225605355264 
1066	 0.210378324450915 
1067	 0.210812007913093 
1068	 0.211435841824061 
1069	 0.21184028271361 
1070	 0.212388058481047 
1071	 0.213183931848958 
1072	 0.213846340491604 
1073	 0.214081827057057 
1074	 0.214458724967993 
1075	 0.214890546183926 
1076	 0.215245996661932 
1077	 0.215775939382467 
1078	 0.216465140947505 
1079	 0.21708584436264 
1080	 0.217550188683044 
1081	 0.218008393999695 
1082	 0.218466414441687 
1083	 0.218899035890034 
1084	 0.219560271626802 
1085	 0.220365065424092 
1086	 0.220989656005376 
1087	 0.221591727461539 
1088	 0.222133812892722 
1089	 0.222526989300899 
1090	 0.222904106121437 
1091	 0.223442631142895 
1092	 0.223922051457402 
1093	 0.224462376459622 
1094	 0.224970197773981 
1095	 0.225381644932372 
1096	 0.225970228682873 
1097	 0.226454072837181 
1098	 0.226759786827692 
1099	 0.227199758536718 
1100	 0.227576860254878 
1101	 0.227803801458606 
1102	 0.228225228978164 
1103	 0.228681344308933 
1104	 0.229168710433714 
1105	 0.229553990871081 
1106	 0.23006208422525 
1107	 0.230480582753654 
1108	 0.230687319728759 
1109	 0.230980560851671 
1110	 0.23144913978574 
1111	 0.231909654175679 
1112	 0.232317726511211 
1113	 0.232691623364524 
1114	 0.232958227397685 
1115	 0.23318348564281 
1116	 0.233532288907535 
1117	 0.233911667045346 
1118	 0.234215009373372 
1119	 0.234466745827544 
1120	 0.234782632809952 
1121	 0.235101434184736 
1122	 0.235357750008327 
1123	 0.235684917019601 
1124	 0.235936093041552 
1125	 0.236137962596774 
1126	 0.236444173548786 
1127	 0.236740219110661 
1128	 0.237029626807485 
1129	 0.237363208082383 
1130	 0.237634722646242 
1131	 0.237841963931568 
1132	 0.238108529208883 
1133	 0.238382007971409 
1134	 0.238545843434648 
1135	 0.238739543031376 
1136	 0.238974002514124 
1137	 0.239168759743174 
1138	 0.239294031952366 
1139	 0.239492979643998 
1140	 0.23971629469843 
1141	 0.239926726876252 
1142	 0.240239144659503 
1143	 0.240574153889296 
1144	 0.240872167728048 
1145	 0.241139884225116 
1146	 0.241326975127344 
1147	 0.241499931523565 
1148	 0.241738844863129 
1149	 0.242030834714414 
1150	 0.242271942237695 
1151	 0.242487211710591 
1152	 0.242732085926021 
1153	 0.242935333756386 
1154	 0.24319911488477 
1155	 0.243553846827417 
1156	 0.24383405949447 
1157	 0.244102138799794 
1158	 0.24434360188168 
1159	 0.244532543439721 
1160	 0.244729042747239 
1161	 0.245001912656537 
1162	 0.245345705868687 
1163	 0.245673124789452 
1164	 0.245990017679403 
1165	 0.246196986057572 
1166	 0.24636711329747 
1167	 0.24662680093967 
1168	 0.246869495342649 
1169	 0.247117095293078 
1170	 0.247431807859507 
1171	 0.247680854240135 
1172	 0.247858052370782 
1173	 0.248094218900586 
1174	 0.248371090400451 
1175	 0.248597652268184 
1176	 0.248784900682934 
1177	 0.249025157499313 
1178	 0.249288955496985 
1179	 0.24949269000077 
1180	 0.249779645892864 
1181	 0.250135431232076 
1182	 0.250389032866008 
1183	 0.250615458830227 
1184	 0.250841200185535 
1185	 0.25102098372807 
1186	 0.2512628101118 
1187	 0.251542698033836 
1188	 0.251812882626016 
1189	 0.252119828340102 
1190	 0.25239048358355 
1191	 0.252626827230719 
1192	 0.252905346476509 
1193	 0.253193245365328 
1194	 0.253470779977416 
1195	 0.253769931468688 
1196	 0.254058416615926 
1197	 0.254340512254911 
1198	 0.25461684753798 
1199	 0.254893358379984 
1200	 0.25510941063622 
1201	 0.255365994945321 
1202	 0.255663903263614 
1203	 0.255929226023373 
1204	 0.256302824764976 
1205	 0.256634008491305 
1206	 0.256944920563031 
1207	 0.257275221559361 
1208	 0.257636928907337 
1209	 0.257968801107323 
1210	 0.258287100778461 
1211	 0.25861539002984 
1212	 0.258897407703856 
1213	 0.259267365080198 
1214	 0.259679666766665 
1215	 0.260112842702067 
1216	 0.260628125362914 
1217	 0.26111474607645 
1218	 0.261603696208632 
1219	 0.262091583323124 
1220	 0.262578742658942 
1221	 0.263035942774083 
1222	 0.263447360863669 
1223	 0.263856729236337 
1224	 0.264325015278889 
1225	 0.264805119082541 
1226	 0.265301716791439 
1227	 0.265915248887795 
1228	 0.266363918852243 
1229	 0.266718233923208 
1230	 0.267114331617004 
1231	 0.267414021827292 
1232	 0.267811069670653 
1233	 0.268314089415653 
1234	 0.268731196654547 
1235	 0.269131243491749 
1236	 0.269526839802241 
1237	 0.26990974860238 
1238	 0.270259231721057 
1239	 0.270596374418471 
1240	 0.270900429138523 
1241	 0.271259284452485 
1242	 0.271568215198831 
1243	 0.271934111043895 
1244	 0.27240252831941 
1245	 0.272736621667524 
1246	 0.272995009385331 
1247	 0.273313334420113 
1248	 0.273607967194197 
1249	 0.273908424241056 
1250	 0.27423604802968 
1251	 0.274558328809306 
1252	 0.274858325368015 
1253	 0.275167942958285 
1254	 0.275537836520497 
1255	 0.27583356669571 
1256	 0.276053298334157 
1257	 0.276319363119933 
1258	 0.276619610277906 
1259	 0.276848458632864 
1260	 0.277030705651434 
1261	 0.277248912239775 
1262	 0.27742863986911 
1263	 0.277607470559073 
1264	 0.277816655343291 
1265	 0.278101297281089 
1266	 0.278311203639104 
1267	 0.278475354622578 
1268	 0.278673709362536 
1269	 0.278860455143681 
1270	 0.279076505681592 
1271	 0.279321204019298 
1272	 0.279548723028806 
1273	 0.279779632499738 
1274	 0.280019026059428 
1275	 0.280262605058034 
1276	 0.280495800488428 
1277	 0.280725186129452 
1278	 0.2809691678759 
1279	 0.281189338288251 
1280	 0.2814502485405 
1281	 0.281719617272251 
1282	 0.282041252994213 
1283	 0.282423236563245 
1284	 0.282793520885017 
1285	 0.283180846051057 
1286	 0.283602895542897 
1287	 0.284034177550055 
1288	 0.284456804692432 
1289	 0.284923274742684 
1290	 0.285451922161757 
1291	 0.285929579923141 
1292	 0.286405690988692 
1293	 0.286872874660273 
1294	 0.287287735010183 
1295	 0.287782906154693 
1296	 0.288345464534083 
1297	 0.288841449264651 
1298	 0.289339292815865 
1299	 0.289843796165812 
1300	 0.290299396679457 
1301	 0.290783137461381 
1302	 0.291298972047407 
1303	 0.291819955945333 
1304	 0.292378892927927 
1305	 0.292870203172207 
1306	 0.293366103041449 
1307	 0.293815618602348 
1308	 0.294180391826399 
1309	 0.294524863719854 
1310	 0.294926207797513 
1311	 0.295332644239268 
1312	 0.29575891747611 
1313	 0.29626481151586 
1314	 0.296622415374042 
1315	 0.296896465285978 
1316	 0.297242457032985 
1317	 0.297554253697398 
1318	 0.297859007029998 
1319	 0.298225190636875 
1320	 0.298526044145532 
1321	 0.298743834096561 
1322	 0.298989604561897 
1323	 0.299258862171686 
1324	 0.299491670772221 
1325	 0.299697106137603 
1326	 0.299893994589571 
1327	 0.300083784545518 
1328	 0.300251089278479 
1329	 0.30040354049665 
1330	 0.300531891224518 
1331	 0.300592941587082 
1332	 0.300711027560815 
1333	 0.3008656273497 
1334	 0.300987533772232 
1335	 0.301111694612837 
1336	 0.301298861299373 
1337	 0.301349174114669 
1338	 0.301312411643883 
1339	 0.301319099003853 
1340	 0.301283146824874 
1341	 0.301258607076299 
1342	 0.30124939073197 
1343	 0.301233925954573 
1344	 0.301202074528122 
1345	 0.301166738549524 
1346	 0.301127066973932 
1347	 0.301109514404719 
1348	 0.301097428017746 
1349	 0.301069294363806 
1350	 0.301091404467371 
1351	 0.301038935017026 
1352	 0.300881773921014 
1353	 0.300811866467242 
1354	 0.300746882904311 
1355	 0.300698973725597 
1356	 0.300727073279893 
1357	 0.300714297850554 
1358	 0.300685575268167 
1359	 0.300648996999865 
1360	 0.300589776777878 
1361	 0.300536111768412 
1362	 0.300536776409863 
1363	 0.300504694575172 
1364	 0.300446098788012 
1365	 0.30039539687901 
1366	 0.300321593479401 
1367	 0.30019477136895 
1368	 0.300099068880854 
1369	 0.300024067077376 
1370	 0.2999243273116 
1371	 0.299802409421714 
1372	 0.299697401537137 
1373	 0.299597799064983 
1374	 0.299499292209646 
1375	 0.299413404911168 
1376	 0.299301721003065 
1377	 0.299157213936348 
1378	 0.29904947063385 
1379	 0.298967059012371 
1380	 0.298850959257002 
1381	 0.298750928180517 
1382	 0.298626186706398 
1383	 0.298435947801815 
1384	 0.298287251360385 
1385	 0.298136595354803 
1386	 0.298026252439841 
1387	 0.29794363726488 
1388	 0.297879580176179 
1389	 0.297851422775536 
1390	 0.297827304891013 
1391	 0.297802115972908 
1392	 0.297820897622918 
1393	 0.297815284587175 
1394	 0.297865286848694 
1395	 0.297865647103231 
1396	 0.29785427974426 
1397	 0.29784373502247 
1398	 0.297807239882393 
1399	 0.297809822097515 
1400	 0.29785682420326 
1401	 0.297837809011064 
1402	 0.297849047800037 
1403	 0.29773816669654 
1404	 0.297538489681971 
1405	 0.297336211194417 
1406	 0.297030923633387 
1407	 0.296806538454889 
1408	 0.296598391897137 
1409	 0.296394823911568 
1410	 0.296243485470236 
1411	 0.296038826734818 
1412	 0.295792794264637 
1413	 0.295581042361187 
1414	 0.295343027387057 
1415	 0.29514403193578 
1416	 0.294969756378981 
1417	 0.294822451244667 
1418	 0.294706941479785 
1419	 0.294599605477201 
1420	 0.294519574440501 
1421	 0.294451076804688 
1422	 0.29440871747915 
1423	 0.294345834699419 
1424	 0.294297583850856 
1425	 0.294220063270638 
1426	 0.294156641136958 
1427	 0.294089696934938 
1428	 0.294068546843745 
1429	 0.294093952216988 
1430	 0.294066851181467 
1431	 0.294034236918892 
1432	 0.294005905298616 
1433	 0.29393289243549 
1434	 0.293935730149817 
1435	 0.293978668827092 
1436	 0.294029807456588 
1437	 0.294148075341617 
1438	 0.294174752105016 
1439	 0.294160951776801 
1440	 0.294177933803786 
1441	 0.294146622132677 
1442	 0.294173453467759 
1443	 0.294240593125361 
1444	 0.294321268344322 
1445	 0.294388522995862 
1446	 0.294531075509135 
1447	 0.294729323580812 
1448	 0.294951481682917 
1449	 0.295234333089166 
1450	 0.2955149370268 
1451	 0.295802244562691 
1452	 0.296131083443905 
1453	 0.2964802315901 
1454	 0.296859618836224 
1455	 0.29729137770154 
1456	 0.297722994324359 
1457	 0.298188019012762 
1458	 0.298642033144979 
1459	 0.299091369262183 
1460	 0.29955500965907 
1461	 0.300031601306273 
1462	 0.300494825495584 
1463	 0.300975456860416 
1464	 0.301439763254403 
1465	 0.301866754699379 
1466	 0.30232930052858 
1467	 0.302775722954631 
1468	 0.303164718462583 
1469	 0.303597649321927 
1470	 0.303989292917493 
1471	 0.304353613072009 
1472	 0.304685507081206 
1473	 0.305074405284715 
1474	 0.305447760555658 
1475	 0.30583392253551 
1476	 0.306290866518323 
1477	 0.306663290636703 
1478	 0.306954151536956 
1479	 0.307333301053423 
1480	 0.30774798364399 
1481	 0.308118205386588 
1482	 0.308521251680058 
1483	 0.308871399429776 
1484	 0.309147562807691 
1485	 0.309474796531824 
1486	 0.309822947759759 
1487	 0.310142601582977 
1488	 0.310459643272445 
1489	 0.310773140779387 
1490	 0.311061271001626 
1491	 0.311370089649121 
1492	 0.311678178304247 
1493	 0.312012493198488 
1494	 0.312366978816586 
1495	 0.312716617863753 
1496	 0.313085038727062 
1497	 0.313447894371375 
1498	 0.313820517507879 
1499	 0.31416905195457 
1500	 0.314520206512842 
1501	 0.314847312099628 
1502	 0.315111462430037 
1503	 0.315427442392411 
1504	 0.315779313737697 
1505	 0.316105001662987 
1506	 0.316436691236679 
1507	 0.31677032589396 
1508	 0.317092640343954 
1509	 0.31740162628506 
1510	 0.317727908929809 
1511	 0.318034557814785 
1512	 0.31832626885818 
1513	 0.318584375243266 
1514	 0.318787533495628 
1515	 0.319031539538873 
1516	 0.319297637896007 
1517	 0.31952276323511 
1518	 0.319746498343607 
1519	 0.319976816020237 
1520	 0.320176288384553 
1521	 0.320350917875396 
1522	 0.320592327998077 
1523	 0.320874361117651 
1524	 0.321069115171602 
1525	 0.321239102825537 
1526	 0.321401596870236 
1527	 0.321510679121224 
1528	 0.321653548849019 
1529	 0.321812760696946 
1530	 0.32195734682036 
1531	 0.322100684671268 
1532	 0.322220606409934 
1533	 0.32232385974412 
1534	 0.322445965214944 
1535	 0.322548524711159 
1536	 0.32267560569448 
1537	 0.322829564615745 
1538	 0.322975058607375 
1539	 0.323111457575376 
1540	 0.323278679363999 
1541	 0.323438599150439 
1542	 0.32367160041123 
1543	 0.323964806500675 
1544	 0.324227399827722 
1545	 0.324558732671326 
1546	 0.324793915012354 
1547	 0.324967055732935 
1548	 0.32515505107315 
1549	 0.325296986611914 
1550	 0.325482458760105 
1551	 0.325680417044902 
1552	 0.325886107459921 
1553	 0.326123417330391 
1554	 0.326326273130323 
1555	 0.326530523601025 
1556	 0.326707615461973 
1557	 0.326824756730276 
1558	 0.327014726524429 
1559	 0.32723961741801 
1560	 0.327435285013863 
1561	 0.327651227266692 
1562	 0.327867876380634 
1563	 0.328071274159894 
1564	 0.328259542982441 
1565	 0.3284687146993 
1566	 0.328652429887441 
1567	 0.328759504008629 
1568	 0.328949814404582 
1569	 0.329183869420557 
1570	 0.32941635685587 
1571	 0.329718793914137 
1572	 0.32994428796902 
1573	 0.330126871002125 
1574	 0.330322212343998 
1575	 0.330484764482536 
1576	 0.330659121898207 
1577	 0.330835160064344 
1578	 0.331028884937469 
1579	 0.331229802904529 
1580	 0.331422883629867 
1581	 0.331633422722131 
1582	 0.331838826134222 
1583	 0.332047935289445 
1584	 0.332223624710345 
1585	 0.332360958655653 
1586	 0.332545524446348 
1587	 0.332742640583685 
1588	 0.332914942481526 
1589	 0.333101948556034 
1590	 0.333299124814772 
1591	 0.333460826828403 
1592	 0.333646774779252 
1593	 0.333917538315545 
1594	 0.334101525845161 
1595	 0.334217353614299 
1596	 0.334360448726541 
1597	 0.334441588091286 
1598	 0.334593023747844 
1599	 0.334817425515459 
1600	 0.335005853921498 
1601	 0.335231391391557 
1602	 0.33541036345953 
1603	 0.335541989343772 
1604	 0.335680599793624 
1605	 0.335787506444033 
1606	 0.335918278666459 
1607	 0.336071703839872 
1608	 0.336201663945028 
1609	 0.336335352402829 
1610	 0.33645971642512 
1611	 0.336557852528829 
1612	 0.336665763751149 
1613	 0.336781182087491 
1614	 0.336884652287853 
1615	 0.336982869905702 
1616	 0.337076052412087 
1617	 0.337147259156527 
1618	 0.337245651806168 
1619	 0.337382165968855 
1620	 0.337467672055315 
1621	 0.337547803475144 
1622	 0.337608629149567 
1623	 0.337577705285538 
1624	 0.337634979247919 
1625	 0.337770087322348 
1626	 0.337848180440006 
1627	 0.337964543331939 
1628	 0.338019251379361 
1629	 0.337959451109656 
1630	 0.337978656912487 
1631	 0.338034237509904 
1632	 0.338067488645816 
1633	 0.338121068669603 
1634	 0.338170805627222 
1635	 0.338189702016858 
1636	 0.338230889982757 
1637	 0.338300312658089 
1638	 0.338367702771849 
1639	 0.338434898004573 
1640	 0.338499844285259 
1641	 0.338605238746262 
1642	 0.338649992467338 
1643	 0.338653628951064 
1644	 0.338653051483681 
1645	 0.338590453625308 
1646	 0.338569783467128 
1647	 0.338573493341877 
1648	 0.33857126865556 
1649	 0.338600921181385 
1650	 0.338589647945644 
1651	 0.338566175479098 
1652	 0.338522569081065 
1653	 0.338433554792478 
1654	 0.338369107221897 
1655	 0.338297058242816 
1656	 0.338211984479773 
1657	 0.338187953632535 
1658	 0.338048822104024 
1659	 0.337834643643176 
1660	 0.337637846463344 
1661	 0.337383163680933 
1662	 0.337112206523944 
1663	 0.336815661499644 
1664	 0.336536072355742 
1665	 0.336275846720588 
1666	 0.335935459842003 
1667	 0.335611670797479 
1668	 0.335209877870354 
1669	 0.334712179136069 
1670	 0.334169960871368 
1671	 0.333604560448663 
1672	 0.332939057602687 
1673	 0.332157014801035 
1674	 0.331379182454035 
1675	 0.330538179192769 
1676	 0.329712169058108 
1677	 0.328881698037172 
1678	 0.328020171370688 
1679	 0.327170312085407 
1680	 0.326226711723105 
1681	 0.325235048454232 
1682	 0.324181048109737 
1683	 0.323037764664602 
1684	 0.321902286353597 
1685	 0.320740862823625 
1686	 0.319528018245732 
1687	 0.318303169210525 
1688	 0.316966381300187 
1689	 0.315521516832817 
1690	 0.314096009972429 
1691	 0.312607239173245 
1692	 0.31115565435889 
1693	 0.309742450906448 
1694	 0.308250915562833 
1695	 0.306724827979975 
1696	 0.305152076596183 
1697	 0.303505332855552 
1698	 0.301874584944548 
1699	 0.30025069927124 
1700	 0.298579752489532 
1701	 0.296859544331142 
1702	 0.295212331652692 
1703	 0.29348618773534 
1704	 0.291947574869976 
1705	 0.290504927514452 
1706	 0.289127347246304 
1707	 0.287932757076492 
1708	 0.286716267400741 
1709	 0.285596660014657 
1710	 0.284633946285967 
1711	 0.283621193411326 
1712	 0.282779815216314 
1713	 0.28202742780792 
1714	 0.281188262996713 
1715	 0.280508371347229 
1716	 0.279838511481797 
1717	 0.279151385769299 
1718	 0.278579483832067 
1719	 0.278039689820603 
1720	 0.277604917703641 
1721	 0.277215919763382 
1722	 0.27683286649161 
1723	 0.276536610257964 
1724	 0.276254666585833 
1725	 0.276049050569282 
1726	 0.275995256213214 
1727	 0.276039705343805 
1728	 0.276172171150357 
1729	 0.276485359064637 
1730	 0.276979133097553 
1731	 0.277554898857699 
1732	 0.278278830282938 
1733	 0.279000750596646 
1734	 0.279699339148093 
1735	 0.280508313109276 
1736	 0.281287494595223 
1737	 0.282046343451186 
1738	 0.282798579660992 
1739	 0.28336028786533 
1740	 0.283785966893347 
1741	 0.284115742151713 
1742	 0.284297774140381 
1743	 0.28439683530444 
1744	 0.284409963097092 
1745	 0.284377458098342 
1746	 0.284192223253079 
1747	 0.284086587277477 
1748	 0.28394939451033 
1749	 0.283824140048179 
1750	 0.283715890742104 
1751	 0.283644164814578 
1752	 0.283522431246832 
1753	 0.283576406154062 
1754	 0.283749100656124 
1755	 0.283933226585247 
1756	 0.284242707210372 
1757	 0.284485199810958 
1758	 0.284735730417056 
1759	 0.285133312680998 
1760	 0.285647340956181 
1761	 0.286281631456109 
1762	 0.287033436999573 
1763	 0.28793834344807 
1764	 0.28890212740851 
1765	 0.289900024530963 
1766	 0.291061219360924 
1767	 0.292175310501195 
1768	 0.293273748861886 
1769	 0.294464280874073 
1770	 0.295482945063377 
1771	 0.296483150389204 
1772	 0.29749389025413 
1773	 0.298368812953683 
1774	 0.299278771180717 
1775	 0.300190138343785 
1776	 0.30103506153395 
1777	 0.30184062349591 
1778	 0.302553426748512 
1779	 0.303198442771192 
1780	 0.303818129997374 
1781	 0.304376171020139 
1782	 0.304929494059299 
1783	 0.305364001794263 
1784	 0.305711933822691 
1785	 0.306091311364222 
1786	 0.306460484338144 
1787	 0.306923927143619 
1788	 0.307260710605861 
1789	 0.307528079268593 
1790	 0.307764982535877 
1791	 0.307859542733335 
1792	 0.308047296386491 
1793	 0.30823006660327 
1794	 0.308428181942327 
1795	 0.308733272228723 
1796	 0.308992801947028 
1797	 0.309157654181676 
1798	 0.309368369950991 
1799	 0.309643264772953 
1800	 0.309873563120399 
1801	 0.319932093452477 
1802	 0.320193565369635 
1803	 0.320461541826901 
1804	 0.320688799427304 
1805	 0.320936404409675 
1806	 0.321181471116823 
1807	 0.3214601510872 
1808	 0.321695350074 
1809	 0.321876950289249 
1810	 0.322111649171695 
1811	 0.322349210534825 
1812	 0.322608256838116 
1813	 0.322905551399313 
1814	 0.323203841969484 
1815	 0.323511598611496 
1816	 0.323839282606443 
1817	 0.324097055041173 
1818	 0.324272457603486 
1819	 0.32456941558677 
1820	 0.324848885276071 
1821	 0.325170501243688 
1822	 0.325595937696127 
1823	 0.326021412767204 
1824	 0.326350889768075 
1825	 0.326748270912452 
1826	 0.327085680309793 
1827	 0.327400758717722 
1828	 0.327696747307077 
1829	 0.327941960438766 
1830	 0.328217455224517 
1831	 0.328494365165765 
1832	 0.328774005308822 
1833	 0.329032646260044 
1834	 0.329315076107073 
1835	 0.329555900069284 
1836	 0.329807538470897 
1837	 0.330098917330525 
1838	 0.330440738704635 
1839	 0.330729901106369 
1840	 0.331006839422609 
1841	 0.331311866088352 
1842	 0.331604162429905 
1843	 0.331905855001913 
1844	 0.332222431317672 
1845	 0.332603011473897 
1846	 0.333011711781079 
1847	 0.333283385316206 
1848	 0.333583943116443 
1849	 0.333923270269339 
1850	 0.334180985441255 
1851	 0.334337316956727 
1852	 0.334610703875637 
1853	 0.334850158299813 
1854	 0.334987089920214 
1855	 0.335124092757654 
1856	 0.335181132438421 
1857	 0.335251821360934 
1858	 0.335303986330408 
1859	 0.335344692931841 
1860	 0.335422533954304 
1861	 0.335451179506207 
1862	 0.335461172648781 
1863	 0.335386410624111 
1864	 0.335297470563511 
1865	 0.335192362922181 
1866	 0.335055076828264 
1867	 0.334950022839913 
1868	 0.334828578465907 
1869	 0.334583162149798 
1870	 0.334333877791473 
1871	 0.334017400963193 
1872	 0.333715763100644 
1873	 0.333401765700468 
1874	 0.333121956333643 
1875	 0.332741712731695 
1876	 0.332261003988484 
1877	 0.331725374356165 
1878	 0.331077766775224 
1879	 0.330409880926915 
1880	 0.329736437406397 
1881	 0.328946160213452 
1882	 0.328075803608884 
1883	 0.327132219564816 
1884	 0.32609602673018 
1885	 0.324901851285362 
1886	 0.323659716877173 
1887	 0.322360522701186 
1888	 0.320880512371173 
1889	 0.319401547667331 
1890	 0.317895777302031 
1891	 0.316372414571936 
1892	 0.314842450947985 
1893	 0.313165649264826 
1894	 0.311397306757961 
1895	 0.30956000172613 
1896	 0.307607091708056 
1897	 0.305626191262309 
1898	 0.303863050371153 
1899	 0.302186520954315 
1900	 0.300547142831884 
1901	 0.298912882755718 
1902	 0.297213623279283 
1903	 0.295554646507583 
1904	 0.293954324697764 
1905	 0.292348612217877 
1906	 0.290876036938935 
1907	 0.28954883989935 
1908	 0.288272873213213 
1909	 0.287078180490319 
1910	 0.285975840510024 
1911	 0.284933891695277 
1912	 0.283931297878643 
1913	 0.282930761744336 
1914	 0.28203055937286 
1915	 0.281221382233324 
1916	 0.280502162058168 
1917	 0.279791101943264 
1918	 0.279195240394008 
1919	 0.278616919705081 
1920	 0.278008884767702 
1921	 0.277506145971321 
1922	 0.2769930570525 
1923	 0.276540112281753 
1924	 0.276215996450746 
1925	 0.275913591462819 
1926	 0.275649624608607 
1927	 0.275520459283453 
1928	 0.275294262688965 
1929	 0.275029175130096 
1930	 0.274780101454279 
1931	 0.274581090485721 
1932	 0.274426369607986 
1933	 0.274393549828986 
1934	 0.274469294651494 
1935	 0.274500193318644 
1936	 0.274593515171379 
1937	 0.274715478558661 
1938	 0.274832287554271 
1939	 0.275007298621808 
1940	 0.275243279738126 
1941	 0.275502455544333 
1942	 0.275786202173422 
1943	 0.276148192788652 
1944	 0.276552187484242 
1945	 0.276963706062054 
1946	 0.277392254471159 
1947	 0.277829609300849 
1948	 0.278238927323632 
1949	 0.278726218351656 
1950	 0.279228522562457 
1951	 0.27974018913506 
1952	 0.280310298063585 
1953	 0.280945539364411 
1954	 0.281575573381578 
1955	 0.282206105153438 
1956	 0.282822211523808 
1957	 0.283401487223875 
1958	 0.284023758771483 
1959	 0.284710794041576 
1960	 0.285410083489198 
1961	 0.28605363716619 
1962	 0.28669819331737 
1963	 0.287302399883531 
1964	 0.287875735628424 
1965	 0.288395056693613 
1966	 0.288883972901592 
1967	 0.289352989444839 
1968	 0.289771653811195 
1969	 0.290154550030751 
1970	 0.290572452790139 
1971	 0.29104166533191 
1972	 0.291524488207228 
1973	 0.292020060825414 
1974	 0.292532119379907 
1975	 0.293125800213877 
1976	 0.293611808447902 
1977	 0.294031320781443 
1978	 0.294505878023175 
1979	 0.294928884124054 
1980	 0.295426700726687 
1981	 0.296027063928558 
1982	 0.296540109455942 
1983	 0.29708259595551 
1984	 0.297596560834838 
1985	 0.298033287095595 
1986	 0.298553445443538 
1987	 0.299036409201265 
1988	 0.299470753182667 
1989	 0.299974747099023 
1990	 0.300486997242057 
1991	 0.301033395821263 
1992	 0.301650139175594 
1993	 0.302260394691789 
1994	 0.302805874690122 
1995	 0.303432125477091 
1996	 0.303992460976268 
1997	 0.304601283519953 
1998	 0.305216031073911 
1999	 0.305872307419628 
2000	 0.306455382331031 
2001	 0.307036454637386 
2002	 0.307562464987502 
2003	 0.308041997834481 
2004	 0.308509067802788 
2005	 0.308969367272188 
2006	 0.309379853436035 
2007	 0.30975914892636 
2008	 0.310063456004954 
2009	 0.310396032499667 
2010	 0.310701446953124 
2011	 0.310963154608697 
2012	 0.311268332728447 
2013	 0.311545940940596 
2014	 0.311806670455293 
2015	 0.312018441887449 
2016	 0.3122383403588 
2017	 0.312397533476869 
2018	 0.31249382923048 
2019	 0.312548741337493 
2020	 0.312554634608481 
2021	 0.312542085615641 
2022	 0.312521225401005 
2023	 0.312513100456811 
2024	 0.312450029278637 
2025	 0.31237938133464 
2026	 0.3122396473048 
2027	 0.311979195878868 
2028	 0.31177538249774 
2029	 0.311550668142809 
2030	 0.311353224378059 
2031	 0.311164435060781 
2032	 0.310981270121866 
2033	 0.310825185724497 
2034	 0.310658188291786 
2035	 0.310481056965385 
2036	 0.310329420063805 
2037	 0.310134170349252 
2038	 0.309923940823104 
2039	 0.309709203497217 
2040	 0.30944491268535 
2041	 0.309242441274628 
2042	 0.309049481209934 
2043	 0.30888629301578 
2044	 0.308801154244812 
2045	 0.308630050228324 
2046	 0.308439625880032 
2047	 0.308255207493013 
2048	 0.307978104436101 
2049	 0.307795038917151 
2050	 0.307688624410773 
2051	 0.307562810635082 
2052	 0.307435772404484 
2053	 0.307319933752045 
2054	 0.307194654274686 
2055	 0.307047058705492 
2056	 0.306900307907465 
2057	 0.306760997918522 
2058	 0.306623217302014 
2059	 0.306480375215922 
2060	 0.306329652846405 
2061	 0.306166817965957 
2062	 0.30602477341472 
2063	 0.305854463645445 
2064	 0.305738473386367 
2065	 0.30566323357402 
2066	 0.305626794124302 
2067	 0.305601294440402 
2068	 0.305499087885532 
2069	 0.305395389319848 
2070	 0.305248033685614 
2071	 0.305140056831463 
2072	 0.305045842518787 
2073	 0.304928254325082 
2074	 0.304803916463344 
2075	 0.304688310964234 
2076	 0.304542035921524 
2077	 0.304416591684612 
2078	 0.304307450481556 
2079	 0.304221807524066 
2080	 0.304205733840617 
2081	 0.304112329252213 
2082	 0.303982105814977 
2083	 0.303880286833957 
2084	 0.30368408257147 
2085	 0.303409696209282 
2086	 0.303287756125745 
2087	 0.303245334844015 
2088	 0.30314565542611 
2089	 0.303137274173771 
2090	 0.303041974584544 
2091	 0.30284134886814 
2092	 0.302711407400751 
2093	 0.302639450724618 
2094	 0.302497803494811 
2095	 0.302331818187025 
2096	 0.302162339769154 
2097	 0.301979818958074 
2098	 0.301702473499731 
2099	 0.301529834018022 
2100	 0.301436213430573 
2101	 0.301267816184625 
2102	 0.301141867469637 
2103	 0.300902286303784 
2104	 0.300554823112131 
2105	 0.300278396326766 
2106	 0.29996439166726 
2107	 0.299700795521838 
2108	 0.299503463105556 
2109	 0.29925134233146 
2110	 0.298988788232721 
2111	 0.298718130588728 
2112	 0.298436920873917 
2113	 0.298133571507221 
2114	 0.297839307151623 
2115	 0.297501530197913 
2116	 0.297131604596973 
2117	 0.296710747510101 
2118	 0.296314710734051 
2119	 0.295898288361523 
2120	 0.295490332106526 
2121	 0.295054921163427 
2122	 0.294703973782928 
2123	 0.294380206815164 
2124	 0.294065898008496 
2125	 0.293844961230045 
2126	 0.29355809546712 
2127	 0.293208990925561 
2128	 0.292927865167371 
2129	 0.292649896107416 
2130	 0.292398788903052 
2131	 0.292193165826661 
2132	 0.291997819547477 
2133	 0.291757497324647 
2134	 0.291661927697182 
2135	 0.291586241115503 
2136	 0.291459633366874 
2137	 0.291362540632024 
2138	 0.291300828652258 
2139	 0.291184924631022 
2140	 0.291053118415735 
2141	 0.290921249448579 
2142	 0.290707552448462 
2143	 0.290639302095344 
2144	 0.290609042290493 
2145	 0.290638359670643 
2146	 0.290805931346147 
2147	 0.290914698669707 
2148	 0.29103885255376 
2149	 0.291159030468541 
2150	 0.291258729495836 
2151	 0.291394964127958 
2152	 0.291591441350434 
2153	 0.291731005953183 
2154	 0.291793273319724 
2155	 0.291887355780101 
2156	 0.29201076542746 
2157	 0.292093266977248 
2158	 0.292209123613851 
2159	 0.292417749665219 
2160	 0.292541550808932 
2161	 0.292595792257516 
2162	 0.292684792762149 
2163	 0.292819633508929 
2164	 0.292873846725729 
2165	 0.292883741763959 
2166	 0.292893497929566 
2167	 0.292851518948471 
2168	 0.29281286157415 
2169	 0.292770076046618 
2170	 0.292724826885001 
2171	 0.29265246401887 
2172	 0.292601663212418 
2173	 0.292565097928702 
2174	 0.29253479171772 
2175	 0.292431571805698 
2176	 0.292421509702993 
2177	 0.292418426983366 
2178	 0.292437606689016 
2179	 0.292404806920278 
2180	 0.292434759835481 
2181	 0.292336174598275 
2182	 0.292073382541999 
2183	 0.291985994985344 
2184	 0.291929970018072 
2185	 0.291864396945965 
2186	 0.291898051377309 
2187	 0.291868296635207 
2188	 0.291822047305899 
2189	 0.291719117763389 
2190	 0.291590361930801 
2191	 0.291434349938733 
2192	 0.291203928198885 
2193	 0.29097735205085 
2194	 0.290730782544054 
2195	 0.290501284341914 
2196	 0.290280272757092 
2197	 0.289999289203907 
2198	 0.289747429109471 
2199	 0.289591445447378 
2200	 0.289390663016207 
2201	 0.289225428729644 
2202	 0.288943860079279 
2203	 0.288594583099624 
2204	 0.288289787778189 
2205	 0.287910842380265 
2206	 0.287608978461725 
2207	 0.287390107018026 
2208	 0.287130574428983 
2209	 0.286926685376847 
2210	 0.286575626772468 
2211	 0.286115249521986 
2212	 0.285724797661757 
2213	 0.28523121082344 
2214	 0.284829086470196 
2215	 0.284548872175126 
2216	 0.284223107448203 
2217	 0.283898389646172 
2218	 0.283550213028133 
2219	 0.28321438472346 
2220	 0.282840300974927 
2221	 0.282442378229677 
2222	 0.282012253066788 
2223	 0.281487607673452 
2224	 0.281058004204116 
2225	 0.280571754817703 
2226	 0.279972652086511 
2227	 0.279325328647278 
2228	 0.27859206303532 
2229	 0.277880679826982 
2230	 0.27717874056673 
2231	 0.276304959378138 
2232	 0.275383802912082 
2233	 0.27437817946057 
2234	 0.273218338015061 
2235	 0.272000320146489 
2236	 0.270776990289415 
2237	 0.269409622621514 
2238	 0.267828189557623 
2239	 0.266293353188387 
2240	 0.264795936587456 
2241	 0.263084101009739 
2242	 0.261325474603482 
2243	 0.259385769453095 
2244	 0.257151537867517 
2245	 0.254970064101844 
2246	 0.252670866974217 
2247	 0.250372108150685 
2248	 0.248028442363455 
2249	 0.245698594855738 
2250	 0.243348210514396 
2251	 0.241057123735857 
2252	 0.23851334023422 
2253	 0.236189637483366 
2254	 0.233812293335929 
2255	 0.231235314925144 
2256	 0.228952284532427 
2257	 0.226691304334231 
2258	 0.224509513913101 
2259	 0.222445186267711 
2260	 0.220330869883119 
2261	 0.218242926781564 
2262	 0.216196061075813 
2263	 0.21412682941825 
2264	 0.212187149877193 
2265	 0.210352351301813 
2266	 0.208515422980403 
2267	 0.206737135071526 
2268	 0.204960008929072 
2269	 0.203246849821928 
2270	 0.201502573573809 
2271	 0.199724470650037 
2272	 0.198041766769498 
2273	 0.196379608597034 
2274	 0.194739457211537 
2275	 0.193217120243239 
2276	 0.191651127659814 
2277	 0.190038745760755 
2278	 0.188463260629831 
2279	 0.186961881806074 
2280	 0.185350429075429 
2281	 0.183705392439425 
2282	 0.182040467126203 
2283	 0.180353803156321 
2284	 0.178558374290302 
2285	 0.176635114128582 
2286	 0.174899121065183 
2287	 0.173017356255078 
2288	 0.171032874416488 
2289	 0.169204770565513 
2290	 0.167221411104822 
2291	 0.165266267465916 
2292	 0.163453185792889 
2293	 0.16169784348195 
2294	 0.159978122144341 
2295	 0.158393476342016 
2296	 0.156950124539151 
2297	 0.155673770848064 
2298	 0.154573416347786 
2299	 0.153600876501318 
2300	 0.152751034825729 
2301	 0.152142687929013 
2302	 0.151609704300088 
2303	 0.1515123066383 
2304	 0.151875158272321 
2305	 0.152145669284572 
2306	 0.152658155055408 
2307	 0.153267951258889 
2308	 0.153838842415323 
2309	 0.154758991433591 
2310	 0.155982684600965 
2311	 0.157292863673805 
2312	 0.158904673600438 
2313	 0.160408728208499 
2314	 0.162012637963062 
2315	 0.163642773300676 
2316	 0.165366179465674 
2317	 0.166878460024405 
2318	 0.16853701271231 
2319	 0.16978546908397 
2320	 0.170714937335978 
2321	 0.17150537812423 
2322	 0.171926827443613 
2323	 0.17238628730779 
2324	 0.172756116463057 
2325	 0.173006854535983 
2326	 0.173241203692798 
2327	 0.173313909683486 
2328	 0.17324539981613 
2329	 0.173009350119016 
2330	 0.172625632541241 
2331	 0.172062673762504 
2332	 0.171380816173165 
2333	 0.170429947045596 
2334	 0.169391718712439 
2335	 0.168443158685578 
2336	 0.167326060219223 
2337	 0.16616161199488 
2338	 0.165095508312055 
2339	 0.164006165226435 
2340	 0.162967055646295 
2341	 0.161958454399386 
2342	 0.160946829431816 
2343	 0.160059248192559 
2344	 0.159323346057897 
2345	 0.158951668753269 
2346	 0.158773082545187 
2347	 0.158556861228864 
2348	 0.15852401691142 
2349	 0.158771258951689 
2350	 0.159428541911189 
2351	 0.160304435521669 
2352	 0.161409540883408 
2353	 0.162745323764522 
2354	 0.163673699205005 
2355	 0.164642177840184 
2356	 0.165550447708125 
2357	 0.166168562532471 
2358	 0.167028835834469 
2359	 0.167592695231741 
2360	 0.168164117790155 
2361	 0.168713512775023 
2362	 0.168980431548309 
2363	 0.169584344178383 
2364	 0.169868504284735 
2365	 0.169673534952952 
2366	 0.169577478200198 
2367	 0.169323010848165 
2368	 0.169106130618398 
2369	 0.169184034763946 
2370	 0.169199287362953 
2371	 0.169093415703381 
2372	 0.168911158862316 
2373	 0.16875624632075 
2374	 0.168733021364149 
2375	 0.168807305347095 
2376	 0.169014738971067 
2377	 0.169153521836071 
2378	 0.169183694149205 
2379	 0.169088316984503 
2380	 0.168827355314595 
2381	 0.168860544908428 
2382	 0.168944081160789 
2383	 0.169108170881023 
2384	 0.169300916836404 
2385	 0.169623596479587 
2386	 0.169771746309579 
2387	 0.169905604748484 
2388	 0.170119357494935 
2389	 0.170424840423587 
2390	 0.170469099795928 
2391	 0.170295514121842 
2392	 0.170264979547596 
2393	 0.170094532084127 
2394	 0.170207746871193 
2395	 0.17062524518501 
2396	 0.170870427057335 
2397	 0.17119238909109 
2398	 0.17113385314932 
2399	 0.170877622606491 
2400	 0.170817687552899 
2401	 0.1704229886439 
2402	 0.1706216442001 
2403	 0.170934630301185 
2404	 0.170990258691042 
2405	 0.170988196603486 
2406	 0.170986841331363 
2407	 0.171058280834025 
2408	 0.170963958083505 
2409	 0.170824741499765 
2410	 0.170985095873588 
2411	 0.171083458927741 
2412	 0.171510236187907 
2413	 0.171994979906101 
2414	 0.171806164289736 
2415	 0.171749193091356 
2416	 0.171758433997517 
2417	 0.171878240435789 
2418	 0.172533543409465 
2419	 0.172673794751455 
2420	 0.172138634290842 
2421	 0.171871923436646 
2422	 0.171262881503095 
2423	 0.170428802560752 
2424	 0.170577009346947 
2425	 0.17088686982272 
2426	 0.170867648571814 
2427	 0.171200484406548 
2428	 0.171150019614595 
2429	 0.170722069331283 
2430	 0.171044505469788 
2431	 0.171345422795982 
2432	 0.171169083797071 
2433	 0.171077190663227 
2434	 0.170782632725325 
2435	 0.170390582583625 
2436	 0.170190972755891 
2437	 0.170377991212916 
2438	 0.170597159471514 
2439	 0.170246280957318 
2440	 0.170361658446912 
2441	 0.17044287351169 
2442	 0.169706162965997 
2443	 0.169527516861251 
2444	 0.169503641042563 
2445	 0.169282893746097 
2446	 0.169415573042606 
2447	 0.169185524591583 
2448	 0.168722090995151 
2449	 0.16815884561229 
2450	 0.167223752624827 
2451	 0.166855379362828 
2452	 0.166677189592654 
2453	 0.165736780540658 
2454	 0.165067535772217 
2455	 0.164826911106187 
2456	 0.16407888792679 
2457	 0.163701678510512 
2458	 0.163803433372535 
2459	 0.163472156804056 
2460	 0.16336779019901 
2461	 0.163673707049974 
2462	 0.163686032778074 
2463	 0.16364223364347 
2464	 0.163727979615349 
2465	 0.163501767327311 
2466	 0.163336755275337 
2467	 0.162961569545099 
2468	 0.162295836941275 
2469	 0.162035972232009 
2470	 0.162142241669813 
2471	 0.162784839920417 
2472	 0.16307173257987 
2473	 0.162694962540932 
2474	 0.16257891190755 
2475	 0.16145062217582 
2476	 0.160581810299934 
2477	 0.161618326041394 
2478	 0.16182115586335 
2479	 0.161978883866785 
2480	 0.162410339076308 
2481	 0.16187194036527 
2482	 0.160369745748859 
2483	 0.160037733632023 
2484	 0.160026750075615 
2485	 0.160715529156675 
2486	 0.161349185224752 
2487	 0.16241049718369 
2488	 0.163412270141702 
2489	 0.163780344189827 
2490	 0.164471269262639 
2491	 0.164325522790185 
2492	 0.163672775411367 
2493	 0.163690404260067 
2494	 0.164054940844024 
2495	 0.164246004086284 
2496	 0.164360396371028 
2497	 0.164335095965724 
2498	 0.164316564951004 
2499	 0.164319868730669 
2500	 0.165080175627922 
