Wavelength	Tablay400059.asd
350	 0.182920269059306 
351	 0.240639034014152 
352	 0.240302331569336 
353	 0.186327218298183 
354	 0.183371079104446 
355	 0.191596551517501 
356	 0.197305490159495 
357	 0.182579967347162 
358	 8.66193289618135E-02 
359	 0.106889859916236 
360	 0.202063247282781 
361	 0.210460424293576 
362	 0.144284952957108 
363	 0.109413147979893 
364	 0.13505726943798 
365	 0.12817889933594 
366	 0.131105603643626 
367	 0.138737542799433 
368	 0.141940838840011 
369	 0.164742151032392 
370	 0.118485208890598 
371	 7.30536226069576E-02 
372	 0.158401848692458 
373	 0.142368739848799 
374	 0.097351548559035 
375	 8.21380979669037E-02 
376	 8.40273130791089E-02 
377	 9.81089089837564E-02 
378	 0.111145195336269 
379	 0.112876514486109 
380	 0.112585261134638 
381	 0.106428464071678 
382	 0.10391606184209 
383	 0.117600375200445 
384	 0.119481743137727 
385	 0.116272448775343 
386	 0.113161298271032 
387	 0.108626479745414 
388	 7.49916730213968E-02 
389	 6.80175601591304E-02 
390	 0.117887014954662 
391	 9.51326292569446E-02 
392	 9.33886054384917E-02 
393	 0.109036536683824 
394	 8.02051290947235E-02 
395	 7.23399004867727E-02 
396	 7.26319467792415E-02 
397	 6.72331769387804E-02 
398	 5.70663326230911E-02 
399	 0.067031681501374 
400	 8.53494248382212E-02 
401	 9.22014526464003E-02 
402	 8.20597120219579E-02 
403	 0.072954828286146 
404	 7.68577743493033E-02 
405	 9.59914556186751E-02 
406	 9.39663902655139E-02 
407	 7.30137399418614E-02 
408	 5.11157978388051E-02 
409	 7.13494563105858E-02 
410	 0.070529714050011 
411	 6.20166091017838E-02 
412	 7.33756080302853E-02 
413	 7.99833296994162E-02 
414	 7.61114217796354E-02 
415	 7.07642421550718E-02 
416	 8.25426012871297E-02 
417	 7.67352605961394E-02 
418	 6.41210816389054E-02 
419	 5.82483912906501E-02 
420	 6.36524110764471E-02 
421	 6.06637325261314E-02 
422	 5.40169497837591E-02 
423	 5.63116161600337E-02 
424	 6.16512391882871E-02 
425	 6.37501439016071E-02 
426	 6.15013327125851E-02 
427	 5.93210683463992E-02 
428	 5.95755101426336E-02 
429	 5.98544296628162E-02 
430	 5.82800458075298E-02 
431	 5.76268317297101E-02 
432	 5.91796560225088E-02 
433	 6.17154526280291E-02 
434	 6.25742846649613E-02 
435	 5.83898045225487E-02 
436	 5.69781573428487E-02 
437	 6.01772548828014E-02 
438	 5.95321796452603E-02 
439	 5.48172408841728E-02 
440	 5.31006735432529E-02 
441	 5.89854684039418E-02 
442	 5.95065585152105E-02 
443	 5.51886281593621E-02 
444	 5.10055969946197E-02 
445	 5.40309717830175E-02 
446	 5.56565907123229E-02 
447	 5.59111242854275E-02 
448	 5.61103076303297E-02 
449	 5.75142379971698E-02 
450	 5.64537006670083E-02 
451	 0.055678215511781 
452	 5.85559405863518E-02 
453	 0.057426221624735 
454	 5.44066115530413E-02 
455	 5.21525523986298E-02 
456	 5.29948991476291E-02 
457	 5.27825355996625E-02 
458	 5.34113113750382E-02 
459	 5.54936441556198E-02 
460	 5.16475879700709E-02 
461	 5.09082854236798E-02 
462	 0.052523270954871 
463	 5.11912505014165E-02 
464	 5.16452547017708E-02 
465	 5.16740433489246E-02 
466	 5.04764413114817E-02 
467	 5.02785856010894E-02 
468	 5.25587078870383E-02 
469	 0.054111834298223 
470	 5.22526726122788E-02 
471	 0.051885647430784 
472	 0.051248491869908 
473	 5.02230808642961E-02 
474	 4.99742663755643E-02 
475	 4.93521112709583E-02 
476	 4.94157575705443E-02 
477	 5.05951736744738E-02 
478	 0.051565417115502 
479	 5.06011944175956E-02 
480	 4.91036186134166E-02 
481	 0.049317658417119 
482	 5.02745099739625E-02 
483	 5.05072021887324E-02 
484	 5.00585236336109E-02 
485	 5.06128359726899E-02 
486	 5.04174548455985E-02 
487	 5.03111780502911E-02 
488	 5.07246764195736E-02 
489	 0.048938249979568 
490	 4.84569366525398E-02 
491	 4.90433575284484E-02 
492	 4.84801540776785E-02 
493	 4.77515376154617E-02 
494	 4.77790222515705E-02 
495	 4.86757769782753E-02 
496	 4.93735353724531E-02 
497	 4.92016762620918E-02 
498	 4.86285362084523E-02 
499	 4.84574448337347E-02 
500	 0.049211278705856 
501	 4.89734899768176E-02 
502	 4.81131564431685E-02 
503	 0.048799499297941 
504	 4.78987777809611E-02 
505	 4.68048274131382E-02 
506	 4.69143473439382E-02 
507	 4.79342933604576E-02 
508	 4.82971904747776E-02 
509	 4.82181187931985E-02 
510	 4.84939576896435E-02 
511	 4.77825248755405E-02 
512	 4.72400210735202E-02 
513	 4.74320599503845E-02 
514	 4.79472897079963E-02 
515	 4.82303611385679E-02 
516	 4.83626117770977E-02 
517	 4.83308167932169E-02 
518	 4.69191593898872E-02 
519	 4.66187214971379E-02 
520	 0.047217465352877 
521	 4.68257166722093E-02 
522	 4.73681657182255E-02 
523	 4.78474125478423E-02 
524	 4.76339047807385E-02 
525	 0.047524128693726 
526	 4.75037740226671E-02 
527	 4.74121977306587E-02 
528	 4.72059471752934E-02 
529	 4.80041870077046E-02 
530	 4.81510392641057E-02 
531	 4.74363397349734E-02 
532	 4.72864224474016E-02 
533	 4.78474033063364E-02 
534	 4.82021321990289E-02 
535	 4.78513099086567E-02 
536	 4.81982724496347E-02 
537	 4.84709280964892E-02 
538	 4.83317141428747E-02 
539	 4.78195964909329E-02 
540	 4.79929080301239E-02 
541	 4.81992921378147E-02 
542	 4.81293048070504E-02 
543	 4.83363315248673E-02 
544	 4.83817603740585E-02 
545	 4.84980885494184E-02 
546	 4.89318826263566E-02 
547	 4.91271568155239E-02 
548	 4.90972426115861E-02 
549	 4.90601118608228E-02 
550	 4.93687954463365E-02 
551	 4.98508254880617E-02 
552	 5.01907162103208E-02 
553	 0.050346917468505 
554	 5.10725374372784E-02 
555	 5.14263016101393E-02 
556	 0.051650312621355 
557	 5.23722515905994E-02 
558	 5.25851383464176E-02 
559	 0.052671461656865 
560	 5.30811325810814E-02 
561	 5.41820006517298E-02 
562	 5.47386650472326E-02 
563	 5.51741692616243E-02 
564	 5.60156932976292E-02 
565	 5.62940427518755E-02 
566	 5.68204549494142E-02 
567	 5.76272083488696E-02 
568	 5.82082287164688E-02 
569	 5.91990656388089E-02 
570	 6.03947137697146E-02 
571	 6.15064445998607E-02 
572	 6.22627318513464E-02 
573	 0.063489814972809 
574	 6.50481810265594E-02 
575	 0.066425838948354 
576	 6.73844943793911E-02 
577	 6.85266686691985E-02 
578	 6.99719841010647E-02 
579	 7.12421427669261E-02 
580	 7.26197668433238E-02 
581	 7.40003120936466E-02 
582	 7.52890617150796E-02 
583	 7.66498846212065E-02 
584	 7.80729814901892E-02 
585	 7.95858298489286E-02 
586	 0.081225772621321 
587	 8.29345930371923E-02 
588	 0.084627127952228 
589	 8.63054426641144E-02 
590	 8.81094206265554E-02 
591	 8.99959213250797E-02 
592	 0.091942963595113 
593	 9.38943075212962E-02 
594	 0.095638567794156 
595	 9.73019356441615E-02 
596	 9.88985379494409E-02 
597	 0.100349000461026 
598	 0.101913167928125 
599	 0.103383834496501 
600	 0.104706467469576 
601	 0.106373238086941 
602	 0.108118957589095 
603	 0.109739107637612 
604	 0.111111558504543 
605	 0.112549436418517 
606	 0.113979631412405 
607	 0.115374611913262 
608	 0.116797586567184 
609	 0.118104452134511 
610	 0.119273950617241 
611	 0.120335922297641 
612	 0.121345296924707 
613	 0.122307449561962 
614	 0.123286057160724 
615	 0.124348016867574 
616	 0.125162071182275 
617	 0.12608956553725 
618	 0.127196530455597 
619	 0.127856313805537 
620	 0.128631671229419 
621	 0.129531841888654 
622	 0.13037300749425 
623	 0.130962016538939 
624	 0.131665700459632 
625	 0.132426036228872 
626	 0.132813857381969 
627	 0.133476707867586 
628	 0.134243810756892 
629	 0.134896231753239 
630	 0.135485561253609 
631	 0.136111909776985 
632	 0.13666315189637 
633	 0.137003979015861 
634	 0.137545339164438 
635	 0.138162973839162 
636	 0.138729088107294 
637	 0.13917223371669 
638	 0.139591942437581 
639	 0.140181829915357 
640	 0.140982526640987 
641	 0.141498296864117 
642	 0.141966703445867 
643	 0.142489985376085 
644	 0.14306222154518 
645	 0.143486474282853 
646	 0.143952924236098 
647	 0.144543689424678 
648	 0.145089512462548 
649	 0.145666957595522 
650	 0.146286994271137 
651	 0.146917294344186 
652	 0.147411012484412 
653	 0.147977125670621 
654	 0.148605101923501 
655	 0.149119722501967 
656	 0.149768221147114 
657	 0.150419141999824 
658	 0.15098775564938 
659	 0.151606203437784 
660	 0.152349058053382 
661	 0.153090655164876 
662	 0.153679723663081 
663	 0.154272565912441 
664	 0.155044163792729 
665	 0.15592165175192 
666	 0.156601013484137 
667	 0.157361493323285 
668	 0.158155113025838 
669	 0.158912114291166 
670	 0.159663600992954 
671	 0.160480025435241 
672	 0.161331454082137 
673	 0.162146249598508 
674	 0.162891476256715 
675	 0.16377220246046 
676	 0.164783099096836 
677	 0.165650682622832 
678	 0.166438768625649 
679	 0.167322188897013 
680	 0.168378675131572 
681	 0.169310285351761 
682	 0.170249964029783 
683	 0.171262836765871 
684	 0.172358404919972 
685	 0.173401189455185 
686	 0.174469870678464 
687	 0.175523610986552 
688	 0.176323251405823 
689	 0.177379079354208 
690	 0.178512653178237 
691	 0.17949749996511 
692	 0.180614832495814 
693	 0.181764690997117 
694	 0.182884019209694 
695	 0.183959665219804 
696	 0.185209579312533 
697	 0.186477430820128 
698	 0.187636639048395 
699	 0.188679647934335 
700	 0.18978845569407 
701	 0.190972288042376 
702	 0.192193251255162 
703	 0.193472510376313 
704	 0.194633647051502 
705	 0.195742916008201 
706	 0.197007726203796 
707	 0.198213328825772 
708	 0.199381577758552 
709	 0.200526608814325 
710	 0.20158602562566 
711	 0.202705822197265 
712	 0.203898160393722 
713	 0.205097467644873 
714	 0.206106012745643 
715	 0.20721539261802 
716	 0.208415184038408 
717	 0.209473932886163 
718	 0.210326534981549 
719	 0.211345441776461 
720	 0.212575207980569 
721	 0.213399591193067 
722	 0.214418104241725 
723	 0.2154125346846 
724	 0.216109226561018 
725	 0.217000411631989 
726	 0.217985458447633 
727	 0.218871891486735 
728	 0.219467064993395 
729	 0.22016334009184 
730	 0.220796100647848 
731	 0.221329543099666 
732	 0.2220605980537 
733	 0.222727363329399 
734	 0.22323810603836 
735	 0.223604145593584 
736	 0.223996935251304 
737	 0.224431914080903 
738	 0.224810880695613 
739	 0.224994766161171 
740	 0.225198463875229 
741	 0.225450440121699 
742	 0.225676440982544 
743	 0.225692263191335 
744	 0.225628348145815 
745	 0.225598610505404 
746	 0.225613726332573 
747	 0.225349874317964 
748	 0.225126362988421 
749	 0.22500949145515 
750	 0.224898366644823 
751	 0.224683957520296 
752	 0.224419201988715 
753	 0.224136810771219 
754	 0.223819182380251 
755	 0.223436682720499 
756	 0.223003390438939 
757	 0.222540551696023 
758	 0.222064892953843 
759	 0.221494739384604 
760	 0.220901588076874 
761	 0.220396614370984 
762	 0.219842040661913 
763	 0.219257391539911 
764	 0.218619354865313 
765	 0.217858169484528 
766	 0.217197269220378 
767	 0.216554322816962 
768	 0.215829529882928 
769	 0.215014853890308 
770	 0.214280149838292 
771	 0.213568670303358 
772	 0.212772827866023 
773	 0.211990331925417 
774	 0.211193400309857 
775	 0.210355445858403 
776	 0.209469699308383 
777	 0.208694937082429 
778	 0.207934146614396 
779	 0.207111130838589 
780	 0.206249739256639 
781	 0.205466844018207 
782	 0.204708823748053 
783	 0.203888791397719 
784	 0.202985331974738 
785	 0.202165585862377 
786	 0.201406697317855 
787	 0.200591315135917 
788	 0.199816689747935 
789	 0.198961566716706 
790	 0.198027965979433 
791	 0.197178094149227 
792	 0.196437800411428 
793	 0.195737338100238 
794	 0.194995479761018 
795	 0.194162739751635 
796	 0.193309012942579 
797	 0.192525879031248 
798	 0.191860596287457 
799	 0.1911181887642 
800	 0.190391354920311 
801	 0.189682119612034 
802	 0.188925444388041 
803	 0.188203981995596 
804	 0.187572587762949 
805	 0.186967299530622 
806	 0.186161749923829 
807	 0.185526820421923 
808	 0.184914403152261 
809	 0.184180229114894 
810	 0.183600621459836 
811	 0.182952962947523 
812	 0.182269087130424 
813	 0.18168088818649 
814	 0.181188535358595 
815	 0.180662345228824 
816	 0.180082822780401 
817	 0.179534067798358 
818	 0.178994204644926 
819	 0.178434439644133 
820	 0.177881485091035 
821	 0.17745230993702 
822	 0.17701521295269 
823	 0.176528753772205 
824	 0.176010392290725 
825	 0.175569042211555 
826	 0.175158809271407 
827	 0.174758926840062 
828	 0.174357158732797 
829	 0.173917672467323 
830	 0.173570307019312 
831	 0.173282364478453 
832	 0.172883543421063 
833	 0.172394357281821 
834	 0.172054614445767 
835	 0.171888521242832 
836	 0.171552025737951 
837	 0.171217335187684 
838	 0.170930238052349 
839	 0.170697341362101 
840	 0.170500568090665 
841	 0.170312708036187 
842	 0.170121945274755 
843	 0.169921118145589 
844	 0.169683108268658 
845	 0.169461559293163 
846	 0.169259053707045 
847	 0.169044538892845 
848	 0.16886903074961 
849	 0.168717563625715 
850	 0.168588947995866 
851	 0.168508801087584 
852	 0.168515690152227 
853	 0.168439025362433 
854	 0.168232863091387 
855	 0.168198032020519 
856	 0.168145787006163 
857	 0.16808129406956 
858	 0.168035926020392 
859	 0.167890753328673 
860	 0.167982716232496 
861	 0.16822126456711 
862	 0.168309425659726 
863	 0.168202906102491 
864	 0.168216696820003 
865	 0.168387706302355 
866	 0.168493429669524 
867	 0.168507297965368 
868	 0.168484350747497 
869	 0.168519572561089 
870	 0.168725921051415 
871	 0.168870828530304 
872	 0.169002768728917 
873	 0.169186548955355 
874	 0.169380403738216 
875	 0.169586851278279 
876	 0.169739762284595 
877	 0.169812533950206 
878	 0.169961105268416 
879	 0.170260451944822 
880	 0.170560585249912 
881	 0.170687254830828 
882	 0.170961818934651 
883	 0.171283721463736 
884	 0.171588478043641 
885	 0.171868667073448 
886	 0.172189878223327 
887	 0.172530044826492 
888	 0.172840808422855 
889	 0.173073155889774 
890	 0.173470694875287 
891	 0.17385461746283 
892	 0.174161670930081 
893	 0.174651697025594 
894	 0.175058626153954 
895	 0.175410995138275 
896	 0.175821749989702 
897	 0.176431244929352 
898	 0.176903597958034 
899	 0.177272654989939 
900	 0.177699734855287 
901	 0.178284036594046 
902	 0.178754526360657 
903	 0.179201706594032 
904	 0.179832578756916 
905	 0.180405346326058 
906	 0.18099941830914 
907	 0.181638419929019 
908	 0.182286847725882 
909	 0.182880742385348 
910	 0.183388251472951 
911	 0.183938881177127 
912	 0.184762905641235 
913	 0.185474286319727 
914	 0.186041476541978 
915	 0.186612091837404 
916	 0.18746940247769 
917	 0.188329485776978 
918	 0.189054128984934 
919	 0.189702217579562 
920	 0.190615227702341 
921	 0.191449494361452 
922	 0.19221427480549 
923	 0.192979796225393 
924	 0.193711268101695 
925	 0.194634535387959 
926	 0.195614651669425 
927	 0.19648919827834 
928	 0.197439499820075 
929	 0.198332130002137 
930	 0.199125414671307 
931	 0.199890411287369 
932	 0.200970111344974 
933	 0.202091537088415 
934	 0.203082298386411 
935	 0.203938593271235 
936	 0.205131678299913 
937	 0.206127106688956 
938	 0.206995885568157 
939	 0.208172897487802 
940	 0.209257624983525 
941	 0.210532591387044 
942	 0.211796222426093 
943	 0.212545175420304 
944	 0.213697975743785 
945	 0.21506068298988 
946	 0.216407117379296 
947	 0.21763606019701 
948	 0.218755611146348 
949	 0.21982478274056 
950	 0.221062460346866 
951	 0.222782515987082 
952	 0.224098113481881 
953	 0.225136798159093 
954	 0.226291662584785 
955	 0.227980498946774 
956	 0.229405281806179 
957	 0.230664181108779 
958	 0.231999407497707 
959	 0.233539713933065 
960	 0.235101634854397 
961	 0.236546895869676 
962	 0.237858874289395 
963	 0.239220987768838 
964	 0.240736353852025 
965	 0.242265224269091 
966	 0.243704001733809 
967	 0.245188553890641 
968	 0.246784405115214 
969	 0.248460733427992 
970	 0.250111473392166 
971	 0.251519018704511 
972	 0.253308057342183 
973	 0.254952694612085 
974	 0.256149628510094 
975	 0.258219155229971 
976	 0.259955598052061 
977	 0.261330219402398 
978	 0.262741090709458 
979	 0.264623597066999 
980	 0.266376116102934 
981	 0.267987917360701 
982	 0.26962315133367 
983	 0.271312248406844 
984	 0.272934758102276 
985	 0.274549324678835 
986	 0.2762008622842 
987	 0.277643230533497 
988	 0.279628971028986 
989	 0.281646977060265 
990	 0.283123637081476 
991	 0.284942593151084 
992	 0.286471253042026 
993	 0.288093583607832 
994	 0.290081889076021 
995	 0.291074847903261 
996	 0.292339927115799 
997	 0.294263408331906 
998	 0.296532562993172 
999	 0.297805939809742 
1000	 0.299490613705578 
1001	 0.302242753397975 
1002	 0.304013268026566 
1003	 0.305558650522659 
1004	 0.307075688224757 
1005	 0.308475534010318 
1006	 0.310066934989693 
1007	 0.311632204726214 
1008	 0.313260505366026 
1009	 0.315083031414113 
1010	 0.316757023543597 
1011	 0.318363897968056 
1012	 0.319951370693685 
1013	 0.321636784734847 
1014	 0.32311356975578 
1015	 0.324412285033859 
1016	 0.325685618867817 
1017	 0.327042530349587 
1018	 0.328343822024064 
1019	 0.329870372310792 
1020	 0.331455741594492 
1021	 0.33290653428908 
1022	 0.334356051551373 
1023	 0.335648482072445 
1024	 0.336687960671397 
1025	 0.3380031303308 
1026	 0.339388037439361 
1027	 0.340713027980537 
1028	 0.342110081298301 
1029	 0.343634483730255 
1030	 0.344876444144156 
1031	 0.346000825348359 
1032	 0.347346646241256 
1033	 0.348420945550555 
1034	 0.349487867556582 
1035	 0.350573719778946 
1036	 0.351654276724037 
1037	 0.352669936759451 
1038	 0.353836599497688 
1039	 0.355108467499513 
1040	 0.356354102479179 
1041	 0.357655699252798 
1042	 0.358842717071682 
1043	 0.360025540062267 
1044	 0.361104097347105 
1045	 0.362083457821781 
1046	 0.363272438664038 
1047	 0.364283811605143 
1048	 0.36525259864462 
1049	 0.366360361181828 
1050	 0.367424386716785 
1051	 0.36860798236257 
1052	 0.369816507862271 
1053	 0.370916694215432 
1054	 0.371932511654396 
1055	 0.372965592583179 
1056	 0.373962570454041 
1057	 0.374931136632288 
1058	 0.375848297761041 
1059	 0.376824654514891 
1060	 0.37792785264514 
1061	 0.379094319910433 
1062	 0.380331663708057 
1063	 0.381398095044347 
1064	 0.382237866738559 
1065	 0.383147792316759 
1066	 0.384014630757535 
1067	 0.384979084238597 
1068	 0.38603033851723 
1069	 0.3868723965792 
1070	 0.387829950672421 
1071	 0.388800629757603 
1072	 0.389877076568615 
1073	 0.390864317350807 
1074	 0.391822207041851 
1075	 0.392650282638595 
1076	 0.393413309413142 
1077	 0.394207910576028 
1078	 0.394988258929227 
1079	 0.395962619506838 
1080	 0.396991537725483 
1081	 0.397885534479008 
1082	 0.398815407541751 
1083	 0.39954582561931 
1084	 0.400152232122575 
1085	 0.400988048589327 
1086	 0.401794383478449 
1087	 0.40261887981999 
1088	 0.403530581909132 
1089	 0.404499417574114 
1090	 0.405245041957493 
1091	 0.405925181889568 
1092	 0.406598530282555 
1093	 0.407318602304351 
1094	 0.408064264091821 
1095	 0.408866291627919 
1096	 0.409863855337297 
1097	 0.410659061171071 
1098	 0.411256692547188 
1099	 0.411996924761912 
1100	 0.412677707285309 
1101	 0.413370650938228 
1102	 0.41428902258067 
1103	 0.415107304519455 
1104	 0.415921502201193 
1105	 0.416644553908436 
1106	 0.417483709422936 
1107	 0.418185749705063 
1108	 0.418862749391214 
1109	 0.419628201497389 
1110	 0.420278148085114 
1111	 0.421047264311224 
1112	 0.421884256314299 
1113	 0.422689634714131 
1114	 0.423519509674093 
1115	 0.424243483394228 
1116	 0.42504186714346 
1117	 0.425866444027311 
1118	 0.426667989632282 
1119	 0.427538185575722 
1120	 0.428354181281219 
1121	 0.42912362103226 
1122	 0.429860693797811 
1123	 0.430631486384619 
1124	 0.43131944470622 
1125	 0.431987162096671 
1126	 0.432695708196909 
1127	 0.433398005246509 
1128	 0.434106870345027 
1129	 0.434908176526262 
1130	 0.435720858434064 
1131	 0.436410264537781 
1132	 0.437080573364902 
1133	 0.437789486791897 
1134	 0.438409389702583 
1135	 0.439056062096062 
1136	 0.439791953770187 
1137	 0.440462931766376 
1138	 0.441038500515643 
1139	 0.441681533946095 
1140	 0.442375473716636 
1141	 0.443010267603366 
1142	 0.443642653294302 
1143	 0.444298918483687 
1144	 0.444859325191742 
1145	 0.445377965927988 
1146	 0.445894993448624 
1147	 0.446441606808529 
1148	 0.447021559763478 
1149	 0.44755421177621 
1150	 0.448060136248233 
1151	 0.448528116477555 
1152	 0.449014013494693 
1153	 0.449511809537271 
1154	 0.449970102185695 
1155	 0.450371733094736 
1156	 0.450857953574442 
1157	 0.451391760849314 
1158	 0.451836267962172 
1159	 0.452291703884303 
1160	 0.452761994534727 
1161	 0.453139368429685 
1162	 0.453481644957092 
1163	 0.453932358217658 
1164	 0.454403020527348 
1165	 0.45482951244711 
1166	 0.455264613277044 
1167	 0.455580932544461 
1168	 0.455829845053813 
1169	 0.456141361336256 
1170	 0.456409398397727 
1171	 0.456701102202695 
1172	 0.457078889265615 
1173	 0.457405659874316 
1174	 0.457677710689684 
1175	 0.457961495883925 
1176	 0.458228129887686 
1177	 0.458519304109894 
1178	 0.458816092760013 
1179	 0.459135032306151 
1180	 0.459418324116339 
1181	 0.459685915820164 
1182	 0.459914498561303 
1183	 0.460098716617838 
1184	 0.460243700122931 
1185	 0.460451916471384 
1186	 0.460676211518495 
1187	 0.460903598968576 
1188	 0.461118638110834 
1189	 0.46136318952077 
1190	 0.461608814872794 
1191	 0.461828993108432 
1192	 0.462056037786812 
1193	 0.462324708466554 
1194	 0.462576370031408 
1195	 0.462801524166971 
1196	 0.463039523442951 
1197	 0.463330401474651 
1198	 0.463530573752721 
1199	 0.463710413847173 
1200	 0.46393558401405 
1201	 0.464148153212582 
1202	 0.464378838666871 
1203	 0.464604649959732 
1204	 0.464828142634247 
1205	 0.465044223102619 
1206	 0.465218390231251 
1207	 0.465454538203472 
1208	 0.465719952663939 
1209	 0.465987688680825 
1210	 0.466290204610339 
1211	 0.4665832129752 
1212	 0.466883388919187 
1213	 0.467168709187257 
1214	 0.467414486071727 
1215	 0.467737227540595 
1216	 0.468119540062603 
1217	 0.468452946496288 
1218	 0.46880611424168 
1219	 0.469155530460972 
1220	 0.469482103303261 
1221	 0.469838936912609 
1222	 0.470183085456811 
1223	 0.470538474250836 
1224	 0.470885547343499 
1225	 0.471187155491429 
1226	 0.471530178747952 
1227	 0.471941671392067 
1228	 0.472247538390331 
1229	 0.472482113948281 
1230	 0.472776782639613 
1231	 0.473040888997556 
1232	 0.473341270490652 
1233	 0.473759131558872 
1234	 0.474035897316574 
1235	 0.474226660820186 
1236	 0.474444865449035 
1237	 0.474578997950933 
1238	 0.474758738605677 
1239	 0.474978690393705 
1240	 0.475189184558604 
1241	 0.475426820694677 
1242	 0.475649881437231 
1243	 0.475860154128798 
1244	 0.47607324749253 
1245	 0.476281707498321 
1246	 0.476488320354366 
1247	 0.476660713767078 
1248	 0.476803930302858 
1249	 0.476983182269174 
1250	 0.477158180499236 
1251	 0.47731040278034 
1252	 0.477518134105756 
1253	 0.477645861521637 
1254	 0.477688565058948 
1255	 0.477754033652534 
1256	 0.477761722632059 
1257	 0.477838985880279 
1258	 0.477984891398549 
1259	 0.478070132114869 
1260	 0.478139052067668 
1261	 0.478239424763599 
1262	 0.478323406004857 
1263	 0.478398843407968 
1264	 0.478484379244768 
1265	 0.478607233742549 
1266	 0.478732044301839 
1267	 0.478831572416339 
1268	 0.478960250607022 
1269	 0.479152952457837 
1270	 0.479284193918147 
1271	 0.479337870101712 
1272	 0.479506239958729 
1273	 0.479719853936501 
1274	 0.479926843961122 
1275	 0.480182914171978 
1276	 0.480451551293627 
1277	 0.480755690945672 
1278	 0.480995781245994 
1279	 0.48123074893622 
1280	 0.481473489606898 
1281	 0.481670642294568 
1282	 0.481864448235014 
1283	 0.482072585761563 
1284	 0.48229014182115 
1285	 0.48250202518719 
1286	 0.482677810282899 
1287	 0.482879073523675 
1288	 0.483142903213928 
1289	 0.483290050165227 
1290	 0.483366960747075 
1291	 0.483481392307936 
1292	 0.483569071085338 
1293	 0.483641565099071 
1294	 0.48372260222617 
1295	 0.483785713154628 
1296	 0.483792859696395 
1297	 0.483839761630641 
1298	 0.483907729205757 
1299	 0.483977143915818 
1300	 0.484072523835974 
1301	 0.484129004330612 
1302	 0.484204029167518 
1303	 0.484222050435842 
1304	 0.48415337988183 
1305	 0.484131354137185 
1306	 0.484089633537985 
1307	 0.484071275830788 
1308	 0.484100254228009 
1309	 0.484116748233696 
1310	 0.484114158141035 
1311	 0.484087901702947 
1312	 0.484111283963857 
1313	 0.484128462948865 
1314	 0.484189124118755 
1315	 0.484340625287864 
1316	 0.484370440474332 
1317	 0.484340329158783 
1318	 0.484365192886731 
1319	 0.484336407739859 
1320	 0.484374273047956 
1321	 0.484490049783487 
1322	 0.484577669825861 
1323	 0.48467456674205 
1324	 0.484752390264994 
1325	 0.48481671022347 
1326	 0.484902262673117 
1327	 0.484985096265677 
1328	 0.485066195897639 
1329	 0.485161916526654 
1330	 0.485262576137429 
1331	 0.485363081260496 
1332	 0.485456042538299 
1333	 0.485574979485232 
1334	 0.485652767205712 
1335	 0.485750287341456 
1336	 0.485823369882241 
1337	 0.485945229809323 
1338	 0.486110261451239 
1339	 0.486218264411733 
1340	 0.486323788271708 
1341	 0.486421148407449 
1342	 0.486491780438467 
1343	 0.486558460372206 
1344	 0.48660988729012 
1345	 0.486700103275526 
1346	 0.486779174812182 
1347	 0.486881989115629 
1348	 0.487074362342916 
1349	 0.487164496999532 
1350	 0.487196353377704 
1351	 0.487247331018642 
1352	 0.487283939062066 
1353	 0.48728516289651 
1354	 0.487233620878979 
1355	 0.487252781692654 
1356	 0.487287051775061 
1357	 0.48730084905221 
1358	 0.487353904817318 
1359	 0.4874080545146 
1360	 0.487452904188315 
1361	 0.487465429351596 
1362	 0.487483666582917 
1363	 0.487491291143219 
1364	 0.487483206510224 
1365	 0.487418637582983 
1366	 0.487390354973902 
1367	 0.487385236098033 
1368	 0.487363764374808 
1369	 0.487360707045112 
1370	 0.487274590592268 
1371	 0.487150492502513 
1372	 0.487042519418219 
1373	 0.48688407657206 
1374	 0.486729076874694 
1375	 0.486602854486427 
1376	 0.486437751512839 
1377	 0.486206755116028 
1378	 0.486024941132208 
1379	 0.485872243320144 
1380	 0.485697705895146 
1381	 0.485549812262229 
1382	 0.485340822204991 
1383	 0.48507841358878 
1384	 0.484837352978012 
1385	 0.484535913517742 
1386	 0.484305808191983 
1387	 0.4841412856786 
1388	 0.483949752475504 
1389	 0.483779580633136 
1390	 0.483605625065224 
1391	 0.483390936003504 
1392	 0.483230486767348 
1393	 0.483062717625306 
1394	 0.482907751804555 
1395	 0.482768560899449 
1396	 0.482638809463571 
1397	 0.482519269398846 
1398	 0.482447454056714 
1399	 0.482283462845009 
1400	 0.482108790210064 
1401	 0.481882179500358 
1402	 0.4815740189517 
1403	 0.481299982297134 
1404	 0.481012078794353 
1405	 0.480722585277429 
1406	 0.480451518374527 
1407	 0.480127775638116 
1408	 0.479737994746075 
1409	 0.479422125827601 
1410	 0.47913397040024 
1411	 0.478801377115621 
1412	 0.478489222432541 
1413	 0.478167782530144 
1414	 0.477752095357123 
1415	 0.47743599026655 
1416	 0.477201467703324 
1417	 0.476951349297222 
1418	 0.476750675827625 
1419	 0.476509687768178 
1420	 0.476210578791951 
1421	 0.475980024633904 
1422	 0.475780285933421 
1423	 0.475576503196732 
1424	 0.475412860189134 
1425	 0.475248684867044 
1426	 0.475092897213941 
1427	 0.474931161795112 
1428	 0.474761256438952 
1429	 0.474606158715654 
1430	 0.47445665105633 
1431	 0.474290326595306 
1432	 0.47413083217623 
1433	 0.473990614314659 
1434	 0.473857645097599 
1435	 0.473700853608739 
1436	 0.473591899308257 
1437	 0.473539380752698 
1438	 0.473440812548257 
1439	 0.473331878358408 
1440	 0.473236868071864 
1441	 0.473143246957599 
1442	 0.47303433702543 
1443	 0.472897558286297 
1444	 0.472829322317795 
1445	 0.472748464971187 
1446	 0.472739130341766 
1447	 0.472808433948069 
1448	 0.472894296931185 
1449	 0.473037475122031 
1450	 0.47315145533857 
1451	 0.473259704946024 
1452	 0.473421519992839 
1453	 0.473607576843336 
1454	 0.473780817660346 
1455	 0.473999896077457 
1456	 0.474212130815834 
1457	 0.474379540177414 
1458	 0.474586837511951 
1459	 0.474857357700292 
1460	 0.475092834288462 
1461	 0.475302105269254 
1462	 0.47554167826754 
1463	 0.475803707825438 
1464	 0.476038218075692 
1465	 0.476247051644928 
1466	 0.476504374612058 
1467	 0.476758087588113 
1468	 0.477029800787324 
1469	 0.477341838277418 
1470	 0.4776120748432 
1471	 0.477873425107446 
1472	 0.478098648446906 
1473	 0.47833853119023 
1474	 0.47859076402478 
1475	 0.478803272706004 
1476	 0.478975202263362 
1477	 0.479197771038136 
1478	 0.479446260563165 
1479	 0.479627383601166 
1480	 0.479809664212552 
1481	 0.479971747059034 
1482	 0.480051170424553 
1483	 0.480197595078605 
1484	 0.48039073491126 
1485	 0.480556214210756 
1486	 0.480728340520491 
1487	 0.480873931641843 
1488	 0.480991612817319 
1489	 0.481138953471457 
1490	 0.48128359715159 
1491	 0.481427956486938 
1492	 0.481586691650391 
1493	 0.481751175854055 
1494	 0.481893775723644 
1495	 0.482071789839486 
1496	 0.482310753100897 
1497	 0.482496751940293 
1498	 0.482646675658891 
1499	 0.482840447338496 
1500	 0.48305044920455 
1501	 0.4832269519603 
1502	 0.48341661402617 
1503	 0.483603858282375 
1504	 0.483739731799727 
1505	 0.48390875680954 
1506	 0.484136040190622 
1507	 0.484317205601375 
1508	 0.484487123509128 
1509	 0.484635431674989 
1510	 0.484732215168148 
1511	 0.484863162140114 
1512	 0.484989267145527 
1513	 0.485128640827817 
1514	 0.485351633551832 
1515	 0.485476669484844 
1516	 0.485507245594723 
1517	 0.485595843549363 
1518	 0.485643014618907 
1519	 0.485719439480937 
1520	 0.485883019312184 
1521	 0.486028053578024 
1522	 0.486039453642607 
1523	 0.486056479187231 
1524	 0.48608610322437 
1525	 0.486044960602047 
1526	 0.486118637582542 
1527	 0.486276947344224 
1528	 0.486376523436505 
1529	 0.486510484108925 
1530	 0.486560988836705 
1531	 0.486551826644258 
1532	 0.486591969502912 
1533	 0.486594446176451 
1534	 0.486659097559142 
1535	 0.486790371767126 
1536	 0.486864053721648 
1537	 0.486931707654894 
1538	 0.486994848923971 
1539	 0.487038305704618 
1540	 0.487085701849754 
1541	 0.487111906896336 
1542	 0.487205273105918 
1543	 0.487342938747298 
1544	 0.487426697367302 
1545	 0.487533555213352 
1546	 0.487621622279028 
1547	 0.487631915964724 
1548	 0.487728763040876 
1549	 0.487912446856743 
1550	 0.488011831484312 
1551	 0.488095153599797 
1552	 0.488176509190244 
1553	 0.488182882394262 
1554	 0.488289228481716 
1555	 0.488482626659235 
1556	 0.488595644038018 
1557	 0.488717536737557 
1558	 0.488820962487297 
1559	 0.488849117397529 
1560	 0.488940767059128 
1561	 0.489098907007285 
1562	 0.489189778547589 
1563	 0.48925180686351 
1564	 0.489331541205196 
1565	 0.489371318613258 
1566	 0.489456200940634 
1567	 0.489581654734417 
1568	 0.489696451374191 
1569	 0.489839075322298 
1570	 0.489941072128105 
1571	 0.49002568584761 
1572	 0.490109674718245 
1573	 0.490156855850296 
1574	 0.490232138442171 
1575	 0.490317656809935 
1576	 0.490414038631935 
1577	 0.490537333405087 
1578	 0.49063410495417 
1579	 0.490713248043845 
1580	 0.490819946539056 
1581	 0.490908392411415 
1582	 0.491034832501796 
1583	 0.491250771718069 
1584	 0.491373988076839 
1585	 0.49145917812517 
1586	 0.49154722437021 
1587	 0.491554899341454 
1588	 0.49162807681272 
1589	 0.491751627216641 
1590	 0.491862654216581 
1591	 0.491983448525336 
1592	 0.492113328299683 
1593	 0.492285584749806 
1594	 0.492386037815522 
1595	 0.492465169193148 
1596	 0.492527112375979 
1597	 0.492471977138603 
1598	 0.492528598699349 
1599	 0.492661521670644 
1600	 0.492764110798235 
1601	 0.492929985337858 
1602	 0.493040841215038 
1603	 0.493098366178818 
1604	 0.493164810681043 
1605	 0.493219289765348 
1606	 0.493271863954957 
1607	 0.49332195356297 
1608	 0.493365752160442 
1609	 0.493384518305416 
1610	 0.493436466056899 
1611	 0.493484091398719 
1612	 0.493563306531313 
1613	 0.493743439921009 
1614	 0.493811823221186 
1615	 0.493792315285062 
1616	 0.493840278337596 
1617	 0.493853504685017 
1618	 0.493891471236581 
1619	 0.494052988741349 
1620	 0.494109140174005 
1621	 0.494095353476433 
1622	 0.494063613902534 
1623	 0.49393463365738 
1624	 0.493888058273946 
1625	 0.493878380166036 
1626	 0.493850886021867 
1627	 0.493848553459983 
1628	 0.493853731556513 
1629	 0.493820071685145 
1630	 0.493839044366938 
1631	 0.493975169969808 
1632	 0.493999742937153 
1633	 0.493982545855457 
1634	 0.493949981729302 
1635	 0.493793364228575 
1636	 0.493733896505772 
1637	 0.493754097389699 
1638	 0.493742037358115 
1639	 0.493723792937645 
1640	 0.493743567971691 
1641	 0.493796808563275 
1642	 0.493791419319867 
1643	 0.493788356452975 
1644	 0.493799363837096 
1645	 0.49378113586605 
1646	 0.493747717916126 
1647	 0.493760198905163 
1648	 0.493710451792313 
1649	 0.493546909932281 
1650	 0.49345316303126 
1651	 0.493383036860288 
1652	 0.493312517570415 
1653	 0.493298339277805 
1654	 0.493233299216411 
1655	 0.493148694000367 
1656	 0.493030891268063 
1657	 0.49290885748601 
1658	 0.492713202920266 
1659	 0.492377215171991 
1660	 0.492168785063922 
1661	 0.492054469583525 
1662	 0.491800649969306 
1663	 0.491560408922624 
1664	 0.49127756607471 
1665	 0.490808834374306 
1666	 0.490443947586183 
1667	 0.490183005321872 
1668	 0.489850302136626 
1669	 0.489543464930824 
1670	 0.489111426758919 
1671	 0.48858890286575 
1672	 0.488053504308809 
1673	 0.487447457577831 
1674	 0.486801894645213 
1675	 0.486131702466163 
1676	 0.485428389811236 
1677	 0.48466136503389 
1678	 0.483885103931808 
1679	 0.483072798051913 
1680	 0.482282181656263 
1681	 0.481489309658392 
1682	 0.480635829235795 
1683	 0.479819567003842 
1684	 0.478889283946387 
1685	 0.477851610515176 
1686	 0.476820672090014 
1687	 0.47573476272498 
1688	 0.47462014421807 
1689	 0.473498118996581 
1690	 0.472287223965235 
1691	 0.470974731639336 
1692	 0.469745455267934 
1693	 0.468534972921133 
1694	 0.467241414742837 
1695	 0.465940985799693 
1696	 0.464620658718021 
1697	 0.463215629073458 
1698	 0.461828967336656 
1699	 0.460450966595541 
1700	 0.459103830626099 
1701	 0.457739154438462 
1702	 0.456403896446172 
1703	 0.455130124639198 
1704	 0.45382751368528 
1705	 0.452436447104809 
1706	 0.451165878816088 
1707	 0.450046682386732 
1708	 0.448995530314668 
1709	 0.448039478752964 
1710	 0.447175578616596 
1711	 0.446359930361277 
1712	 0.445605091161545 
1713	 0.444896136526333 
1714	 0.444232601836117 
1715	 0.44366865337623 
1716	 0.44317906419902 
1717	 0.44272126351958 
1718	 0.442213039644758 
1719	 0.441654547925301 
1720	 0.441138956737773 
1721	 0.440672763274083 
1722	 0.440343098720656 
1723	 0.440083149021609 
1724	 0.439762156618908 
1725	 0.439517739433799 
1726	 0.439338212444305 
1727	 0.439290456371946 
1728	 0.439470762277301 
1729	 0.439803430836873 
1730	 0.440253052813036 
1731	 0.440730281625621 
1732	 0.441287780550508 
1733	 0.441847443007587 
1734	 0.442452822393192 
1735	 0.443151541419761 
1736	 0.443800309673612 
1737	 0.444480037365261 
1738	 0.445101081342311 
1739	 0.445588813800768 
1740	 0.446014232563682 
1741	 0.446320855920202 
1742	 0.446505917339029 
1743	 0.446600267124641 
1744	 0.44655385299502 
1745	 0.446478035004775 
1746	 0.446282401147621 
1747	 0.446170063413597 
1748	 0.44603883171477 
1749	 0.445927443504358 
1750	 0.445847400491348 
1751	 0.445772066786708 
1752	 0.445710903247026 
1753	 0.445663786351725 
1754	 0.445598950407361 
1755	 0.445637941098308 
1756	 0.445666016129375 
1757	 0.445799894799067 
1758	 0.44608730251372 
1759	 0.44636578980815 
1760	 0.446838227686381 
1761	 0.447420985895114 
1762	 0.447971454591477 
1763	 0.448678366267511 
1764	 0.449434704012134 
1765	 0.45017800684061 
1766	 0.451054035436789 
1767	 0.451935278886503 
1768	 0.452783621634724 
1769	 0.453712635715451 
1770	 0.45466066282821 
1771	 0.455620611948661 
1772	 0.456561686670013 
1773	 0.457407655989538 
1774	 0.458162270638982 
1775	 0.458815231137006 
1776	 0.459451256260618 
1777	 0.460125921008267 
1778	 0.460801292718708 
1779	 0.461427615840429 
1780	 0.461938105384242 
1781	 0.462422723762664 
1782	 0.462945861573833 
1783	 0.463392530344053 
1784	 0.463845562420837 
1785	 0.464270076022133 
1786	 0.464560586849205 
1787	 0.464691878137653 
1788	 0.464942216438112 
1789	 0.465235566327674 
1790	 0.465425463534571 
1791	 0.465594431475844 
1792	 0.465758420303873 
1793	 0.465836497921563 
1794	 0.465858656338519 
1795	 0.465993007579593 
1796	 0.466092508823956 
1797	 0.466157387802858 
1798	 0.466353300188926 
1799	 0.466620610929843 
1800	 0.466819246612564 
1801	 0.466970592019795 
1802	 0.467242337854011 
1803	 0.467446947397237 
1804	 0.467576452305345 
1805	 0.467735195942351 
1806	 0.467861012992908 
1807	 0.467932740606775 
1808	 0.468080287950537 
1809	 0.468210610326574 
1810	 0.468399707421843 
1811	 0.468732905994459 
1812	 0.46892978954464 
1813	 0.469022381694351 
1814	 0.469242046956081 
1815	 0.469381689190062 
1816	 0.469504686056852 
1817	 0.469713510144053 
1818	 0.47001417056276 
1819	 0.470243413473157 
1820	 0.470466489238738 
1821	 0.470726799509112 
1822	 0.470965463852853 
1823	 0.471277532530492 
1824	 0.47155822427876 
1825	 0.471850678778818 
1826	 0.472146146782213 
1827	 0.472452894753406 
1828	 0.472668685004835 
1829	 0.47288676457745 
1830	 0.473051818275749 
1831	 0.47309394749536 
1832	 0.473194351010351 
1833	 0.473347563594925 
1834	 0.47352488851441 
1835	 0.473769586722598 
1836	 0.474027954126354 
1837	 0.47428636571971 
1838	 0.474573384446791 
1839	 0.474838892182507 
1840	 0.475137665237373 
1841	 0.475377517035743 
1842	 0.475556321400212 
1843	 0.475800671778321 
1844	 0.476055098736343 
1845	 0.476240063215677 
1846	 0.4764827567833 
1847	 0.476731135778173 
1848	 0.47693201753522 
1849	 0.477082085130815 
1850	 0.477243473941167 
1851	 0.477393139882856 
1852	 0.47755059209357 
1853	 0.477658724069065 
1854	 0.477722845869655 
1855	 0.477868468048527 
1856	 0.477992782970928 
1857	 0.478055816539084 
1858	 0.478095726233642 
1859	 0.478131903560453 
1860	 0.47810898904235 
1861	 0.478076904991944 
1862	 0.478025037841232 
1863	 0.478057967852097 
1864	 0.477991336613093 
1865	 0.477841663174933 
1866	 0.477714183940792 
1867	 0.477571227470537 
1868	 0.477433999900494 
1869	 0.477308818628896 
1870	 0.47714327292315 
1871	 0.476967874567946 
1872	 0.476768276316681 
1873	 0.476552712599557 
1874	 0.476283545884014 
1875	 0.476012115687439 
1876	 0.475644868172302 
1877	 0.475236792916639 
1878	 0.474815832442409 
1879	 0.474230470127811 
1880	 0.473661831323207 
1881	 0.473020469000676 
1882	 0.47230959468645 
1883	 0.471471607467153 
1884	 0.470623921447413 
1885	 0.469667576710066 
1886	 0.468695930301545 
1887	 0.467685396031315 
1888	 0.466568243518666 
1889	 0.465514262868455 
1890	 0.464380487291873 
1891	 0.463142683200852 
1892	 0.461898993645423 
1893	 0.460619916865224 
1894	 0.459267074322236 
1895	 0.45792505220228 
1896	 0.456573155187766 
1897	 0.455233018027584 
1898	 0.453967870405034 
1899	 0.45264439573349 
1900	 0.451354326181858 
1901	 0.450123449416718 
1902	 0.448957712839267 
1903	 0.447856536536075 
1904	 0.446746068837265 
1905	 0.445644156254933 
1906	 0.444659931888037 
1907	 0.443680791394057 
1908	 0.442721207477424 
1909	 0.441945876686901 
1910	 0.441144037261945 
1911	 0.44030413158766 
1912	 0.439622435636835 
1913	 0.438959157678859 
1914	 0.438268265651976 
1915	 0.437689204543416 
1916	 0.43723899095713 
1917	 0.436765773090825 
1918	 0.43624111961997 
1919	 0.435752586304904 
1920	 0.435244556244871 
1921	 0.434766543143504 
1922	 0.434300914723791 
1923	 0.433950815991611 
1924	 0.433664454429788 
1925	 0.433233028352343 
1926	 0.432866321193705 
1927	 0.432538239366225 
1928	 0.432190906206665 
1929	 0.431800079864473 
1930	 0.431514641299897 
1931	 0.431278164462339 
1932	 0.431086346187144 
1933	 0.430948765612796 
1934	 0.430918650581922 
1935	 0.430951625137927 
1936	 0.430931912106078 
1937	 0.430962735156855 
1938	 0.431084701281682 
1939	 0.4311679704518 
1940	 0.431210056230069 
1941	 0.431322535005197 
1942	 0.431531298831842 
1943	 0.43170483352499 
1944	 0.43192009398801 
1945	 0.432209325048994 
1946	 0.432466258571186 
1947	 0.432731717780236 
1948	 0.433028618433255 
1949	 0.433355061372937 
1950	 0.433716625171204 
1951	 0.434118853376225 
1952	 0.434519662694768 
1953	 0.434938828984377 
1954	 0.435391321782691 
1955	 0.43587427999055 
1956	 0.436364109408315 
1957	 0.43691719561774 
1958	 0.437489789288861 
1959	 0.437952118082441 
1960	 0.438414072904011 
1961	 0.438856948814497 
1962	 0.439232643753208 
1963	 0.439638144322874 
1964	 0.44005489393438 
1965	 0.440463717790077 
1966	 0.440888427933564 
1967	 0.441269869395975 
1968	 0.441607844801384 
1969	 0.441952669536619 
1970	 0.442283845154686 
1971	 0.44263262770949 
1972	 0.443016843402472 
1973	 0.443388271249393 
1974	 0.443770661949676 
1975	 0.44415416721166 
1976	 0.444526588633175 
1977	 0.44490962593477 
1978	 0.445305547506318 
1979	 0.445689695572563 
1980	 0.446073998160254 
1981	 0.446537128403079 
1982	 0.446926044102679 
1983	 0.447278879742908 
1984	 0.447697714524023 
1985	 0.448127984900703 
1986	 0.448538831593013 
1987	 0.448973498563537 
1988	 0.449458680690889 
1989	 0.44992427853926 
1990	 0.450320533446757 
1991	 0.450832345501518 
1992	 0.45144231323587 
1993	 0.452023263086096 
1994	 0.45254963461906 
1995	 0.453073818808602 
1996	 0.453502388011898 
1997	 0.453912074272809 
1998	 0.454375677908256 
1999	 0.454875405415806 
2000	 0.455354533414582 
2001	 0.455890041734347 
2002	 0.456321896556282 
2003	 0.456699607491254 
2004	 0.45709747456324 
2005	 0.4574002792597 
2006	 0.457766973816078 
2007	 0.458210867852364 
2008	 0.458617634912966 
2009	 0.458938337207107 
2010	 0.459237581167311 
2011	 0.459460666574492 
2012	 0.459617680908859 
2013	 0.459794440256069 
2014	 0.45995368431915 
2015	 0.460140219916615 
2016	 0.460338310133071 
2017	 0.460511881853914 
2018	 0.460726792195768 
2019	 0.460876892642394 
2020	 0.461004057719526 
2021	 0.461036470694186 
2022	 0.461064671981176 
2023	 0.461119310786671 
2024	 0.461142561870542 
2025	 0.461124909658102 
2026	 0.461052850743041 
2027	 0.46095189030418 
2028	 0.460781788914606 
2029	 0.46048618882987 
2030	 0.460280801802607 
2031	 0.460040527130243 
2032	 0.459854790881594 
2033	 0.459727777675381 
2034	 0.459607939140172 
2035	 0.459541999161419 
2036	 0.459425001578778 
2037	 0.459315044058854 
2038	 0.459200193420386 
2039	 0.459044661626752 
2040	 0.458835739404204 
2041	 0.458670166400887 
2042	 0.458476389458057 
2043	 0.458330053464164 
2044	 0.458213155674478 
2045	 0.458109771763352 
2046	 0.458033558666215 
2047	 0.457968166897875 
2048	 0.45799834360292 
2049	 0.457904587345679 
2050	 0.457753442514066 
2051	 0.45757529063808 
2052	 0.457405038016173 
2053	 0.457193619959393 
2054	 0.457041763550897 
2055	 0.456964470780328 
2056	 0.456860240001748 
2057	 0.456702407505744 
2058	 0.456639850766723 
2059	 0.456658518530068 
2060	 0.456649966427517 
2061	 0.456707285471009 
2062	 0.4567097134007 
2063	 0.456713435176466 
2064	 0.456644055974601 
2065	 0.456490188841481 
2066	 0.456363465467528 
2067	 0.456276142506298 
2068	 0.456166667101337 
2069	 0.456044402159801 
2070	 0.455978935842022 
2071	 0.455854189449767 
2072	 0.455627116017288 
2073	 0.455491470313638 
2074	 0.455384125920287 
2075	 0.455292996948623 
2076	 0.455197036087801 
2077	 0.455177699991826 
2078	 0.455277019080992 
2079	 0.455282754691783 
2080	 0.455308459524115 
2081	 0.455303514178441 
2082	 0.455219965123567 
2083	 0.455132424133786 
2084	 0.45511659663111 
2085	 0.455071871618892 
2086	 0.455024073173099 
2087	 0.454962249242607 
2088	 0.45493201123288 
2089	 0.454938088816544 
2090	 0.454879899927199 
2091	 0.454797126527615 
2092	 0.454745171030353 
2093	 0.454673575667874 
2094	 0.454577255562095 
2095	 0.454496908693685 
2096	 0.454417687730487 
2097	 0.454278857427617 
2098	 0.454165648466488 
2099	 0.454186050214926 
2100	 0.454157803741006 
2101	 0.454083585218244 
2102	 0.454013062828677 
2103	 0.453895669636508 
2104	 0.453680398540325 
2105	 0.453559753763005 
2106	 0.453497480412236 
2107	 0.453353789092255 
2108	 0.453203417353429 
2109	 0.453035409420738 
2110	 0.45277124237531 
2111	 0.452586725620201 
2112	 0.452463950793938 
2113	 0.45231118062468 
2114	 0.452209145203606 
2115	 0.452036255619403 
2116	 0.451801843630876 
2117	 0.451580732701098 
2118	 0.451326684639102 
2119	 0.45097723533855 
2120	 0.450779879489436 
2121	 0.45067953157932 
2122	 0.450456778533071 
2123	 0.450259488802422 
2124	 0.450032544783036 
2125	 0.44967498480006 
2126	 0.449418117681242 
2127	 0.449251773090479 
2128	 0.449042364986736 
2129	 0.448769805756857 
2130	 0.448597070513853 
2131	 0.448482047657434 
2132	 0.44835462068359 
2133	 0.448235526878171 
2134	 0.448228132749286 
2135	 0.448152407706551 
2136	 0.448107611026294 
2137	 0.448085221013337 
2138	 0.448129698380629 
2139	 0.448098776320781 
2140	 0.448075638586502 
2141	 0.447986124696815 
2142	 0.44780624382711 
2143	 0.447690597400339 
2144	 0.447510918344303 
2145	 0.447454926952617 
2146	 0.447520189924807 
2147	 0.447526882536791 
2148	 0.447572836800677 
2149	 0.447607664437965 
2150	 0.447619100606066 
2151	 0.447625955049067 
2152	 0.447691506773275 
2153	 0.447675536021753 
2154	 0.447546781052652 
2155	 0.447439924636048 
2156	 0.447437104342512 
2157	 0.447470443565253 
2158	 0.447465774284121 
2159	 0.447568098382966 
2160	 0.447550386471622 
2161	 0.447407922464441 
2162	 0.447329728992641 
2163	 0.447324948720312 
2164	 0.447181254614985 
2165	 0.446942686785266 
2166	 0.446747303940318 
2167	 0.446483143273105 
2168	 0.446239273297892 
2169	 0.446022783344702 
2170	 0.445817893978007 
2171	 0.445581163882116 
2172	 0.445375063774958 
2173	 0.445286612218504 
2174	 0.445057517113678 
2175	 0.444765240389148 
2176	 0.444550192713008 
2177	 0.444432146175531 
2178	 0.444368935387755 
2179	 0.444278063024857 
2180	 0.444315660897211 
2181	 0.444222827194949 
2182	 0.444000789796868 
2183	 0.443864959679288 
2184	 0.443763427327681 
2185	 0.443636510479752 
2186	 0.443502825231407 
2187	 0.443388525281095 
2188	 0.443309364685848 
2189	 0.443156949719556 
2190	 0.442975566114274 
2191	 0.44279679936672 
2192	 0.442585309257418 
2193	 0.442343706971937 
2194	 0.442075296566253 
2195	 0.441828907756221 
2196	 0.44154728008568 
2197	 0.441270941642139 
2198	 0.441060987616664 
2199	 0.440838588349113 
2200	 0.440621155835899 
2201	 0.4403716253193 
2202	 0.440219132767186 
2203	 0.440162435175368 
2204	 0.440007980948261 
2205	 0.439878189759864 
2206	 0.439674393930274 
2207	 0.439390011700048 
2208	 0.439091733079405 
2209	 0.438802282452919 
2210	 0.438447949265414 
2211	 0.437956402934333 
2212	 0.437574546849464 
2213	 0.437145998553161 
2214	 0.436848822973028 
2215	 0.436800114459149 
2216	 0.436533944451532 
2217	 0.436224938614137 
2218	 0.435885478858638 
2219	 0.435351011600297 
2220	 0.43490829764666 
2221	 0.434514884663426 
2222	 0.434167248728978 
2223	 0.433737104966026 
2224	 0.43329223328904 
2225	 0.432834049919189 
2226	 0.432317667898124 
2227	 0.431743142433455 
2228	 0.431129705951328 
2229	 0.430478941518255 
2230	 0.429738636211486 
2231	 0.429029810371105 
2232	 0.428408333559565 
2233	 0.427552116399488 
2234	 0.426624159842301 
2235	 0.425542914681924 
2236	 0.424231494883142 
2237	 0.422960841475308 
2238	 0.421560084826652 
2239	 0.420210225260119 
2240	 0.418971529927431 
2241	 0.417482363448119 
2242	 0.415897977564802 
2243	 0.414259017482801 
2244	 0.412438036547993 
2245	 0.410570022854652 
2246	 0.408611560014758 
2247	 0.40665912452453 
2248	 0.404638782298874 
2249	 0.402558415925156 
2250	 0.400470461842726 
2251	 0.398389458854832 
2252	 0.395996009729844 
2253	 0.393729871598924 
2254	 0.391473245547776 
2255	 0.389221719344756 
2256	 0.387219661010234 
2257	 0.385125251890724 
2258	 0.383091146973229 
2259	 0.381066530064287 
2260	 0.379143764056436 
2261	 0.377282225911825 
2262	 0.375461553017464 
2263	 0.373727839658955 
2264	 0.372020849338036 
2265	 0.370328736058293 
2266	 0.368700199922145 
2267	 0.367175918135736 
2268	 0.365583302986945 
2269	 0.363982932447489 
2270	 0.362463437345662 
2271	 0.36094128241705 
2272	 0.359500287929725 
2273	 0.358222879748372 
2274	 0.356784714407812 
2275	 0.355307870367392 
2276	 0.353826210996972 
2277	 0.35226191710553 
2278	 0.350747192723903 
2279	 0.349250118638201 
2280	 0.34774621365652 
2281	 0.346240169242839 
2282	 0.344712342200444 
2283	 0.343218991206441 
2284	 0.341676220732243 
2285	 0.339984125091938 
2286	 0.338315424537601 
2287	 0.336492994187061 
2288	 0.33469208524437 
2289	 0.333076180243406 
2290	 0.331282329641877 
2291	 0.329446025839644 
2292	 0.327537352413212 
2293	 0.325297009799269 
2294	 0.323189202172922 
2295	 0.321387967573041 
2296	 0.31975773255192 
2297	 0.318423470686318 
2298	 0.317539417939384 
2299	 0.316591233515285 
2300	 0.315740141032328 
2301	 0.315115292262662 
2302	 0.314576630419495 
2303	 0.314388164780405 
2304	 0.314475947600998 
2305	 0.314785339297487 
2306	 0.315452861260614 
2307	 0.316173198180948 
2308	 0.31705668647954 
2309	 0.318195626464899 
2310	 0.319568670906666 
2311	 0.320967775151141 
2312	 0.322785552634378 
2313	 0.324249906497002 
2314	 0.325516995039157 
2315	 0.326972652057009 
2316	 0.328315309359601 
2317	 0.329767376394649 
2318	 0.331581737063145 
2319	 0.3329698999183 
2320	 0.334319324621417 
2321	 0.335407826341061 
2322	 0.336115644288893 
2323	 0.336806986048334 
2324	 0.337364683791151 
2325	 0.337729180315816 
2326	 0.337981950913385 
2327	 0.338063006126993 
2328	 0.337815619084281 
2329	 0.337625799033489 
2330	 0.337374731835488 
2331	 0.337048816329898 
2332	 0.336554849135409 
2333	 0.33607431021886 
2334	 0.335344263610407 
2335	 0.334304832845825 
2336	 0.333321735915435 
2337	 0.33230573119728 
2338	 0.331207401723434 
2339	 0.330097998310449 
2340	 0.328898610556085 
2341	 0.327651170952033 
2342	 0.326477085854453 
2343	 0.325596017909271 
2344	 0.324952244821489 
2345	 0.324435600070713 
2346	 0.324244187954272 
2347	 0.324331885636422 
2348	 0.324558113252504 
2349	 0.325120790477215 
2350	 0.325989115250293 
2351	 0.326898509359511 
2352	 0.327969504079862 
2353	 0.329171334716524 
2354	 0.330270419777761 
2355	 0.331583027838129 
2356	 0.332840657596261 
2357	 0.333806121759145 
2358	 0.334680741544105 
2359	 0.335272649900789 
2360	 0.335654472005955 
2361	 0.336023776065953 
2362	 0.33643013578114 
2363	 0.336492117892998 
2364	 0.336344176002103 
2365	 0.336222351383873 
2366	 0.335909793608032 
2367	 0.33575246779167 
2368	 0.335883255098012 
2369	 0.336071135479373 
2370	 0.336167272613114 
2371	 0.336094063891959 
2372	 0.335941076872409 
2373	 0.335794744598112 
2374	 0.335963459734427 
2375	 0.336213142840747 
2376	 0.336028621498428 
2377	 0.336059501566726 
2378	 0.336211044008761 
2379	 0.336060795592458 
2380	 0.336183367237019 
2381	 0.336519813549223 
2382	 0.336752528361056 
2383	 0.336892809655237 
2384	 0.336997244462676 
2385	 0.337181263222403 
2386	 0.337205950977974 
2387	 0.336971976018657 
2388	 0.337041764471374 
2389	 0.337260470879774 
2390	 0.337239179715951 
2391	 0.337219002463922 
2392	 0.337125848353832 
2393	 0.33672424809954 
2394	 0.336875052222829 
2395	 0.337481828380008 
2396	 0.337704132166436 
2397	 0.338016510552778 
2398	 0.338048877136169 
2399	 0.337612505930141 
2400	 0.337438544214658 
2401	 0.337282001219942 
2402	 0.337550330485804 
2403	 0.337751161954737 
2404	 0.337668182048916 
2405	 0.337947780771034 
2406	 0.338114380178625 
2407	 0.337886065960626 
2408	 0.33800881856191 
2409	 0.338280357836956 
2410	 0.33803614045261 
2411	 0.337933417265966 
2412	 0.33803955104747 
2413	 0.337827951223107 
2414	 0.337881440031383 
2415	 0.337973278605201 
2416	 0.337884922660388 
2417	 0.33768301408852 
2418	 0.337264640790186 
2419	 0.336971505645457 
2420	 0.336990285557808 
2421	 0.33718456354871 
2422	 0.337389254088043 
2423	 0.337624365663088 
2424	 0.337726956268947 
2425	 0.337573458129593 
2426	 0.3376134628429 
2427	 0.337864352090338 
2428	 0.337865459511058 
2429	 0.337794559996531 
2430	 0.337648957491431 
2431	 0.337678901642228 
2432	 0.33808908918565 
2433	 0.338392212800868 
2434	 0.338223406130745 
2435	 0.337693948612661 
2436	 0.337071519209803 
2437	 0.336694652578549 
2438	 0.337217456774334 
2439	 0.338001737520022 
2440	 0.338353902287866 
2441	 0.337928829411776 
2442	 0.336691733902125 
2443	 0.336033652389835 
2444	 0.335573982770482 
2445	 0.33478811176613 
2446	 0.334896935412576 
2447	 0.335296706941789 
2448	 0.335409041759105 
2449	 0.335706008820467 
2450	 0.335248842434946 
2451	 0.333704265804812 
2452	 0.332278414027829 
2453	 0.331793007355284 
2454	 0.331813181124038 
2455	 0.331540946224573 
2456	 0.331027807952279 
2457	 0.330668018738481 
2458	 0.330006773622592 
2459	 0.32989569909645 
2460	 0.330767473080871 
2461	 0.330819031628756 
2462	 0.330839463241516 
2463	 0.33080931046022 
2464	 0.329998159508296 
2465	 0.329450473666848 
2466	 0.329198565584559 
2467	 0.329288038073171 
2468	 0.329047256767465 
2469	 0.328470937759687 
2470	 0.328243007254231 
2471	 0.327793800650854 
2472	 0.327980014943116 
2473	 0.328409326496919 
2474	 0.32808555860415 
2475	 0.328274472765236 
2476	 0.327762977942861 
2477	 0.327100975826203 
2478	 0.327279613813093 
2479	 0.32699731028157 
2480	 0.327377805589482 
2481	 0.327748622260894 
2482	 0.328210232690797 
2483	 0.328664577487245 
2484	 0.329495271263997 
2485	 0.329783745693492 
2486	 0.329130250705416 
2487	 0.328617565363179 
2488	 0.328047716058328 
2489	 0.328051412193004 
2490	 0.329356313752247 
2491	 0.331297835870232 
2492	 0.332399847581743 
2493	 0.332752089723957 
2494	 0.333372244524074 
2495	 0.333491485463617 
2496	 0.333410294155239 
2497	 0.333602598445029 
2498	 0.333343489675217 
2499	 0.332556025039104 
2500	 0.332549750531181 
