Wavelength	Tablay400111.asd
350	 0.196492618790393 
351	 0.2069641483532 
352	 0.149076709249445 
353	 0.060353737136876 
354	 0.119381070160942 
355	 9.83548598212486E-02 
356	 4.29834909255646E-02 
357	 4.55779381553831E-02 
358	 0.108689072589888 
359	 0.126671790073623 
360	 0.103137759840345 
361	 9.92569390439553E-02 
362	 0.070275004464735 
363	 8.35795024852473E-02 
364	 0.152805845335647 
365	 0.195570995863215 
366	 9.66515317172859E-02 
367	 3.11710005497407E-02 
368	 0.12178571071023 
369	 0.126001006985456 
370	 9.64765220617528E-02 
371	 7.42125291543903E-02 
372	 9.60221158361456E-02 
373	 0.133802926360645 
374	 0.116091272142806 
375	 4.11939545379374E-02 
376	 1.17964272559687E-02 
377	 1.06862816059712E-02 
378	 5.38618230102242E-02 
379	 0.122205364587212 
380	 0.058708284972236 
381	 5.17641484025955E-02 
382	 0.101241086174469 
383	 0.102882880200697 
384	 9.13700995176357E-02 
385	 8.11167327756081E-02 
386	 7.70240308669338E-02 
387	 6.83667259915495E-02 
388	 6.23433951782079E-02 
389	 7.56985467974792E-02 
390	 0.10628971121199 
391	 7.04441004489746E-02 
392	 6.10368458792144E-02 
393	 7.76207745252974E-02 
394	 0.062877637022924 
395	 8.37158716323803E-02 
396	 0.096742002087822 
397	 7.96455763861016E-02 
398	 5.73602776373032E-02 
399	 8.18420604913537E-02 
400	 0.104483761136009 
401	 7.74527131345197E-02 
402	 0.075355297775421 
403	 0.074699427217984 
404	 6.71599271962008E-02 
405	 5.91657600730451E-02 
406	 6.93724802460226E-02 
407	 7.43509992905196E-02 
408	 6.25619979632456E-02 
409	 5.39125971317953E-02 
410	 5.48441770234472E-02 
411	 6.47400183411032E-02 
412	 7.56615944409575E-02 
413	 6.06096053772986E-02 
414	 4.69128587757252E-02 
415	 5.23047747658279E-02 
416	 7.98019903021866E-02 
417	 7.76763022235978E-02 
418	 6.61271671967695E-02 
419	 6.41043619697129E-02 
420	 0.05921004654958 
421	 5.58877221569556E-02 
422	 5.88573530131182E-02 
423	 6.89049742124091E-02 
424	 6.31936264184364E-02 
425	 5.82915457269995E-02 
426	 6.03753429163568E-02 
427	 6.12119297677283E-02 
428	 6.20498344006493E-02 
429	 6.13025372031506E-02 
430	 5.89357088422212E-02 
431	 6.07312958672744E-02 
432	 0.061356644001139 
433	 6.01740756035714E-02 
434	 5.88721846275187E-02 
435	 5.38289263899923E-02 
436	 5.38121979320274E-02 
437	 5.95231237783019E-02 
438	 5.80002510753952E-02 
439	 5.91053142614769E-02 
440	 6.23374239394736E-02 
441	 6.41159541310226E-02 
442	 5.96574829814347E-02 
443	 5.94258459615612E-02 
444	 6.20502259578823E-02 
445	 0.057725423769906 
446	 5.53731791638128E-02 
447	 5.74692896946677E-02 
448	 6.20733425922827E-02 
449	 6.00899500200176E-02 
450	 5.80429056480133E-02 
451	 5.74998826708077E-02 
452	 5.81947740599629E-02 
453	 6.01150040979393E-02 
454	 5.99083407510141E-02 
455	 5.78552969311551E-02 
456	 5.82016535295265E-02 
457	 0.058578751260485 
458	 5.87533856492377E-02 
459	 5.86115158007245E-02 
460	 5.67367420653293E-02 
461	 5.76844617114902E-02 
462	 5.98326818942112E-02 
463	 5.88232567540565E-02 
464	 5.77506736083438E-02 
465	 5.81125146513912E-02 
466	 5.95227677343067E-02 
467	 5.91015810181263E-02 
468	 5.92621019384408E-02 
469	 5.82855787597264E-02 
470	 0.055447265307241 
471	 0.058916214400889 
472	 0.059917381179159 
473	 5.70687488525222E-02 
474	 5.51456045423348E-02 
475	 0.056637967805528 
476	 5.81638630342413E-02 
477	 5.77267635547041E-02 
478	 5.84298861769985E-02 
479	 5.82588853667495E-02 
480	 5.80504084332722E-02 
481	 5.90891616476175E-02 
482	 5.87202230398017E-02 
483	 5.86918929141187E-02 
484	 5.92212454809158E-02 
485	 5.85597777578394E-02 
486	 5.80559340692745E-02 
487	 5.81926853884768E-02 
488	 5.87201999333892E-02 
489	 5.77659274360432E-02 
490	 5.74281247624847E-02 
491	 5.75141717626363E-02 
492	 0.056849239305303 
493	 0.058395706017571 
494	 5.93554275958241E-02 
495	 0.058536664005748 
496	 5.82264353762471E-02 
497	 5.92213155172186E-02 
498	 6.01190476818578E-02 
499	 5.93634933641739E-02 
500	 5.78982490506249E-02 
501	 0.057640427937081 
502	 5.85916227553735E-02 
503	 5.91208564543832E-02 
504	 5.90983418853883E-02 
505	 5.88444185441138E-02 
506	 5.88827766268435E-02 
507	 6.01691440273547E-02 
508	 6.01114974583131E-02 
509	 5.93624942200242E-02 
510	 5.97267645804205E-02 
511	 6.03014804468877E-02 
512	 5.99091567418041E-02 
513	 5.90069162834872E-02 
514	 6.00817606603822E-02 
515	 6.08566566872641E-02 
516	 6.09013496286459E-02 
517	 6.04373733747271E-02 
518	 6.01003319447579E-02 
519	 0.060202588880665 
520	 6.05036077555259E-02 
521	 6.04408846221704E-02 
522	 6.02600565999716E-02 
523	 6.04980437090676E-02 
524	 6.12326315009213E-02 
525	 6.16920609297927E-02 
526	 6.13468079771927E-02 
527	 0.06096029174138 
528	 6.14081511496216E-02 
529	 6.13480599533115E-02 
530	 6.09936429785764E-02 
531	 6.09050997887745E-02 
532	 6.18433431504052E-02 
533	 6.22528483868106E-02 
534	 6.21052243747701E-02 
535	 6.18073429704126E-02 
536	 6.19213327080145E-02 
537	 6.22575271530223E-02 
538	 6.26067317081228E-02 
539	 6.27747247117612E-02 
540	 6.28678658580139E-02 
541	 6.27161222000245E-02 
542	 0.062471752403127 
543	 6.28442153969951E-02 
544	 6.32634879470762E-02 
545	 6.33847269579682E-02 
546	 6.31352987450296E-02 
547	 6.32857919352781E-02 
548	 0.063420647784827 
549	 6.34562868539269E-02 
550	 6.36282869056873E-02 
551	 6.37706171628222E-02 
552	 0.063824565047241 
553	 6.38053555735131E-02 
554	 6.38600551757984E-02 
555	 6.38872538185201E-02 
556	 6.38752668930856E-02 
557	 6.38776634355203E-02 
558	 6.41063743204562E-02 
559	 6.42705834987767E-02 
560	 6.42955087756589E-02 
561	 6.44681259111669E-02 
562	 6.45538402140601E-02 
563	 6.47078961724157E-02 
564	 0.065037469561638 
565	 6.51089813150951E-02 
566	 6.49991974546057E-02 
567	 6.47994012426676E-02 
568	 6.46394283824842E-02 
569	 6.51120380733334E-02 
570	 0.065371781422279 
571	 6.50666451563142E-02 
572	 6.53560911790076E-02 
573	 6.53123944109151E-02 
574	 6.51157096302866E-02 
575	 6.52316523820277E-02 
576	 6.52408721486476E-02 
577	 6.52529431083978E-02 
578	 0.065364715120252 
579	 6.56149010729957E-02 
580	 6.57287230692867E-02 
581	 6.57587128076008E-02 
582	 6.57701107444066E-02 
583	 6.55486275450846E-02 
584	 6.57132158294026E-02 
585	 6.61097339870496E-02 
586	 6.61572391467289E-02 
587	 6.59737758681699E-02 
588	 6.58743574043705E-02 
589	 6.59596022547379E-02 
590	 6.59339149594602E-02 
591	 0.066157007163438 
592	 0.066433015039349 
593	 6.64563640981172E-02 
594	 6.61786493218844E-02 
595	 6.61959534347378E-02 
596	 6.64610425320016E-02 
597	 6.63887539785661E-02 
598	 6.63635244845575E-02 
599	 6.63453193708733E-02 
600	 6.63304501643495E-02 
601	 6.66275705927157E-02 
602	 6.65790854463515E-02 
603	 6.63530179057932E-02 
604	 6.63995527805369E-02 
605	 6.63495988208208E-02 
606	 6.63869818861595E-02 
607	 6.65487337462154E-02 
608	 6.66425141494172E-02 
609	 6.67047614904111E-02 
610	 6.67580154327632E-02 
611	 6.67913848601728E-02 
612	 6.66578404896161E-02 
613	 6.66418328154502E-02 
614	 6.67406549731566E-02 
615	 6.67742370259032E-02 
616	 6.68437275115317E-02 
617	 6.68664538969838E-02 
618	 6.68045836466585E-02 
619	 6.67294172032654E-02 
620	 6.66939001916241E-02 
621	 0.06672938284164 
622	 6.68287928186678E-02 
623	 6.68848138566361E-02 
624	 6.68876793717103E-02 
625	 6.68564652755243E-02 
626	 6.68325824602621E-02 
627	 6.68473798210162E-02 
628	 6.68039242709241E-02 
629	 6.66959610218408E-02 
630	 6.68195935794211E-02 
631	 6.68468863994459E-02 
632	 6.67480953327972E-02 
633	 6.66407379746475E-02 
634	 6.66394944059388E-02 
635	 6.66567228114026E-02 
636	 6.66075068179118E-02 
637	 6.64373836883801E-02 
638	 6.64942355324277E-02 
639	 6.66833193107541E-02 
640	 6.68007639173715E-02 
641	 6.66870202634725E-02 
642	 0.066525918153089 
643	 6.64492714021978E-02 
644	 6.65125175552687E-02 
645	 6.64128580865285E-02 
646	 6.63981559061261E-02 
647	 6.65460749754239E-02 
648	 6.65484771099108E-02 
649	 0.066601445981102 
650	 0.066558332202863 
651	 6.63150700825193E-02 
652	 0.066366820948263 
653	 6.64211769500266E-02 
654	 0.066388122233243 
655	 6.63602478316717E-02 
656	 6.63294612085423E-02 
657	 6.62703889608746E-02 
658	 0.066208596710674 
659	 6.63055006667826E-02 
660	 6.62321253207762E-02 
661	 0.066170904008445 
662	 6.63823026228247E-02 
663	 6.64555000065668E-02 
664	 0.066411002270661 
665	 6.63075990668338E-02 
666	 6.62170091289937E-02 
667	 6.62095484282453E-02 
668	 0.066225705850473 
669	 6.62078309853002E-02 
670	 6.61797598685572E-02 
671	 6.61208159138261E-02 
672	 6.60837265927925E-02 
673	 6.61305074892078E-02 
674	 6.61585114233782E-02 
675	 6.61300735177583E-02 
676	 6.61010096337044E-02 
677	 6.62238128562222E-02 
678	 6.60825716238668E-02 
679	 6.59462252676093E-02 
680	 6.60405508990423E-02 
681	 6.59507821736681E-02 
682	 6.59226769655883E-02 
683	 6.59702163485287E-02 
684	 6.59804762726727E-02 
685	 0.065903873015392 
686	 6.59304174394453E-02 
687	 6.60646910425498E-02 
688	 6.60234362516638E-02 
689	 6.60074540145075E-02 
690	 6.59907440695624E-02 
691	 6.59314426330292E-02 
692	 6.59380207922323E-02 
693	 6.59335665059524E-02 
694	 6.58830560278007E-02 
695	 6.58078340890137E-02 
696	 6.59733555614474E-02 
697	 6.61399073254252E-02 
698	 6.61147187974695E-02 
699	 6.58633146570276E-02 
700	 0.065860051590249 
701	 0.065953035715821 
702	 6.59192790969464E-02 
703	 6.60455110803792E-02 
704	 0.066052461752902 
705	 6.59979755001399E-02 
706	 6.61420213625249E-02 
707	 0.066235265830228 
708	 0.066218521288471 
709	 0.066131724648893 
710	 6.61301456007538E-02 
711	 6.61569817260534E-02 
712	 6.61981141632416E-02 
713	 6.62506550115609E-02 
714	 6.63288162478291E-02 
715	 6.63437409281344E-02 
716	 6.63148530472444E-02 
717	 6.63387398467052E-02 
718	 6.64293614670459E-02 
719	 6.65504159483658E-02 
720	 0.066632305483227 
721	 6.65535435629637E-02 
722	 6.66657765080254E-02 
723	 0.066744341015159 
724	 6.65879016544062E-02 
725	 6.68265084185735E-02 
726	 6.69754387897957E-02 
727	 6.69678547209673E-02 
728	 6.70377745387751E-02 
729	 6.70932693805278E-02 
730	 6.71059052538255E-02 
731	 6.71182664608712E-02 
732	 6.72803043063034E-02 
733	 6.73645941304008E-02 
734	 6.73950674351582E-02 
735	 0.067463578712881 
736	 6.76272108802849E-02 
737	 0.067700218803359 
738	 6.77124331283823E-02 
739	 6.78237424849332E-02 
740	 0.06795335477916 
741	 6.80293997317288E-02 
742	 6.80807639165497E-02 
743	 6.82831814418245E-02 
744	 6.83857296103784E-02 
745	 0.06846884731938 
746	 6.86282485819813E-02 
747	 6.86977570792039E-02 
748	 6.87502271175611E-02 
749	 6.88184926609264E-02 
750	 6.89165172851902E-02 
751	 6.91082978391672E-02 
752	 6.93023434221056E-02 
753	 6.94444350340341E-02 
754	 6.95501809264889E-02 
755	 0.069678111500161 
756	 6.97837492195982E-02 
757	 6.98563803833456E-02 
758	 7.00710094400439E-02 
759	 7.01433441784947E-02 
760	 7.01723315573522E-02 
761	 7.03903216839753E-02 
762	 7.06333927566538E-02 
763	 7.07552234228983E-02 
764	 0.070805161458229 
765	 7.10201579888943E-02 
766	 7.11710101136443E-02 
767	 7.12967723373809E-02 
768	 7.14528876168771E-02 
769	 7.16131142180855E-02 
770	 0.071770296847228 
771	 7.19431747439853E-02 
772	 7.21389031186655E-02 
773	 7.22540277939823E-02 
774	 7.24197271138688E-02 
775	 7.26106481239628E-02 
776	 7.26920811990739E-02 
777	 7.29122149255027E-02 
778	 7.30974639253726E-02 
779	 7.31860917175849E-02 
780	 7.34052179743241E-02 
781	 7.36034316272959E-02 
782	 7.37893491717672E-02 
783	 7.39802419105215E-02 
784	 7.40578884481185E-02 
785	 7.41885219337852E-02 
786	 7.43454009917845E-02 
787	 7.44213615371191E-02 
788	 7.46081366289631E-02 
789	 7.48346479867483E-02 
790	 7.50491277056022E-02 
791	 7.52512672946021E-02 
792	 7.53051693704595E-02 
793	 7.54035185584997E-02 
794	 7.56704707789063E-02 
795	 7.59228929282607E-02 
796	 7.59894696231563E-02 
797	 7.60267916604251E-02 
798	 7.62407324097375E-02 
799	 7.63971715181206E-02 
800	 7.64751078457027E-02 
801	 7.65475608981286E-02 
802	 7.67324344332772E-02 
803	 7.68879829962199E-02 
804	 7.70216777620498E-02 
805	 7.71561711824541E-02 
806	 7.73060715928305E-02 
807	 7.74156551791073E-02 
808	 7.75215960643346E-02 
809	 7.76527055224858E-02 
810	 7.77394579460404E-02 
811	 7.78487650453894E-02 
812	 7.79928792000692E-02 
813	 0.078146817941823 
814	 7.82468410001389E-02 
815	 7.82710524353784E-02 
816	 0.0782980147051 
817	 7.84656552298316E-02 
818	 7.85802696632556E-02 
819	 7.86372186350985E-02 
820	 7.86931101653618E-02 
821	 7.88501154680551E-02 
822	 7.90636767402094E-02 
823	 7.91092989400087E-02 
824	 7.89477632104319E-02 
825	 7.92614033828512E-02 
826	 7.93803349710597E-02 
827	 7.92964231686017E-02 
828	 7.93063804344141E-02 
829	 7.94951363205926E-02 
830	 7.96419682652254E-02 
831	 0.07968359785101 
832	 7.97123876761997E-02 
833	 7.97010350414915E-02 
834	 7.96794741162385E-02 
835	 0.079690773698207 
836	 0.079783817150694 
837	 0.079928367878132 
838	 7.99537404603851E-02 
839	 7.98337840654173E-02 
840	 8.00393541614733E-02 
841	 8.01673897166371E-02 
842	 8.01752224536474E-02 
843	 8.01743221544928E-02 
844	 8.02467890946236E-02 
845	 8.02773278609841E-02 
846	 8.02762442438908E-02 
847	 8.03354541299525E-02 
848	 8.03439340445751E-02 
849	 8.03533668261799E-02 
850	 8.03741711947752E-02 
851	 8.03465160218227E-02 
852	 8.03253161126319E-02 
853	 8.03596753150227E-02 
854	 8.04271194085952E-02 
855	 8.03555853717327E-02 
856	 8.03828018655362E-02 
857	 8.04620207931441E-02 
858	 8.05083338073594E-02 
859	 8.06811288229597E-02 
860	 0.080574496921294 
861	 8.03580751228397E-02 
862	 0.080416855040843 
863	 8.04502958462876E-02 
864	 8.05165623090098E-02 
865	 8.06093644880007E-02 
866	 8.06493445956925E-02 
867	 8.05614145264203E-02 
868	 8.05229425138269E-02 
869	 8.05680694601792E-02 
870	 8.04974157969866E-02 
871	 8.04958222125448E-02 
872	 8.05481546577657E-02 
873	 8.05900340577413E-02 
874	 8.05459647492756E-02 
875	 8.05591011877709E-02 
876	 0.080568118028333 
877	 0.080497827925496 
878	 8.04487269226707E-02 
879	 8.05542670348581E-02 
880	 8.06385452183359E-02 
881	 8.04901873857119E-02 
882	 0.080572706436096 
883	 0.080657211611192 
884	 8.06616399968981E-02 
885	 8.06570809662487E-02 
886	 8.07467821593802E-02 
887	 8.07525557531068E-02 
888	 8.06469842190019E-02 
889	 0.080612105568687 
890	 8.07848394034573E-02 
891	 8.08794197494456E-02 
892	 8.07808700325208E-02 
893	 8.07925324797751E-02 
894	 8.06792953742817E-02 
895	 8.06392937066662E-02 
896	 8.08225646407175E-02 
897	 8.10142934167383E-02 
898	 8.09403809651214E-02 
899	 0.080831770482591 
900	 8.09544858105122E-02 
901	 8.09673663060148E-02 
902	 8.09532851184513E-02 
903	 8.09591562295656E-02 
904	 8.09977995049495E-02 
905	 8.09916563919282E-02 
906	 8.11197372490935E-02 
907	 8.12648787061636E-02 
908	 8.11644311206431E-02 
909	 8.12005193124159E-02 
910	 8.12461292615218E-02 
911	 8.12342405003766E-02 
912	 8.12177627472562E-02 
913	 8.13171051302877E-02 
914	 8.13463959228402E-02 
915	 8.13196516989436E-02 
916	 8.15552701573545E-02 
917	 8.16490114228209E-02 
918	 8.15976411755675E-02 
919	 8.14895907250555E-02 
920	 8.14072114982628E-02 
921	 8.16793557895469E-02 
922	 8.18915065452192E-02 
923	 8.17862797805515E-02 
924	 8.20100199482397E-02 
925	 8.21868522913184E-02 
926	 8.22127553045235E-02 
927	 8.21457008770958E-02 
928	 8.22672777104793E-02 
929	 8.24039182777236E-02 
930	 8.24700494821996E-02 
931	 8.24457213047995E-02 
932	 0.082377388159235 
933	 8.25512403824361E-02 
934	 8.28287280201271E-02 
935	 8.28799562241386E-02 
936	 8.27027560835692E-02 
937	 8.28657134108478E-02 
938	 8.31797657640515E-02 
939	 8.30756276742214E-02 
940	 8.33680789196896E-02 
941	 8.35530772551538E-02 
942	 8.34949175263554E-02 
943	 8.34812222114895E-02 
944	 8.36851473345662E-02 
945	 8.38826241093624E-02 
946	 8.39796338054279E-02 
947	 8.40622088730967E-02 
948	 8.39521044929301E-02 
949	 8.40236799667415E-02 
950	 0.084333416171466 
951	 8.44673967833246E-02 
952	 8.45543794574321E-02 
953	 8.44384498020381E-02 
954	 8.42843582301846E-02 
955	 8.47109481454101E-02 
956	 8.48329481621417E-02 
957	 8.47211320852041E-02 
958	 0.084665496440825 
959	 8.49377867714474E-02 
960	 8.50148978839684E-02 
961	 8.50990822649517E-02 
962	 8.52748347985319E-02 
963	 0.085062065984721 
964	 0.085172769817648 
965	 8.53215794685758E-02 
966	 0.085243492026246 
967	 8.53148394593797E-02 
968	 8.55487140656117E-02 
969	 8.58115968961805E-02 
970	 8.59635750822058E-02 
971	 8.59985538628426E-02 
972	 8.57510979909435E-02 
973	 8.56676684974757E-02 
974	 8.60092597335366E-02 
975	 8.60287517343615E-02 
976	 8.59619409273424E-02 
977	 8.59718646979986E-02 
978	 8.60981112705566E-02 
979	 8.60440143460662E-02 
980	 8.61873745794454E-02 
981	 8.62157275621236E-02 
982	 8.59677193184289E-02 
983	 8.65545741331799E-02 
984	 8.65100195413241E-02 
985	 8.63083616825209E-02 
986	 8.67254988191836E-02 
987	 8.71656289168855E-02 
988	 8.70116763060739E-02 
989	 8.67624342077257E-02 
990	 8.69877811815747E-02 
991	 8.69432766671017E-02 
992	 0.087242675492519 
993	 8.74679053776264E-02 
994	 8.71251716239314E-02 
995	 8.66711135714974E-02 
996	 8.71493307565461E-02 
997	 8.76001703727543E-02 
998	 8.70629882583002E-02 
999	 8.71477520719202E-02 
1000	 8.72508709961309E-02 
1001	 8.92721009157488E-02 
1002	 8.92765916563801E-02 
1003	 0.089319799601939 
1004	 8.93205489776439E-02 
1005	 8.94166105655999E-02 
1006	 8.93899765989151E-02 
1007	 8.91562055493091E-02 
1008	 8.91977687209822E-02 
1009	 8.93507894914522E-02 
1010	 8.94329194894232E-02 
1011	 8.96701690602851E-02 
1012	 8.97872346881823E-02 
1013	 8.97946247564406E-02 
1014	 8.98135533956931E-02 
1015	 8.97500245159286E-02 
1016	 8.98260034643902E-02 
1017	 8.99232150045556E-02 
1018	 8.99478747972909E-02 
1019	 9.01344685153773E-02 
1020	 9.02614392609979E-02 
1021	 9.03209423309594E-02 
1022	 9.03506109329362E-02 
1023	 9.03485523810108E-02 
1024	 0.090266772318736 
1025	 9.01988040024234E-02 
1026	 9.00538932069696E-02 
1027	 8.99686632999028E-02 
1028	 8.98255386516691E-02 
1029	 0.089903365406008 
1030	 8.99524123948526E-02 
1031	 9.02042913975108E-02 
1032	 9.05847306491331E-02 
1033	 9.05755761262652E-02 
1034	 9.06621324005499E-02 
1035	 9.07768540901674E-02 
1036	 0.090699599443826 
1037	 9.04571102028621E-02 
1038	 9.04950063605263E-02 
1039	 0.090462954844465 
1040	 9.04187070846745E-02 
1041	 9.05238166703817E-02 
1042	 9.06485810346496E-02 
1043	 9.07068703256643E-02 
1044	 9.08709828799964E-02 
1045	 9.10972366628156E-02 
1046	 9.12044003341066E-02 
1047	 9.10665857783043E-02 
1048	 9.08336899930521E-02 
1049	 9.06206182291807E-02 
1050	 9.04609140487304E-02 
1051	 9.05270953496651E-02 
1052	 9.07120277654271E-02 
1053	 9.07451646560783E-02 
1054	 9.08607561578692E-02 
1055	 9.08504068605138E-02 
1056	 9.05317171585839E-02 
1057	 9.05138196531433E-02 
1058	 9.06585224086818E-02 
1059	 9.08194863753587E-02 
1060	 9.09053929220741E-02 
1061	 9.08618827029635E-02 
1062	 9.08210372565095E-02 
1063	 9.08504467950457E-02 
1064	 9.10174604667257E-02 
1065	 9.13505295503889E-02 
1066	 0.09153475920039 
1067	 9.16175172748623E-02 
1068	 9.17641032495323E-02 
1069	 9.18880587569269E-02 
1070	 9.19914848005811E-02 
1071	 9.21172954071075E-02 
1072	 9.22609055460546E-02 
1073	 9.23544737358932E-02 
1074	 9.23360375636063E-02 
1075	 9.22528679954514E-02 
1076	 9.22650953580177E-02 
1077	 9.23694360642544E-02 
1078	 9.24666163691052E-02 
1079	 9.25520205934892E-02 
1080	 9.26281865160973E-02 
1081	 9.26626192802224E-02 
1082	 9.26694370227508E-02 
1083	 9.28433188629315E-02 
1084	 9.31180754691811E-02 
1085	 9.32149280392867E-02 
1086	 9.33276224146947E-02 
1087	 9.34338426616582E-02 
1088	 9.35529667648244E-02 
1089	 9.35856969504432E-02 
1090	 9.36839808712256E-02 
1091	 9.37399781471321E-02 
1092	 9.37538510857578E-02 
1093	 0.093912556887486 
1094	 9.41017292378619E-02 
1095	 9.42613400267984E-02 
1096	 9.43608685899844E-02 
1097	 9.43961131500856E-02 
1098	 0.094501369472266 
1099	 9.46349915195104E-02 
1100	 9.47558549936817E-02 
1101	 0.094779413235682 
1102	 9.47474592343144E-02 
1103	 0.094801636727342 
1104	 9.48566144173576E-02 
1105	 0.094986784433865 
1106	 9.51026036966982E-02 
1107	 9.51533095069929E-02 
1108	 9.52448110721442E-02 
1109	 9.53095859097135E-02 
1110	 0.09543099614843 
1111	 9.56966334013795E-02 
1112	 9.57363435568307E-02 
1113	 9.56926501995105E-02 
1114	 9.58646436652748E-02 
1115	 9.59672221881016E-02 
1116	 9.60601565692813E-02 
1117	 9.62585614328079E-02 
1118	 9.63464472023763E-02 
1119	 9.62414384002891E-02 
1120	 0.096308685069509 
1121	 9.64562017829722E-02 
1122	 9.65450743222665E-02 
1123	 9.66226423164196E-02 
1124	 0.096673571393461 
1125	 9.66829056448693E-02 
1126	 9.67605116265477E-02 
1127	 9.68289486660147E-02 
1128	 9.69741977501682E-02 
1129	 9.71134380694844E-02 
1130	 9.71615573494157E-02 
1131	 9.73022157549386E-02 
1132	 9.74491540525763E-02 
1133	 9.75109314276254E-02 
1134	 9.75548632948981E-02 
1135	 9.76038570059472E-02 
1136	 9.75755734952845E-02 
1137	 9.76534280178265E-02 
1138	 9.78038418659015E-02 
1139	 9.79435583856643E-02 
1140	 9.81444823221498E-02 
1141	 9.82819541920092E-02 
1142	 9.83938904869286E-02 
1143	 9.84833474604099E-02 
1144	 0.098550762811189 
1145	 9.86693425922326E-02 
1146	 9.87801031436447E-02 
1147	 9.88781549155968E-02 
1148	 0.098979957277144 
1149	 9.90607091894708E-02 
1150	 9.91400730910245E-02 
1151	 9.92365853793449E-02 
1152	 9.93727659297917E-02 
1153	 9.95497200763607E-02 
1154	 9.96917957164862E-02 
1155	 9.98586307999981E-02 
1156	 0.100033274754165 
1157	 0.100204819546932 
1158	 0.10034999243541 
1159	 0.100527338915224 
1160	 0.100618407397132 
1161	 0.100723588129212 
1162	 0.1008477005365 
1163	 0.100948619206398 
1164	 0.101054034500626 
1165	 0.101161352109053 
1166	 0.101301745925548 
1167	 0.101442597338262 
1168	 0.101634106908046 
1169	 0.101796102939628 
1170	 0.101910191053928 
1171	 0.102056860157628 
1172	 0.102217785733373 
1173	 0.102383235857364 
1174	 0.102569499889949 
1175	 0.102777361598431 
1176	 0.103035164241226 
1177	 0.103229415836554 
1178	 0.103425820668352 
1179	 0.103534507049682 
1180	 0.103688060479224 
1181	 0.103869273506886 
1182	 0.104060083158302 
1183	 0.104249279477676 
1184	 0.104369414924848 
1185	 0.104519769672844 
1186	 0.104738635184223 
1187	 0.105034209073629 
1188	 0.105285877011378 
1189	 0.105591875015398 
1190	 0.10580664355545 
1191	 0.105948887101253 
1192	 0.106135337394323 
1193	 0.106288557886515 
1194	 0.106487788778821 
1195	 0.106750182542262 
1196	 0.106962888748811 
1197	 0.107131946394292 
1198	 0.1073593350076 
1199	 0.10763838566395 
1200	 0.107849878274337 
1201	 0.108130863231013 
1202	 0.108426165881799 
1203	 0.108574025300172 
1204	 0.108781160946913 
1205	 0.109030872824533 
1206	 0.10929529422221 
1207	 0.109541045516304 
1208	 0.109848918492163 
1209	 0.110111285011751 
1210	 0.110312943540085 
1211	 0.110562302615502 
1212	 0.110831894936445 
1213	 0.111098930042457 
1214	 0.111353691228685 
1215	 0.111650374028638 
1216	 0.111988301988072 
1217	 0.112318689888153 
1218	 0.112702576576954 
1219	 0.113023163240485 
1220	 0.113302302252652 
1221	 0.113587540248225 
1222	 0.113869534321985 
1223	 0.11416139362055 
1224	 0.114461184663435 
1225	 0.114784362323837 
1226	 0.115092072737965 
1227	 0.115377060801019 
1228	 0.115720899650395 
1229	 0.116127504919361 
1230	 0.116455587342158 
1231	 0.116772296390587 
1232	 0.117089531004877 
1233	 0.117319755408071 
1234	 0.117639382984503 
1235	 0.118067704333624 
1236	 0.11840523315618 
1237	 0.118734170375264 
1238	 0.119051485372039 
1239	 0.11929565331117 
1240	 0.119563331173226 
1241	 0.119941178636041 
1242	 0.120255995123257 
1243	 0.1205954111545 
1244	 0.120973284230715 
1245	 0.121321510408213 
1246	 0.121649009257072 
1247	 0.121969515151402 
1248	 0.12229267427863 
1249	 0.122613293765287 
1250	 0.122907128289306 
1251	 0.12321978347588 
1252	 0.123542042260896 
1253	 0.123861697366869 
1254	 0.124197970319573 
1255	 0.12451193227778 
1256	 0.124812520928951 
1257	 0.12512602792936 
1258	 0.125417658043327 
1259	 0.125722360468596 
1260	 0.1260566279744 
1261	 0.126380183551743 
1262	 0.126694559619932 
1263	 0.127025965533383 
1264	 0.127327908150141 
1265	 0.127613977656931 
1266	 0.12791135814754 
1267	 0.128181965549768 
1268	 0.128501244823066 
1269	 0.128863882460609 
1270	 0.129184264372184 
1271	 0.129514428164731 
1272	 0.129825582262472 
1273	 0.130090267773691 
1274	 0.130396899449598 
1275	 0.130715905638894 
1276	 0.131042695321524 
1277	 0.1313631266888 
1278	 0.131728592757095 
1279	 0.132173841117641 
1280	 0.132540254987381 
1281	 0.132882542355161 
1282	 0.133242305462158 
1283	 0.133508739620724 
1284	 0.13385489782487 
1285	 0.134247319650719 
1286	 0.134723522007007 
1287	 0.135129765240964 
1288	 0.135542684778953 
1289	 0.135966682792474 
1290	 0.13635361171453 
1291	 0.13680220907687 
1292	 0.137327764541113 
1293	 0.137774818894234 
1294	 0.138220351160678 
1295	 0.138631921261536 
1296	 0.138955453635035 
1297	 0.139367652346804 
1298	 0.139789827304412 
1299	 0.140248177551138 
1300	 0.140803809979768 
1301	 0.141281718501596 
1302	 0.141727298921687 
1303	 0.142190369899867 
1304	 0.142642784273021 
1305	 0.143074434427118 
1306	 0.143516523814541 
1307	 0.143941492990875 
1308	 0.144285654586815 
1309	 0.144697741942438 
1310	 0.145121126699447 
1311	 0.145584749672835 
1312	 0.145984057936515 
1313	 0.146368160416957 
1314	 0.146783377035603 
1315	 0.147165408422338 
1316	 0.14758368193008 
1317	 0.148065940353034 
1318	 0.148498309975794 
1319	 0.148905749120393 
1320	 0.149312868386738 
1321	 0.149728410225772 
1322	 0.150108912290043 
1323	 0.150436714841472 
1324	 0.150814760423597 
1325	 0.151221030032219 
1326	 0.151584768439033 
1327	 0.151950591998023 
1328	 0.152313836066076 
1329	 0.152621290221916 
1330	 0.152963737940595 
1331	 0.153354516939039 
1332	 0.153717153577567 
1333	 0.154077307062419 
1334	 0.15441761702932 
1335	 0.154764575858648 
1336	 0.155119339313441 
1337	 0.155417674777322 
1338	 0.155667193703079 
1339	 0.156000583636149 
1340	 0.156332750769842 
1341	 0.156661798696481 
1342	 0.157081185879207 
1343	 0.157385407803305 
1344	 0.157561223132399 
1345	 0.157874835473105 
1346	 0.158232835591035 
1347	 0.158563188279078 
1348	 0.158972861055145 
1349	 0.159299769075621 
1350	 0.15954106540156 
1351	 0.159828510676666 
1352	 0.160123176350252 
1353	 0.160410706833658 
1354	 0.160724051699732 
1355	 0.160998808787129 
1356	 0.161210373252729 
1357	 0.161480763360962 
1358	 0.161786295433933 
1359	 0.162058580501082 
1360	 0.162311357697164 
1361	 0.162623457757619 
1362	 0.162940434732819 
1363	 0.163226946719478 
1364	 0.163564156643893 
1365	 0.164000289278288 
1366	 0.164285015512337 
1367	 0.164503767333522 
1368	 0.164757801958935 
1369	 0.164954940733616 
1370	 0.165194881604315 
1371	 0.16549035007633 
1372	 0.165718335556233 
1373	 0.165901590997629 
1374	 0.166114223267475 
1375	 0.166316876468926 
1376	 0.166529971808721 
1377	 0.166779128781276 
1378	 0.166983982832193 
1379	 0.167170700937838 
1380	 0.167347311278145 
1381	 0.16752017198062 
1382	 0.167650749834168 
1383	 0.167759307197848 
1384	 0.167847708658879 
1385	 0.167904042106502 
1386	 0.167936169577917 
1387	 0.167991743198599 
1388	 0.167956674554816 
1389	 0.167795115790263 
1390	 0.167697296685509 
1391	 0.167552427464014 
1392	 0.16742613525783 
1393	 0.167435081527277 
1394	 0.167501866529086 
1395	 0.167594718141996 
1396	 0.167762272822496 
1397	 0.167910085182577 
1398	 0.168087842306471 
1399	 0.168236715995329 
1400	 0.168404734506155 
1401	 0.168524829694897 
1402	 0.168617484890462 
1403	 0.168699491002709 
1404	 0.168755810618128 
1405	 0.168807470062106 
1406	 0.168847968172122 
1407	 0.168873383866306 
1408	 0.168882929047552 
1409	 0.168892873014024 
1410	 0.168874755934893 
1411	 0.16888577855745 
1412	 0.168879696915452 
1413	 0.168931294109838 
1414	 0.169001326778996 
1415	 0.169122756196585 
1416	 0.169331516739174 
1417	 0.169501254465751 
1418	 0.169656678182288 
1419	 0.16986699329772 
1420	 0.170084509072859 
1421	 0.170327000907512 
1422	 0.170635245899285 
1423	 0.170937683113144 
1424	 0.171235759100089 
1425	 0.171556709357531 
1426	 0.171878628368701 
1427	 0.172227316729838 
1428	 0.172576201495034 
1429	 0.172867718677032 
1430	 0.173181490505571 
1431	 0.173494211833751 
1432	 0.173782105346471 
1433	 0.174055934396089 
1434	 0.174350662236918 
1435	 0.17463620868591 
1436	 0.174925147407946 
1437	 0.175226725539627 
1438	 0.175523127210582 
1439	 0.175802032781716 
1440	 0.176102822345377 
1441	 0.176413005889615 
1442	 0.176747282784134 
1443	 0.177073672127457 
1444	 0.177456699881816 
1445	 0.177889113919209 
1446	 0.178322943086109 
1447	 0.178761732502652 
1448	 0.179264992649872 
1449	 0.179815866082508 
1450	 0.180366902851476 
1451	 0.180962945602281 
1452	 0.181574008276966 
1453	 0.182184319060827 
1454	 0.182817227311036 
1455	 0.183510024875143 
1456	 0.184170131906729 
1457	 0.184839067198806 
1458	 0.185480354821695 
1459	 0.186092167020471 
1460	 0.186716586528422 
1461	 0.187318584571769 
1462	 0.187927191523057 
1463	 0.188567986211964 
1464	 0.189178294803749 
1465	 0.189742233819954 
1466	 0.190362006038937 
1467	 0.190960565953857 
1468	 0.191527361794014 
1469	 0.192122320012972 
1470	 0.192663825011523 
1471	 0.193188648119322 
1472	 0.193653729055908 
1473	 0.194206190636585 
1474	 0.19478688694527 
1475	 0.195329023065317 
1476	 0.195906583912101 
1477	 0.196450162802809 
1478	 0.196930262124774 
1479	 0.197455986991283 
1480	 0.198020802635449 
1481	 0.198552985900486 
1482	 0.199077837882822 
1483	 0.199584514131388 
1484	 0.200100174072173 
1485	 0.200560505285011 
1486	 0.20094361252077 
1487	 0.201400756720536 
1488	 0.201859735789463 
1489	 0.202326064039615 
1490	 0.202838039837946 
1491	 0.203338240302862 
1492	 0.203793175339881 
1493	 0.204317526607672 
1494	 0.204907263037112 
1495	 0.205463393694491 
1496	 0.206049593395726 
1497	 0.206602945271998 
1498	 0.207107120381018 
1499	 0.207655309986612 
1500	 0.208226013183891 
1501	 0.208783502651165 
1502	 0.209359682713124 
1503	 0.209919165986417 
1504	 0.210450843975683 
1505	 0.210995351792751 
1506	 0.211559866786514 
1507	 0.212100809400183 
1508	 0.212626484773717 
1509	 0.21315841517274 
1510	 0.213693820630813 
1511	 0.214197836761165 
1512	 0.214681929991315 
1513	 0.215174813727111 
1514	 0.215660367909624 
1515	 0.216127417437176 
1516	 0.216606045318704 
1517	 0.217059734977801 
1518	 0.217440838074678 
1519	 0.217867115649311 
1520	 0.218332615074969 
1521	 0.218766853142791 
1522	 0.219193697262964 
1523	 0.219673197832573 
1524	 0.220091297474782 
1525	 0.220472814534926 
1526	 0.220871914461401 
1527	 0.221268296900377 
1528	 0.221644879660973 
1529	 0.222004327351339 
1530	 0.222386617991177 
1531	 0.222756828297195 
1532	 0.223154957632474 
1533	 0.223585147331849 
1534	 0.223994532788713 
1535	 0.224421838749244 
1536	 0.224789398715031 
1537	 0.225103666227692 
1538	 0.225494044197182 
1539	 0.225885041186118 
1540	 0.226273703082588 
1541	 0.22669491848924 
1542	 0.227142769774125 
1543	 0.227585568601557 
1544	 0.228025182101055 
1545	 0.228518049633992 
1546	 0.228982138740274 
1547	 0.229395674605408 
1548	 0.229849820208407 
1549	 0.230348410027696 
1550	 0.230817383283379 
1551	 0.231262529310499 
1552	 0.231732048542747 
1553	 0.232217243526176 
1554	 0.23269035725955 
1555	 0.233164670379759 
1556	 0.233642191148328 
1557	 0.234105167125493 
1558	 0.234593827237068 
1559	 0.235114842352947 
1560	 0.235603552613478 
1561	 0.236090837525948 
1562	 0.236570379654181 
1563	 0.237033367624211 
1564	 0.237490584352104 
1565	 0.23794033964362 
1566	 0.238396857284425 
1567	 0.238832631082606 
1568	 0.239295514569029 
1569	 0.239788836112755 
1570	 0.240262519963332 
1571	 0.2407397775818 
1572	 0.241209858257004 
1573	 0.241677096199294 
1574	 0.242127846309132 
1575	 0.242560250487268 
1576	 0.243006499473684 
1577	 0.243436919824921 
1578	 0.243888477542178 
1579	 0.244364689103234 
1580	 0.244832751389161 
1581	 0.245297306218043 
1582	 0.245772233583153 
1583	 0.246268067124794 
1584	 0.246740139875849 
1585	 0.247211785310126 
1586	 0.247671871141885 
1587	 0.248093363852173 
1588	 0.248545871660178 
1589	 0.249000846754206 
1590	 0.249475520761361 
1591	 0.249989541786208 
1592	 0.250477906460086 
1593	 0.25096072950127 
1594	 0.251452301666158 
1595	 0.251959686070938 
1596	 0.252422175557737 
1597	 0.252873183849598 
1598	 0.253311856645332 
1599	 0.253697325428888 
1600	 0.254105343020743 
1601	 0.254504969414147 
1602	 0.254938194809609 
1603	 0.25538839820999 
1604	 0.255844673386906 
1605	 0.256340801037987 
1606	 0.256819516542496 
1607	 0.25732420356426 
1608	 0.257764975305147 
1609	 0.258139685984395 
1610	 0.258560172575258 
1611	 0.258964335604892 
1612	 0.259371322089362 
1613	 0.259828389821742 
1614	 0.260247916422946 
1615	 0.260608318835171 
1616	 0.261011611609085 
1617	 0.261437004803086 
1618	 0.261857735384377 
1619	 0.262323471741797 
1620	 0.262723502083208 
1621	 0.26305608145728 
1622	 0.263438373897212 
1623	 0.263840343643459 
1624	 0.264196190691962 
1625	 0.264556878211836 
1626	 0.264907650842219 
1627	 0.265187781780208 
1628	 0.265508773726409 
1629	 0.265873240907025 
1630	 0.266214253293046 
1631	 0.266543773833339 
1632	 0.266883410686381 
1633	 0.267213417004996 
1634	 0.267567063508365 
1635	 0.267942999492698 
1636	 0.268307333296137 
1637	 0.268685826373763 
1638	 0.26904609804922 
1639	 0.269382384539815 
1640	 0.269747332494988 
1641	 0.270130703622717 
1642	 0.270498521343218 
1643	 0.270915628136428 
1644	 0.271246915082025 
1645	 0.271486365783625 
1646	 0.271766558647219 
1647	 0.27201412771612 
1648	 0.272275497164544 
1649	 0.272579596059824 
1650	 0.272868058704874 
1651	 0.273155364787678 
1652	 0.273410077625047 
1653	 0.273658011298894 
1654	 0.273878728143167 
1655	 0.274072143818043 
1656	 0.274239990828035 
1657	 0.274360119053206 
1658	 0.274507308414286 
1659	 0.274680727239668 
1660	 0.274781952650202 
1661	 0.274863406411812 
1662	 0.274918365061316 
1663	 0.274905254492021 
1664	 0.274882903870397 
1665	 0.274875364420869 
1666	 0.274817124435724 
1667	 0.274706128074121 
1668	 0.274574165938815 
1669	 0.274445687514315 
1670	 0.274228199171392 
1671	 0.273964758062366 
1672	 0.273624720004131 
1673	 0.273142983112462 
1674	 0.272734659775746 
1675	 0.272351765020556 
1676	 0.271878851584102 
1677	 0.27140364035229 
1678	 0.270878391648403 
1679	 0.270262818130626 
1680	 0.269610900459801 
1681	 0.268949953731317 
1682	 0.268227076912077 
1683	 0.267425669670944 
1684	 0.26660868359566 
1685	 0.265771431392983 
1686	 0.264882779400815 
1687	 0.263941459986568 
1688	 0.262944351193869 
1689	 0.261875479982687 
1690	 0.260821423239536 
1691	 0.259737462779588 
1692	 0.25864255392226 
1693	 0.257589873769521 
1694	 0.256419555004795 
1695	 0.255138029812606 
1696	 0.253890047178186 
1697	 0.2526035700475 
1698	 0.251308789728276 
1699	 0.250031797507748 
1700	 0.248716953557652 
1701	 0.247324970535807 
1702	 0.246042315725735 
1703	 0.244760678455731 
1704	 0.243570538046061 
1705	 0.242431586242266 
1706	 0.241364192980531 
1707	 0.240443188282182 
1708	 0.239567218335209 
1709	 0.23871829148695 
1710	 0.23795931881324 
1711	 0.23724186568973 
1712	 0.236554767200184 
1713	 0.235963268980452 
1714	 0.235418047954138 
1715	 0.234907448775173 
1716	 0.234407122252243 
1717	 0.233956686333282 
1718	 0.233605525826193 
1719	 0.233167673508336 
1720	 0.232786421959068 
1721	 0.232553820645471 
1722	 0.232237693818118 
1723	 0.232025323691318 
1724	 0.231964550620533 
1725	 0.231921137819496 
1726	 0.231915648978464 
1727	 0.232054533941651 
1728	 0.232298367721156 
1729	 0.23260478534592 
1730	 0.233168397381506 
1731	 0.233770126557606 
1732	 0.234417692193189 
1733	 0.235237970612597 
1734	 0.236059777552059 
1735	 0.236907064478386 
1736	 0.237739222378594 
1737	 0.238503804943862 
1738	 0.239188039255731 
1739	 0.239740859725103 
1740	 0.240145852287618 
1741	 0.24054261930804 
1742	 0.240860409590294 
1743	 0.241157118579092 
1744	 0.241479389136086 
1745	 0.241664743302813 
1746	 0.241696487535979 
1747	 0.241762023347397 
1748	 0.241746046959901 
1749	 0.241795422418275 
1750	 0.241826040364266 
1751	 0.241972944385041 
1752	 0.24219456990378 
1753	 0.242434205727376 
1754	 0.242732477869217 
1755	 0.243083682839375 
1756	 0.243404536279106 
1757	 0.243885764755233 
1758	 0.244594688874783 
1759	 0.245382455954505 
1760	 0.246187710677113 
1761	 0.247044516051001 
1762	 0.247854705462457 
1763	 0.248723059456221 
1764	 0.249739803902859 
1765	 0.250904523109501 
1766	 0.25227212596399 
1767	 0.253610060301418 
1768	 0.254887810446917 
1769	 0.256128535529596 
1770	 0.257206154246274 
1771	 0.258357253814412 
1772	 0.259563177243623 
1773	 0.260705210313499 
1774	 0.261928810046192 
1775	 0.263037399548535 
1776	 0.264001317440962 
1777	 0.264913083147096 
1778	 0.265638838715521 
1779	 0.26631056881243 
1780	 0.267010726169436 
1781	 0.267710042591357 
1782	 0.268454605554691 
1783	 0.269148964247035 
1784	 0.269773609783445 
1785	 0.270358133315619 
1786	 0.270918881661937 
1787	 0.271488089269682 
1788	 0.271988731380817 
1789	 0.272358742614748 
1790	 0.272838775544535 
1791	 0.273367760142421 
1792	 0.27385935850716 
1793	 0.27441017178098 
1794	 0.274957923758576 
1795	 0.275348655427824 
1796	 0.275758798162997 
1797	 0.276217829073455 
1798	 0.276474797465995 
1799	 0.276703443905549 
1800	 0.277073700760556 
1801	 0.277657194920413 
1802	 0.277902000343787 
1803	 0.278310447534053 
1804	 0.27880554914462 
1805	 0.279271452841372 
1806	 0.279712093596586 
1807	 0.280261104612676 
1808	 0.280671602300774 
1809	 0.280915827889163 
1810	 0.281282498542195 
1811	 0.281660771760468 
1812	 0.282063510138775 
1813	 0.28249721654781 
1814	 0.282980859830368 
1815	 0.283446786057337 
1816	 0.283894720274424 
1817	 0.284310687095393 
1818	 0.284654501191693 
1819	 0.285085150311927 
1820	 0.285522121667082 
1821	 0.285977646931275 
1822	 0.28646647249332 
1823	 0.287033439909993 
1824	 0.287477115570826 
1825	 0.287927290327512 
1826	 0.288373232887764 
1827	 0.288763175968307 
1828	 0.289201292700132 
1829	 0.28968049693518 
1830	 0.290118119452571 
1831	 0.290505026278943 
1832	 0.290995115113996 
1833	 0.29153068811195 
1834	 0.292032900157585 
1835	 0.292489829330498 
1836	 0.292851540371805 
1837	 0.29322086710041 
1838	 0.293456076823714 
1839	 0.293798612887284 
1840	 0.294192367397003 
1841	 0.294620897277657 
1842	 0.295094096424332 
1843	 0.295521092241972 
1844	 0.296015381901676 
1845	 0.296377529120931 
1846	 0.296654489903421 
1847	 0.29697982315066 
1848	 0.2972814292524 
1849	 0.297567794889589 
1850	 0.29784915268793 
1851	 0.298166961233012 
1852	 0.298372366721544 
1853	 0.298524690575902 
1854	 0.298675063725582 
1855	 0.298761329215443 
1856	 0.298829685415027 
1857	 0.298881158779657 
1858	 0.298913747489866 
1859	 0.298912226892905 
1860	 0.298844055254761 
1861	 0.298789003907383 
1862	 0.298733017906152 
1863	 0.298662833660572 
1864	 0.298555189742988 
1865	 0.298451670368597 
1866	 0.298231100036947 
1867	 0.297934389323789 
1868	 0.297617183604756 
1869	 0.297234044628172 
1870	 0.296807520863567 
1871	 0.296374707053382 
1872	 0.295865554451494 
1873	 0.295290799056949 
1874	 0.294677868463879 
1875	 0.29398978338459 
1876	 0.293126059449997 
1877	 0.292210352645484 
1878	 0.291228505935777 
1879	 0.290130249825832 
1880	 0.288999763645285 
1881	 0.287778073361467 
1882	 0.286469943501988 
1883	 0.285044532394908 
1884	 0.283511186717683 
1885	 0.281869986117219 
1886	 0.280191556072374 
1887	 0.278321719432799 
1888	 0.27627012626675 
1889	 0.274196378781441 
1890	 0.271855055261644 
1891	 0.269442941903313 
1892	 0.267037565754283 
1893	 0.264486621176812 
1894	 0.261786744517194 
1895	 0.259134988525872 
1896	 0.256335639566705 
1897	 0.253370217023223 
1898	 0.250653676065537 
1899	 0.247896427021411 
1900	 0.245161514878227 
1901	 0.242587525955414 
1902	 0.239872652121579 
1903	 0.237276430776431 
1904	 0.23478764355589 
1905	 0.232347601530669 
1906	 0.23001728550284 
1907	 0.228022379944001 
1908	 0.226142118498094 
1909	 0.224436126509803 
1910	 0.222983555934491 
1911	 0.221558969094062 
1912	 0.220241937039456 
1913	 0.219043320421737 
1914	 0.2179260993541 
1915	 0.216950239378387 
1916	 0.216121391411414 
1917	 0.215358686968975 
1918	 0.214703511608293 
1919	 0.214192626182853 
1920	 0.213745005768602 
1921	 0.213357400892618 
1922	 0.212993968238795 
1923	 0.212688651243809 
1924	 0.212383723598478 
1925	 0.212142037450066 
1926	 0.211956262278377 
1927	 0.211809403624956 
1928	 0.211701702904566 
1929	 0.211677608587085 
1930	 0.211653918057356 
1931	 0.21159169270568 
1932	 0.211575886293762 
1933	 0.211603261327529 
1934	 0.211645423589344 
1935	 0.211719579362013 
1936	 0.211902889711317 
1937	 0.212094682758024 
1938	 0.212253341621202 
1939	 0.212542009021216 
1940	 0.212917689840262 
1941	 0.213362624862823 
1942	 0.213809652189737 
1943	 0.214270970145804 
1944	 0.2147726486886 
1945	 0.21525377573438 
1946	 0.21579028057555 
1947	 0.21640977689054 
1948	 0.217070810605501 
1949	 0.217765465317527 
1950	 0.218459163098832 
1951	 0.219176226404784 
1952	 0.219945435932638 
1953	 0.220724125956065 
1954	 0.22151856436445 
1955	 0.22248319550342 
1956	 0.223396930633182 
1957	 0.224356593202219 
1958	 0.225396507579227 
1959	 0.2262277945587 
1960	 0.227071905791562 
1961	 0.227913273623163 
1962	 0.228666000590108 
1963	 0.229459608159778 
1964	 0.230316882734926 
1965	 0.231097700204515 
1966	 0.231871501147759 
1967	 0.232591788121203 
1968	 0.23317434672756 
1969	 0.23380898487406 
1970	 0.234422243275551 
1971	 0.234990028932391 
1972	 0.235646395690695 
1973	 0.236376437234285 
1974	 0.237078140656988 
1975	 0.237797449899994 
1976	 0.238497399421581 
1977	 0.239175114397761 
1978	 0.23988486233481 
1979	 0.240595054768627 
1980	 0.241325103065486 
1981	 0.242085422062826 
1982	 0.24280873793657 
1983	 0.24353462229435 
1984	 0.244228890088291 
1985	 0.244877742237372 
1986	 0.245592758235828 
1987	 0.246317913191715 
1988	 0.247017374475527 
1989	 0.247797923489991 
1990	 0.248648865005156 
1991	 0.24947970673984 
1992	 0.250332097681017 
1993	 0.251220439792329 
1994	 0.252059995293677 
1995	 0.253011901942091 
1996	 0.253997099301278 
1997	 0.254969332573803 
1998	 0.255933092530182 
1999	 0.256914250620804 
2000	 0.25788263418534 
2001	 0.258883071757769 
2002	 0.259774587596407 
2003	 0.260674331361247 
2004	 0.261465732025705 
2005	 0.262069518131392 
2006	 0.262761435511372 
2007	 0.263474789280616 
2008	 0.264107763979791 
2009	 0.264770568281658 
2010	 0.265484254705355 
2011	 0.266048209173946 
2012	 0.266596386214985 
2013	 0.267093414481325 
2014	 0.267522492309357 
2015	 0.267909951265368 
2016	 0.268229765978397 
2017	 0.268565310332622 
2018	 0.268888164982221 
2019	 0.269174654039706 
2020	 0.269455183884412 
2021	 0.269703250891422 
2022	 0.269855971962697 
2023	 0.270033433734071 
2024	 0.270185467855652 
2025	 0.270312645039003 
2026	 0.270421062270446 
2027	 0.270504450831766 
2028	 0.270569789017031 
2029	 0.270621683626286 
2030	 0.270644463618019 
2031	 0.27067117905344 
2032	 0.27064291357406 
2033	 0.270519756355647 
2034	 0.270447027932763 
2035	 0.270384181402588 
2036	 0.270279763369316 
2037	 0.270181426680714 
2038	 0.270140432720069 
2039	 0.270082897767841 
2040	 0.270016003580177 
2041	 0.269938835525958 
2042	 0.269898193845452 
2043	 0.269786893802059 
2044	 0.269595990309554 
2045	 0.269478885297156 
2046	 0.269321190022182 
2047	 0.269257209694391 
2048	 0.269304602431152 
2049	 0.269290265445062 
2050	 0.269287991721493 
2051	 0.269302364828416 
2052	 0.269263591285378 
2053	 0.269272459859318 
2054	 0.269257808866278 
2055	 0.269253185682783 
2056	 0.269239151208681 
2057	 0.26921669608287 
2058	 0.269161706820058 
2059	 0.269116941358818 
2060	 0.269050201671194 
2061	 0.26892084639008 
2062	 0.268832307083592 
2063	 0.268732540710703 
2064	 0.268663652918001 
2065	 0.268597235004006 
2066	 0.268608918989308 
2067	 0.268564909304434 
2068	 0.26848597801118 
2069	 0.268471746285554 
2070	 0.268466175451384 
2071	 0.268442271333704 
2072	 0.268504545534038 
2073	 0.268452907558272 
2074	 0.268290347509505 
2075	 0.26818198784567 
2076	 0.268046696960579 
2077	 0.267942693666555 
2078	 0.267887041837942 
2079	 0.267790180728409 
2080	 0.267702440559906 
2081	 0.267575027171056 
2082	 0.267392252580242 
2083	 0.26720211295655 
2084	 0.267076869747398 
2085	 0.266989914596605 
2086	 0.266872181927686 
2087	 0.266835435560954 
2088	 0.266680452756847 
2089	 0.26641229613566 
2090	 0.266207883117496 
2091	 0.265978388455948 
2092	 0.265775618197038 
2093	 0.265636825580239 
2094	 0.265444414264626 
2095	 0.265224576296612 
2096	 0.265007878258892 
2097	 0.264786068741937 
2098	 0.264522939075961 
2099	 0.264274390467184 
2100	 0.264012597012174 
2101	 0.263757365777595 
2102	 0.263487788409576 
2103	 0.2632293233691 
2104	 0.262989812825963 
2105	 0.26271834860498 
2106	 0.262433022905634 
2107	 0.262149911771388 
2108	 0.261891431773462 
2109	 0.261554724149457 
2110	 0.26119747701203 
2111	 0.260797017249211 
2112	 0.260267381888317 
2113	 0.259818186704473 
2114	 0.259385372682509 
2115	 0.258957337126281 
2116	 0.258576500101216 
2117	 0.258173405282091 
2118	 0.257762416730494 
2119	 0.257339953650736 
2120	 0.256920552849551 
2121	 0.256493044323511 
2122	 0.256078057802271 
2123	 0.255661805456506 
2124	 0.255269921523949 
2125	 0.254873435612631 
2126	 0.254523584891243 
2127	 0.254200448991022 
2128	 0.253889463916119 
2129	 0.253597496194983 
2130	 0.253338865550395 
2131	 0.253120534674308 
2132	 0.252910175225016 
2133	 0.252722868036892 
2134	 0.252574224412429 
2135	 0.252360097680985 
2136	 0.252186134539423 
2137	 0.252057528154172 
2138	 0.251959314630019 
2139	 0.25184531037534 
2140	 0.251793448961649 
2141	 0.251674937539094 
2142	 0.251475512263154 
2143	 0.251381221243648 
2144	 0.251299581687332 
2145	 0.251263730284714 
2146	 0.251322232142089 
2147	 0.251330667413093 
2148	 0.251314756064492 
2149	 0.251357941058388 
2150	 0.251377428611695 
2151	 0.251483861422691 
2152	 0.251736804630633 
2153	 0.251904147743392 
2154	 0.252025972816207 
2155	 0.252202505182492 
2156	 0.252358702064244 
2157	 0.252474859896513 
2158	 0.252597596849978 
2159	 0.252772050988677 
2160	 0.25286420234423 
2161	 0.252884490374321 
2162	 0.252910343270628 
2163	 0.252884004300688 
2164	 0.2529258685159 
2165	 0.25299123232309 
2166	 0.253042551693895 
2167	 0.253135437789682 
2168	 0.253208423143675 
2169	 0.253252965184409 
2170	 0.253293970729164 
2171	 0.253364856671177 
2172	 0.253388028959861 
2173	 0.253380072307372 
2174	 0.253336067128946 
2175	 0.253270627899013 
2176	 0.253282579685507 
2177	 0.253311446483112 
2178	 0.253394119535653 
2179	 0.253428635631383 
2180	 0.253485540253978 
2181	 0.253496986348607 
2182	 0.253454043499237 
2183	 0.253440857314136 
2184	 0.253442077349297 
2185	 0.253414803212787 
2186	 0.253407252382925 
2187	 0.253335245270907 
2188	 0.253198952750794 
2189	 0.253074933755463 
2190	 0.252907641262685 
2191	 0.252766720304317 
2192	 0.252646598617668 
2193	 0.252510179393979 
2194	 0.252463595583342 
2195	 0.252248547717842 
2196	 0.251925037153848 
2197	 0.251575087189324 
2198	 0.251162172862373 
2199	 0.250711534714401 
2200	 0.25038237057331 
2201	 0.250174286118576 
2202	 0.249850762633432 
2203	 0.249524297536563 
2204	 0.249180569495163 
2205	 0.248788050940088 
2206	 0.248396678851144 
2207	 0.247998203589698 
2208	 0.247624413964002 
2209	 0.247255566520268 
2210	 0.246838535015345 
2211	 0.246439209576105 
2212	 0.2460108281717 
2213	 0.24543184974731 
2214	 0.245038149901992 
2215	 0.244798546697674 
2216	 0.244460283404477 
2217	 0.244278427940582 
2218	 0.243872135167335 
2219	 0.243182801585626 
2220	 0.242646360220299 
2221	 0.24207185818413 
2222	 0.241526030037925 
2223	 0.241080483381921 
2224	 0.240679395638764 
2225	 0.240155968937214 
2226	 0.239593374187543 
2227	 0.23894978204005 
2228	 0.238286715640681 
2229	 0.237440434954187 
2230	 0.236419235902617 
2231	 0.23546448787452 
2232	 0.234507920292015 
2233	 0.233306013353317 
2234	 0.232043157037452 
2235	 0.230668387662366 
2236	 0.229036583007741 
2237	 0.22740605384643 
2238	 0.225693247257933 
2239	 0.224016705393905 
2240	 0.222270926029343 
2241	 0.220489142790425 
2242	 0.21886698645655 
2243	 0.216971781794567 
2244	 0.214814620791062 
2245	 0.212700687236017 
2246	 0.210396486037663 
2247	 0.208200910557159 
2248	 0.206087447196242 
2249	 0.203908626640478 
2250	 0.201743309049217 
2251	 0.199557607259413 
2252	 0.197228651550703 
2253	 0.194944985007344 
2254	 0.192629017424588 
2255	 0.190295502628074 
2256	 0.188200773071329 
2257	 0.186162558685873 
2258	 0.184179342174271 
2259	 0.182381037734529 
2260	 0.180467094141664 
2261	 0.178492976966964 
2262	 0.176643201700146 
2263	 0.174805458957526 
2264	 0.173070696043223 
2265	 0.171462676372673 
2266	 0.169812823068467 
2267	 0.168280708368752 
2268	 0.166607690478399 
2269	 0.164821057123257 
2270	 0.163183122086805 
2271	 0.161485587948089 
2272	 0.159909104931948 
2273	 0.15852853472043 
2274	 0.157056717002162 
2275	 0.155641598887326 
2276	 0.15412219637571 
2277	 0.152574797240859 
2278	 0.150962877458471 
2279	 0.149254549337616 
2280	 0.147524822348957 
2281	 0.145594664643655 
2282	 0.143891883039458 
2283	 0.142376161926556 
2284	 0.140723515752721 
2285	 0.138950126923757 
2286	 0.137329435062399 
2287	 0.135432547482304 
2288	 0.133425376368035 
2289	 0.131716451541953 
2290	 0.129850842187488 
2291	 0.128018603210591 
2292	 0.126407516102643 
2293	 0.124734987473548 
2294	 0.123247623661432 
2295	 0.121685429723325 
2296	 0.120160438812139 
2297	 0.118910019651681 
2298	 0.117778110621976 
2299	 0.116857845117284 
2300	 0.116181490038652 
2301	 0.115632833256375 
2302	 0.115228126920948 
2303	 0.11510416737274 
2304	 0.11526408601209 
2305	 0.115532943566515 
2306	 0.116066076984605 
2307	 0.116547882062001 
2308	 0.116997464662925 
2309	 0.117864297081423 
2310	 0.118992269581807 
2311	 0.120162046889216 
2312	 0.121784763937637 
2313	 0.123082781704396 
2314	 0.124203047053713 
2315	 0.125441626927363 
2316	 0.126702057540845 
2317	 0.1279321407692 
2318	 0.12926908893121 
2319	 0.130413804227468 
2320	 0.131508294157487 
2321	 0.132386355420481 
2322	 0.133093748813002 
2323	 0.133685287954001 
2324	 0.134052628553712 
2325	 0.134410221354164 
2326	 0.134778848703673 
2327	 0.134907266665191 
2328	 0.134788282058299 
2329	 0.134655989194482 
2330	 0.134411664456817 
2331	 0.133982020771732 
2332	 0.133554060604764 
2333	 0.133274186254341 
2334	 0.132629307355642 
2335	 0.131830826279756 
2336	 0.130834066984045 
2337	 0.129718353884017 
2338	 0.128886301663036 
2339	 0.127769330171711 
2340	 0.126738118775139 
2341	 0.125994911714398 
2342	 0.12485176117454 
2343	 0.124018920701798 
2344	 0.12356467120595 
2345	 0.123056754718169 
2346	 0.123038246932846 
2347	 0.123377560070906 
2348	 0.123768412430938 
2349	 0.124061186427515 
2350	 0.124276027351584 
2351	 0.124734870707562 
2352	 0.125355234663508 
2353	 0.126541729915429 
2354	 0.127912456371001 
2355	 0.128840092173226 
2356	 0.129583941233433 
2357	 0.130236001819518 
2358	 0.130841612188157 
2359	 0.131348060182065 
2360	 0.131739982078598 
2361	 0.131873222912668 
2362	 0.132120458700502 
2363	 0.13243711497857 
2364	 0.132544260976914 
2365	 0.132815747657807 
2366	 0.132750066985327 
2367	 0.132436035404745 
2368	 0.132503952757188 
2369	 0.132313829813277 
2370	 0.131832487425865 
2371	 0.131722142647366 
2372	 0.131551535169175 
2373	 0.131413948419611 
2374	 0.131642287221172 
2375	 0.13167163291364 
2376	 0.131678218085537 
2377	 0.131782693039157 
2378	 0.131833752126544 
2379	 0.131904768637893 
2380	 0.131929660464032 
2381	 0.131938295656187 
2382	 0.131999955450012 
2383	 0.132112265422356 
2384	 0.132141115510976 
2385	 0.132144037914177 
2386	 0.132222776936625 
2387	 0.132304406974584 
2388	 0.132299480050685 
2389	 0.132319159240201 
2390	 0.132278683376711 
2391	 0.132017723480311 
2392	 0.132078780010759 
2393	 0.132432797741286 
2394	 0.132636203787689 
2395	 0.132813157494638 
2396	 0.132986886115927 
2397	 0.133115256366736 
2398	 0.133062846606988 
2399	 0.132929183372429 
2400	 0.133188298208555 
2401	 0.133578573844952 
2402	 0.133922468045187 
2403	 0.134085044632358 
2404	 0.133913541532681 
2405	 0.133797566707317 
2406	 0.133594188327017 
2407	 0.133461083768358 
2408	 0.133762471575725 
2409	 0.133553064922288 
2410	 0.133199393277154 
2411	 0.133128793905819 
2412	 0.132763553900453 
2413	 0.132787453399611 
2414	 0.133471951198463 
2415	 0.134033491512129 
2416	 0.134502353001845 
2417	 0.135025677201046 
2418	 0.134920775645047 
2419	 0.1343306600018 
2420	 0.134066261269972 
2421	 0.134285189227387 
2422	 0.134491584661464 
2423	 0.134720304192017 
2424	 0.134738975757908 
2425	 0.13385642559127 
2426	 0.133090896009111 
2427	 0.132954944893011 
2428	 0.133045486315174 
2429	 0.133225425170487 
2430	 0.133297032991698 
2431	 0.133671400161035 
2432	 0.133959828573366 
2433	 0.133702895678073 
2434	 0.133402123703287 
2435	 0.132942850339957 
2436	 0.132273187733823 
2437	 0.132412790523439 
2438	 0.132655199210008 
2439	 0.132336194286136 
2440	 0.132241360115812 
2441	 0.131562746150892 
2442	 0.131189696008684 
2443	 0.13094431948268 
2444	 0.130498326328771 
2445	 0.1307787025902 
2446	 0.12998914551672 
2447	 0.129542490435441 
2448	 0.129893517187916 
2449	 0.129609710991793 
2450	 0.129784123878604 
2451	 0.129930689630916 
2452	 0.129669268294208 
2453	 0.128741299852177 
2454	 0.128062950257863 
2455	 0.127976582529172 
2456	 0.126969552436786 
2457	 0.12633615618455 
2458	 0.126114722596697 
2459	 0.125621701085447 
2460	 0.125439327454751 
2461	 0.125285107791064 
2462	 0.125182889049309 
2463	 0.124748665146033 
2464	 0.123934426449949 
2465	 0.124012566846565 
2466	 0.124276220594757 
2467	 0.123854954438766 
2468	 0.12392587993662 
2469	 0.123754219546943 
2470	 0.122878230834514 
2471	 0.12271179357465 
2472	 0.122839915571138 
2473	 0.122682963976056 
2474	 0.12298052381288 
2475	 0.122540011509042 
2476	 0.121875706744277 
2477	 0.122008422288494 
2478	 0.12156075120661 
2479	 0.121151078157585 
2480	 0.120714794993834 
2481	 0.120215498960082 
2482	 0.118929823293595 
2483	 0.119837200746692 
2484	 0.120612767053675 
2485	 0.121558745442954 
2486	 0.122219907625424 
2487	 0.122315404010746 
2488	 0.122469086643202 
2489	 0.122419874889115 
2490	 0.1228734906075 
2491	 0.123112304690739 
2492	 0.122746892898378 
2493	 0.122508962700832 
2494	 0.122365276750321 
2495	 0.121028664318884 
2496	 0.120507724848486 
2497	 0.121544770902505 
2498	 0.122134095961654 
2499	 0.124352989546788 
2500	 0.12656892197059 
