Wavelength	Tablay400035.asd
350	 0.145919598917698 
351	 0.246018229570895 
352	 0.227601548309887 
353	 7.06155715348942E-02 
354	 6.63707839895474E-02 
355	 0.132843952805543 
356	 0.172067700857439 
357	 0.139870043015342 
358	 0.144019555471044 
359	 0.13997908434176 
360	 0.14812136789946 
361	 0.200493352583502 
362	 0.150823173482892 
363	 0.100797397850626 
364	 0.110279414960113 
365	 0.124280026523442 
366	 0.109416320958244 
367	 0.107316689162061 
368	 0.143646776393809 
369	 0.132124771908863 
370	 0.106111722623703 
371	 8.82685314291676E-02 
372	 9.61511485173461E-02 
373	 0.10149266903162 
374	 8.53867017568509E-02 
375	 6.21303333226304E-02 
376	 8.92678152879669E-02 
377	 0.10483190865744 
378	 0.105472629302091 
379	 9.70421789453412E-02 
380	 5.16628752095784E-02 
381	 5.78279394180755E-02 
382	 0.111599232342805 
383	 0.149656734356957 
384	 8.41454390386785E-02 
385	 3.64582685889867E-02 
386	 6.02468741015645E-02 
387	 7.45582564150095E-02 
388	 0.108219154630068 
389	 0.115960419934741 
390	 7.45727399930816E-02 
391	 0.100513853265899 
392	 9.56260301793822E-02 
393	 0.060522083849683 
394	 5.54259759604346E-02 
395	 7.38686045884316E-02 
396	 7.41507697252383E-02 
397	 0.052833838177477 
398	 7.01182459147501E-02 
399	 0.070294844146747 
400	 6.94433886532047E-02 
401	 8.84957030412819E-02 
402	 0.083598456220294 
403	 7.24415530101216E-02 
404	 6.83982682946545E-02 
405	 7.74893088750527E-02 
406	 8.46359131059848E-02 
407	 8.42003948464689E-02 
408	 7.62890464765341E-02 
409	 6.58714992626105E-02 
410	 6.77394328475733E-02 
411	 7.22362815248149E-02 
412	 6.62172969928618E-02 
413	 6.19924599541378E-02 
414	 5.53032295508506E-02 
415	 5.08546880267607E-02 
416	 6.00506298072178E-02 
417	 5.66333466315024E-02 
418	 5.42553792260994E-02 
419	 6.17193139177043E-02 
420	 6.11229046854401E-02 
421	 5.90312891799706E-02 
422	 5.80580454374098E-02 
423	 5.83721124517121E-02 
424	 5.28807333916022E-02 
425	 0.050970529182402 
426	 5.38155041150733E-02 
427	 0.052433387941644 
428	 5.68535100566322E-02 
429	 6.01431165638539E-02 
430	 5.70556560768315E-02 
431	 5.74726842802374E-02 
432	 5.63557797046354E-02 
433	 5.39955268942276E-02 
434	 5.32344383649271E-02 
435	 0.052054920760011 
436	 5.42327674231185E-02 
437	 5.86371013897095E-02 
438	 5.60793076567441E-02 
439	 5.34711082565991E-02 
440	 5.28629889381939E-02 
441	 5.41778048468065E-02 
442	 5.47465948359688E-02 
443	 5.59001435505224E-02 
444	 5.59963460442348E-02 
445	 5.16784150641981E-02 
446	 4.95670517785022E-02 
447	 5.05790560494102E-02 
448	 5.30775452081276E-02 
449	 5.22815889362749E-02 
450	 0.050404878478592 
451	 4.96866909025749E-02 
452	 5.17060561454956E-02 
453	 5.39715247004273E-02 
454	 5.38706150365735E-02 
455	 5.21794407844379E-02 
456	 5.30822342225124E-02 
457	 5.17293863587435E-02 
458	 5.08504820281038E-02 
459	 5.22373478238597E-02 
460	 5.01980200675348E-02 
461	 4.90444872274474E-02 
462	 4.91631299488853E-02 
463	 4.88887110472477E-02 
464	 4.85464818946556E-02 
465	 4.82248521843944E-02 
466	 4.82119040981842E-02 
467	 4.91606274317423E-02 
468	 4.92739326895238E-02 
469	 4.89168231794878E-02 
470	 4.90668959964461E-02 
471	 5.08037300777093E-02 
472	 4.96189965164008E-02 
473	 4.70719668331723E-02 
474	 4.88478321446336E-02 
475	 4.81551187310927E-02 
476	 4.72832731116417E-02 
477	 4.80575809234671E-02 
478	 4.84930535243869E-02 
479	 4.73659209257625E-02 
480	 4.65593175619828E-02 
481	 4.81714074326242E-02 
482	 4.76350763555103E-02 
483	 4.71238800131393E-02 
484	 4.74198661169672E-02 
485	 4.72714099923647E-02 
486	 4.72969421017192E-02 
487	 4.70219708809793E-02 
488	 4.63968867057109E-02 
489	 0.0475198738142 
490	 4.69520045169538E-02 
491	 4.56675253962347E-02 
492	 4.66577710012626E-02 
493	 4.60783988288726E-02 
494	 4.63728737867842E-02 
495	 4.78218229982818E-02 
496	 4.59738116657928E-02 
497	 4.62457678153316E-02 
498	 4.71648435591458E-02 
499	 4.62776331762043E-02 
500	 4.66576516742778E-02 
501	 0.046230821647692 
502	 4.53092086397311E-02 
503	 4.61636053953101E-02 
504	 4.55683422586273E-02 
505	 4.49569853122274E-02 
506	 4.54942759732033E-02 
507	 4.58916884973251E-02 
508	 4.56855673688197E-02 
509	 4.53602282934738E-02 
510	 4.56722272642866E-02 
511	 4.59608931953954E-02 
512	 0.045702939455635 
513	 4.50861993618175E-02 
514	 4.51296145517563E-02 
515	 0.04583901094457 
516	 4.63547243789403E-02 
517	 4.60108333296053E-02 
518	 4.55383381101729E-02 
519	 4.51820536811839E-02 
520	 4.51625948461692E-02 
521	 4.55929104324981E-02 
522	 4.56897490929119E-02 
523	 4.54342124401737E-02 
524	 4.51669116819834E-02 
525	 4.58012708358151E-02 
526	 4.55642903213564E-02 
527	 4.49959123666231E-02 
528	 4.52297437303128E-02 
529	 4.59016452671817E-02 
530	 4.57246628876414E-02 
531	 4.49753151004232E-02 
532	 4.55236139647538E-02 
533	 4.57566083378755E-02 
534	 4.58120802677757E-02 
535	 4.60120296739339E-02 
536	 4.61273901102067E-02 
537	 4.61587422413935E-02 
538	 4.61737298239735E-02 
539	 0.046266648614362 
540	 4.64330153092436E-02 
541	 4.63420106707556E-02 
542	 4.60115147388217E-02 
543	 0.046047221266163 
544	 4.62056937175453E-02 
545	 4.62804849023143E-02 
546	 0.046162501617471 
547	 4.61034427794828E-02 
548	 4.64529046319019E-02 
549	 4.68428930317274E-02 
550	 4.63673053025043E-02 
551	 4.63385298467678E-02 
552	 4.65799772134011E-02 
553	 4.67457275753675E-02 
554	 4.67956535664038E-02 
555	 4.67470190036183E-02 
556	 4.67483645354383E-02 
557	 4.69479974461599E-02 
558	 4.69706170419665E-02 
559	 4.70888925459809E-02 
560	 4.73779276101928E-02 
561	 4.75676277339722E-02 
562	 4.74221568404065E-02 
563	 4.73428072246175E-02 
564	 4.76469228939921E-02 
565	 0.047611872503948 
566	 4.78505184091191E-02 
567	 4.81702988640337E-02 
568	 4.78845779729822E-02 
569	 4.82481428582648E-02 
570	 4.84622871699072E-02 
571	 4.81584257449174E-02 
572	 4.85604167666742E-02 
573	 4.86479173984741E-02 
574	 4.85274822950653E-02 
575	 4.86277195502278E-02 
576	 4.86534092804301E-02 
577	 4.85805945057299E-02 
578	 4.85783301435601E-02 
579	 0.048992913878461 
580	 0.049184392570993 
581	 4.93778463460424E-02 
582	 4.97081922977356E-02 
583	 4.93213244440929E-02 
584	 4.93158511031041E-02 
585	 4.96948526528389E-02 
586	 4.98251877557424E-02 
587	 4.97745572173471E-02 
588	 4.97941231762963E-02 
589	 0.049938016052021 
590	 4.98908967947247E-02 
591	 5.00262991575374E-02 
592	 5.02192986165446E-02 
593	 5.02527935250381E-02 
594	 5.01884667493751E-02 
595	 5.02656441238226E-02 
596	 5.04882786516698E-02 
597	 5.06465642147277E-02 
598	 5.05469024920644E-02 
599	 5.05600227244685E-02 
600	 5.08324641110025E-02 
601	 5.07100282061594E-02 
602	 5.07054529185779E-02 
603	 5.08286152225542E-02 
604	 5.08844806699452E-02 
605	 5.08465819756671E-02 
606	 5.08756248073584E-02 
607	 0.051017346607629 
608	 5.11572244960122E-02 
609	 5.12409097813582E-02 
610	 5.12065440945729E-02 
611	 5.10670617306921E-02 
612	 5.10212720880215E-02 
613	 0.051263799926956 
614	 5.15841855536236E-02 
615	 5.15565795625361E-02 
616	 5.14352238369663E-02 
617	 5.13770125909001E-02 
618	 5.14079324290239E-02 
619	 0.051332747244732 
620	 5.14907602108044E-02 
621	 5.17013319682575E-02 
622	 0.051703555516687 
623	 5.17438663590935E-02 
624	 5.17906733128693E-02 
625	 0.051831096328877 
626	 5.18807610275308E-02 
627	 5.20073152272759E-02 
628	 5.20216929441916E-02 
629	 0.051876135956287 
630	 0.051996132691962 
631	 5.20572299539194E-02 
632	 5.20525821107503E-02 
633	 5.21010304367541E-02 
634	 5.21712271538479E-02 
635	 5.21761145099988E-02 
636	 5.21691726671216E-02 
637	 5.23768370625787E-02 
638	 5.23243251205377E-02 
639	 5.22705409028716E-02 
640	 5.24751230268211E-02 
641	 0.052620535242883 
642	 5.25169330280772E-02 
643	 5.23884020928559E-02 
644	 5.26150518818106E-02 
645	 5.23866929595067E-02 
646	 5.23619432847781E-02 
647	 5.27107344164452E-02 
648	 5.25113382728936E-02 
649	 5.26124840438278E-02 
650	 0.05279169423296 
651	 5.26893240015852E-02 
652	 5.28006930982105E-02 
653	 5.29052999186326E-02 
654	 5.29038048469709E-02 
655	 5.28251567917328E-02 
656	 5.28124453755863E-02 
657	 5.29299964731447E-02 
658	 5.31188350069318E-02 
659	 5.30928856430481E-02 
660	 5.31000197231436E-02 
661	 5.31454664036164E-02 
662	 5.31574776136535E-02 
663	 0.053141588463333 
664	 5.32050872378447E-02 
665	 5.33350545391163E-02 
666	 5.33972854173277E-02 
667	 5.34413344456418E-02 
668	 5.34097110593228E-02 
669	 5.33204722011269E-02 
670	 5.34337177739451E-02 
671	 5.35760755601462E-02 
672	 5.35998951151825E-02 
673	 5.34381298747183E-02 
674	 5.34466522006969E-02 
675	 5.35909113878644E-02 
676	 0.053763632720795 
677	 5.38195599700287E-02 
678	 5.36579068833284E-02 
679	 5.35814237625974E-02 
680	 5.37704627786614E-02 
681	 5.37385392220689E-02 
682	 0.053798421538411 
683	 5.39104535893077E-02 
684	 5.38776260408424E-02 
685	 5.38868147643755E-02 
686	 5.39697707646289E-02 
687	 5.40668450713125E-02 
688	 5.40179277181898E-02 
689	 5.39862974290072E-02 
690	 5.40122972307695E-02 
691	 5.40850653906457E-02 
692	 5.41459032016731E-02 
693	 5.41921263010568E-02 
694	 5.42239719337592E-02 
695	 5.42485288998618E-02 
696	 5.43175931665234E-02 
697	 5.43341222682555E-02 
698	 5.42904791491555E-02 
699	 0.054341146786568 
700	 5.44483764832288E-02 
701	 5.45884816120252E-02 
702	 5.47144880254409E-02 
703	 5.46892466644466E-02 
704	 0.054677174769275 
705	 5.47271469111733E-02 
706	 5.47961817494047E-02 
707	 5.48337293014141E-02 
708	 5.48641971832201E-02 
709	 5.49244226814089E-02 
710	 5.50631239758076E-02 
711	 5.49953015570434E-02 
712	 5.49362040477809E-02 
713	 5.51032240144951E-02 
714	 5.50754424946446E-02 
715	 5.51638677406021E-02 
716	 5.53301545633963E-02 
717	 5.53069578553395E-02 
718	 5.53166921137118E-02 
719	 5.54128527717142E-02 
720	 5.55408068448785E-02 
721	 5.54997444849408E-02 
722	 5.55665721858032E-02 
723	 5.56759722816942E-02 
724	 5.57179783853805E-02 
725	 0.055848347885151 
726	 5.59606418276006E-02 
727	 5.59564946634682E-02 
728	 5.57983660254231E-02 
729	 5.59365951084365E-02 
730	 5.60753698054261E-02 
731	 5.60613453328759E-02 
732	 5.61388901835005E-02 
733	 5.62079909622073E-02 
734	 5.62678068189664E-02 
735	 5.63468609875426E-02 
736	 5.65018918023222E-02 
737	 5.65334744224174E-02 
738	 5.64988836416489E-02 
739	 5.65999761551395E-02 
740	 0.056655159228228 
741	 5.67116269657961E-02 
742	 5.67979216322418E-02 
743	 5.68759716716508E-02 
744	 5.69451787443151E-02 
745	 5.70038095646403E-02 
746	 5.70545001994292E-02 
747	 5.71079391101326E-02 
748	 5.71786144775751E-02 
749	 5.72578483622137E-02 
750	 0.057326924409725 
751	 5.74004262509744E-02 
752	 0.057516949026377 
753	 0.057644606251473 
754	 5.76642608262669E-02 
755	 5.77676893998353E-02 
756	 5.78252397613885E-02 
757	 5.77715506124833E-02 
758	 5.79576799863342E-02 
759	 5.80076294291591E-02 
760	 5.79692469047606E-02 
761	 5.80583988652165E-02 
762	 5.81693567018785E-02 
763	 5.82524210353951E-02 
764	 0.058287833385073 
765	 5.82909923589651E-02 
766	 5.83993383526447E-02 
767	 5.85119459548472E-02 
768	 5.85532973319459E-02 
769	 5.86157705014886E-02 
770	 0.058680441670739 
771	 5.87634324552503E-02 
772	 5.88744811585282E-02 
773	 5.89470668741428E-02 
774	 5.90076042438609E-02 
775	 5.90465786284913E-02 
776	 0.059037105196406 
777	 5.91450598161713E-02 
778	 5.92076403312728E-02 
779	 5.91862639150693E-02 
780	 5.93315367387883E-02 
781	 5.94066795823452E-02 
782	 5.94531212764447E-02 
783	 5.95488672656282E-02 
784	 0.059613750605489 
785	 5.96562627121403E-02 
786	 5.96748565925197E-02 
787	 5.96807596055891E-02 
788	 0.059813339049522 
789	 5.99276138224182E-02 
790	 5.99695730019764E-02 
791	 6.00219933138803E-02 
792	 5.99886624834795E-02 
793	 0.060030187841158 
794	 6.02184592803681E-02 
795	 6.02944989432794E-02 
796	 6.03577860352508E-02 
797	 6.03803196176452E-02 
798	 6.03394797967889E-02 
799	 6.04304922923581E-02 
800	 6.05499470807845E-02 
801	 6.06052093147232E-02 
802	 6.05524757525214E-02 
803	 6.06222101362655E-02 
804	 6.07248434010997E-02 
805	 6.07821709934765E-02 
806	 6.08026970697502E-02 
807	 0.060818702743533 
808	 6.08911326748556E-02 
809	 6.10231513022723E-02 
810	 6.10365017292489E-02 
811	 0.061061519848951 
812	 6.11118898255326E-02 
813	 6.11582618525843E-02 
814	 6.12479830026643E-02 
815	 6.13072779718371E-02 
816	 6.13721570782826E-02 
817	 6.15532639397516E-02 
818	 6.15810149448196E-02 
819	 6.15630471996624E-02 
820	 6.16068548497163E-02 
821	 6.17210944772859E-02 
822	 0.061727026962836 
823	 6.17145442389777E-02 
824	 6.18105612853718E-02 
825	 6.20358925717654E-02 
826	 6.21016214984065E-02 
827	 6.20587040806924E-02 
828	 6.20868586750158E-02 
829	 6.20434241351161E-02 
830	 6.21585157185267E-02 
831	 6.23702640167168E-02 
832	 6.23764987096258E-02 
833	 6.23479633137783E-02 
834	 6.23557841955913E-02 
835	 6.24169505666883E-02 
836	 6.24850901260245E-02 
837	 0.062668144953326 
838	 6.27727817662139E-02 
839	 6.26925602051986E-02 
840	 6.27690103787139E-02 
841	 0.062787514525673 
842	 6.28162218111252E-02 
843	 6.29705446420681E-02 
844	 6.30285455805744E-02 
845	 6.30775816455736E-02 
846	 6.31320247480984E-02 
847	 0.06315099684479 
848	 6.31735557862084E-02 
849	 6.32526136866139E-02 
850	 6.33820210787875E-02 
851	 6.34821490433856E-02 
852	 6.34845246709459E-02 
853	 6.34945617867255E-02 
854	 6.35923338384855E-02 
855	 6.37327064866115E-02 
856	 6.37420503247743E-02 
857	 6.37130777212725E-02 
858	 0.063787503974296 
859	 6.39556570189126E-02 
860	 6.39719537418677E-02 
861	 6.39280868809166E-02 
862	 6.40426285520859E-02 
863	 0.064126343108224 
864	 6.42392211236279E-02 
865	 6.43527839083612E-02 
866	 6.43653684695477E-02 
867	 6.43404756143323E-02 
868	 0.064377882889178 
869	 6.44430317474422E-02 
870	 6.43311045993704E-02 
871	 6.44806777841031E-02 
872	 6.46767292880467E-02 
873	 6.46951701520264E-02 
874	 6.46035309392094E-02 
875	 0.064753905651256 
876	 6.49623695663506E-02 
877	 6.49723749436069E-02 
878	 6.49226321894458E-02 
879	 0.06504858416851 
880	 6.51863388716548E-02 
881	 6.50804624953438E-02 
882	 6.51214468782355E-02 
883	 6.52898594438649E-02 
884	 6.54209878610571E-02 
885	 6.53229356843402E-02 
886	 6.53657440291317E-02 
887	 6.55106715767086E-02 
888	 6.56096397316926E-02 
889	 6.54885529333411E-02 
890	 0.065664309675957 
891	 6.57950572323517E-02 
892	 6.57095527148499E-02 
893	 6.57856081735211E-02 
894	 6.59527855450655E-02 
895	 6.60511368850918E-02 
896	 6.60521111098425E-02 
897	 0.066361709218388 
898	 6.63511030015104E-02 
899	 6.61976244819247E-02 
900	 6.62513087228671E-02 
901	 6.63683241813232E-02 
902	 6.65002915420349E-02 
903	 6.66212316727384E-02 
904	 6.67042708789114E-02 
905	 6.66114543896101E-02 
906	 6.66904319156464E-02 
907	 6.68638897138542E-02 
908	 6.68020010007843E-02 
909	 6.68635633311773E-02 
910	 6.69871170974232E-02 
911	 6.70572588565322E-02 
912	 6.69864142058765E-02 
913	 6.71197552672545E-02 
914	 0.067328425798887 
915	 6.74953128824706E-02 
916	 6.76260955560906E-02 
917	 6.76630288770327E-02 
918	 6.75863873777043E-02 
919	 6.75086259367671E-02 
920	 0.067749722373151 
921	 0.067743531701383 
922	 6.78100705497985E-02 
923	 6.81839284719707E-02 
924	 6.82892851206199E-02 
925	 6.84970322381224E-02 
926	 0.068616116541745 
927	 6.84831162890264E-02 
928	 6.86122427829399E-02 
929	 6.87879886935042E-02 
930	 6.88707523038638E-02 
931	 6.88420134034794E-02 
932	 6.90589603017081E-02 
933	 0.069053393978352 
934	 6.90077138900554E-02 
935	 6.92931498551668E-02 
936	 6.91818947955728E-02 
937	 6.92417568379382E-02 
938	 6.94283684775961E-02 
939	 6.93537357623565E-02 
940	 6.96949265468582E-02 
941	 0.069989972291456 
942	 6.99932682972816E-02 
943	 6.98046164477807E-02 
944	 6.99286141150369E-02 
945	 7.01224108069592E-02 
946	 7.02673521682835E-02 
947	 7.04625951436803E-02 
948	 7.05886015871533E-02 
949	 7.06314181855307E-02 
950	 7.06245983723719E-02 
951	 7.06443605036332E-02 
952	 7.08917319858548E-02 
953	 7.11426068811426E-02 
954	 7.12630164080041E-02 
955	 7.13707140213063E-02 
956	 7.14208702720965E-02 
957	 7.13897479262995E-02 
958	 7.13405601116412E-02 
959	 0.07146189889847 
960	 0.071743050388497 
961	 7.20400480131378E-02 
962	 7.22105692754615E-02 
963	 7.21964501731403E-02 
964	 7.21794660949029E-02 
965	 7.21454352158326E-02 
966	 7.21004310192215E-02 
967	 7.21994282280387E-02 
968	 7.26976238851858E-02 
969	 7.31019301471367E-02 
970	 7.30491037394671E-02 
971	 0.073041926318942 
972	 7.31161301703746E-02 
973	 7.31806156717968E-02 
974	 7.32468244331346E-02 
975	 7.38038208789581E-02 
976	 7.37193802598551E-02 
977	 7.34438914068703E-02 
978	 7.35865744635892E-02 
979	 7.35226011122225E-02 
980	 7.39085562706795E-02 
981	 7.41706303075941E-02 
982	 7.38743671252241E-02 
983	 7.44267613692704E-02 
984	 7.41214921876891E-02 
985	 7.39911457893295E-02 
986	 7.50603769389692E-02 
987	 7.50522421856703E-02 
988	 0.075078912561075 
989	 7.51717143382587E-02 
990	 7.50958580500183E-02 
991	 7.49970068201224E-02 
992	 7.53395696227854E-02 
993	 7.57529706748278E-02 
994	 7.57328389811649E-02 
995	 7.54261863827423E-02 
996	 0.075471336333906 
997	 7.58289169937626E-02 
998	 7.61471872853522E-02 
999	 7.60168777251524E-02 
1000	 7.62954297652324E-02 
1001	 7.66546267931146E-02 
1002	 7.69653033504912E-02 
1003	 7.68894070072729E-02 
1004	 7.69639903793622E-02 
1005	 7.70218908168779E-02 
1006	 7.70725158638503E-02 
1007	 7.70613977651686E-02 
1008	 7.71351202221387E-02 
1009	 7.72420315819015E-02 
1010	 7.73537495966617E-02 
1011	 7.75475842099053E-02 
1012	 7.76751487667614E-02 
1013	 0.077758663855405 
1014	 0.077803166664336 
1015	 0.077694645432754 
1016	 7.77873101467102E-02 
1017	 7.80267638445014E-02 
1018	 0.078271160972702 
1019	 7.85582398328975E-02 
1020	 7.88230939188262E-02 
1021	 7.89478366253104E-02 
1022	 7.89097581535348E-02 
1023	 7.89611767243293E-02 
1024	 7.89222994376169E-02 
1025	 7.89766455785904E-02 
1026	 7.90323909741624E-02 
1027	 0.079152031145747 
1028	 7.93087543015894E-02 
1029	 0.079654337016041 
1030	 7.96897883663264E-02 
1031	 7.98174277556614E-02 
1032	 8.00447500165361E-02 
1033	 0.079905550673161 
1034	 7.99333961451642E-02 
1035	 8.01770243845698E-02 
1036	 8.03698092912389E-02 
1037	 0.080607582689924 
1038	 8.07417951325954E-02 
1039	 8.08088975178884E-02 
1040	 8.09476061169098E-02 
1041	 8.10607485262933E-02 
1042	 8.11692933661289E-02 
1043	 8.13629771955377E-02 
1044	 8.15622287794506E-02 
1045	 8.15516594416334E-02 
1046	 8.15322303090105E-02 
1047	 8.16583696903228E-02 
1048	 8.18586551133941E-02 
1049	 8.21271404881604E-02 
1050	 8.22168184001854E-02 
1051	 8.22529206396899E-02 
1052	 8.23232058287913E-02 
1053	 0.082444171599465 
1054	 8.26502348404173E-02 
1055	 8.28444935309967E-02 
1056	 0.083080005517735 
1057	 8.31897648789411E-02 
1058	 8.32434738663529E-02 
1059	 8.32430063641778E-02 
1060	 8.32498020607602E-02 
1061	 8.35054873110866E-02 
1062	 8.37480681808536E-02 
1063	 0.083845493245221 
1064	 8.39188196087092E-02 
1065	 8.38577362902047E-02 
1066	 8.38635130936224E-02 
1067	 8.40680997754875E-02 
1068	 8.42372211214074E-02 
1069	 8.43376798180293E-02 
1070	 8.44334406215884E-02 
1071	 8.44804972837776E-02 
1072	 8.45972792721732E-02 
1073	 8.46845514361632E-02 
1074	 8.47398876553122E-02 
1075	 8.50559284919918E-02 
1076	 8.51725868893156E-02 
1077	 8.51874561372269E-02 
1078	 8.54395811027737E-02 
1079	 8.56104773814255E-02 
1080	 8.57863032710143E-02 
1081	 8.60390830575902E-02 
1082	 8.61837535195986E-02 
1083	 8.62817396667063E-02 
1084	 8.63717417059836E-02 
1085	 0.086460005679105 
1086	 8.66072976899618E-02 
1087	 8.68645349502398E-02 
1088	 8.70336501153165E-02 
1089	 8.70638111793831E-02 
1090	 8.71729959712972E-02 
1091	 8.71565003764268E-02 
1092	 8.71658361678214E-02 
1093	 8.73556161588412E-02 
1094	 8.74975430935857E-02 
1095	 8.77702376166029E-02 
1096	 8.79591360821318E-02 
1097	 8.80003117097277E-02 
1098	 8.81275749567929E-02 
1099	 8.81459783399612E-02 
1100	 8.81843045311524E-02 
1101	 8.83358938924648E-02 
1102	 8.84098722201109E-02 
1103	 8.84866839370269E-02 
1104	 8.85208232048146E-02 
1105	 8.86543935199536E-02 
1106	 8.87787888151341E-02 
1107	 8.89013770059045E-02 
1108	 8.90706235854416E-02 
1109	 0.089130029224078 
1110	 8.91606476540359E-02 
1111	 8.92718392828017E-02 
1112	 8.94505038599264E-02 
1113	 8.96940550720538E-02 
1114	 8.98953620507702E-02 
1115	 9.00847093075788E-02 
1116	 9.02203805353006E-02 
1117	 9.02891622740262E-02 
1118	 9.03765677201472E-02 
1119	 9.04844310584057E-02 
1120	 9.05624924124716E-02 
1121	 9.05997752405839E-02 
1122	 9.06624447667824E-02 
1123	 9.07977754927566E-02 
1124	 9.09512513250019E-02 
1125	 9.10647602369699E-02 
1126	 9.11451157129558E-02 
1127	 9.12214936061946E-02 
1128	 9.13598127884433E-02 
1129	 9.15293867557851E-02 
1130	 9.17161916020187E-02 
1131	 9.18635029381726E-02 
1132	 9.19005975356905E-02 
1133	 9.19531328070807E-02 
1134	 9.20487409638714E-02 
1135	 9.21030770395236E-02 
1136	 9.21106373367502E-02 
1137	 9.22103103246937E-02 
1138	 9.23079021885131E-02 
1139	 9.24321189319993E-02 
1140	 0.092638073505026 
1141	 0.092842779745938 
1142	 0.092956099220939 
1143	 9.31138925074275E-02 
1144	 9.31633871406163E-02 
1145	 0.093217254209147 
1146	 9.33435445070691E-02 
1147	 9.34100884020309E-02 
1148	 9.35736112297529E-02 
1149	 9.37484408592521E-02 
1150	 9.39054345288999E-02 
1151	 9.40688171352075E-02 
1152	 9.42008379149447E-02 
1153	 9.43393663812674E-02 
1154	 9.44457027895038E-02 
1155	 9.45034281966324E-02 
1156	 9.45637386349415E-02 
1157	 9.45511114443331E-02 
1158	 9.46402843988391E-02 
1159	 9.47531779237774E-02 
1160	 0.094934236277503 
1161	 0.095146529898449 
1162	 9.53614365683195E-02 
1163	 9.55220015192585E-02 
1164	 9.56220999956608E-02 
1165	 9.56694222160175E-02 
1166	 9.57028602737327E-02 
1167	 9.57745623289712E-02 
1168	 9.58698431896654E-02 
1169	 9.59578044390802E-02 
1170	 9.60971525521933E-02 
1171	 0.096194534381087 
1172	 9.62468217611342E-02 
1173	 9.63157462885692E-02 
1174	 9.63723832466574E-02 
1175	 0.096488768770976 
1176	 9.66517021516187E-02 
1177	 9.67758233713569E-02 
1178	 9.69298594231035E-02 
1179	 9.70490349719781E-02 
1180	 9.71423312741026E-02 
1181	 9.72350608603831E-02 
1182	 9.73749171496691E-02 
1183	 9.75231651478362E-02 
1184	 9.76762070906754E-02 
1185	 9.78330798885416E-02 
1186	 9.79376513924954E-02 
1187	 9.80082613823876E-02 
1188	 9.80945588181425E-02 
1189	 0.09813475608426 
1190	 9.82243026352676E-02 
1191	 9.83422968046894E-02 
1192	 9.84740904890457E-02 
1193	 9.86238488437507E-02 
1194	 9.87701380249206E-02 
1195	 9.89536423057138E-02 
1196	 9.91014733346221E-02 
1197	 9.92657430614721E-02 
1198	 9.93579903193982E-02 
1199	 9.93861458884816E-02 
1200	 9.94504173168665E-02 
1201	 9.95195568483984E-02 
1202	 9.96093058485633E-02 
1203	 9.97391993676846E-02 
1204	 9.98962531307414E-02 
1205	 0.10005495253511 
1206	 0.100232789969826 
1207	 0.100370408889425 
1208	 0.100506359225114 
1209	 0.100641869757487 
1210	 0.100729323175495 
1211	 0.100851283970172 
1212	 0.10101660544565 
1213	 0.101161229395219 
1214	 0.101300329236635 
1215	 0.101441795889095 
1216	 0.101563146185275 
1217	 0.101704828057047 
1218	 0.101861484788281 
1219	 0.102017974039121 
1220	 0.102162409910616 
1221	 0.102327111843631 
1222	 0.102428882356032 
1223	 0.102550745786259 
1224	 0.102652489648632 
1225	 0.102728857327923 
1226	 0.102828533977502 
1227	 0.102904785990035 
1228	 0.103043850194506 
1229	 0.103253551071187 
1230	 0.103405796213192 
1231	 0.103564139914961 
1232	 0.103715112121927 
1233	 0.103817588366509 
1234	 0.10394741616377 
1235	 0.104117058778016 
1236	 0.104260523915886 
1237	 0.104380002792005 
1238	 0.104519535139164 
1239	 0.104656432209749 
1240	 0.104801159167052 
1241	 0.104982799504702 
1242	 0.105170515723632 
1243	 0.10534330832269 
1244	 0.105543359094157 
1245	 0.105682478328504 
1246	 0.105780574815188 
1247	 0.105886061271056 
1248	 0.105937413255371 
1249	 0.106056515490634 
1250	 0.106212528099865 
1251	 0.106357260059367 
1252	 0.106530128934149 
1253	 0.106694322608175 
1254	 0.106879605338312 
1255	 0.107003540623269 
1256	 0.10707878639829 
1257	 0.107194457016327 
1258	 0.107261439576238 
1259	 0.107377104973871 
1260	 0.107571932943965 
1261	 0.107734103669852 
1262	 0.107904035843279 
1263	 0.108062805107508 
1264	 0.108175999945494 
1265	 0.108252127572059 
1266	 0.108358215544472 
1267	 0.108428209172092 
1268	 0.108546161662685 
1269	 0.108696202144046 
1270	 0.108851156114789 
1271	 0.109016603102976 
1272	 0.109194645131981 
1273	 0.109428238544033 
1274	 0.10959060497682 
1275	 0.109684164294855 
1276	 0.109857029197552 
1277	 0.110085035970359 
1278	 0.110226962356035 
1279	 0.110356198029952 
1280	 0.110506303265994 
1281	 0.110583391072513 
1282	 0.110683597254795 
1283	 0.110818427911717 
1284	 0.110986739131358 
1285	 0.111167453544341 
1286	 0.111338622451163 
1287	 0.111501079076312 
1288	 0.111722111073259 
1289	 0.111862085843191 
1290	 0.111923045658177 
1291	 0.11203834617135 
1292	 0.112158152596779 
1293	 0.11228214624089 
1294	 0.112405887771579 
1295	 0.112545987843049 
1296	 0.112690561488624 
1297	 0.112851679656164 
1298	 0.113033626826417 
1299	 0.113214267462977 
1300	 0.113433822869505 
1301	 0.113599474452004 
1302	 0.113747480189515 
1303	 0.113879986568729 
1304	 0.113928389708437 
1305	 0.114050814253007 
1306	 0.114218172123537 
1307	 0.114370489768038 
1308	 0.114538824370195 
1309	 0.114748361230248 
1310	 0.114881960544751 
1311	 0.114973393461879 
1312	 0.11507950883168 
1313	 0.115150369891084 
1314	 0.115267571111742 
1315	 0.115393846588363 
1316	 0.115542721212222 
1317	 0.11573572822142 
1318	 0.115883474732341 
1319	 0.116048434115986 
1320	 0.116161159787161 
1321	 0.116177629457056 
1322	 0.11630606532125 
1323	 0.116500072036271 
1324	 0.116623320336002 
1325	 0.116762478111501 
1326	 0.116902645856672 
1327	 0.116970260659317 
1328	 0.117083937906931 
1329	 0.117270830997308 
1330	 0.117420084023081 
1331	 0.117546083127536 
1332	 0.117672895231001 
1333	 0.117778313462278 
1334	 0.11791851790335 
1335	 0.118035367787164 
1336	 0.118141695037792 
1337	 0.118267584735767 
1338	 0.118405214023304 
1339	 0.118514386425577 
1340	 0.118611123030019 
1341	 0.118734095137159 
1342	 0.118863289059747 
1343	 0.118965093641386 
1344	 0.119056936351358 
1345	 0.119187740782448 
1346	 0.119307941033713 
1347	 0.119437775294097 
1348	 0.119618252420313 
1349	 0.11977546636652 
1350	 0.119923873517268 
1351	 0.120045913883642 
1352	 0.120159897359645 
1353	 0.120278087368636 
1354	 0.120352720973146 
1355	 0.120456557236412 
1356	 0.12058039269048 
1357	 0.120718739975024 
1358	 0.120905412564029 
1359	 0.121035420300971 
1360	 0.121138258522728 
1361	 0.121257308705362 
1362	 0.121334980491815 
1363	 0.121423299478297 
1364	 0.121512520681287 
1365	 0.121617435572529 
1366	 0.12172601638241 
1367	 0.121832469391099 
1368	 0.121927438288299 
1369	 0.122022968420183 
1370	 0.122146306701425 
1371	 0.122266038210129 
1372	 0.122387588915737 
1373	 0.122561349626885 
1374	 0.12267674786807 
1375	 0.122738271851531 
1376	 0.12283305715924 
1377	 0.122923948329392 
1378	 0.123024935832369 
1379	 0.123162709305097 
1380	 0.123256396118102 
1381	 0.123340475120521 
1382	 0.123400669860299 
1383	 0.123405526664647 
1384	 0.123446194091488 
1385	 0.123486472542531 
1386	 0.123538532551072 
1387	 0.123583431447057 
1388	 0.123670788424249 
1389	 0.123816873164819 
1390	 0.123920758807683 
1391	 0.124018648523818 
1392	 0.124149338774841 
1393	 0.124221871452061 
1394	 0.124302901464461 
1395	 0.12439979928615 
1396	 0.124524540288948 
1397	 0.124622453055042 
1398	 0.124724752771374 
1399	 0.124789632513508 
1400	 0.124829475170565 
1401	 0.124876706518 
1402	 0.124881189077076 
1403	 0.124948434899713 
1404	 0.12507494771526 
1405	 0.125132587445861 
1406	 0.125175157982872 
1407	 0.125235133061329 
1408	 0.125255099140939 
1409	 0.125308007204694 
1410	 0.12540927742816 
1411	 0.125483354214771 
1412	 0.125550334658255 
1413	 0.125601828940334 
1414	 0.125628124521544 
1415	 0.125687944720864 
1416	 0.125745093434324 
1417	 0.125814187562823 
1418	 0.125924805562495 
1419	 0.126016331826762 
1420	 0.126085750059421 
1421	 0.126172502836862 
1422	 0.126265752074684 
1423	 0.126367059173684 
1424	 0.126482449744395 
1425	 0.126599653507189 
1426	 0.126740332578103 
1427	 0.126822044743866 
1428	 0.126873319515075 
1429	 0.126963657106342 
1430	 0.127070798489646 
1431	 0.1271792169516 
1432	 0.127304766958121 
1433	 0.127475943319634 
1434	 0.127608560378635 
1435	 0.127723427906858 
1436	 0.127849120353304 
1437	 0.127980937903387 
1438	 0.128088246194642 
1439	 0.128183231034676 
1440	 0.128284168091095 
1441	 0.128353060157816 
1442	 0.128476359316841 
1443	 0.128643912493373 
1444	 0.128777080824267 
1445	 0.128922941822761 
1446	 0.129058064835915 
1447	 0.12914002012612 
1448	 0.129292097230777 
1449	 0.12949043541107 
1450	 0.129673903194025 
1451	 0.129903299045626 
1452	 0.130092770480972 
1453	 0.130237885600756 
1454	 0.130418901579091 
1455	 0.130596616154693 
1456	 0.130792551470034 
1457	 0.131040288998791 
1458	 0.13124928527696 
1459	 0.131413440413072 
1460	 0.131627377616416 
1461	 0.131877694346468 
1462	 0.132090614502193 
1463	 0.132331046417024 
1464	 0.132543801095448 
1465	 0.132724437815798 
1466	 0.132857511442807 
1467	 0.133005494774814 
1468	 0.133194753246499 
1469	 0.133386796484533 
1470	 0.133568833569999 
1471	 0.133743994935046 
1472	 0.133914971372453 
1473	 0.134105392642935 
1474	 0.134297010831305 
1475	 0.134486798786657 
1476	 0.134704968399612 
1477	 0.134887280480212 
1478	 0.135030885781183 
1479	 0.135206252110973 
1480	 0.135383421089623 
1481	 0.135574440417372 
1482	 0.135792707528421 
1483	 0.135981127421421 
1484	 0.136168187843868 
1485	 0.136341349199736 
1486	 0.136474043481271 
1487	 0.136660646256876 
1488	 0.136867859813573 
1489	 0.137069892429869 
1490	 0.137325914973005 
1491	 0.137514377715704 
1492	 0.137648343172303 
1493	 0.137818103449687 
1494	 0.137964073030212 
1495	 0.138134869487327 
1496	 0.138339642710707 
1497	 0.13853460022958 
1498	 0.138714555779407 
1499	 0.138927978412438 
1500	 0.139175847866188 
1501	 0.139400172139352 
1502	 0.139654354893365 
1503	 0.139862836971533 
1504	 0.140023718494596 
1505	 0.140200258571139 
1506	 0.140338323314048 
1507	 0.140523362288097 
1508	 0.140758482591162 
1509	 0.140958886786295 
1510	 0.141183880110953 
1511	 0.141370367993523 
1512	 0.141492308127368 
1513	 0.141648391680054 
1514	 0.141810021491239 
1515	 0.141970807353092 
1516	 0.142137725432187 
1517	 0.142316027026416 
1518	 0.142505928581329 
1519	 0.1426820362398 
1520	 0.142849625416137 
1521	 0.143040675152471 
1522	 0.143232180607643 
1523	 0.143408123174091 
1524	 0.143592109339398 
1525	 0.143797346222482 
1526	 0.143975545502376 
1527	 0.144134622007043 
1528	 0.144300354964894 
1529	 0.1444718898966 
1530	 0.144615923781622 
1531	 0.144735763449422 
1532	 0.144882676372775 
1533	 0.145017417385351 
1534	 0.14518405043218 
1535	 0.145387188909703 
1536	 0.145561118993673 
1537	 0.145729389471433 
1538	 0.145906356022426 
1539	 0.146093137647144 
1540	 0.146244891567272 
1541	 0.146377577184593 
1542	 0.146538297955684 
1543	 0.146683760840603 
1544	 0.146838628395016 
1545	 0.147011024705571 
1546	 0.147204632871087 
1547	 0.147399915689423 
1548	 0.147595559792062 
1549	 0.147849416722571 
1550	 0.148028672705955 
1551	 0.148144212242014 
1552	 0.148302467425233 
1553	 0.148450136347733 
1554	 0.148612267826341 
1555	 0.148794791975746 
1556	 0.148975097097955 
1557	 0.149150570614344 
1558	 0.149338996082361 
1559	 0.149543320645306 
1560	 0.14974367184804 
1561	 0.149944916058963 
1562	 0.1501513482157 
1563	 0.150385175952535 
1564	 0.15056923976811 
1565	 0.150726817046327 
1566	 0.150892791545611 
1567	 0.151014685565919 
1568	 0.151178447864154 
1569	 0.151368284610233 
1570	 0.151562801187569 
1571	 0.151777632172608 
1572	 0.151981368077659 
1573	 0.152214813942413 
1574	 0.152396251934013 
1575	 0.152533006886549 
1576	 0.152693837520558 
1577	 0.152809898808806 
1578	 0.152987016250322 
1579	 0.15323627828399 
1580	 0.153430614220322 
1581	 0.153619800127995 
1582	 0.153812448942763 
1583	 0.153971565507205 
1584	 0.154152420878968 
1585	 0.1543744471883 
1586	 0.154558919898717 
1587	 0.154720272529826 
1588	 0.15488353941349 
1589	 0.15503091145858 
1590	 0.155183334015273 
1591	 0.155314183927968 
1592	 0.15548921719418 
1593	 0.155702239061355 
1594	 0.155889031128632 
1595	 0.156105680910691 
1596	 0.156290876335611 
1597	 0.156403601137401 
1598	 0.156585458658004 
1599	 0.15681955535492 
1600	 0.157017358088506 
1601	 0.157228852048132 
1602	 0.157438452371736 
1603	 0.157623761833997 
1604	 0.157806267440662 
1605	 0.158012963585543 
1606	 0.15819623497527 
1607	 0.158331116023722 
1608	 0.158498497417132 
1609	 0.158682651886257 
1610	 0.158861495942387 
1611	 0.159051636288214 
1612	 0.159238211142158 
1613	 0.15941608732592 
1614	 0.15960055175036 
1615	 0.159816677091909 
1616	 0.15998860862319 
1617	 0.160111444777148 
1618	 0.160270486200809 
1619	 0.160424450983315 
1620	 0.160579774151923 
1621	 0.160765192991198 
1622	 0.160950187504759 
1623	 0.161140178966651 
1624	 0.161296309160927 
1625	 0.16143739764552 
1626	 0.161590729023316 
1627	 0.161701681198499 
1628	 0.161841604398853 
1629	 0.16201645338158 
1630	 0.162196139913041 
1631	 0.162403438998673 
1632	 0.162578247474947 
1633	 0.162731508313638 
1634	 0.162908849981469 
1635	 0.163065221416268 
1636	 0.163243829169626 
1637	 0.163484816392499 
1638	 0.163673030447392 
1639	 0.163840372620333 
1640	 0.164001226924362 
1641	 0.164129852864413 
1642	 0.164264356783901 
1643	 0.164389310249134 
1644	 0.164528411464697 
1645	 0.164664716680611 
1646	 0.164813879190302 
1647	 0.164977355111887 
1648	 0.165138335083682 
1649	 0.165327195384144 
1650	 0.165481789211018 
1651	 0.165620848376627 
1652	 0.165755979113783 
1653	 0.165854536066713 
1654	 0.165974085954081 
1655	 0.166106608706696 
1656	 0.166227112722721 
1657	 0.166372343849239 
1658	 0.166472564503916 
1659	 0.166525502818277 
1660	 0.166615709539193 
1661	 0.16668324798912 
1662	 0.166766919698962 
1663	 0.166895743557272 
1664	 0.167006881044659 
1665	 0.167128484005101 
1666	 0.16720635824137 
1667	 0.167286805536164 
1668	 0.167311894715214 
1669	 0.167236671911799 
1670	 0.167242510735507 
1671	 0.167272334679814 
1672	 0.167271237692408 
1673	 0.167325447149403 
1674	 0.167292621433805 
1675	 0.167143258424445 
1676	 0.167082043840789 
1677	 0.167058463893567 
1678	 0.166989620515974 
1679	 0.166951784963308 
1680	 0.166871217111321 
1681	 0.166705745229499 
1682	 0.166578922056633 
1683	 0.166501414256445 
1684	 0.16636075736197 
1685	 0.16617557522797 
1686	 0.166013852386443 
1687	 0.165835588525587 
1688	 0.165624226839706 
1689	 0.165436799456039 
1690	 0.165189011455597 
1691	 0.164862427142208 
1692	 0.164592336771756 
1693	 0.164346794398427 
1694	 0.164028725527098 
1695	 0.163655221814717 
1696	 0.163348269448421 
1697	 0.163016832961476 
1698	 0.162736946295288 
1699	 0.162585325261618 
1700	 0.162275255456965 
1701	 0.161891812564166 
1702	 0.161511792325638 
1703	 0.161029244038595 
1704	 0.16069612595883 
1705	 0.160412523258861 
1706	 0.160156725273906 
1707	 0.159923580412384 
1708	 0.15963181298582 
1709	 0.159389631346511 
1710	 0.159231263337191 
1711	 0.159147269195827 
1712	 0.159021023156603 
1713	 0.158869042169749 
1714	 0.158768782781722 
1715	 0.158617673550588 
1716	 0.158522706474443 
1717	 0.15854820377524 
1718	 0.15846204623205 
1719	 0.158352588559498 
1720	 0.158291345710069 
1721	 0.158225040866059 
1722	 0.158265715818707 
1723	 0.158297907207782 
1724	 0.158309253629517 
1725	 0.158399740124309 
1726	 0.158470490046376 
1727	 0.158569553693993 
1728	 0.158729739072171 
1729	 0.15892193655822 
1730	 0.159154558927179 
1731	 0.159403184298605 
1732	 0.159740780304327 
1733	 0.16005925236773 
1734	 0.160380857550824 
1735	 0.160778450741812 
1736	 0.16109057160758 
1737	 0.161385610497261 
1738	 0.161602639361989 
1739	 0.161856113289794 
1740	 0.162177229851652 
1741	 0.162406566582633 
1742	 0.162609376925699 
1743	 0.162762241451661 
1744	 0.162821447446107 
1745	 0.162912178556335 
1746	 0.162980647370757 
1747	 0.163066998158887 
1748	 0.163164032699826 
1749	 0.163219190926012 
1750	 0.163261790958042 
1751	 0.163348923288712 
1752	 0.163394668242982 
1753	 0.163528953353276 
1754	 0.163745157897223 
1755	 0.163946878680479 
1756	 0.164196351880088 
1757	 0.164361792349589 
1758	 0.164538646494845 
1759	 0.164709877118194 
1760	 0.164923563696921 
1761	 0.165249506223901 
1762	 0.165554780118908 
1763	 0.165920736923583 
1764	 0.166324455974967 
1765	 0.166676884919923 
1766	 0.167132455413485 
1767	 0.167574457712809 
1768	 0.168005337102151 
1769	 0.168475238882904 
1770	 0.168851980951475 
1771	 0.169250037983286 
1772	 0.169654034371598 
1773	 0.170034242242723 
1774	 0.170472891627795 
1775	 0.170804154532098 
1776	 0.171118971786666 
1777	 0.171466073668386 
1778	 0.17178780893351 
1779	 0.172202608600011 
1780	 0.172514134424482 
1781	 0.172731378716834 
1782	 0.172986607537693 
1783	 0.173144943623061 
1784	 0.173355075452167 
1785	 0.17378170936433 
1786	 0.174065946078302 
1787	 0.174321524558227 
1788	 0.174581730858097 
1789	 0.174742872507218 
1790	 0.174942331163687 
1791	 0.175215190508008 
1792	 0.175442309002181 
1793	 0.175658070920571 
1794	 0.175775986495372 
1795	 0.175898002852622 
1796	 0.176061235352012 
1797	 0.176186687264443 
1798	 0.176403198475125 
1799	 0.176720655944521 
1800	 0.176895931043813 
1801	 0.180533181488717 
1802	 0.180836315309888 
1803	 0.181072096014945 
1804	 0.18129532090993 
1805	 0.181565453741558 
1806	 0.181745119301411 
1807	 0.181822574320487 
1808	 0.181986099536788 
1809	 0.182133200507651 
1810	 0.182310175181137 
1811	 0.182527964066262 
1812	 0.182752965662062 
1813	 0.182974980184618 
1814	 0.183255695052803 
1815	 0.183532582462658 
1816	 0.183761584646713 
1817	 0.18398104824408 
1818	 0.184159442216794 
1819	 0.184367033131417 
1820	 0.184571763809995 
1821	 0.184780732329068 
1822	 0.184980608513535 
1823	 0.185232147590006 
1824	 0.185485016035751 
1825	 0.185671050913601 
1826	 0.185881684660331 
1827	 0.186105490441315 
1828	 0.18630294086976 
1829	 0.186483264610544 
1830	 0.186690092655366 
1831	 0.186910322020322 
1832	 0.187087540245534 
1833	 0.187338803874062 
1834	 0.187555553461801 
1835	 0.187782125985191 
1836	 0.188060854295809 
1837	 0.18826249289016 
1838	 0.188400161477573 
1839	 0.188597888743831 
1840	 0.18877890772781 
1841	 0.188966148087021 
1842	 0.189175581555607 
1843	 0.189415527636846 
1844	 0.189625210857186 
1845	 0.189835444498579 
1846	 0.190007205102402 
1847	 0.190153180627964 
1848	 0.190330945793619 
1849	 0.190490489892292 
1850	 0.190649294458716 
1851	 0.19083503305203 
1852	 0.1910091025972 
1853	 0.191151240957361 
1854	 0.191363355551257 
1855	 0.191591455538239 
1856	 0.191815755245669 
1857	 0.192007320875822 
1858	 0.192137250834213 
1859	 0.192275886085709 
1860	 0.19240283942752 
1861	 0.192506197140327 
1862	 0.192605374381952 
1863	 0.192687020603898 
1864	 0.192683176485846 
1865	 0.19265822780854 
1866	 0.192696337081869 
1867	 0.192680198913295 
1868	 0.192710789302671 
1869	 0.192792667641288 
1870	 0.192825005628291 
1871	 0.192870479030611 
1872	 0.192840957406817 
1873	 0.192757018929773 
1874	 0.192684574332706 
1875	 0.192528574973322 
1876	 0.192335909238248 
1877	 0.192263064619345 
1878	 0.192117603079728 
1879	 0.191997402102715 
1880	 0.191936400565413 
1881	 0.191778564978742 
1882	 0.191561191864447 
1883	 0.191346022862343 
1884	 0.191088293539099 
1885	 0.190699754773241 
1886	 0.190357176206416 
1887	 0.189960137389023 
1888	 0.189417826057204 
1889	 0.188921057332586 
1890	 0.188379345190866 
1891	 0.187797788216621 
1892	 0.187251889030783 
1893	 0.186688104358739 
1894	 0.186115243673035 
1895	 0.185557093602142 
1896	 0.184956727074542 
1897	 0.184365153319648 
1898	 0.183815557660309 
1899	 0.183159033047971 
1900	 0.182542145921073 
1901	 0.181958370694444 
1902	 0.181385079828549 
1903	 0.180896954726134 
1904	 0.180360607984454 
1905	 0.179815636699893 
1906	 0.179279201863014 
1907	 0.178784227847775 
1908	 0.17830341123854 
1909	 0.177932807124853 
1910	 0.177644995272795 
1911	 0.177315648256412 
1912	 0.176995507764177 
1913	 0.176690116665747 
1914	 0.176365943879636 
1915	 0.17612042520967 
1916	 0.175909597440103 
1917	 0.175786857211581 
1918	 0.175696527980734 
1919	 0.175598795242966 
1920	 0.175512653452393 
1921	 0.175361433784767 
1922	 0.17525491315722 
1923	 0.175213146376296 
1924	 0.17512551395707 
1925	 0.175084951189827 
1926	 0.175043624443689 
1927	 0.174979954385166 
1928	 0.174937571285361 
1929	 0.174914055851633 
1930	 0.174911898484855 
1931	 0.174928466928025 
1932	 0.174971173872521 
1933	 0.175058834128275 
1934	 0.175135117540528 
1935	 0.175186664683828 
1936	 0.175239366422835 
1937	 0.175328947414419 
1938	 0.175441853308164 
1939	 0.175567707657627 
1940	 0.175730494106095 
1941	 0.175863376799721 
1942	 0.176024116935013 
1943	 0.176207795986898 
1944	 0.176385086429116 
1945	 0.176603420327687 
1946	 0.176803203243148 
1947	 0.176970745908578 
1948	 0.177161052021765 
1949	 0.177411951914444 
1950	 0.177689920122974 
1951	 0.178057032208797 
1952	 0.178345875110114 
1953	 0.178618490956322 
1954	 0.178895829740358 
1955	 0.179197935053216 
1956	 0.179487332524023 
1957	 0.179871177218612 
1958	 0.180240947009537 
1959	 0.180531895631482 
1960	 0.18087846927871 
1961	 0.181196285628283 
1962	 0.181475854693469 
1963	 0.181792978457379 
1964	 0.182159410213287 
1965	 0.182454012792229 
1966	 0.182727830862946 
1967	 0.183003375672317 
1968	 0.183220597722301 
1969	 0.183411281260945 
1970	 0.183651473236114 
1971	 0.183911743635044 
1972	 0.184186383963917 
1973	 0.184460332083191 
1974	 0.184720253658209 
1975	 0.184958033281994 
1976	 0.185218392395874 
1977	 0.185490537858881 
1978	 0.18574555792072 
1979	 0.185977251153255 
1980	 0.186261539354155 
1981	 0.186547333908615 
1982	 0.186821924174009 
1983	 0.187158749453063 
1984	 0.1874898582168 
1985	 0.187799990345603 
1986	 0.188172207254218 
1987	 0.188504876876027 
1988	 0.188813307142596 
1989	 0.189138324802511 
1990	 0.189452644616854 
1991	 0.189778291599313 
1992	 0.190091869010454 
1993	 0.190485290778949 
1994	 0.190850848106509 
1995	 0.191218779426496 
1996	 0.191635161520615 
1997	 0.192097511676734 
1998	 0.192497399559476 
1999	 0.192877451191813 
2000	 0.193270950872116 
2001	 0.19364308358682 
2002	 0.194000780053531 
2003	 0.19441025243112 
2004	 0.194758466797551 
2005	 0.195037854338822 
2006	 0.195318828930077 
2007	 0.195559791271376 
2008	 0.195818036435177 
2009	 0.196103127956886 
2010	 0.19637821539461 
2011	 0.19670933435607 
2012	 0.197062962196963 
2013	 0.197331373778561 
2014	 0.197557342623487 
2015	 0.197776012823136 
2016	 0.197936674057414 
2017	 0.198104942414446 
2018	 0.198264324567029 
2019	 0.198441101027184 
2020	 0.198651346063999 
2021	 0.198761316676501 
2022	 0.198908458862864 
2023	 0.199043848721996 
2024	 0.199118788256384 
2025	 0.199253333767271 
2026	 0.199318387585638 
2027	 0.199333418734372 
2028	 0.199377558956449 
2029	 0.199385653795177 
2030	 0.199428316540996 
2031	 0.199501794534785 
2032	 0.199586381325558 
2033	 0.199706544548156 
2034	 0.199778673613618 
2035	 0.199840379648789 
2036	 0.199899991842549 
2037	 0.199932829148343 
2038	 0.19997709305161 
2039	 0.200031943003658 
2040	 0.200121842439023 
2041	 0.200179426400879 
2042	 0.200233750036103 
2043	 0.20025325021551 
2044	 0.200227211466305 
2045	 0.200231246415188 
2046	 0.200199228172341 
2047	 0.200238919512936 
2048	 0.200355250257621 
2049	 0.20043065642908 
2050	 0.200531539860048 
2051	 0.200581725707777 
2052	 0.200685405907339 
2053	 0.200799392519289 
2054	 0.20087865900998 
2055	 0.201000283144607 
2056	 0.201046911677018 
2057	 0.201015672496525 
2058	 0.201022634142038 
2059	 0.201004532207466 
2060	 0.201030681478672 
2061	 0.201056379484487 
2062	 0.2010974958848 
2063	 0.201181399590507 
2064	 0.201256945961246 
2065	 0.201308191308067 
2066	 0.201444553400068 
2067	 0.20154458406445 
2068	 0.201621511464342 
2069	 0.201648879437708 
2070	 0.201602075677085 
2071	 0.201631855183068 
2072	 0.20165517922953 
2073	 0.201702772997988 
2074	 0.201805248851891 
2075	 0.201891090459984 
2076	 0.201965348917551 
2077	 0.202032128401249 
2078	 0.20213885898988 
2079	 0.202195553751435 
2080	 0.202209462755682 
2081	 0.202232706952452 
2082	 0.202226618181949 
2083	 0.2022400537953 
2084	 0.202220063239072 
2085	 0.202208656838007 
2086	 0.20224776441155 
2087	 0.202315645582645 
2088	 0.202354308185503 
2089	 0.202430351922208 
2090	 0.202478634175504 
2091	 0.202498951288248 
2092	 0.202520524776081 
2093	 0.202545182815652 
2094	 0.20256968432596 
2095	 0.202563186682278 
2096	 0.202581313660581 
2097	 0.202627974425513 
2098	 0.202672982632359 
2099	 0.202676121754871 
2100	 0.202656572769865 
2101	 0.202694095544813 
2102	 0.202742707708351 
2103	 0.202774671320281 
2104	 0.202875946601592 
2105	 0.202872930461376 
2106	 0.202759050434152 
2107	 0.202732989718761 
2108	 0.202724383977767 
2109	 0.20269640335511 
2110	 0.202720769015669 
2111	 0.202681285018383 
2112	 0.202561283026626 
2113	 0.202483328799025 
2114	 0.202375209534396 
2115	 0.202317318626797 
2116	 0.202280568539543 
2117	 0.202307584462531 
2118	 0.202297702119077 
2119	 0.202315547611997 
2120	 0.202280131805782 
2121	 0.202231540797754 
2122	 0.202135519254764 
2123	 0.201989502685195 
2124	 0.201869625270352 
2125	 0.201644276449733 
2126	 0.201590677670525 
2127	 0.201684115443158 
2128	 0.20167432227897 
2129	 0.201716643598385 
2130	 0.201736723194024 
2131	 0.201667555372197 
2132	 0.201639591195677 
2133	 0.201667310951794 
2134	 0.201666817711468 
2135	 0.201712582246126 
2136	 0.201673124104109 
2137	 0.201658434308528 
2138	 0.201632800227548 
2139	 0.201671623703311 
2140	 0.201732754365392 
2141	 0.201770101687528 
2142	 0.201867578053282 
2143	 0.201914783060556 
2144	 0.201882363216268 
2145	 0.201903623099939 
2146	 0.201936230687349 
2147	 0.201989558315615 
2148	 0.202071834525251 
2149	 0.202148803230224 
2150	 0.202267141224076 
2151	 0.20235793244479 
2152	 0.202464150841959 
2153	 0.202484239070471 
2154	 0.202524982326547 
2155	 0.20256701967616 
2156	 0.202621374085665 
2157	 0.202672087606862 
2158	 0.202740034598605 
2159	 0.202858885344365 
2160	 0.202871588246902 
2161	 0.202821920971705 
2162	 0.20283148049292 
2163	 0.202795716899571 
2164	 0.202805495336974 
2165	 0.202909759679752 
2166	 0.202925669202621 
2167	 0.202902357620601 
2168	 0.202864663431089 
2169	 0.202778784108748 
2170	 0.202717014960339 
2171	 0.202627528462214 
2172	 0.202583491556363 
2173	 0.202575337719857 
2174	 0.202582506188515 
2175	 0.202565945281196 
2176	 0.202438413958311 
2177	 0.2023833156457 
2178	 0.202287782739145 
2179	 0.202227922274969 
2180	 0.202222126397138 
2181	 0.202207904856774 
2182	 0.202172148577255 
2183	 0.202158874259675 
2184	 0.202176163411669 
2185	 0.202187083352322 
2186	 0.202204958927663 
2187	 0.202214390139518 
2188	 0.202253503560893 
2189	 0.202246626598496 
2190	 0.20222576897164 
2191	 0.202153534616356 
2192	 0.202035730852984 
2193	 0.201906870949314 
2194	 0.201655508325266 
2195	 0.201530955809689 
2196	 0.201443211291009 
2197	 0.201428234581701 
2198	 0.201470031102781 
2199	 0.201454390853194 
2200	 0.201335763177328 
2201	 0.201103370813255 
2202	 0.200958541677098 
2203	 0.200777448936869 
2204	 0.20062091890116 
2205	 0.200516371069027 
2206	 0.200367999427076 
2207	 0.20013824833448 
2208	 0.200028301592498 
2209	 0.20000495973467 
2210	 0.19992690803957 
2211	 0.199883199978683 
2212	 0.199811858351885 
2213	 0.199690182411455 
2214	 0.199597916397899 
2215	 0.199597270170796 
2216	 0.199470020356084 
2217	 0.199195054297627 
2218	 0.199039136942211 
2219	 0.198898529403519 
2220	 0.198732954926211 
2221	 0.198596191520184 
2222	 0.19853835101168 
2223	 0.198425552086045 
2224	 0.198198003203178 
2225	 0.19799771975948 
2226	 0.197808528670861 
2227	 0.197598406868782 
2228	 0.197358702504981 
2229	 0.197087536880753 
2230	 0.196826468805689 
2231	 0.19649099799459 
2232	 0.196083884547141 
2233	 0.195638179313989 
2234	 0.195196342809739 
2235	 0.194641974177994 
2236	 0.193976837375619 
2237	 0.193304827470906 
2238	 0.192576760161059 
2239	 0.191801000438225 
2240	 0.190953482432531 
2241	 0.19012411675264 
2242	 0.189283100231226 
2243	 0.188372174179754 
2244	 0.187450665621025 
2245	 0.186485574475858 
2246	 0.185407490656104 
2247	 0.184355547769373 
2248	 0.183330550045836 
2249	 0.182241438087894 
2250	 0.181107220337242 
2251	 0.179971654205471 
2252	 0.178741210678099 
2253	 0.177558581979903 
2254	 0.17630815391749 
2255	 0.175014863251211 
2256	 0.173903496989847 
2257	 0.172660077877319 
2258	 0.171456631499336 
2259	 0.170325526500499 
2260	 0.169150025829426 
2261	 0.167826328802157 
2262	 0.166801685232681 
2263	 0.165935772989557 
2264	 0.165045581783609 
2265	 0.164350941389356 
2266	 0.163466995092519 
2267	 0.162534274436644 
2268	 0.161554231334142 
2269	 0.16040639213915 
2270	 0.159480421535491 
2271	 0.15861878931676 
2272	 0.157735789836469 
2273	 0.157033746304346 
2274	 0.156181220923824 
2275	 0.155211482842762 
2276	 0.154292204164146 
2277	 0.15337858406541 
2278	 0.152436463066219 
2279	 0.151452998596312 
2280	 0.150462530582979 
2281	 0.149452574124988 
2282	 0.148426826759994 
2283	 0.147311904261792 
2284	 0.146400515978472 
2285	 0.145395003526074 
2286	 0.144390876718544 
2287	 0.143334238412685 
2288	 0.142181906139276 
2289	 0.141147168705076 
2290	 0.139991314668925 
2291	 0.138976607112775 
2292	 0.13793701239833 
2293	 0.136710296502477 
2294	 0.135666093806105 
2295	 0.134506434811462 
2296	 0.133460610635663 
2297	 0.132586019974485 
2298	 0.131779577842132 
2299	 0.13121720916206 
2300	 0.13094203471333 
2301	 0.130580192088995 
2302	 0.130325840875079 
2303	 0.130141368230742 
2304	 0.129881609991477 
2305	 0.129996329432106 
2306	 0.130411142058814 
2307	 0.13083020873616 
2308	 0.131374942390769 
2309	 0.132108353955129 
2310	 0.133003855644201 
2311	 0.133927586660139 
2312	 0.135222095394789 
2313	 0.136200277217834 
2314	 0.13699956553935 
2315	 0.137868933773711 
2316	 0.138610592866372 
2317	 0.139458034054501 
2318	 0.140486969936868 
2319	 0.141292195466955 
2320	 0.142032352969774 
2321	 0.1426926792456 
2322	 0.14322547732212 
2323	 0.143682058314783 
2324	 0.144145449295265 
2325	 0.144439906251313 
2326	 0.14446509913953 
2327	 0.144552659836734 
2328	 0.144654408023132 
2329	 0.144592756700046 
2330	 0.144419680361436 
2331	 0.144302972207164 
2332	 0.143989821702967 
2333	 0.143487294079135 
2334	 0.142964791283856 
2335	 0.142375222326451 
2336	 0.141768789739613 
2337	 0.141061894313376 
2338	 0.140279853820706 
2339	 0.139436809998491 
2340	 0.138599877303028 
2341	 0.137839152837187 
2342	 0.137122931380245 
2343	 0.136605299816026 
2344	 0.13611588891012 
2345	 0.135685090057013 
2346	 0.135486014284354 
2347	 0.135388451754347 
2348	 0.135650093464164 
2349	 0.136016297048024 
2350	 0.136469752330572 
2351	 0.137248598869821 
2352	 0.137705218627361 
2353	 0.138277026669097 
2354	 0.139055486477116 
2355	 0.139670769828293 
2356	 0.14040869927505 
2357	 0.141151567089267 
2358	 0.141810174977992 
2359	 0.142297051658943 
2360	 0.142680119603966 
2361	 0.142964169860803 
2362	 0.142991883642509 
2363	 0.14291752652583 
2364	 0.142926645951654 
2365	 0.142831799969127 
2366	 0.142604257241978 
2367	 0.142452900139076 
2368	 0.142443666802604 
2369	 0.142556800402647 
2370	 0.142726287592336 
2371	 0.142975273720277 
2372	 0.143113951838991 
2373	 0.143019325322095 
2374	 0.143006427842292 
2375	 0.143002654930103 
2376	 0.142694653294115 
2377	 0.142476320771849 
2378	 0.142484379150393 
2379	 0.142558795346598 
2380	 0.142870728587552 
2381	 0.143271646561215 
2382	 0.143606929555423 
2383	 0.143877060886057 
2384	 0.144066492889567 
2385	 0.144478690261383 
2386	 0.144367859602148 
2387	 0.143696551149497 
2388	 0.143649059579191 
2389	 0.143500663978123 
2390	 0.14352714435512 
2391	 0.144152795014894 
2392	 0.144331222003728 
2393	 0.144236222427811 
2394	 0.144288768803738 
2395	 0.14425750311137 
2396	 0.144228964820779 
2397	 0.144247667719754 
2398	 0.144330212643622 
2399	 0.14452405296898 
2400	 0.144634947080615 
2401	 0.14465628786591 
2402	 0.144520550338275 
2403	 0.144739192847646 
2404	 0.144705876313221 
2405	 0.144798307902921 
2406	 0.145085369954209 
2407	 0.144960612516982 
2408	 0.145214230418317 
2409	 0.145291471371362 
2410	 0.145008180078959 
2411	 0.145098982935034 
2412	 0.145154875269937 
2413	 0.145648531226239 
2414	 0.146496638246837 
2415	 0.146871668952095 
2416	 0.146728300805908 
2417	 0.14637431008179 
2418	 0.146091753517573 
2419	 0.145766668806052 
2420	 0.145684324133539 
2421	 0.145949964651393 
2422	 0.146012376887266 
2423	 0.145768827672671 
2424	 0.145859946574804 
2425	 0.145727632827853 
2426	 0.145465490519996 
2427	 0.145962075356799 
2428	 0.145846660512798 
2429	 0.145573598983562 
2430	 0.14561274731996 
2431	 0.145364419074711 
2432	 0.14567073502936 
2433	 0.146035247864588 
2434	 0.14608549209448 
2435	 0.146102245583025 
2436	 0.146037703577913 
2437	 0.145637568903932 
2438	 0.145568841731793 
2439	 0.145769049514105 
2440	 0.145678532875908 
2441	 0.146244640243994 
2442	 0.146511467698749 
2443	 0.146748550932878 
2444	 0.147160001887015 
2445	 0.14691246393803 
2446	 0.146439345650688 
2447	 0.145624620116618 
2448	 0.145079222721377 
2449	 0.144566019832514 
2450	 0.144476748252322 
2451	 0.144792131811733 
2452	 0.1446096941896 
2453	 0.14477500368022 
2454	 0.145073448947427 
2455	 0.145067692485941 
2456	 0.144711125816091 
2457	 0.14385179389979 
2458	 0.143023055818266 
2459	 0.142255198256028 
2460	 0.141422695688785 
2461	 0.141150991416864 
2462	 0.141171789350988 
2463	 0.141267619358509 
2464	 0.14170040302902 
2465	 0.141747767193811 
2466	 0.141980670308598 
2467	 0.142034883330141 
2468	 0.141981072313534 
2469	 0.142684026853825 
2470	 0.142496275525785 
2471	 0.142126971747302 
2472	 0.141934552208699 
2473	 0.141356787733043 
2474	 0.141112223184394 
2475	 0.140905887274899 
2476	 0.141152660136798 
2477	 0.141191333502644 
2478	 0.141264478948053 
2479	 0.141914539669027 
2480	 0.141932571427604 
2481	 0.142435486182888 
2482	 0.143254011834851 
2483	 0.143122958838773 
2484	 0.142818781406178 
2485	 0.141780232904729 
2486	 0.141509727314727 
2487	 0.142493976967518 
2488	 0.142814120268102 
2489	 0.142422190072396 
2490	 0.142623555259419 
2491	 0.142311023830756 
2492	 0.141716111884076 
2493	 0.14209112429588 
2494	 0.142550291936605 
2495	 0.143208399583923 
2496	 0.144097763451304 
2497	 0.145223339678826 
2498	 0.145657665856258 
2499	 0.144678210015286 
2500	 0.145169920707051 
