Wavelength	Tablay400128.asd
350	 0.427997644924382 
351	 0.332534282782997 
352	 0.258315583240576 
353	 0.2752109793408 
354	 0.290637506401514 
355	 0.305564592889051 
356	 0.298590292293834 
357	 0.273647701889171 
358	 0.332805763866958 
359	 0.395669826994738 
360	 0.382850178923792 
361	 0.265103407742327 
362	 0.317616203343242 
363	 0.355453933639117 
364	 0.288912704986662 
365	 0.241586656912954 
366	 0.242294163977955 
367	 0.24326186267127 
368	 0.215787152466097 
369	 0.255529924059089 
370	 0.260829103053221 
371	 0.224548820457003 
372	 0.20595629588606 
373	 0.219217151871543 
374	 0.217131909885424 
375	 0.181164899190648 
376	 0.141823866802906 
377	 0.150069497480919 
378	 0.170071978290309 
379	 0.166753342425453 
380	 0.195837449162682 
381	 0.174855140856612 
382	 0.130973491733847 
383	 0.145720208989725 
384	 0.168138549087191 
385	 0.176649731811617 
386	 0.166172133998446 
387	 0.148370506578195 
388	 0.151680128098235 
389	 0.165206081608306 
390	 0.16535168510745 
391	 0.1208404256664 
392	 0.123746263135646 
393	 0.150203181943534 
394	 0.111283551285825 
395	 9.38512145959799E-02 
396	 0.105327747085228 
397	 0.127693009831408 
398	 0.118386902713627 
399	 0.120666296454334 
400	 0.131990638418961 
401	 0.139359768535547 
402	 0.143110475914501 
403	 0.130296450053983 
404	 0.109848854259649 
405	 0.104292284940403 
406	 0.119655330244743 
407	 0.130701255130303 
408	 0.124394404579165 
409	 0.115973762983961 
410	 0.108116938435173 
411	 0.10555227454425 
412	 0.111052290950858 
413	 0.120191607420329 
414	 0.116486101232411 
415	 0.10456406934757 
416	 0.105594064237039 
417	 0.101396307944585 
418	 0.102007452214766 
419	 0.111444582537349 
420	 0.110238483695882 
421	 0.100767528877291 
422	 9.55527632585505E-02 
423	 0.105961195163392 
424	 0.107733678774147 
425	 0.10448420198003 
426	 0.10176291203257 
427	 0.104372422461899 
428	 0.10151234021422 
429	 9.59171628999374E-02 
430	 9.34891839315851E-02 
431	 0.101905735381639 
432	 0.103206612914037 
433	 9.85770325338839E-02 
434	 9.91692452536734E-02 
435	 0.104612955226006 
436	 0.10753982647491 
437	 0.105691082774706 
438	 0.105464294354105 
439	 0.105584507989143 
440	 0.104548945139459 
441	 0.102320732131388 
442	 0.105797317718359 
443	 0.105746081472311 
444	 0.10260813395535 
445	 0.103960536452487 
446	 0.102781550916274 
447	 0.104243387624581 
448	 0.109934874476363 
449	 0.110580031847898 
450	 0.106891173968276 
451	 0.105279417195101 
452	 0.111541887750733 
453	 0.113853796805175 
454	 0.112387218242125 
455	 0.109878464584583 
456	 0.110701584971115 
457	 0.111240963684828 
458	 0.11285696823548 
459	 0.115933751441788 
460	 0.114987904425628 
461	 0.115033597184504 
462	 0.116315406338042 
463	 0.116612147678358 
464	 0.116220390422602 
465	 0.116443012963677 
466	 0.117418317856644 
467	 0.117363927627887 
468	 0.11841435602049 
469	 0.120249886486234 
470	 0.121799152315969 
471	 0.121795261497859 
472	 0.123376635252936 
473	 0.125102695214542 
474	 0.122543004194207 
475	 0.12198618952134 
476	 0.124110903191671 
477	 0.127379576526259 
478	 0.127666988282271 
479	 0.127502790066984 
480	 0.127997233577111 
481	 0.129392859536429 
482	 0.129845802408729 
483	 0.130189959349959 
484	 0.130756112044218 
485	 0.131111803663449 
486	 0.131729005215808 
487	 0.132960398555432 
488	 0.134706440208763 
489	 0.135764285652365 
490	 0.136113472303923 
491	 0.13634728483885 
492	 0.137246603873435 
493	 0.137645180019162 
494	 0.138911677647881 
495	 0.141031854006332 
496	 0.141377183341234 
497	 0.141798960933566 
498	 0.142215168424178 
499	 0.142356756505715 
500	 0.143614578106003 
501	 0.145471705417742 
502	 0.146745984208207 
503	 0.145990881554553 
504	 0.146061860690576 
505	 0.147069057074496 
506	 0.148521822768774 
507	 0.149898454905661 
508	 0.150939579925492 
509	 0.151876410104856 
510	 0.153095108286253 
511	 0.15439010360837 
512	 0.155316322087861 
513	 0.155989486130683 
514	 0.157236348053846 
515	 0.158139116275082 
516	 0.159118454234404 
517	 0.16047745837807 
518	 0.160893937102873 
519	 0.161625302911601 
520	 0.162725980183951 
521	 0.163496089902022 
522	 0.164900754875444 
523	 0.166502112811216 
524	 0.167838390935806 
525	 0.168757486640273 
526	 0.169707950509516 
527	 0.170743341139684 
528	 0.171811714856312 
529	 0.173208526576658 
530	 0.174017536652432 
531	 0.174562265377317 
532	 0.176434858640877 
533	 0.177888487708529 
534	 0.178786860400958 
535	 0.179604665208815 
536	 0.181565728792841 
537	 0.183125136526087 
538	 0.184189821869862 
539	 0.185440869107207 
540	 0.186640995592611 
541	 0.187854604295171 
542	 0.189203272160178 
543	 0.190874115338067 
544	 0.192416693551548 
545	 0.193733596119692 
546	 0.194900996929686 
547	 0.196165639764169 
548	 0.197658711648313 
549	 0.199265063812336 
550	 0.200677621507905 
551	 0.20212680509406 
552	 0.203454296974983 
553	 0.204606828583115 
554	 0.205922139451343 
555	 0.207508278194705 
556	 0.209147187277718 
557	 0.21052539183771 
558	 0.211972884963151 
559	 0.21346567006653 
560	 0.215095638685237 
561	 0.217171772644099 
562	 0.218563100078539 
563	 0.219881938755753 
564	 0.221792280745866 
565	 0.223206927809564 
566	 0.224839340287031 
567	 0.226701444559064 
568	 0.228286723316168 
569	 0.229666572272403 
570	 0.231094919067881 
571	 0.232646697899513 
572	 0.233933425999923 
573	 0.235412347660437 
574	 0.23706810553254 
575	 0.238704918471437 
576	 0.240181874190938 
577	 0.241833307373048 
578	 0.243589105688346 
579	 0.244917171399492 
580	 0.246597186842432 
581	 0.248380992059071 
582	 0.249963105075568 
583	 0.251592166090344 
584	 0.253381464942192 
585	 0.255254076510152 
586	 0.257023265357601 
587	 0.258611848455783 
588	 0.260446273932623 
589	 0.262520990045355 
590	 0.264026643000833 
591	 0.265877919451938 
592	 0.267870887952654 
593	 0.269597107363133 
594	 0.271332791310655 
595	 0.273075604142217 
596	 0.274867949416233 
597	 0.276781385536198 
598	 0.278752320535334 
599	 0.280694131719183 
600	 0.282566152076402 
601	 0.284400408087068 
602	 0.286288235904201 
603	 0.288327841341616 
604	 0.290512097452724 
605	 0.292186846524419 
606	 0.29407533290103 
607	 0.296276384978793 
608	 0.297983818505827 
609	 0.299840491165863 
610	 0.30174932138707 
611	 0.303582200306748 
612	 0.305729976695254 
613	 0.307704423490473 
614	 0.309470669958849 
615	 0.311318478102127 
616	 0.313525597078531 
617	 0.315627001654643 
618	 0.317436305685948 
619	 0.319441130581806 
620	 0.321539058005054 
621	 0.323527033045774 
622	 0.325276267963332 
623	 0.327168050208325 
624	 0.329427145606157 
625	 0.331737922932802 
626	 0.333369243049027 
627	 0.335391648138455 
628	 0.33746043964928 
629	 0.339284155338415 
630	 0.34139391431145 
631	 0.343468643885089 
632	 0.34541813387554 
633	 0.347285711967481 
634	 0.349324919168727 
635	 0.351466918827513 
636	 0.353585907850696 
637	 0.355522236303186 
638	 0.35758646632632 
639	 0.359668395693006 
640	 0.361641809855828 
641	 0.363698341375673 
642	 0.365620542778794 
643	 0.367539872933723 
644	 0.369734556684563 
645	 0.371648807885427 
646	 0.373666101516083 
647	 0.375911175963634 
648	 0.37791578384313 
649	 0.379782220501843 
650	 0.3818090968789 
651	 0.384175041292427 
652	 0.386299434945047 
653	 0.388208808569148 
654	 0.390125757106053 
655	 0.392357187223955 
656	 0.394333115336612 
657	 0.396255982342761 
658	 0.398301981547722 
659	 0.400315774089849 
660	 0.402492515550391 
661	 0.404647918061006 
662	 0.406550505172023 
663	 0.408483967791959 
664	 0.410669002262251 
665	 0.412967090627603 
666	 0.414913215405481 
667	 0.416768798695316 
668	 0.418730906439939 
669	 0.42083187733154 
670	 0.422709806545838 
671	 0.424662235472143 
672	 0.426793347920902 
673	 0.429043513328199 
674	 0.430886416646459 
675	 0.432754747159828 
676	 0.434823147756672 
677	 0.436859819998641 
678	 0.438962104500621 
679	 0.440943038796996 
680	 0.442717457325027 
681	 0.444671260299479 
682	 0.446686736563213 
683	 0.448672278008599 
684	 0.450585528349695 
685	 0.452686011349345 
686	 0.454681930539108 
687	 0.456458927465804 
688	 0.458228456766413 
689	 0.460306929012511 
690	 0.462409367277684 
691	 0.464231679075915 
692	 0.465986028519745 
693	 0.467855971594888 
694	 0.469826727772699 
695	 0.47175685965276 
696	 0.473670684956929 
697	 0.475563851441268 
698	 0.477417216837208 
699	 0.479188642845646 
700	 0.481082461997034 
701	 0.483032182587805 
702	 0.484918886185704 
703	 0.486759852488667 
704	 0.488568692534363 
705	 0.490379830964699 
706	 0.492230049506308 
707	 0.494033179493684 
708	 0.495790357192643 
709	 0.497542923759718 
710	 0.499372169457462 
711	 0.501232941710125 
712	 0.503086195438589 
713	 0.504891229726777 
714	 0.506589412807344 
715	 0.508262163633655 
716	 0.509972524771191 
717	 0.511754817014674 
718	 0.513576771692962 
719	 0.515299900483444 
720	 0.516896325936353 
721	 0.518534145808976 
722	 0.520311057708714 
723	 0.522046513082827 
724	 0.523601509957341 
725	 0.525388467247556 
726	 0.527027129587187 
727	 0.528549183786917 
728	 0.530256972463566 
729	 0.531952866767107 
730	 0.533548775714057 
731	 0.535055680468936 
732	 0.536616996860668 
733	 0.53813202464492 
734	 0.539646396190862 
735	 0.54122197435983 
736	 0.542826443785021 
737	 0.544363485082497 
738	 0.545825964493236 
739	 0.547276437393537 
740	 0.548864263404273 
741	 0.55046903182769 
742	 0.551951525679551 
743	 0.553201651236809 
744	 0.554597608793436 
745	 0.556154884543823 
746	 0.557744894691856 
747	 0.559160732402379 
748	 0.560470365350012 
749	 0.561761188357047 
750	 0.563120409987545 
751	 0.564537159550317 
752	 0.565890117179246 
753	 0.567191029357147 
754	 0.568627530248152 
755	 0.57001959668102 
756	 0.571277821987888 
757	 0.572434849112229 
758	 0.573791057663958 
759	 0.575115929092648 
760	 0.576414539626324 
761	 0.577776939481962 
762	 0.579102955973937 
763	 0.580348500114747 
764	 0.581583145718903 
765	 0.582973763202462 
766	 0.584235121472774 
767	 0.585413801864347 
768	 0.586619001843792 
769	 0.587959914591686 
770	 0.589177698833222 
771	 0.590361753765228 
772	 0.591656102517597 
773	 0.592794679981598 
774	 0.593912564286533 
775	 0.595070159041905 
776	 0.59625147249086 
777	 0.597476364843146 
778	 0.598684866860978 
779	 0.599857635033678 
780	 0.601063964494584 
781	 0.602106408743683 
782	 0.603143771729219 
783	 0.604330078241162 
784	 0.6054291348358 
785	 0.606486270852928 
786	 0.607562269260198 
787	 0.608707454759104 
788	 0.609827326735318 
789	 0.610974696402437 
790	 0.612099567558617 
791	 0.613034025899167 
792	 0.614114302875555 
793	 0.615251642882786 
794	 0.616323508424903 
795	 0.617349382953861 
796	 0.618396920881912 
797	 0.61938390914888 
798	 0.620237309059681 
799	 0.621207148637368 
800	 0.622260985884519 
801	 0.62327508553999 
802	 0.624116414592004 
803	 0.625202347188646 
804	 0.626380277897382 
805	 0.627411712705244 
806	 0.628065207280823 
807	 0.628907362814975 
808	 0.629977558594107 
809	 0.631117120466097 
810	 0.632055070433694 
811	 0.632918829564275 
812	 0.63377775504487 
813	 0.634677589080999 
814	 0.635672378590692 
815	 0.636547395143117 
816	 0.637336309552107 
817	 0.638281160769311 
818	 0.639186111099972 
819	 0.640121949569524 
820	 0.641091735935755 
821	 0.641929819587523 
822	 0.64270128398485 
823	 0.643446354858328 
824	 0.644232854145163 
825	 0.645223558696384 
826	 0.646295095206655 
827	 0.647235253303113 
828	 0.64789684703903 
829	 0.64869740633614 
830	 0.649577164297219 
831	 0.650390608618018 
832	 0.650998321125076 
833	 0.651873468919726 
834	 0.652750772108104 
835	 0.653461120222979 
836	 0.654157640800337 
837	 0.654907515433213 
838	 0.655704240770577 
839	 0.656521632014956 
840	 0.657355495234863 
841	 0.658128674039005 
842	 0.658922245932061 
843	 0.659813112098804 
844	 0.660535584472474 
845	 0.661106566424847 
846	 0.661702266525806 
847	 0.662551488065905 
848	 0.663407529499779 
849	 0.664053561215118 
850	 0.664530798280573 
851	 0.665177640638369 
852	 0.666000269120216 
853	 0.666697851642377 
854	 0.66718265241097 
855	 0.667951897300377 
856	 0.668695711462653 
857	 0.669319610018472 
858	 0.669826348870941 
859	 0.670293675350143 
860	 0.670920767249951 
861	 0.671568967523088 
862	 0.67199453261461 
863	 0.672484422600384 
864	 0.672944739389046 
865	 0.673341240450557 
866	 0.673735163803636 
867	 0.674394342482727 
868	 0.675025842638072 
869	 0.675526360281406 
870	 0.676149474339829 
871	 0.67654965149075 
872	 0.67702673858867 
873	 0.677680009468884 
874	 0.677845156663143 
875	 0.678344953707123 
876	 0.679060025467604 
877	 0.679634035477365 
878	 0.680024641412283 
879	 0.680380776043388 
880	 0.680731123191668 
881	 0.681056484624636 
882	 0.681450721502984 
883	 0.681748364718742 
884	 0.681911819843431 
885	 0.682010091062493 
886	 0.681971958533257 
887	 0.682207532664111 
888	 0.682666235977295 
889	 0.682751295956008 
890	 0.682593534304829 
891	 0.682538211708204 
892	 0.68268393385747 
893	 0.682646602596034 
894	 0.682662405283639 
895	 0.682653163679914 
896	 0.682523713504606 
897	 0.682331780369938 
898	 0.682068582954905 
899	 0.681814463172132 
900	 0.681650300129884 
901	 0.681564038948888 
902	 0.681355798759482 
903	 0.681076677943931 
904	 0.680856082889021 
905	 0.680481808079431 
906	 0.680113719365299 
907	 0.679794856225619 
908	 0.679490262762982 
909	 0.679369507430612 
910	 0.679259794743407 
911	 0.679051899884169 
912	 0.678767396524199 
913	 0.678681109338243 
914	 0.678874426738921 
915	 0.67905042293907 
916	 0.67853907320098 
917	 0.678423688564576 
918	 0.678672229039214 
919	 0.679001568481938 
920	 0.679141740499444 
921	 0.679249896254237 
922	 0.679501848967384 
923	 0.679973709886895 
924	 0.680521816646592 
925	 0.680651151942633 
926	 0.680772605006176 
927	 0.681330900190392 
928	 0.68184654320552 
929	 0.681958028151238 
930	 0.681851532953469 
931	 0.681904085921557 
932	 0.682103765255902 
933	 0.682487174347699 
934	 0.682724552755988 
935	 0.68254067778728 
936	 0.683015885525861 
937	 0.683195779543946 
938	 0.68302721547151 
939	 0.683086747976294 
940	 0.683068869002314 
941	 0.683252668799383 
942	 0.683535018097968 
943	 0.68351691727881 
944	 0.683510315288472 
945	 0.68345542759242 
946	 0.683320984576517 
947	 0.683143784188642 
948	 0.682898475985858 
949	 0.682574718580488 
950	 0.68221474344575 
951	 0.681914358046177 
952	 0.681694379592086 
953	 0.681261744579698 
954	 0.680557387667271 
955	 0.679920438213802 
956	 0.679027721653289 
957	 0.677919100815656 
958	 0.676838021074691 
959	 0.676197617234077 
960	 0.675413439325578 
961	 0.674138861541286 
962	 0.672556704825234 
963	 0.6716899853939 
964	 0.670406361830455 
965	 0.668735275417703 
966	 0.667057998011314 
967	 0.665781385490078 
968	 0.664491169673085 
969	 0.663161980597297 
970	 0.661802818933647 
971	 0.660198097749459 
972	 0.659143399514376 
973	 0.658133112827962 
974	 0.656617551319158 
975	 0.655029402398511 
976	 0.654497770772649 
977	 0.653961620304251 
978	 0.652522110983472 
979	 0.652075127863741 
980	 0.65149730776533 
981	 0.650449221458676 
982	 0.649277013564325 
983	 0.64961310339445 
984	 0.649372203727542 
985	 0.64862572574044 
986	 0.648164868824002 
987	 0.648367354044311 
988	 0.648107310516294 
989	 0.647796001818387 
990	 0.648000311823591 
991	 0.647792429909188 
992	 0.647486150574667 
993	 0.647453715378347 
994	 0.647789755267529 
995	 0.647600890584614 
996	 0.647732986928287 
997	 0.648245406954586 
998	 0.648821472707915 
999	 0.648952412797417 
1000	 0.649522501492907 
1001	 0.648238887609679 
1002	 0.648402276075398 
1003	 0.648661478995436 
1004	 0.648817581165351 
1005	 0.648752971308669 
1006	 0.649041255106866 
1007	 0.649519123102806 
1008	 0.649893058109107 
1009	 0.650421695860101 
1010	 0.650807465444134 
1011	 0.651009913523511 
1012	 0.651402832191431 
1013	 0.651972406777398 
1014	 0.652353892696692 
1015	 0.652714047423173 
1016	 0.652976608563762 
1017	 0.653336251087768 
1018	 0.653762268114508 
1019	 0.654176349054179 
1020	 0.654583991712596 
1021	 0.654981579246103 
1022	 0.655214741805483 
1023	 0.655606146574415 
1024	 0.65616028955904 
1025	 0.656589981167529 
1026	 0.656937318986939 
1027	 0.657339779933191 
1028	 0.65770895905802 
1029	 0.658178803756369 
1030	 0.65880773451908 
1031	 0.659327198670353 
1032	 0.659716240896065 
1033	 0.660124080201762 
1034	 0.660506702622386 
1035	 0.660758149711198 
1036	 0.661128964907863 
1037	 0.661635043952189 
1038	 0.662079978490313 
1039	 0.66255529469491 
1040	 0.662977003784478 
1041	 0.663343646777814 
1042	 0.663766387468311 
1043	 0.66420539700291 
1044	 0.664543233121818 
1045	 0.664928072475935 
1046	 0.665386610992328 
1047	 0.665692536145496 
1048	 0.665985663090399 
1049	 0.666462538084069 
1050	 0.666867328911666 
1051	 0.667192996695095 
1052	 0.667505084897339 
1053	 0.667859969376134 
1054	 0.668160429617153 
1055	 0.668434706494878 
1056	 0.668835634028598 
1057	 0.669198266174226 
1058	 0.669450558279125 
1059	 0.669661352990912 
1060	 0.670191724000008 
1061	 0.670472431335047 
1062	 0.670781304356445 
1063	 0.671423080748955 
1064	 0.671874169655081 
1065	 0.67218097861516 
1066	 0.672513036088937 
1067	 0.672861184812074 
1068	 0.673315787292748 
1069	 0.673800902226001 
1070	 0.674305945160472 
1071	 0.674904709024155 
1072	 0.675430898175924 
1073	 0.675771778071234 
1074	 0.676213623459827 
1075	 0.676760989573647 
1076	 0.677182221719356 
1077	 0.677717151034528 
1078	 0.678420694088275 
1079	 0.678972026695432 
1080	 0.67942071597368 
1081	 0.679921034157986 
1082	 0.680348278436292 
1083	 0.680730425159487 
1084	 0.681182920628943 
1085	 0.681739217071892 
1086	 0.682205472879229 
1087	 0.682652926160305 
1088	 0.682981496597729 
1089	 0.683292957521862 
1090	 0.683542406716585 
1091	 0.683826267541818 
1092	 0.684192437396867 
1093	 0.684633845335707 
1094	 0.685133484585122 
1095	 0.685631931448562 
1096	 0.686120792720597 
1097	 0.686467679119356 
1098	 0.686739691620161 
1099	 0.687019122705345 
1100	 0.687281318823877 
1101	 0.687525920146212 
1102	 0.687743780398679 
1103	 0.687897808864834 
1104	 0.687956850152979 
1105	 0.687962706771954 
1106	 0.687957599008386 
1107	 0.687799984939723 
1108	 0.687602755488194 
1109	 0.687443500358389 
1110	 0.687211739345602 
1111	 0.686891439981861 
1112	 0.686529942058432 
1113	 0.685993401625153 
1114	 0.685242128676809 
1115	 0.684586563532324 
1116	 0.683848237030809 
1117	 0.682900236597257 
1118	 0.68195748993377 
1119	 0.68105713068533 
1120	 0.67993806644152 
1121	 0.678717090426315 
1122	 0.677391685263145 
1123	 0.675804971522091 
1124	 0.674108788894928 
1125	 0.672289302209333 
1126	 0.670391438309777 
1127	 0.668525975988295 
1128	 0.666574226567588 
1129	 0.664666536785576 
1130	 0.662779606164145 
1131	 0.660891499153791 
1132	 0.659080067504868 
1133	 0.657099316302521 
1134	 0.655154039118588 
1135	 0.653300994476172 
1136	 0.651417084581053 
1137	 0.649618428667711 
1138	 0.647967986054044 
1139	 0.646281539023122 
1140	 0.644575436519096 
1141	 0.64301138349171 
1142	 0.641358485207874 
1143	 0.639631118846645 
1144	 0.637767417594866 
1145	 0.635783242735564 
1146	 0.633991776152461 
1147	 0.632134311546396 
1148	 0.630197754984694 
1149	 0.628333851638958 
1150	 0.626222910669164 
1151	 0.624109907394792 
1152	 0.621977983809156 
1153	 0.619762834832616 
1154	 0.617599336369728 
1155	 0.615456282137125 
1156	 0.613286869642429 
1157	 0.611089808347668 
1158	 0.609052165170379 
1159	 0.607072354602356 
1160	 0.605041239352891 
1161	 0.603173674511659 
1162	 0.601264150471555 
1163	 0.59942059263936 
1164	 0.597647098604397 
1165	 0.595895598359155 
1166	 0.594315140101279 
1167	 0.592732613590602 
1168	 0.591178443228989 
1169	 0.589659914100751 
1170	 0.588130535631085 
1171	 0.586751441062606 
1172	 0.585480159519233 
1173	 0.584219553612244 
1174	 0.583142608110325 
1175	 0.581962507624185 
1176	 0.580746408327412 
1177	 0.579474231648462 
1178	 0.578201248714816 
1179	 0.576831587139822 
1180	 0.575399355656759 
1181	 0.573989121914348 
1182	 0.572502734679307 
1183	 0.571166583774336 
1184	 0.569876827560548 
1185	 0.56847641458317 
1186	 0.56716375000677 
1187	 0.565868337391796 
1188	 0.564616440322318 
1189	 0.563364114072036 
1190	 0.562249281898241 
1191	 0.561193327033571 
1192	 0.560223344938127 
1193	 0.559344357826923 
1194	 0.558558563868682 
1195	 0.557852806372838 
1196	 0.557218259642402 
1197	 0.556725286803592 
1198	 0.556205251542509 
1199	 0.555695712894533 
1200	 0.555306925960639 
1201	 0.554959443369547 
1202	 0.554629940699481 
1203	 0.554357263713756 
1204	 0.554164665406273 
1205	 0.554004978058074 
1206	 0.553873956411328 
1207	 0.553827477825852 
1208	 0.553903710859419 
1209	 0.553869341870664 
1210	 0.553838578999995 
1211	 0.55382078997078 
1212	 0.553713898936172 
1213	 0.553728032338749 
1214	 0.553794075131884 
1215	 0.55392251555183 
1216	 0.554066314926335 
1217	 0.554338019891651 
1218	 0.554727987111178 
1219	 0.555169464093334 
1220	 0.555669583552813 
1221	 0.556223911780236 
1222	 0.556715770957638 
1223	 0.557290135174218 
1224	 0.557909612005002 
1225	 0.558577494345115 
1226	 0.559256923419599 
1227	 0.559996077347136 
1228	 0.56072419838443 
1229	 0.561437482539575 
1230	 0.562213970020638 
1231	 0.563022071248289 
1232	 0.563876677571014 
1233	 0.564821535515575 
1234	 0.565716060156894 
1235	 0.566601538820966 
1236	 0.567517362802215 
1237	 0.568401347076822 
1238	 0.569332220806671 
1239	 0.5703130443831 
1240	 0.571358355319509 
1241	 0.572318751760122 
1242	 0.573206615147704 
1243	 0.57404157495208 
1244	 0.574766653087858 
1245	 0.575557097109114 
1246	 0.576366577580886 
1247	 0.577095527997944 
1248	 0.577809705382298 
1249	 0.578482330298816 
1250	 0.579058039438373 
1251	 0.579672886960974 
1252	 0.580327072357852 
1253	 0.580901444015535 
1254	 0.581462074842061 
1255	 0.581954238335893 
1256	 0.582331889933697 
1257	 0.582762809696593 
1258	 0.583184310841391 
1259	 0.583587453479108 
1260	 0.584047517032257 
1261	 0.584427643234473 
1262	 0.584720115356789 
1263	 0.585015622464579 
1264	 0.585327587764243 
1265	 0.585589025511551 
1266	 0.585927517104675 
1267	 0.586333151620839 
1268	 0.5866830790272 
1269	 0.587004126711072 
1270	 0.587404832108132 
1271	 0.587843823931208 
1272	 0.588240142853746 
1273	 0.588614558221132 
1274	 0.58910528718899 
1275	 0.589612481238646 
1276	 0.590142181899482 
1277	 0.590774484690849 
1278	 0.591417788376135 
1279	 0.59203198731183 
1280	 0.59269663047057 
1281	 0.593470210181099 
1282	 0.59421492427237 
1283	 0.594949524389985 
1284	 0.595685483150825 
1285	 0.596424714003375 
1286	 0.597157979047728 
1287	 0.597945314506882 
1288	 0.598780760281346 
1289	 0.599529215447747 
1290	 0.600316415419133 
1291	 0.600994423150386 
1292	 0.601572854994746 
1293	 0.602141528407187 
1294	 0.60267911893014 
1295	 0.603179109103789 
1296	 0.603658232144116 
1297	 0.604047098499049 
1298	 0.60434708398366 
1299	 0.604668493396599 
1300	 0.604980583521633 
1301	 0.605192111823128 
1302	 0.6054030648681 
1303	 0.605517734115933 
1304	 0.605483599721428 
1305	 0.605446742551765 
1306	 0.605414605496538 
1307	 0.605284801068081 
1308	 0.605052241480554 
1309	 0.604825869196882 
1310	 0.604524288559071 
1311	 0.604164067889986 
1312	 0.603725119254206 
1313	 0.603222354528559 
1314	 0.602703742107126 
1315	 0.60213421898372 
1316	 0.601489157611942 
1317	 0.600838551241791 
1318	 0.60007555481621 
1319	 0.599179438421343 
1320	 0.598293509260622 
1321	 0.597419720960781 
1322	 0.596405096267215 
1323	 0.595320145847763 
1324	 0.594164407390021 
1325	 0.592872267502161 
1326	 0.59158525455609 
1327	 0.590329744466988 
1328	 0.588928008210047 
1329	 0.587496272136448 
1330	 0.585916645526468 
1331	 0.584172982875812 
1332	 0.58238309452932 
1333	 0.580536717208517 
1334	 0.578548077738788 
1335	 0.57653384322367 
1336	 0.574470001797373 
1337	 0.57232029288034 
1338	 0.570094653179729 
1339	 0.567820634931966 
1340	 0.565521122595072 
1341	 0.56306823370581 
1342	 0.560475078097218 
1343	 0.55792907593645 
1344	 0.555263324585395 
1345	 0.552682709506481 
1346	 0.550147848129317 
1347	 0.547622768531826 
1348	 0.545056393352341 
1349	 0.542594749729263 
1350	 0.54015397112926 
1351	 0.537810223831663 
1352	 0.53558670020552 
1353	 0.533336064429216 
1354	 0.531124590731187 
1355	 0.528951917462525 
1356	 0.526771404341229 
1357	 0.524637844790017 
1358	 0.522561587285481 
1359	 0.520503184614499 
1360	 0.518460682642561 
1361	 0.516468478857127 
1362	 0.514383859039429 
1363	 0.512467548689054 
1364	 0.510607473611197 
1365	 0.508766781388531 
1366	 0.50706768398727 
1367	 0.50548642543022 
1368	 0.503997092592748 
1369	 0.502585043572015 
1370	 0.501281633514085 
1371	 0.500083734630157 
1372	 0.4989989037498 
1373	 0.49804321355822 
1374	 0.497090860140677 
1375	 0.496265726808578 
1376	 0.495388908379319 
1377	 0.494567227231863 
1378	 0.49361764292623 
1379	 0.49269117675018 
1380	 0.491596313744481 
1381	 0.490366659914411 
1382	 0.489056895047915 
1383	 0.487691370739149 
1384	 0.486151245601836 
1385	 0.484508087859775 
1386	 0.482720322705704 
1387	 0.480812672184311 
1388	 0.47874276503497 
1389	 0.476516890384412 
1390	 0.474181345471736 
1391	 0.471756619693532 
1392	 0.469042841070375 
1393	 0.466401408625393 
1394	 0.463617170491737 
1395	 0.460692001399322 
1396	 0.457665414362498 
1397	 0.454524573215519 
1398	 0.451238903377568 
1399	 0.447855059886549 
1400	 0.444338194819099 
1401	 0.440791967489533 
1402	 0.437180780261242 
1403	 0.433403557800199 
1404	 0.429518079606083 
1405	 0.425639226492502 
1406	 0.421593316285625 
1407	 0.417603017691232 
1408	 0.413627046176874 
1409	 0.409644836515588 
1410	 0.405593187039114 
1411	 0.401607996234867 
1412	 0.397637586693583 
1413	 0.393774529444224 
1414	 0.389951270080874 
1415	 0.386189836418463 
1416	 0.382451384089297 
1417	 0.378858018348386 
1418	 0.37531771640845 
1419	 0.371905226729093 
1420	 0.368617289280481 
1421	 0.365492109243996 
1422	 0.362474387491627 
1423	 0.359593235167501 
1424	 0.356926422405074 
1425	 0.35425684963214 
1426	 0.351844775917798 
1427	 0.34949398653891 
1428	 0.347258920118766 
1429	 0.345361528844706 
1430	 0.343543650742721 
1431	 0.341878557990627 
1432	 0.340324746750778 
1433	 0.338946513241839 
1434	 0.337628065404618 
1435	 0.336410709998368 
1436	 0.335261586355824 
1437	 0.334203072921686 
1438	 0.333267606856359 
1439	 0.332434368779517 
1440	 0.331653709111829 
1441	 0.331019226464104 
1442	 0.33036484323076 
1443	 0.32971825381931 
1444	 0.32914240490997 
1445	 0.32864777959486 
1446	 0.328138497177363 
1447	 0.327655537610385 
1448	 0.327201704818246 
1449	 0.326741151936028 
1450	 0.326344631625158 
1451	 0.326017010500017 
1452	 0.325688461111229 
1453	 0.32539267212102 
1454	 0.325107387737773 
1455	 0.324873906213187 
1456	 0.324584920155035 
1457	 0.324269823594011 
1458	 0.323973903964675 
1459	 0.323627922550976 
1460	 0.323327800027391 
1461	 0.32310176861291 
1462	 0.322830561439526 
1463	 0.32253918455503 
1464	 0.322262910919033 
1465	 0.321953971345833 
1466	 0.321682532435166 
1467	 0.3214380016302 
1468	 0.321195432510977 
1469	 0.320967819627025 
1470	 0.320763751539839 
1471	 0.320601027891469 
1472	 0.320458816604728 
1473	 0.320367694811021 
1474	 0.320337804931494 
1475	 0.320286081251434 
1476	 0.320266802013157 
1477	 0.320235058086766 
1478	 0.320178023126535 
1479	 0.320183707363129 
1480	 0.320228738637374 
1481	 0.320254738933285 
1482	 0.320306906296772 
1483	 0.320352583497164 
1484	 0.320356883933173 
1485	 0.320444307355976 
1486	 0.320588691252474 
1487	 0.320723307228149 
1488	 0.320898516641693 
1489	 0.321057596586429 
1490	 0.321195273821858 
1491	 0.321372773462529 
1492	 0.321568951698064 
1493	 0.321783157472035 
1494	 0.322020117664937 
1495	 0.322273803951643 
1496	 0.322518888232532 
1497	 0.322831350073959 
1498	 0.323188775051716 
1499	 0.323570216831782 
1500	 0.324044202703455 
1501	 0.324456088619907 
1502	 0.324823770139864 
1503	 0.325250212615118 
1504	 0.325667977263572 
1505	 0.326124239624069 
1506	 0.326665545997049 
1507	 0.327170117590322 
1508	 0.327693403045524 
1509	 0.328175370952732 
1510	 0.328608201279191 
1511	 0.329067878467371 
1512	 0.329453311975762 
1513	 0.329941278680701 
1514	 0.330558711999813 
1515	 0.331108165244887 
1516	 0.331717354018112 
1517	 0.332256088843038 
1518	 0.332675663528433 
1519	 0.333136765615322 
1520	 0.333603666320364 
1521	 0.334064296349565 
1522	 0.334489864011345 
1523	 0.334945024275645 
1524	 0.335356750157048 
1525	 0.335725731967283 
1526	 0.336114067212852 
1527	 0.336515462619518 
1528	 0.336862865729624 
1529	 0.337154503525254 
1530	 0.337543676518985 
1531	 0.337960881087287 
1532	 0.338325196706523 
1533	 0.33873323869491 
1534	 0.339096987976919 
1535	 0.33938194358258 
1536	 0.339712846705874 
1537	 0.340083022424985 
1538	 0.34042172449804 
1539	 0.340715162281986 
1540	 0.341066095571452 
1541	 0.341458562725408 
1542	 0.341813536691823 
1543	 0.342191728973502 
1544	 0.342511784068011 
1545	 0.342741631478445 
1546	 0.343099824982028 
1547	 0.343517612914408 
1548	 0.343870593109296 
1549	 0.344266109567652 
1550	 0.344635264529093 
1551	 0.344955837662547 
1552	 0.345253056043963 
1553	 0.345574627200063 
1554	 0.345852299635467 
1555	 0.346017591215021 
1556	 0.346280875619154 
1557	 0.346597929106004 
1558	 0.346895333124176 
1559	 0.347225987911839 
1560	 0.347516954173031 
1561	 0.347778467100793 
1562	 0.348060156405152 
1563	 0.348314566913006 
1564	 0.348616804549345 
1565	 0.348977481945231 
1566	 0.349284710531098 
1567	 0.349589089292134 
1568	 0.34988855440296 
1569	 0.350137647250698 
1570	 0.350434443936886 
1571	 0.350775570164223 
1572	 0.351085568692911 
1573	 0.351385308753611 
1574	 0.351703195193226 
1575	 0.352015868444005 
1576	 0.352336329281647 
1577	 0.352704367700176 
1578	 0.353015524191097 
1579	 0.353275311489977 
1580	 0.353570715089573 
1581	 0.353845883180666 
1582	 0.354147220390787 
1583	 0.354492065270452 
1584	 0.354816444594648 
1585	 0.355069920854591 
1586	 0.355455490500793 
1587	 0.355897217341186 
1588	 0.356375378713787 
1589	 0.356981784405479 
1590	 0.357544713601862 
1591	 0.358055046163313 
1592	 0.358667497391013 
1593	 0.359324218410987 
1594	 0.360024136782387 
1595	 0.360816750254615 
1596	 0.361605376750774 
1597	 0.362385475298704 
1598	 0.363239890811883 
1599	 0.364150046494914 
1600	 0.365080638363438 
1601	 0.36611356849034 
1602	 0.36708212127339 
1603	 0.368000319365852 
1604	 0.368975119303121 
1605	 0.369955715511936 
1606	 0.370941399056906 
1607	 0.372015484904622 
1608	 0.373014648771147 
1609	 0.373924230765706 
1610	 0.374904653362993 
1611	 0.375879731485419 
1612	 0.37687191204686 
1613	 0.37796059695567 
1614	 0.378963854894553 
1615	 0.379911427667868 
1616	 0.380882467200557 
1617	 0.381838654414463 
1618	 0.382772004295742 
1619	 0.383708810544314 
1620	 0.384625692758644 
1621	 0.385518483254494 
1622	 0.386378133297395 
1623	 0.387252359165848 
1624	 0.388055100843563 
1625	 0.38875702996466 
1626	 0.389499007451393 
1627	 0.390245638386202 
1628	 0.390944811642744 
1629	 0.391655361861013 
1630	 0.392306187584694 
1631	 0.392861224087099 
1632	 0.393440866310725 
1633	 0.394017412847776 
1634	 0.394574790947617 
1635	 0.395169742675512 
1636	 0.395670778751455 
1637	 0.396059726700523 
1638	 0.396505540594555 
1639	 0.396953145238858 
1640	 0.397350865389302 
1641	 0.397806177263422 
1642	 0.398159250943845 
1643	 0.398417032910591 
1644	 0.398627155709726 
1645	 0.398798354678685 
1646	 0.398881528337277 
1647	 0.398872114506773 
1648	 0.398826837009595 
1649	 0.398721037186166 
1650	 0.398567131250752 
1651	 0.398345931332263 
1652	 0.398103969651685 
1653	 0.397813237127646 
1654	 0.397487245709362 
1655	 0.397157747436624 
1656	 0.396746339570689 
1657	 0.396260345598641 
1658	 0.395748227054257 
1659	 0.395157747603245 
1660	 0.394585594881603 
1661	 0.393999791223595 
1662	 0.393388126744197 
1663	 0.392731783557536 
1664	 0.392106241593578 
1665	 0.391494721719682 
1666	 0.390854979351849 
1667	 0.390194582178626 
1668	 0.389593943608449 
1669	 0.388976488859728 
1670	 0.388389870164133 
1671	 0.387887783096331 
1672	 0.387363203327089 
1673	 0.386800987428546 
1674	 0.386307623962642 
1675	 0.385841084220196 
1676	 0.385420631487058 
1677	 0.385083336189373 
1678	 0.384703165993372 
1679	 0.384352299830771 
1680	 0.383968636294246 
1681	 0.383527165013081 
1682	 0.383122948209663 
1683	 0.382769262049333 
1684	 0.382351829519483 
1685	 0.381912933092258 
1686	 0.381489449930514 
1687	 0.381020789820377 
1688	 0.380543377210909 
1689	 0.380097310337077 
1690	 0.379600832674966 
1691	 0.37907368256402 
1692	 0.378545571756786 
1693	 0.377961730423947 
1694	 0.37743866429398 
1695	 0.376921999743946 
1696	 0.376412277463944 
1697	 0.375972471510988 
1698	 0.375467787354589 
1699	 0.374891777992448 
1700	 0.374425417562386 
1701	 0.373974051850477 
1702	 0.373576250809543 
1703	 0.373275863714516 
1704	 0.372907881788533 
1705	 0.372513578572934 
1706	 0.372142941393637 
1707	 0.371850641269135 
1708	 0.371537235365355 
1709	 0.371230333223079 
1710	 0.370956023128599 
1711	 0.370671123442867 
1712	 0.370416202941011 
1713	 0.370074655160678 
1714	 0.369561392827004 
1715	 0.36894848920542 
1716	 0.368229253176154 
1717	 0.3675768076178 
1718	 0.36694914476511 
1719	 0.366250765243011 
1720	 0.365641303768578 
1721	 0.364979465055643 
1722	 0.36423741004729 
1723	 0.363676825023205 
1724	 0.363207206389671 
1725	 0.362788775621515 
1726	 0.36260286981284 
1727	 0.362459237622629 
1728	 0.362273076202096 
1729	 0.362191892044918 
1730	 0.362075249073137 
1731	 0.36197447896894 
1732	 0.362036524042618 
1733	 0.362087458420443 
1734	 0.362241252641217 
1735	 0.362456194511786 
1736	 0.362603841372908 
1737	 0.362744895295224 
1738	 0.362832707311828 
1739	 0.362923152442968 
1740	 0.362976724469239 
1741	 0.363006884211617 
1742	 0.363034239474849 
1743	 0.363025803480244 
1744	 0.362959351396411 
1745	 0.362943061853629 
1746	 0.362924594884983 
1747	 0.362958397729525 
1748	 0.363042368686501 
1749	 0.363079725032748 
1750	 0.36314088225597 
1751	 0.363131156803791 
1752	 0.363066294245497 
1753	 0.363030409312901 
1754	 0.36298943914818 
1755	 0.362944024003031 
1756	 0.362881601610285 
1757	 0.362846531299964 
1758	 0.362827192528347 
1759	 0.362823015902332 
1760	 0.362788976778827 
1761	 0.362783688017696 
1762	 0.362692771528525 
1763	 0.362549756829125 
1764	 0.362466334460021 
1765	 0.362368894750018 
1766	 0.362305253084715 
1767	 0.362306259284067 
1768	 0.362309265633365 
1769	 0.362287263014757 
1770	 0.362260912877508 
1771	 0.362260880272961 
1772	 0.362299508914074 
1773	 0.362321296727237 
1774	 0.362350100255706 
1775	 0.362421590087023 
1776	 0.362464932709512 
1777	 0.362474186512363 
1778	 0.362477768326936 
1779	 0.362467175891416 
1780	 0.362397589231331 
1781	 0.362328105158465 
1782	 0.362365814773691 
1783	 0.362443214490065 
1784	 0.36249948646408 
1785	 0.36258358104112 
1786	 0.362641734700023 
1787	 0.362629239127007 
1788	 0.362666010767943 
1789	 0.362741016940163 
1790	 0.362817622579018 
1791	 0.362880514018513 
1792	 0.362985632879482 
1793	 0.363121136238991 
1794	 0.363323825128587 
1795	 0.363524175744637 
1796	 0.363799573437068 
1797	 0.364119400950796 
1798	 0.364378852362673 
1799	 0.364626488451694 
1800	 0.364852595882751 
1801	 0.363528816699656 
1802	 0.3636568740608 
1803	 0.363810750748743 
1804	 0.363932477123841 
1805	 0.364132261389109 
1806	 0.364363122363673 
1807	 0.364616510862581 
1808	 0.364868437062797 
1809	 0.365251603649981 
1810	 0.365473294221715 
1811	 0.365559037033455 
1812	 0.365734967559631 
1813	 0.365898512952698 
1814	 0.366020778351394 
1815	 0.366273398559746 
1816	 0.366607307918897 
1817	 0.366850884821437 
1818	 0.367083641377661 
1819	 0.367329158966794 
1820	 0.367507231042816 
1821	 0.367724978068445 
1822	 0.367974135934243 
1823	 0.368266203211717 
1824	 0.368410483359148 
1825	 0.368650740485519 
1826	 0.368922593711452 
1827	 0.369166654167647 
1828	 0.369476518766978 
1829	 0.36990872377122 
1830	 0.370278745875203 
1831	 0.370659874612794 
1832	 0.370981940212182 
1833	 0.371343014751547 
1834	 0.371778737409371 
1835	 0.372243948373526 
1836	 0.372720084297844 
1837	 0.373166554429034 
1838	 0.373594797784388 
1839	 0.374044639864109 
1840	 0.374498209043841 
1841	 0.374958261935218 
1842	 0.375452106306778 
1843	 0.375940024671173 
1844	 0.37635336427317 
1845	 0.376657237850273 
1846	 0.377048803938961 
1847	 0.3773932529715 
1848	 0.377687878415286 
1849	 0.378034027573393 
1850	 0.378252008129025 
1851	 0.37837178955549 
1852	 0.378435389209148 
1853	 0.37849658835495 
1854	 0.378464055553602 
1855	 0.378460606505145 
1856	 0.378446301185727 
1857	 0.378312418685697 
1858	 0.378082948578256 
1859	 0.377796210119894 
1860	 0.377389500851121 
1861	 0.376968900141748 
1862	 0.376479569663078 
1863	 0.376031219578005 
1864	 0.375510536130634 
1865	 0.374908366145233 
1866	 0.37426119661701 
1867	 0.37342060446235 
1868	 0.372508307171681 
1869	 0.371488292785538 
1870	 0.370345801576768 
1871	 0.369137473095089 
1872	 0.367789499455549 
1873	 0.366339119652351 
1874	 0.364734401776067 
1875	 0.362971395797978 
1876	 0.360899333225163 
1877	 0.358746664704872 
1878	 0.356407122431769 
1879	 0.353843270242732 
1880	 0.351367761295725 
1881	 0.348647804567286 
1882	 0.345736617680206 
1883	 0.34265906726802 
1884	 0.33952042520734 
1885	 0.335944365829533 
1886	 0.332291665140089 
1887	 0.328419811462197 
1888	 0.324209789665995 
1889	 0.320140732145599 
1890	 0.315752687505603 
1891	 0.311365375170838 
1892	 0.307006231087905 
1893	 0.302336730549407 
1894	 0.297332937459446 
1895	 0.29251433923769 
1896	 0.287485752107123 
1897	 0.282242384207226 
1898	 0.277547770604136 
1899	 0.272740324714257 
1900	 0.268027302850129 
1901	 0.263647039451265 
1902	 0.258975854695709 
1903	 0.254475594648815 
1904	 0.25018707532188 
1905	 0.245980244084162 
1906	 0.241967373587769 
1907	 0.238451153113361 
1908	 0.235025555931155 
1909	 0.231841355242268 
1910	 0.228876257940664 
1911	 0.225807964657095 
1912	 0.223103679356326 
1913	 0.220613343450811 
1914	 0.218083953297701 
1915	 0.215895908989875 
1916	 0.214029992694256 
1917	 0.212307320890296 
1918	 0.210629912062219 
1919	 0.209219382097731 
1920	 0.207910715266399 
1921	 0.206600324982676 
1922	 0.205470552780907 
1923	 0.204578471368984 
1924	 0.203742761103095 
1925	 0.202991817158599 
1926	 0.202336280836898 
1927	 0.201735448927528 
1928	 0.201231686308841 
1929	 0.200814046220639 
1930	 0.200554283961172 
1931	 0.200391971011577 
1932	 0.200318591054692 
1933	 0.200334970720588 
1934	 0.200444813946944 
1935	 0.2006114681048 
1936	 0.200821775885573 
1937	 0.20112059834409 
1938	 0.201553321611659 
1939	 0.201970616785745 
1940	 0.202403941027117 
1941	 0.202924540817677 
1942	 0.203515852441815 
1943	 0.204134081897514 
1944	 0.204848327481352 
1945	 0.2056563890624 
1946	 0.206496192030047 
1947	 0.207302727539557 
1948	 0.208169697839659 
1949	 0.209104501126612 
1950	 0.210029455878106 
1951	 0.210983087905972 
1952	 0.211968409786239 
1953	 0.212972006549965 
1954	 0.213972078339513 
1955	 0.215047680291633 
1956	 0.216132057394834 
1957	 0.217234480094088 
1958	 0.218306980774617 
1959	 0.219353432990864 
1960	 0.220368645814982 
1961	 0.221380040125211 
1962	 0.222363689531917 
1963	 0.223399436919499 
1964	 0.224424094436839 
1965	 0.225458643069294 
1966	 0.226561161927706 
1967	 0.227593588034685 
1968	 0.228536481889415 
1969	 0.229643421853997 
1970	 0.230691628872653 
1971	 0.231673055018722 
1972	 0.232711944322289 
1973	 0.233644213175511 
1974	 0.234662927821914 
1975	 0.235738909624496 
1976	 0.236797046851597 
1977	 0.237886478643696 
1978	 0.238961649404196 
1979	 0.240056078283827 
1980	 0.241031557617501 
1981	 0.242073296015949 
1982	 0.243135041721359 
1983	 0.244185196635778 
1984	 0.245256220492089 
1985	 0.246255576413859 
1986	 0.247204632225941 
1987	 0.248172225639563 
1988	 0.249070232342452 
1989	 0.250060334742899 
1990	 0.251165125848214 
1991	 0.252148650706001 
1992	 0.253146412429292 
1993	 0.254062809667389 
1994	 0.254851259667062 
1995	 0.255672874618984 
1996	 0.256514695082407 
1997	 0.257248860001245 
1998	 0.258000103412569 
1999	 0.258753974618197 
2000	 0.259441358236721 
2001	 0.260092460104376 
2002	 0.260728975748474 
2003	 0.261374564109147 
2004	 0.261885571846211 
2005	 0.262301239143753 
2006	 0.262720477814772 
2007	 0.263103405576495 
2008	 0.263333871720109 
2009	 0.263616809400995 
2010	 0.263928358787494 
2011	 0.264068040998803 
2012	 0.26415881922213 
2013	 0.264184582661255 
2014	 0.264131998510922 
2015	 0.264004891382201 
2016	 0.263845677620861 
2017	 0.263566606987228 
2018	 0.263140346074533 
2019	 0.262730997870701 
2020	 0.262280601082931 
2021	 0.261726485451923 
2022	 0.261171991961755 
2023	 0.26060012505869 
2024	 0.259804280871371 
2025	 0.258920686439873 
2026	 0.258041459267746 
2027	 0.257063810918315 
2028	 0.256056238331687 
2029	 0.255031059610719 
2030	 0.253989606121342 
2031	 0.252878043956714 
2032	 0.251780072922672 
2033	 0.250692407678615 
2034	 0.249585851018456 
2035	 0.248443920043612 
2036	 0.247265562552523 
2037	 0.24617441973194 
2038	 0.245064774568592 
2039	 0.244034054932073 
2040	 0.243078355031191 
2041	 0.24209951564884 
2042	 0.241152723534369 
2043	 0.240219059266824 
2044	 0.239234546810037 
2045	 0.23836786711104 
2046	 0.237626818831837 
2047	 0.236808582773717 
2048	 0.236012786918842 
2049	 0.235237477292998 
2050	 0.234420517758029 
2051	 0.233628976702318 
2052	 0.232927849989091 
2053	 0.232232416783951 
2054	 0.231571886303636 
2055	 0.230942863504352 
2056	 0.23031494606641 
2057	 0.229729702320094 
2058	 0.229133801084659 
2059	 0.228509778144132 
2060	 0.227948832120786 
2061	 0.227430424880383 
2062	 0.226901934098821 
2063	 0.226440371569176 
2064	 0.225920992310622 
2065	 0.225342126346168 
2066	 0.224795801070018 
2067	 0.224305598162035 
2068	 0.2238411675104 
2069	 0.223386777674244 
2070	 0.222992744558048 
2071	 0.222606420417245 
2072	 0.222211284185359 
2073	 0.221842284070073 
2074	 0.221543877592994 
2075	 0.221188900133742 
2076	 0.220803248604924 
2077	 0.220441475631814 
2078	 0.220029863745465 
2079	 0.219722657323678 
2080	 0.219525945947167 
2081	 0.219239311060799 
2082	 0.218926304029832 
2083	 0.218681337251182 
2084	 0.218400925701748 
2085	 0.218166846953624 
2086	 0.21795657332783 
2087	 0.2178396599235 
2088	 0.217681411068991 
2089	 0.21751037653857 
2090	 0.217343943030754 
2091	 0.217226097233794 
2092	 0.217047445696264 
2093	 0.216797376408443 
2094	 0.216595803245766 
2095	 0.216364585167404 
2096	 0.21619896576249 
2097	 0.216084545557638 
2098	 0.215996492468087 
2099	 0.215899697940889 
2100	 0.215789785613524 
2101	 0.215738308721203 
2102	 0.215718199485774 
2103	 0.215673029529968 
2104	 0.215666796273467 
2105	 0.215632218432836 
2106	 0.215537365644059 
2107	 0.215495700582605 
2108	 0.215460073191777 
2109	 0.215490114302961 
2110	 0.215557355934248 
2111	 0.215645064133116 
2112	 0.215820426076498 
2113	 0.215954205539249 
2114	 0.21609018759361 
2115	 0.216215336262154 
2116	 0.216303397327686 
2117	 0.216425688602553 
2118	 0.216564478867381 
2119	 0.216723506379575 
2120	 0.216843667073749 
2121	 0.216964585022098 
2122	 0.217093413438651 
2123	 0.217187612962714 
2124	 0.217318185169424 
2125	 0.217482922594028 
2126	 0.217650342572491 
2127	 0.217828335719425 
2128	 0.21799086494988 
2129	 0.218201221454152 
2130	 0.218344140163282 
2131	 0.218444479076712 
2132	 0.218524837696153 
2133	 0.218545800445531 
2134	 0.218584558485538 
2135	 0.218566421388705 
2136	 0.218636332069919 
2137	 0.218732141407014 
2138	 0.218895042061608 
2139	 0.218956730268174 
2140	 0.219036983213516 
2141	 0.219061658783587 
2142	 0.21892997264281 
2143	 0.218994018137795 
2144	 0.219200842497599 
2145	 0.219268925534446 
2146	 0.219380972228331 
2147	 0.21942402226482 
2148	 0.219295433426816 
2149	 0.219279293348502 
2150	 0.219353335471757 
2151	 0.219357908016871 
2152	 0.21934986003301 
2153	 0.219336892784293 
2154	 0.219274426377279 
2155	 0.219272247382005 
2156	 0.21924425826756 
2157	 0.219226593187036 
2158	 0.219230677537408 
2159	 0.219227610982244 
2160	 0.219236200594127 
2161	 0.219227212339047 
2162	 0.219325847023154 
2163	 0.219527158544189 
2164	 0.219611066340033 
2165	 0.219754231318788 
2166	 0.219829627127301 
2167	 0.219693163181873 
2168	 0.21974825948882 
2169	 0.219899404358189 
2170	 0.220058653784541 
2171	 0.220324572489793 
2172	 0.220551548449823 
2173	 0.220810213994602 
2174	 0.221004100616454 
2175	 0.221205928087333 
2176	 0.221381000369083 
2177	 0.22157120170864 
2178	 0.22171356908313 
2179	 0.221994773883512 
2180	 0.222356915557632 
2181	 0.222665932934723 
2182	 0.223043579638908 
2183	 0.223380133735313 
2184	 0.223634412538541 
2185	 0.223967528977062 
2186	 0.224388712894141 
2187	 0.224726812072038 
2188	 0.225014709420605 
2189	 0.225375689624968 
2190	 0.225759030937039 
2191	 0.226112391440025 
2192	 0.226504963043764 
2193	 0.226871194906441 
2194	 0.227158828196386 
2195	 0.227504820620204 
2196	 0.227915119061203 
2197	 0.228273119506585 
2198	 0.228718696274715 
2199	 0.229126369488937 
2200	 0.229484985180014 
2201	 0.229816793674713 
2202	 0.230185469692654 
2203	 0.230534698403112 
2204	 0.230846758007511 
2205	 0.23118418704051 
2206	 0.231478117141907 
2207	 0.231680931030756 
2208	 0.231938992026713 
2209	 0.232196246007316 
2210	 0.232495462774272 
2211	 0.232872412966508 
2212	 0.233140337077571 
2213	 0.233435894824411 
2214	 0.233640559530422 
2215	 0.233708257043735 
2216	 0.233778077238637 
2217	 0.233833745037552 
2218	 0.233851315809064 
2219	 0.233886419536646 
2220	 0.233804042851958 
2221	 0.233678462603723 
2222	 0.233389561273725 
2223	 0.233109474947634 
2224	 0.232777964649063 
2225	 0.232564431863118 
2226	 0.232342470848159 
2227	 0.231963251990977 
2228	 0.231555185560178 
2229	 0.231002227131685 
2230	 0.230252983783885 
2231	 0.229554196874196 
2232	 0.228811299267986 
2233	 0.228004354756843 
2234	 0.227150533412779 
2235	 0.226279458044702 
2236	 0.225385935199782 
2237	 0.224384990089835 
2238	 0.223372525979105 
2239	 0.222205103198657 
2240	 0.220790336683565 
2241	 0.219503719028042 
2242	 0.218212536267904 
2243	 0.216871067977443 
2244	 0.215619729534864 
2245	 0.214238082514639 
2246	 0.212653465088825 
2247	 0.211173471882775 
2248	 0.209693309301529 
2249	 0.208186186036651 
2250	 0.206725733288666 
2251	 0.205227462038829 
2252	 0.203648327280764 
2253	 0.202146182458517 
2254	 0.200556688355592 
2255	 0.198997602957069 
2256	 0.197548769208293 
2257	 0.195926739902458 
2258	 0.19441118380814 
2259	 0.192962479079194 
2260	 0.19151759758575 
2261	 0.190026965074751 
2262	 0.188708834027551 
2263	 0.187463958659642 
2264	 0.186267221583243 
2265	 0.185142640463651 
2266	 0.184143552676053 
2267	 0.18321675728585 
2268	 0.182402860318452 
2269	 0.181787435914112 
2270	 0.181144583191242 
2271	 0.180470863544325 
2272	 0.180016691604975 
2273	 0.179742773578367 
2274	 0.179422616743035 
2275	 0.179217410276786 
2276	 0.179047806471108 
2277	 0.17882284876868 
2278	 0.178720771208622 
2279	 0.178724549433482 
2280	 0.178834701582199 
2281	 0.179056031872233 
2282	 0.179312052939959 
2283	 0.17973881603009 
2284	 0.180101210400053 
2285	 0.180396824242482 
2286	 0.180764934100281 
2287	 0.181031238345452 
2288	 0.18140511979299 
2289	 0.182009856241157 
2290	 0.182437845159975 
2291	 0.182874835401606 
2292	 0.183306641822649 
2293	 0.183520407040046 
2294	 0.183804393751726 
2295	 0.184190358899201 
2296	 0.184525408008551 
2297	 0.18477553406795 
2298	 0.185036306076209 
2299	 0.185125475611116 
2300	 0.184987332856482 
2301	 0.185105508637568 
2302	 0.18525687796888 
2303	 0.185315291260575 
2304	 0.185510618041367 
2305	 0.185495412340588 
2306	 0.185284814569479 
2307	 0.185135268355597 
2308	 0.184946256514144 
2309	 0.184718956972557 
2310	 0.184462053121992 
2311	 0.184211169335952 
2312	 0.183954039743425 
2313	 0.183653293977887 
2314	 0.183358155250161 
2315	 0.182932375163884 
2316	 0.182311288187832 
2317	 0.181900412189758 
2318	 0.181426885639204 
2319	 0.18111989957815 
2320	 0.181067037670441 
2321	 0.180919124307459 
2322	 0.180868244011189 
2323	 0.180732061013822 
2324	 0.180548707059749 
2325	 0.180360625003313 
2326	 0.180147372527843 
2327	 0.17984621209633 
2328	 0.179425181427831 
2329	 0.179123191558926 
2330	 0.178782632906639 
2331	 0.178526886685304 
2332	 0.178503425703746 
2333	 0.178317134830672 
2334	 0.178075120326919 
2335	 0.178019015148853 
2336	 0.17794810597672 
2337	 0.17791369153241 
2338	 0.177869083392024 
2339	 0.177782314783583 
2340	 0.177659474522755 
2341	 0.177579920375143 
2342	 0.177762923756428 
2343	 0.17800495998396 
2344	 0.178237946452048 
2345	 0.178449917620838 
2346	 0.178444955760397 
2347	 0.178588231046794 
2348	 0.178801826349339 
2349	 0.178876509284348 
2350	 0.17908030859723 
2351	 0.179248482798883 
2352	 0.179440083654208 
2353	 0.179706621587675 
2354	 0.179961091961998 
2355	 0.180154903049209 
2356	 0.180119976592032 
2357	 0.180125957144828 
2358	 0.180206004460131 
2359	 0.18017765754882 
2360	 0.180260937367953 
2361	 0.180420564223147 
2362	 0.180520647901086 
2363	 0.180636200412498 
2364	 0.180644322864865 
2365	 0.180570611516534 
2366	 0.180667327835014 
2367	 0.180798724212296 
2368	 0.18079923860909 
2369	 0.180813507297644 
2370	 0.180836042916181 
2371	 0.180768262643251 
2372	 0.180753774409918 
2373	 0.180895613999136 
2374	 0.180829140997483 
2375	 0.180895343222038 
2376	 0.181105475692153 
2377	 0.180846402125648 
2378	 0.180842876636876 
2379	 0.180898438058798 
2380	 0.180726247771095 
2381	 0.180850969437516 
2382	 0.180911514960947 
2383	 0.180937474064881 
2384	 0.180939291176365 
2385	 0.180945240344506 
2386	 0.181109463068064 
2387	 0.181198705549839 
2388	 0.18144771002757 
2389	 0.182092188392822 
2390	 0.182205117563885 
2391	 0.182150028925625 
2392	 0.182201388558859 
2393	 0.181948065911401 
2394	 0.18193728949073 
2395	 0.182065092813476 
2396	 0.182326155364633 
2397	 0.182762108705173 
2398	 0.182986936682117 
2399	 0.183355296389215 
2400	 0.183417057222089 
2401	 0.183084888537609 
2402	 0.18302432686356 
2403	 0.182786217746592 
2404	 0.182227434029331 
2405	 0.182116843458913 
2406	 0.181951303412514 
2407	 0.181706441372068 
2408	 0.181972131698628 
2409	 0.181893969878511 
2410	 0.181452831762875 
2411	 0.180931561117709 
2412	 0.180060262640852 
2413	 0.179752673856076 
2414	 0.179670182553627 
2415	 0.179141699788244 
2416	 0.178617067193012 
2417	 0.17816045192592 
2418	 0.177669225101311 
2419	 0.177538241771544 
2420	 0.17744353034039 
2421	 0.176754189079486 
2422	 0.175902428338574 
2423	 0.174883068572019 
2424	 0.173929062490046 
2425	 0.173194801434689 
2426	 0.172602634918563 
2427	 0.171923447414082 
2428	 0.171016287047026 
2429	 0.170370648679209 
2430	 0.16968400450876 
2431	 0.168886771757842 
2432	 0.168164476103386 
2433	 0.167432325525718 
2434	 0.166450459616399 
2435	 0.16550701829868 
2436	 0.165013232546224 
2437	 0.164439950443118 
2438	 0.164151159237195 
2439	 0.163895777878856 
2440	 0.162833128771336 
2441	 0.162025774005474 
2442	 0.16124302722424 
2443	 0.160043754562913 
2444	 0.159628402513822 
2445	 0.15917367033074 
2446	 0.157990697413305 
2447	 0.157179943413063 
2448	 0.156679385731891 
2449	 0.156001841169556 
2450	 0.155211017692543 
2451	 0.154311620924306 
2452	 0.153114553280036 
2453	 0.151284223192886 
2454	 0.149680377547212 
2455	 0.148470906840567 
2456	 0.146961180087643 
2457	 0.146460482473784 
2458	 0.146836112592678 
2459	 0.14636799532773 
2460	 0.146100062463934 
2461	 0.145652558699682 
2462	 0.143768339988706 
2463	 0.142773000360634 
2464	 0.142129024874846 
2465	 0.140816350802365 
2466	 0.14068633943017 
2467	 0.140888288786921 
2468	 0.140484632059486 
2469	 0.140015657188076 
2470	 0.139603734146884 
2471	 0.138569154980046 
2472	 0.136867094277055 
2473	 0.135671505937083 
2474	 0.134491144128752 
2475	 0.133364894362348 
2476	 0.13349249291842 
2477	 0.134148718524229 
2478	 0.133881846226022 
2479	 0.133077342953655 
2480	 0.131879524000865 
2481	 0.131171519919717 
2482	 0.131587983597615 
2483	 0.131123917096217 
2484	 0.130302537022347 
2485	 0.129431620376955 
2486	 0.128806356739323 
2487	 0.128104313057326 
2488	 0.127438224969994 
2489	 0.127687447438963 
2490	 0.126962214056982 
2491	 0.126775186029804 
2492	 0.12813544047267 
2493	 0.128246566604055 
2494	 0.128332800282548 
2495	 0.129453896595972 
2496	 0.129857404466479 
2497	 0.129882845101821 
2498	 0.129836979613649 
2499	 0.128866406408681 
2500	 0.128850482695552 
