Wavelength	Tablay400125.asd
350	 0.110374402573667 
351	 8.35804138992636E-02 
352	 4.32065459839279E-02 
353	 4.83478187435343E-02 
354	 8.29865676410952E-02 
355	 8.08943064762976E-02 
356	 0.063613294148079 
357	 5.59936181741855E-02 
358	 3.51750893138232E-02 
359	 4.93687127858545E-02 
360	 8.09714248934852E-02 
361	 7.92142035500067E-02 
362	 7.47539104824654E-02 
363	 0.102661333974857 
364	 0.13997801820112 
365	 7.91167424202101E-02 
366	 5.93875816406495E-02 
367	 6.67005135439996E-02 
368	 6.65567731766682E-02 
369	 9.07266883691959E-02 
370	 8.01568124157203E-02 
371	 6.45081626287804E-02 
372	 0.109876638939517 
373	 9.50803072854532E-02 
374	 4.38338561829789E-02 
375	 1.14717401513108E-02 
376	 0.072040268219162 
377	 6.73242929141254E-02 
378	 5.86658725605501E-02 
379	 0.107108293959897 
380	 8.50337322000543E-02 
381	 5.94634483891593E-02 
382	 5.88497914796524E-02 
383	 7.53622214492962E-02 
384	 7.41006999319507E-02 
385	 4.41926247306084E-02 
386	 1.07039509076111E-02 
387	 5.22582496506362E-02 
388	 8.87075363312396E-02 
389	 9.70305921145904E-02 
390	 7.96999005728721E-02 
391	 6.96251974722615E-02 
392	 8.89198475110313E-02 
393	 9.78583035708979E-02 
394	 0.03173189998875 
395	 3.01301212525051E-02 
396	 5.30866318016508E-02 
397	 6.19392347182495E-02 
398	 5.38323404377399E-02 
399	 7.47704978683904E-02 
400	 8.88106704207048E-02 
401	 6.23268114707177E-02 
402	 5.24751841291469E-02 
403	 5.65741613467396E-02 
404	 6.70334378609642E-02 
405	 7.47482753027198E-02 
406	 7.27014480112952E-02 
407	 6.68875837297079E-02 
408	 6.16925189393559E-02 
409	 5.33487394041559E-02 
410	 6.58302117494573E-02 
411	 7.89215666790208E-02 
412	 6.93739188962096E-02 
413	 7.19084102865189E-02 
414	 6.30826183018439E-02 
415	 4.97556538776495E-02 
416	 6.35142825965096E-02 
417	 6.77741544595405E-02 
418	 6.70398348223554E-02 
419	 6.77032511078986E-02 
420	 6.31993765776968E-02 
421	 5.93302120166271E-02 
422	 5.74927008405035E-02 
423	 5.74871725970546E-02 
424	 6.01916669816449E-02 
425	 6.26770727475347E-02 
426	 6.31970497806996E-02 
427	 6.17025168642279E-02 
428	 5.58396379472423E-02 
429	 4.99256861589795E-02 
430	 4.89619594098342E-02 
431	 5.76546434901614E-02 
432	 6.14965364154209E-02 
433	 5.96282069008362E-02 
434	 5.86545129157914E-02 
435	 5.91111774810619E-02 
436	 0.060158227014703 
437	 5.99845479146497E-02 
438	 5.53980219349149E-02 
439	 5.58455047422165E-02 
440	 5.74079253288799E-02 
441	 5.53229463550766E-02 
442	 5.82102855608608E-02 
443	 0.059024976620742 
444	 5.69239069613532E-02 
445	 5.60480861738378E-02 
446	 5.55957693727549E-02 
447	 5.58486343982371E-02 
448	 5.64072235229633E-02 
449	 5.48224773443662E-02 
450	 5.66631443913498E-02 
451	 5.88782951051733E-02 
452	 5.67940021876643E-02 
453	 5.66686685933711E-02 
454	 5.68677186037852E-02 
455	 0.056038407107472 
456	 5.37749766693904E-02 
457	 5.29321936148488E-02 
458	 5.39701775860668E-02 
459	 5.60174046568348E-02 
460	 5.63044714059865E-02 
461	 5.65489957928042E-02 
462	 5.57490355299173E-02 
463	 5.24457453253262E-02 
464	 5.42796201756296E-02 
465	 5.46205999750341E-02 
466	 5.18044789887957E-02 
467	 5.38358373558336E-02 
468	 5.38652305988339E-02 
469	 5.31870187938887E-02 
470	 5.40477834417163E-02 
471	 5.27800687244012E-02 
472	 5.32181602499637E-02 
473	 5.50670617511686E-02 
474	 5.49493965605112E-02 
475	 5.49525027655963E-02 
476	 5.49383265036233E-02 
477	 5.44270041991775E-02 
478	 5.25499690432901E-02 
479	 0.0532030474192 
480	 5.45911927233836E-02 
481	 0.053557972157853 
482	 5.32162197291699E-02 
483	 5.32266731684808E-02 
484	 5.32767590310758E-02 
485	 5.33510998042419E-02 
486	 5.37789267837438E-02 
487	 5.35113957300974E-02 
488	 5.21203849891492E-02 
489	 5.17749944872612E-02 
490	 5.19850643463632E-02 
491	 5.23954152945411E-02 
492	 0.052777651146851 
493	 5.37826106582549E-02 
494	 5.30772567694349E-02 
495	 5.07810219815887E-02 
496	 0.051387026847044 
497	 0.051894085324621 
498	 5.11149510830254E-02 
499	 4.92955565613613E-02 
500	 5.04236480880092E-02 
501	 5.13454679689591E-02 
502	 0.051222785113812 
503	 5.13833488723124E-02 
504	 5.07383900482268E-02 
505	 5.04237373871738E-02 
506	 5.11329975605868E-02 
507	 0.051811577005659 
508	 5.17197947115237E-02 
509	 5.14356161301879E-02 
510	 5.18411067718536E-02 
511	 5.14200560251473E-02 
512	 5.03100311933232E-02 
513	 4.95915307742513E-02 
514	 5.13508312363986E-02 
515	 0.05091293187503 
516	 4.97954964145582E-02 
517	 0.050137840346365 
518	 5.05806337486186E-02 
519	 0.050548418763612 
520	 0.050188233826042 
521	 5.00730856525299E-02 
522	 4.93990750914275E-02 
523	 0.049529637919636 
524	 5.06502010838246E-02 
525	 5.01291459651598E-02 
526	 4.95141762761169E-02 
527	 0.049375765515996 
528	 0.04981431023051 
529	 5.02770783576719E-02 
530	 5.01220487722838E-02 
531	 4.95943287005767E-02 
532	 4.98087900068642E-02 
533	 5.01929383218464E-02 
534	 5.01521491811846E-02 
535	 4.96326456874759E-02 
536	 5.01660169466846E-02 
537	 5.03536265948562E-02 
538	 5.00799636199728E-02 
539	 4.99164091901913E-02 
540	 4.96979451783809E-02 
541	 4.94982089279366E-02 
542	 0.049411414632803 
543	 0.04955083817038 
544	 0.049618630007132 
545	 4.94391560822912E-02 
546	 4.90721614816053E-02 
547	 4.93960851046155E-02 
548	 4.95678554692118E-02 
549	 0.04930418783957 
550	 4.89174301942421E-02 
551	 4.94668072032507E-02 
552	 4.97744246342378E-02 
553	 4.91461392746559E-02 
554	 4.91090992927722E-02 
555	 0.049252875288 
556	 4.93899323885307E-02 
557	 4.93974355316215E-02 
558	 4.90887351196632E-02 
559	 4.88608163039341E-02 
560	 4.89303434212139E-02 
561	 4.91997729072241E-02 
562	 4.90998886926033E-02 
563	 0.049096645382155 
564	 4.95423569604584E-02 
565	 4.91886748748549E-02 
566	 4.91780926493565E-02 
567	 4.94507978946818E-02 
568	 4.91257583832232E-02 
569	 4.92730782544591E-02 
570	 4.92194430188458E-02 
571	 4.87011463171308E-02 
572	 4.88747071264997E-02 
573	 4.88652783417766E-02 
574	 4.87939820664638E-02 
575	 4.89951340134679E-02 
576	 4.87921521947683E-02 
577	 4.86585794438666E-02 
578	 0.048792006206187 
579	 4.89926131801549E-02 
580	 4.90611608765758E-02 
581	 4.91018766460425E-02 
582	 4.91657433732567E-02 
583	 4.88077572029718E-02 
584	 4.90339746853131E-02 
585	 4.95009154959301E-02 
586	 0.0491884644753 
587	 4.88240006483345E-02 
588	 4.86692740702935E-02 
589	 4.87533870309482E-02 
590	 4.88313385650519E-02 
591	 4.89052351825236E-02 
592	 4.90117050760575E-02 
593	 4.91585723302538E-02 
594	 4.91643999115807E-02 
595	 4.90073020862282E-02 
596	 4.88944783898528E-02 
597	 4.91642127503225E-02 
598	 4.89837525654667E-02 
599	 4.86662250782235E-02 
600	 4.85785446377395E-02 
601	 0.048748871612572 
602	 4.87403412777892E-02 
603	 4.87498276321648E-02 
604	 4.91169199591031E-02 
605	 0.049110348188885 
606	 4.89314643578597E-02 
607	 4.88359607106485E-02 
608	 4.90400955231699E-02 
609	 4.88539423556556E-02 
610	 0.048651218886108 
611	 4.88209828816817E-02 
612	 4.89013494382533E-02 
613	 4.88321517249404E-02 
614	 4.87204751235669E-02 
615	 4.87582179673875E-02 
616	 4.87874141633717E-02 
617	 4.87161955664866E-02 
618	 4.85853689875466E-02 
619	 4.86541992425608E-02 
620	 4.87249527144423E-02 
621	 4.87385730659958E-02 
622	 4.86713052886133E-02 
623	 4.83907896222395E-02 
624	 4.84794630641841E-02 
625	 4.88622691274132E-02 
626	 4.88661122578475E-02 
627	 4.89423947695727E-02 
628	 4.87987846324337E-02 
629	 4.83849338461271E-02 
630	 4.85917175455228E-02 
631	 4.86876478632223E-02 
632	 4.86591853977054E-02 
633	 4.87452434741528E-02 
634	 4.85936467391299E-02 
635	 4.85604598298287E-02 
636	 4.87062122199644E-02 
637	 4.86630184097641E-02 
638	 4.85284247555136E-02 
639	 4.84792860016258E-02 
640	 4.86155050020341E-02 
641	 4.87311705298653E-02 
642	 4.87695524342377E-02 
643	 4.87701628523429E-02 
644	 4.88039606803339E-02 
645	 4.85876685305806E-02 
646	 4.83891275606312E-02 
647	 4.83942769887851E-02 
648	 4.85560990581852E-02 
649	 0.048697843886024 
650	 4.86126351180422E-02 
651	 4.82800304214553E-02 
652	 0.048422602662313 
653	 0.048595467790741 
654	 0.048578319339373 
655	 4.83970110347557E-02 
656	 4.84405611791888E-02 
657	 4.84943052564209E-02 
658	 4.84300130999111E-02 
659	 0.048535243428005 
660	 4.84770295220746E-02 
661	 4.83353048854696E-02 
662	 0.048320080637595 
663	 4.84371341993931E-02 
664	 4.85876820926745E-02 
665	 4.86991552951384E-02 
666	 4.87351270991186E-02 
667	 4.86081015699371E-02 
668	 4.85236697313396E-02 
669	 4.85930274981386E-02 
670	 0.048543807637163 
671	 4.84660454327118E-02 
672	 4.83706386918579E-02 
673	 4.82731085962683E-02 
674	 4.84362171039412E-02 
675	 4.85704196086965E-02 
676	 4.85254144081732E-02 
677	 4.83778374931601E-02 
678	 4.83544034855206E-02 
679	 4.83670937516709E-02 
680	 4.83183081029708E-02 
681	 4.83278935726027E-02 
682	 4.84096152808363E-02 
683	 0.048482089393651 
684	 4.84379789174058E-02 
685	 4.84286325057645E-02 
686	 4.83867284280509E-02 
687	 4.82750826616555E-02 
688	 4.81258306740043E-02 
689	 4.81388434523114E-02 
690	 4.82182217965743E-02 
691	 4.82517360690264E-02 
692	 4.84039810717314E-02 
693	 4.83372993055115E-02 
694	 4.82012130450882E-02 
695	 4.83810704097355E-02 
696	 4.83524269698917E-02 
697	 4.83202514604289E-02 
698	 4.83479041171365E-02 
699	 0.048131319435355 
700	 4.81958930609618E-02 
701	 4.83637556981345E-02 
702	 4.83468106505328E-02 
703	 4.82629730634386E-02 
704	 4.81623170207567E-02 
705	 4.81165821221539E-02 
706	 4.81899316073805E-02 
707	 4.82592682994627E-02 
708	 4.82615505372119E-02 
709	 4.82017651979925E-02 
710	 4.81775741438834E-02 
711	 4.81409518053964E-02 
712	 4.81580323281753E-02 
713	 4.82597586354184E-02 
714	 4.82070271092578E-02 
715	 4.82476781237904E-02 
716	 4.83381530062269E-02 
717	 4.82517515086299E-02 
718	 4.82411845583842E-02 
719	 4.82855222559333E-02 
720	 0.048317448276381 
721	 4.82470851484553E-02 
722	 0.048387385669991 
723	 4.84900616134058E-02 
724	 4.83085860981663E-02 
725	 4.83019899093685E-02 
726	 4.83362768416121E-02 
727	 4.83436111719726E-02 
728	 4.83237786119232E-02 
729	 0.04839328005741 
730	 4.84200464989346E-02 
731	 4.83610440750688E-02 
732	 4.83708389330678E-02 
733	 4.83436258428516E-02 
734	 4.83117108107233E-02 
735	 4.83298159281467E-02 
736	 4.83878846844781E-02 
737	 4.84689823827871E-02 
738	 4.84949867361792E-02 
739	 4.83836397103241E-02 
740	 4.83773995010534E-02 
741	 0.048403438239394 
742	 4.84174230396055E-02 
743	 4.84784108274749E-02 
744	 4.84985266161172E-02 
745	 4.85441282436938E-02 
746	 4.86448204766344E-02 
747	 4.85616784583829E-02 
748	 0.048490799065651 
749	 4.84972496630539E-02 
750	 4.85498723773129E-02 
751	 4.85428598921372E-02 
752	 4.85242618487863E-02 
753	 4.85291887772953E-02 
754	 4.85533989561976E-02 
755	 0.048654624858678 
756	 4.87334508763896E-02 
757	 4.87090384482588E-02 
758	 0.048654142270067 
759	 4.85798920521057E-02 
760	 4.85477563598928E-02 
761	 4.86118011091287E-02 
762	 4.86554378736188E-02 
763	 4.86423808451114E-02 
764	 4.86079226245232E-02 
765	 4.86490231145164E-02 
766	 4.87134388069757E-02 
767	 4.87200885284059E-02 
768	 4.86590340444721E-02 
769	 4.86950348465806E-02 
770	 4.87192537311487E-02 
771	 4.87142811258954E-02 
772	 4.87014723024631E-02 
773	 0.048714484092648 
774	 4.88158971280177E-02 
775	 4.88933767486188E-02 
776	 4.87384993384392E-02 
777	 4.87420285791299E-02 
778	 4.87221269294349E-02 
779	 4.86112808113032E-02 
780	 4.86736970117814E-02 
781	 4.87546269142357E-02 
782	 4.87793154953185E-02 
783	 4.87411703929981E-02 
784	 4.87968081623613E-02 
785	 4.87699109067577E-02 
786	 4.86925000526678E-02 
787	 0.048698600686879 
788	 4.86965356509174E-02 
789	 4.87407322115711E-02 
790	 4.87985295862069E-02 
791	 4.87314301619355E-02 
792	 4.86787067670677E-02 
793	 4.87060428118036E-02 
794	 4.88024445294728E-02 
795	 4.88264509678431E-02 
796	 4.87524602478098E-02 
797	 4.87020206214293E-02 
798	 4.87832170037625E-02 
799	 4.87294823949597E-02 
800	 4.87531926565737E-02 
801	 4.88316140074812E-02 
802	 4.87728563747595E-02 
803	 4.87599511785874E-02 
804	 4.87321813602783E-02 
805	 4.86851743533676E-02 
806	 4.87419295896591E-02 
807	 4.86987910649524E-02 
808	 4.86756447153693E-02 
809	 4.87712817216599E-02 
810	 4.87859242865081E-02 
811	 4.87136745879728E-02 
812	 4.86687671191494E-02 
813	 4.87645194705006E-02 
814	 4.87683167234233E-02 
815	 0.048755319812478 
816	 4.87493635011258E-02 
817	 4.87204057535729E-02 
818	 0.048759883503984 
819	 4.87654320137584E-02 
820	 4.87170965851399E-02 
821	 4.87760342340046E-02 
822	 0.048703093594404 
823	 4.85887160391057E-02 
824	 4.85802993451163E-02 
825	 4.87323637406632E-02 
826	 4.87337189247279E-02 
827	 4.86616888409085E-02 
828	 4.87279086362846E-02 
829	 4.87452970267103E-02 
830	 4.87872060332538E-02 
831	 0.048842858895193 
832	 4.88241318579077E-02 
833	 4.87571604324202E-02 
834	 4.87201453668677E-02 
835	 4.87354989228621E-02 
836	 4.87289944068161E-02 
837	 4.88346150042675E-02 
838	 4.88701012577762E-02 
839	 4.87440526516938E-02 
840	 4.88384008727011E-02 
841	 4.89021014534351E-02 
842	 4.89055594522415E-02 
843	 4.88947010011975E-02 
844	 4.88117363531742E-02 
845	 4.88015980532239E-02 
846	 4.88824377077672E-02 
847	 4.89672071375561E-02 
848	 4.90113968264854E-02 
849	 4.89693749925155E-02 
850	 4.88822353239171E-02 
851	 4.88833655923943E-02 
852	 4.88195554180516E-02 
853	 4.87529500913277E-02 
854	 4.87723215027748E-02 
855	 4.89406443336685E-02 
856	 4.89532988863571E-02 
857	 4.89149663708029E-02 
858	 4.89688676368453E-02 
859	 4.88648004492067E-02 
860	 4.88938158065569E-02 
861	 4.90120719942476E-02 
862	 4.90225185779821E-02 
863	 4.89636669957796E-02 
864	 4.89919507729167E-02 
865	 4.90579502380452E-02 
866	 4.89614655900302E-02 
867	 4.89169764741557E-02 
868	 4.89967708481588E-02 
869	 4.91205422326539E-02 
870	 4.90482346555242E-02 
871	 4.90720431898461E-02 
872	 4.91125147954247E-02 
873	 4.90907453768787E-02 
874	 4.91142655633741E-02 
875	 4.90663072018203E-02 
876	 4.90793947473906E-02 
877	 4.92241951941045E-02 
878	 4.90784117656007E-02 
879	 0.048967645626478 
880	 4.89995429394101E-02 
881	 4.91119774821106E-02 
882	 0.048996553509553 
883	 4.90367396683542E-02 
884	 4.91947292139262E-02 
885	 4.91347435105792E-02 
886	 4.91442233785881E-02 
887	 4.91226994307806E-02 
888	 4.90544540776613E-02 
889	 4.90599595049795E-02 
890	 4.90911643369421E-02 
891	 4.91015350432759E-02 
892	 4.91169641658533E-02 
893	 4.92821072612576E-02 
894	 4.92866782184273E-02 
895	 4.91516783702796E-02 
896	 4.90380941469574E-02 
897	 4.92388835301972E-02 
898	 4.92651271783769E-02 
899	 4.92038478229854E-02 
900	 4.92595806696397E-02 
901	 4.92665620745425E-02 
902	 4.92277460246541E-02 
903	 4.91853678102878E-02 
904	 4.91770690139119E-02 
905	 4.90670941909616E-02 
906	 4.92799418975664E-02 
907	 4.94873542246136E-02 
908	 4.90322536746933E-02 
909	 4.91712919116201E-02 
910	 4.92852078752068E-02 
911	 4.91461664695646E-02 
912	 4.90995465990553E-02 
913	 4.91246502950325E-02 
914	 4.92054018916168E-02 
915	 4.92799628330731E-02 
916	 4.92474335865451E-02 
917	 4.93183607978195E-02 
918	 4.92643363728622E-02 
919	 4.90475859625729E-02 
920	 4.91241726967922E-02 
921	 4.92872644075932E-02 
922	 4.93047639826496E-02 
923	 4.91440648455449E-02 
924	 4.92779838395141E-02 
925	 4.94669436955506E-02 
926	 4.94271538012275E-02 
927	 4.91407178764709E-02 
928	 0.049522744938703 
929	 4.95951080673573E-02 
930	 4.94492730040308E-02 
931	 4.95053571397631E-02 
932	 4.94507821056558E-02 
933	 0.049386408405012 
934	 4.93095214369095E-02 
935	 4.92071823161097E-02 
936	 4.93543502078269E-02 
937	 0.049383888682701 
938	 4.93464003001068E-02 
939	 0.04953650484671 
940	 4.96595053036453E-02 
941	 4.96618708778913E-02 
942	 4.95088396846966E-02 
943	 0.04923586303678 
944	 4.94259798637146E-02 
945	 0.04959238647657 
946	 4.95288826089621E-02 
947	 4.94813235422143E-02 
948	 4.97280367184794E-02 
949	 4.98506985090034E-02 
950	 4.97418144278309E-02 
951	 4.97844058959693E-02 
952	 0.049673531434066 
953	 4.94885784279764E-02 
954	 4.93514783726804E-02 
955	 4.93375731125919E-02 
956	 4.95256948477759E-02 
957	 4.96374254835024E-02 
958	 4.95648852612068E-02 
959	 4.96090027733304E-02 
960	 0.049626985542198 
961	 4.96667000049808E-02 
962	 4.97326675557087E-02 
963	 0.049670137133345 
964	 4.97366674803668E-02 
965	 4.98891487337092E-02 
966	 4.99468887323732E-02 
967	 4.96172814047356E-02 
968	 0.049639776100799 
969	 4.97266829160036E-02 
970	 4.96109236131362E-02 
971	 4.98685594469175E-02 
972	 4.98978457125799E-02 
973	 4.97925123032445E-02 
974	 4.98232004440564E-02 
975	 5.01555113600816E-02 
976	 4.99530474109951E-02 
977	 4.94652943451992E-02 
978	 4.91883101800924E-02 
979	 4.91447464932233E-02 
980	 4.92680446157996E-02 
981	 0.049429075240037 
982	 4.95635943437339E-02 
983	 4.99196398454163E-02 
984	 4.97965321663299E-02 
985	 4.96368799865086E-02 
986	 4.99897336688697E-02 
987	 5.03645640525376E-02 
988	 5.03643689903533E-02 
989	 5.02019334606836E-02 
990	 5.01262205265423E-02 
991	 4.95660113930627E-02 
992	 4.96918359619818E-02 
993	 5.01620010201448E-02 
994	 5.02486349527018E-02 
995	 4.99998059099822E-02 
996	 4.98514670973499E-02 
997	 4.98512836223538E-02 
998	 0.049918794725921 
999	 5.01491316555796E-02 
1000	 5.00945050716562E-02 
1001	 5.13612528119019E-02 
1002	 5.14455631924926E-02 
1003	 5.12954539200754E-02 
1004	 5.12317048024871E-02 
1005	 5.09689176834058E-02 
1006	 5.09471516423727E-02 
1007	 5.11516313888978E-02 
1008	 5.11108057389642E-02 
1009	 5.08805969638896E-02 
1010	 5.08826387652659E-02 
1011	 5.10028414316292E-02 
1012	 5.09815088634326E-02 
1013	 0.051048196345137 
1014	 5.10789531837498E-02 
1015	 5.09885036933916E-02 
1016	 5.07622850418069E-02 
1017	 5.08711408972694E-02 
1018	 5.09073349081968E-02 
1019	 5.06954077958106E-02 
1020	 5.06900294109989E-02 
1021	 5.07191411137222E-02 
1022	 5.07585442243341E-02 
1023	 5.07948004656302E-02 
1024	 5.09793386987685E-02 
1025	 5.10099368561465E-02 
1026	 5.08893309529837E-02 
1027	 0.050896396667784 
1028	 5.09279014489407E-02 
1029	 5.09875905169262E-02 
1030	 5.10170719961842E-02 
1031	 5.10647268785848E-02 
1032	 5.10516233242786E-02 
1033	 0.05092930094366 
1034	 5.09685571537491E-02 
1035	 5.10889213598358E-02 
1036	 5.10324872138642E-02 
1037	 5.08436168832939E-02 
1038	 5.08527950695017E-02 
1039	 5.07821617210144E-02 
1040	 0.05077795433259 
1041	 5.10682038752371E-02 
1042	 5.12026080811815E-02 
1043	 5.12174937806916E-02 
1044	 5.12456133437197E-02 
1045	 5.15148975581654E-02 
1046	 5.15498798160308E-02 
1047	 5.14173528367543E-02 
1048	 5.13911889465976E-02 
1049	 5.12335305512821E-02 
1050	 5.11646729222103E-02 
1051	 5.13302894729751E-02 
1052	 5.13007400367921E-02 
1053	 5.12690341945709E-02 
1054	 5.11777126752104E-02 
1055	 5.11947033127545E-02 
1056	 5.12205774291839E-02 
1057	 0.051244490888575 
1058	 5.14247051726686E-02 
1059	 5.13112472265699E-02 
1060	 5.10686834843448E-02 
1061	 5.10964500082795E-02 
1062	 5.12041663906663E-02 
1063	 5.12182061923885E-02 
1064	 5.13118543740977E-02 
1065	 5.14723491873704E-02 
1066	 5.14706902786958E-02 
1067	 5.13544252662137E-02 
1068	 5.13200983176952E-02 
1069	 5.12492527244643E-02 
1070	 0.051208235348909 
1071	 5.11389865642971E-02 
1072	 5.13006611464733E-02 
1073	 5.14643178784952E-02 
1074	 5.15063704055228E-02 
1075	 5.15624338836055E-02 
1076	 5.15957606642227E-02 
1077	 5.15742027904804E-02 
1078	 5.16302139719756E-02 
1079	 5.17147700805329E-02 
1080	 5.17336413236483E-02 
1081	 5.17597884718796E-02 
1082	 5.17357750011839E-02 
1083	 5.17014493154602E-02 
1084	 5.17256703984173E-02 
1085	 5.18387788602549E-02 
1086	 5.18950163808891E-02 
1087	 5.19552477404768E-02 
1088	 5.19385937464982E-02 
1089	 0.051943356683373 
1090	 5.18845224439433E-02 
1091	 5.17862335596765E-02 
1092	 5.18009567483533E-02 
1093	 5.19632883518209E-02 
1094	 5.20489573522562E-02 
1095	 5.19180174101878E-02 
1096	 5.18048353995185E-02 
1097	 5.17842958938864E-02 
1098	 5.17554986251546E-02 
1099	 5.19042308975476E-02 
1100	 5.21718533649178E-02 
1101	 5.22292729400606E-02 
1102	 5.22544791317913E-02 
1103	 0.052175510817122 
1104	 5.19939581614373E-02 
1105	 5.17441892718979E-02 
1106	 5.17641062881839E-02 
1107	 5.17737776864232E-02 
1108	 5.18229224045866E-02 
1109	 5.20166584548504E-02 
1110	 5.20321955973701E-02 
1111	 5.18982962375375E-02 
1112	 5.18736831490576E-02 
1113	 5.19042914371432E-02 
1114	 5.18816086997552E-02 
1115	 5.18250729705702E-02 
1116	 5.17391979209394E-02 
1117	 5.16954551596062E-02 
1118	 5.17061922928413E-02 
1119	 5.17711290407305E-02 
1120	 5.18176342985951E-02 
1121	 0.051944701690284 
1122	 5.19662845578984E-02 
1123	 0.051869865572448 
1124	 0.051763919378861 
1125	 5.16610841182493E-02 
1126	 5.16037796093182E-02 
1127	 5.16344380879968E-02 
1128	 5.16917424286315E-02 
1129	 5.17105815479169E-02 
1130	 5.16462261010633E-02 
1131	 5.16180444671798E-02 
1132	 5.15929307065419E-02 
1133	 5.15596881896929E-02 
1134	 5.16655384018837E-02 
1135	 0.051697717464103 
1136	 0.051663024065139 
1137	 5.16726746828742E-02 
1138	 5.17372762192095E-02 
1139	 5.17279597933582E-02 
1140	 5.16618271381647E-02 
1141	 5.17272449326254E-02 
1142	 5.17015130087816E-02 
1143	 5.15767521734832E-02 
1144	 5.15706578489263E-02 
1145	 5.15527281736971E-02 
1146	 5.15603642633017E-02 
1147	 5.15885353475158E-02 
1148	 5.15681419824348E-02 
1149	 5.15643012039009E-02 
1150	 5.15498080305548E-02 
1151	 5.15596952807129E-02 
1152	 5.15553530908263E-02 
1153	 5.15690755805629E-02 
1154	 5.15518710249047E-02 
1155	 5.14854670244443E-02 
1156	 5.14554390786708E-02 
1157	 5.14480337667508E-02 
1158	 5.14319043657599E-02 
1159	 5.14112941258743E-02 
1160	 5.14226150344898E-02 
1161	 5.14564250649864E-02 
1162	 5.14333224163295E-02 
1163	 5.13286499047378E-02 
1164	 5.12688871907969E-02 
1165	 5.12752126782011E-02 
1166	 5.12830475820188E-02 
1167	 5.13537589936427E-02 
1168	 5.14683595777103E-02 
1169	 5.15107455040144E-02 
1170	 5.14851899431235E-02 
1171	 5.14605848017977E-02 
1172	 0.05142338591019 
1173	 5.13823938976438E-02 
1174	 5.12447090125248E-02 
1175	 5.12348216849878E-02 
1176	 5.13339627622231E-02 
1177	 5.13745572512521E-02 
1178	 5.14622447652266E-02 
1179	 5.15120256448059E-02 
1180	 5.15253402553248E-02 
1181	 5.15252605524577E-02 
1182	 5.14649707194595E-02 
1183	 0.051514474082114 
1184	 5.15731564792815E-02 
1185	 5.15283780828342E-02 
1186	 5.15145681049169E-02 
1187	 5.15055091152495E-02 
1188	 5.15124716021581E-02 
1189	 5.15136321678456E-02 
1190	 5.15173669253167E-02 
1191	 5.15425006189077E-02 
1192	 5.15654510659075E-02 
1193	 5.15733172327084E-02 
1194	 5.15853937117068E-02 
1195	 0.051612209943802 
1196	 5.16437840196363E-02 
1197	 5.16728999239028E-02 
1198	 5.17100325194912E-02 
1199	 5.17196717088221E-02 
1200	 5.17020320812977E-02 
1201	 5.17014799603131E-02 
1202	 5.16904501981361E-02 
1203	 5.16785759395003E-02 
1204	 5.16867478589415E-02 
1205	 5.16974062457316E-02 
1206	 5.16868042492625E-02 
1207	 5.17052706174485E-02 
1208	 5.17744727655263E-02 
1209	 5.17884380891513E-02 
1210	 5.17892497222254E-02 
1211	 5.17763637929763E-02 
1212	 0.051727205928741 
1213	 5.16973740329603E-02 
1214	 5.16225122935082E-02 
1215	 5.16305403715569E-02 
1216	 5.17308339322541E-02 
1217	 5.17591630227226E-02 
1218	 5.18209713451463E-02 
1219	 5.18257040802604E-02 
1220	 5.18168134054126E-02 
1221	 5.17884201397967E-02 
1222	 5.17862640433808E-02 
1223	 5.18247155196929E-02 
1224	 5.18317713239683E-02 
1225	 5.18077303066653E-02 
1226	 5.18077875756493E-02 
1227	 5.18308931488993E-02 
1228	 5.18293805088214E-02 
1229	 5.17813877613027E-02 
1230	 5.18074957571709E-02 
1231	 0.051903342324298 
1232	 5.19177166438752E-02 
1233	 5.19540596439958E-02 
1234	 5.19509838226105E-02 
1235	 5.18445840996251E-02 
1236	 5.17879665663014E-02 
1237	 5.17447408462783E-02 
1238	 5.17107040278188E-02 
1239	 5.16494106799689E-02 
1240	 5.16611095427304E-02 
1241	 5.17262309840746E-02 
1242	 5.17624274805373E-02 
1243	 5.17733513865375E-02 
1244	 5.17913056205054E-02 
1245	 5.17930165446808E-02 
1246	 5.17351059804097E-02 
1247	 5.17553125537787E-02 
1248	 5.18212813509362E-02 
1249	 5.18671952042962E-02 
1250	 5.19493694705125E-02 
1251	 5.19775264310944E-02 
1252	 5.19933214885318E-02 
1253	 5.19820147456015E-02 
1254	 5.19083281295693E-02 
1255	 5.18773934961886E-02 
1256	 5.18522884521945E-02 
1257	 5.18247657606952E-02 
1258	 5.17997286280834E-02 
1259	 5.17965058001812E-02 
1260	 5.18070000321245E-02 
1261	 5.18010083456059E-02 
1262	 5.18067833615795E-02 
1263	 5.18236900666279E-02 
1264	 5.18127919387133E-02 
1265	 5.17839628698129E-02 
1266	 5.17340982610301E-02 
1267	 5.16373449897789E-02 
1268	 5.16269999522146E-02 
1269	 0.051637244114193 
1270	 5.16379829314856E-02 
1271	 0.05171195206398 
1272	 5.17195396592844E-02 
1273	 0.051648978647107 
1274	 5.16402925263484E-02 
1275	 5.16902227365451E-02 
1276	 5.16698706463249E-02 
1277	 5.15881899088839E-02 
1278	 5.15787834073159E-02 
1279	 5.15545077434469E-02 
1280	 5.15569911603184E-02 
1281	 5.16520158274276E-02 
1282	 5.17126903230788E-02 
1283	 5.17400054838742E-02 
1284	 5.17848620539844E-02 
1285	 0.051836132645841 
1286	 0.051903312527401 
1287	 0.051943772449687 
1288	 5.19844524597588E-02 
1289	 5.20086231382309E-02 
1290	 5.20018802367493E-02 
1291	 5.20301851895102E-02 
1292	 5.20772667210751E-02 
1293	 5.20956560251573E-02 
1294	 5.21086126102915E-02 
1295	 5.21334232453776E-02 
1296	 5.21267690243216E-02 
1297	 5.21616677279182E-02 
1298	 5.22579179053013E-02 
1299	 5.23012513411142E-02 
1300	 5.23450323689948E-02 
1301	 5.23610311333809E-02 
1302	 5.23076472392289E-02 
1303	 5.23113982543653E-02 
1304	 5.23321548972828E-02 
1305	 5.23537745285081E-02 
1306	 5.24172694716113E-02 
1307	 5.24592622979585E-02 
1308	 5.24936584694985E-02 
1309	 5.25059699865348E-02 
1310	 5.25397647778198E-02 
1311	 5.25787734734331E-02 
1312	 5.26089512881174E-02 
1313	 0.052639096331642 
1314	 5.26747556284252E-02 
1315	 5.27083850792578E-02 
1316	 5.27379171484954E-02 
1317	 5.27943445318775E-02 
1318	 5.27949129259713E-02 
1319	 5.27458194045575E-02 
1320	 5.27365439365187E-02 
1321	 5.27042863885932E-02 
1322	 5.27038363040815E-02 
1323	 5.27583076903536E-02 
1324	 5.27703344639439E-02 
1325	 5.27720558449765E-02 
1326	 5.27668394961382E-02 
1327	 0.052722185532613 
1328	 5.27161714980649E-02 
1329	 5.27446573707843E-02 
1330	 5.27435617223638E-02 
1331	 5.27693944009204E-02 
1332	 5.27551210162186E-02 
1333	 5.26929051025747E-02 
1334	 5.26186665501633E-02 
1335	 5.25911535317738E-02 
1336	 5.25616557051715E-02 
1337	 5.25612047620245E-02 
1338	 5.26143390047035E-02 
1339	 5.26098026772615E-02 
1340	 5.25921792899581E-02 
1341	 5.25693087211367E-02 
1342	 5.25225597379946E-02 
1343	 5.24922457305362E-02 
1344	 5.24612124580986E-02 
1345	 5.24401450583403E-02 
1346	 5.24323080899992E-02 
1347	 5.24060126621361E-02 
1348	 5.23721855592651E-02 
1349	 5.23508322192707E-02 
1350	 5.23224995863708E-02 
1351	 5.22993730891898E-02 
1352	 5.23092102682038E-02 
1353	 5.22809738574666E-02 
1354	 5.22004181180936E-02 
1355	 5.21730130559694E-02 
1356	 5.21527601714818E-02 
1357	 5.21427710507681E-02 
1358	 5.21907427055819E-02 
1359	 0.052203723263785 
1360	 5.21855411444675E-02 
1361	 5.21929244041902E-02 
1362	 5.21753215501373E-02 
1363	 5.21318327352871E-02 
1364	 5.21076481765441E-02 
1365	 5.20748894647851E-02 
1366	 5.20554049343739E-02 
1367	 5.20568657859366E-02 
1368	 0.052033216832288 
1369	 5.20053278585297E-02 
1370	 5.19704724008511E-02 
1371	 5.19081335790472E-02 
1372	 5.18805585215854E-02 
1373	 5.18760369728765E-02 
1374	 5.18458489617863E-02 
1375	 5.18241337605966E-02 
1376	 5.17879615864103E-02 
1377	 5.17154040188791E-02 
1378	 5.16772424232084E-02 
1379	 5.16700232727455E-02 
1380	 5.16273622210025E-02 
1381	 5.15674338836955E-02 
1382	 5.15267483713778E-02 
1383	 5.14779617277271E-02 
1384	 5.14331298620583E-02 
1385	 5.14067708005268E-02 
1386	 5.13742315336176E-02 
1387	 5.13116918647038E-02 
1388	 5.12842094789088E-02 
1389	 5.13059268711842E-02 
1390	 5.12968917437476E-02 
1391	 5.13028956118355E-02 
1392	 5.12755795539744E-02 
1393	 5.12397459710872E-02 
1394	 5.11589211788823E-02 
1395	 5.11164903699011E-02 
1396	 0.051082677855672 
1397	 5.10425619067773E-02 
1398	 5.10058267317685E-02 
1399	 5.09761599567115E-02 
1400	 0.05094401817461 
1401	 5.09129150537612E-02 
1402	 5.08843701788427E-02 
1403	 5.08766411774439E-02 
1404	 5.08850732322868E-02 
1405	 5.08656628408085E-02 
1406	 5.08526979132056E-02 
1407	 5.08351524249503E-02 
1408	 5.07853198759016E-02 
1409	 5.07610638993998E-02 
1410	 5.07524661765458E-02 
1411	 5.07510977350216E-02 
1412	 5.07472657681038E-02 
1413	 5.07610877228747E-02 
1414	 5.08072074526372E-02 
1415	 5.08325191675911E-02 
1416	 5.08778569641721E-02 
1417	 5.08827638755211E-02 
1418	 5.08493577894549E-02 
1419	 5.08321041448128E-02 
1420	 5.07729151805467E-02 
1421	 5.07573863759415E-02 
1422	 5.08075604379236E-02 
1423	 5.08051431454068E-02 
1424	 5.07779297543093E-02 
1425	 5.07709593025311E-02 
1426	 5.07512784758032E-02 
1427	 0.050725363313879 
1428	 5.07732292752477E-02 
1429	 5.08498533035367E-02 
1430	 5.08658208539017E-02 
1431	 0.050870050061855 
1432	 5.08588837360463E-02 
1433	 5.07895725320124E-02 
1434	 5.07980008018135E-02 
1435	 5.08409577728593E-02 
1436	 5.08657833836488E-02 
1437	 5.09317524232525E-02 
1438	 5.09390896124737E-02 
1439	 5.08894386806466E-02 
1440	 0.050895953001076 
1441	 5.09231984160904E-02 
1442	 5.09209237574964E-02 
1443	 5.09240140562867E-02 
1444	 5.09328661447214E-02 
1445	 5.08971536599802E-02 
1446	 5.09148623294689E-02 
1447	 5.10062162499679E-02 
1448	 5.10339926095813E-02 
1449	 5.10495636923627E-02 
1450	 5.10566069855072E-02 
1451	 5.10191190209356E-02 
1452	 5.10087150594347E-02 
1453	 5.10102283798909E-02 
1454	 5.10133914548155E-02 
1455	 5.10272411214337E-02 
1456	 5.10327297271315E-02 
1457	 5.10244320499878E-02 
1458	 5.10398634144474E-02 
1459	 5.10739075703644E-02 
1460	 5.10911013408567E-02 
1461	 5.11436080175407E-02 
1462	 5.11470225845806E-02 
1463	 5.10784234893561E-02 
1464	 5.10556111739947E-02 
1465	 5.10208997820024E-02 
1466	 5.10104531164032E-02 
1467	 0.051055486749555 
1468	 0.051079936594788 
1469	 5.10977517377452E-02 
1470	 5.11218937972221E-02 
1471	 5.11112110526694E-02 
1472	 5.10720338547862E-02 
1473	 5.10581924124841E-02 
1474	 5.10184729703568E-02 
1475	 5.10315132911652E-02 
1476	 5.11018876692312E-02 
1477	 5.11072725533403E-02 
1478	 5.11080240418991E-02 
1479	 5.10955421510516E-02 
1480	 5.10281818515497E-02 
1481	 5.10174495185724E-02 
1482	 5.10346843212607E-02 
1483	 5.10493828066878E-02 
1484	 5.10868493854198E-02 
1485	 0.051101136091809 
1486	 5.11135292132501E-02 
1487	 5.11164518560693E-02 
1488	 5.11055642184532E-02 
1489	 5.10996465096688E-02 
1490	 5.10739588279887E-02 
1491	 5.10824224120887E-02 
1492	 5.11129873507386E-02 
1493	 5.11334929301251E-02 
1494	 5.11960452751255E-02 
1495	 5.11988245842091E-02 
1496	 5.11495737397654E-02 
1497	 5.11273766205243E-02 
1498	 5.10608097752177E-02 
1499	 5.10583851648618E-02 
1500	 5.11329840078512E-02 
1501	 5.11509654200571E-02 
1502	 5.11728926250738E-02 
1503	 5.11809175483774E-02 
1504	 5.11303539200908E-02 
1505	 5.11201561305627E-02 
1506	 0.051131901256269 
1507	 5.11499681458506E-02 
1508	 5.11938572853181E-02 
1509	 5.12225234334912E-02 
1510	 5.12564076836598E-02 
1511	 5.12784640294189E-02 
1512	 5.13040458472733E-02 
1513	 0.05129848100371 
1514	 5.12392392862676E-02 
1515	 5.12268470935905E-02 
1516	 5.12209976530406E-02 
1517	 0.051215316655348 
1518	 5.12589290674897E-02 
1519	 5.12752437715975E-02 
1520	 5.12832630927884E-02 
1521	 5.12419640094099E-02 
1522	 5.12411374740442E-02 
1523	 5.12634497181886E-02 
1524	 5.12876662341166E-02 
1525	 5.13446859651939E-02 
1526	 5.13480463609761E-02 
1527	 5.13303304350872E-02 
1528	 5.13233739739231E-02 
1529	 5.12964146205424E-02 
1530	 5.12780610184792E-02 
1531	 5.12754543207974E-02 
1532	 5.12549003190308E-02 
1533	 5.12124110533041E-02 
1534	 5.11888969935747E-02 
1535	 5.11717738376948E-02 
1536	 5.11551055894344E-02 
1537	 5.11424657410845E-02 
1538	 5.11301889131374E-02 
1539	 5.10924988175125E-02 
1540	 5.11339945603965E-02 
1541	 5.12535594415098E-02 
1542	 5.12602357504193E-02 
1543	 5.12671979565135E-02 
1544	 5.12564048317143E-02 
1545	 5.11307289362673E-02 
1546	 5.11162268235468E-02 
1547	 5.11886894918323E-02 
1548	 5.12039729373822E-02 
1549	 5.12149038696457E-02 
1550	 5.12281261058236E-02 
1551	 5.12337370960583E-02 
1552	 5.12350345813618E-02 
1553	 5.12444017763114E-02 
1554	 0.051236596715131 
1555	 5.12072819060352E-02 
1556	 0.051189127005575 
1557	 5.11480792339382E-02 
1558	 0.051158658205558 
1559	 5.12318661741794E-02 
1560	 5.12242731109735E-02 
1561	 5.12131881871021E-02 
1562	 5.11833115467191E-02 
1563	 5.10475814529874E-02 
1564	 5.10208995109548E-02 
1565	 5.10685553917945E-02 
1566	 5.10810056538328E-02 
1567	 5.11409807429557E-02 
1568	 0.051144172846827 
1569	 5.10786391421626E-02 
1570	 5.10737415693349E-02 
1571	 5.10842937563492E-02 
1572	 5.10861607681576E-02 
1573	 5.11099706905576E-02 
1574	 5.11349935998576E-02 
1575	 5.11772755321579E-02 
1576	 5.11647426983043E-02 
1577	 5.11121820191629E-02 
1578	 5.11073728688694E-02 
1579	 5.10862854354457E-02 
1580	 5.10634579442472E-02 
1581	 5.10803543214804E-02 
1582	 5.10936844484684E-02 
1583	 5.10831991852181E-02 
1584	 5.10720911495949E-02 
1585	 5.10917971058518E-02 
1586	 0.051093761420068 
1587	 5.10587652268017E-02 
1588	 5.10396857022818E-02 
1589	 5.10228972713887E-02 
1590	 5.10248746568226E-02 
1591	 5.10472703541938E-02 
1592	 5.10506155960162E-02 
1593	 5.10611843714151E-02 
1594	 5.10699457909701E-02 
1595	 5.10547488457813E-02 
1596	 5.10509866987785E-02 
1597	 5.10735862867535E-02 
1598	 5.10752383629573E-02 
1599	 5.10654580640413E-02 
1600	 5.10505630591093E-02 
1601	 5.10185984297254E-02 
1602	 5.09983483177306E-02 
1603	 0.0509848536416 
1604	 5.09597716370062E-02 
1605	 5.09246853205877E-02 
1606	 5.09035926724657E-02 
1607	 5.08649863787291E-02 
1608	 0.050856780991744 
1609	 0.050889387234654 
1610	 5.09097020806139E-02 
1611	 5.09489526498244E-02 
1612	 5.09639566682421E-02 
1613	 5.09642910240549E-02 
1614	 5.09603693333352E-02 
1615	 5.09246730157069E-02 
1616	 5.09247876831374E-02 
1617	 5.09575647472197E-02 
1618	 5.09574232662482E-02 
1619	 5.09477387386552E-02 
1620	 5.09534147174106E-02 
1621	 5.09400823846273E-02 
1622	 5.09406014155667E-02 
1623	 5.09916323172299E-02 
1624	 5.09942444563273E-02 
1625	 5.09651357491487E-02 
1626	 5.09410718332785E-02 
1627	 0.05089295273673 
1628	 5.08559948612668E-02 
1629	 5.07959648286237E-02 
1630	 5.07858210618631E-02 
1631	 5.08214219349472E-02 
1632	 5.08271107432787E-02 
1633	 5.08697521302128E-02 
1634	 5.08795513930555E-02 
1635	 5.08262288496816E-02 
1636	 5.08160908041309E-02 
1637	 5.08275915721449E-02 
1638	 5.08336183973313E-02 
1639	 5.08640443381285E-02 
1640	 5.08711496558484E-02 
1641	 5.08325557225221E-02 
1642	 5.08429448837666E-02 
1643	 5.09038126186752E-02 
1644	 5.09113619415872E-02 
1645	 5.09200953651504E-02 
1646	 5.09278892437963E-02 
1647	 0.0508681528283 
1648	 5.08539911370158E-02 
1649	 5.09068052965647E-02 
1650	 5.09115218167134E-02 
1651	 5.08903310482776E-02 
1652	 5.08850797209947E-02 
1653	 0.050870641243451 
1654	 5.08451740892474E-02 
1655	 5.08384385582442E-02 
1656	 5.08099172194377E-02 
1657	 5.07335550587789E-02 
1658	 5.07076984522649E-02 
1659	 5.06687549021825E-02 
1660	 5.06818671537216E-02 
1661	 5.07932433694207E-02 
1662	 5.08205227629121E-02 
1663	 5.08627673687069E-02 
1664	 5.08415956870087E-02 
1665	 5.06817054016396E-02 
1666	 5.06472185252212E-02 
1667	 5.06679992597504E-02 
1668	 5.06721005732808E-02 
1669	 5.07533175020481E-02 
1670	 5.07573559776224E-02 
1671	 0.050671042184171 
1672	 5.06391780289253E-02 
1673	 5.06262457352763E-02 
1674	 5.06231520090953E-02 
1675	 0.050637726284177 
1676	 5.06457143018609E-02 
1677	 5.06432557455416E-02 
1678	 5.06570164440945E-02 
1679	 5.07025536764591E-02 
1680	 5.07156410243287E-02 
1681	 5.07253282403114E-02 
1682	 5.07214982170617E-02 
1683	 0.050672942447269 
1684	 0.050669265147402 
1685	 5.06982833721224E-02 
1686	 5.06998959610736E-02 
1687	 5.07073825213624E-02 
1688	 5.06999135138606E-02 
1689	 5.06465279146071E-02 
1690	 5.06485980682903E-02 
1691	 5.06935208684072E-02 
1692	 5.06952460327217E-02 
1693	 5.07179359288022E-02 
1694	 5.07075345020519E-02 
1695	 5.06313139031112E-02 
1696	 5.06188461260582E-02 
1697	 5.06293677606684E-02 
1698	 5.06342230028781E-02 
1699	 5.06811755257858E-02 
1700	 5.06644221826185E-02 
1701	 5.05819611918448E-02 
1702	 0.050593543869775 
1703	 5.06393570272938E-02 
1704	 5.06422080683789E-02 
1705	 5.06957821015104E-02 
1706	 5.06569932892431E-02 
1707	 5.05810250035654E-02 
1708	 0.050531128342544 
1709	 5.05349445558628E-02 
1710	 5.06121843154504E-02 
1711	 0.050637678800049 
1712	 5.06992734531159E-02 
1713	 5.07877307755405E-02 
1714	 5.06923648974689E-02 
1715	 5.06549563728291E-02 
1716	 5.06265485917232E-02 
1717	 5.05114586719826E-02 
1718	 0.050532921969423 
1719	 5.05336649621404E-02 
1720	 5.05362081979844E-02 
1721	 5.06184894577982E-02 
1722	 0.050639863105463 
1723	 5.06367504507368E-02 
1724	 5.06149055002907E-02 
1725	 5.05902516147201E-02 
1726	 0.050600779345688 
1727	 5.06288982840337E-02 
1728	 5.06901258244266E-02 
1729	 5.06836066301077E-02 
1730	 5.06430839355258E-02 
1731	 5.06501567371241E-02 
1732	 0.050623899958798 
1733	 5.06097348377508E-02 
1734	 5.05812495354226E-02 
1735	 5.05185951267943E-02 
1736	 0.050485730214681 
1737	 5.04217387407875E-02 
1738	 5.04038876389313E-02 
1739	 5.03501101455596E-02 
1740	 5.01996821608269E-02 
1741	 5.01847791891141E-02 
1742	 5.02292962892359E-02 
1743	 5.02669984262754E-02 
1744	 5.04464472854647E-02 
1745	 5.04767495746073E-02 
1746	 5.04036436439992E-02 
1747	 5.03286825308586E-02 
1748	 5.01673428548236E-02 
1749	 5.01010238239347E-02 
1750	 5.00622693885246E-02 
1751	 5.00647362468438E-02 
1752	 5.01314261254797E-02 
1753	 5.01513595459334E-02 
1754	 5.02089719242249E-02 
1755	 5.01939203554216E-02 
1756	 5.01168373830765E-02 
1757	 5.01476332197055E-02 
1758	 0.050031156449635 
1759	 0.049966136248505 
1760	 5.00420682350859E-02 
1761	 5.00334160922751E-02 
1762	 5.00419438035909E-02 
1763	 5.01015005293636E-02 
1764	 5.00677944652248E-02 
1765	 5.00846366965052E-02 
1766	 5.01639622429821E-02 
1767	 5.01858192836334E-02 
1768	 5.01252646554778E-02 
1769	 5.00549885677681E-02 
1770	 5.00212984680793E-02 
1771	 4.99615521486727E-02 
1772	 5.00210212118521E-02 
1773	 5.01013986242321E-02 
1774	 5.00233293503474E-02 
1775	 4.99738940034027E-02 
1776	 4.99708578859361E-02 
1777	 4.99975540138466E-02 
1778	 0.050045218905537 
1779	 5.00429235445196E-02 
1780	 5.00627664335889E-02 
1781	 4.99864786297488E-02 
1782	 4.99196487527885E-02 
1783	 4.99698809673115E-02 
1784	 0.049912239880171 
1785	 4.98734415360047E-02 
1786	 0.049869717903702 
1787	 4.98867268123536E-02 
1788	 4.99084837283265E-02 
1789	 4.99498566121366E-02 
1790	 4.99714870650835E-02 
1791	 0.04999145823156 
1792	 5.00093656678163E-02 
1793	 5.00139862300476E-02 
1794	 4.99475729572488E-02 
1795	 4.99666156836015E-02 
1796	 4.99757065041581E-02 
1797	 4.99401091239635E-02 
1798	 4.99812088609967E-02 
1799	 5.00341889570224E-02 
1800	 5.00435495254484E-02 
1801	 0.049566785650892 
1802	 4.94953330407649E-02 
1803	 0.049491929031799 
1804	 4.95693427840314E-02 
1805	 4.96298052200104E-02 
1806	 0.049667359014449 
1807	 4.97136560156694E-02 
1808	 4.97287013930128E-02 
1809	 4.97388143595947E-02 
1810	 4.97096550928926E-02 
1811	 4.95773852325385E-02 
1812	 4.95531841309358E-02 
1813	 4.95756828019142E-02 
1814	 4.95795596688018E-02 
1815	 4.95900596460578E-02 
1816	 4.96186047191749E-02 
1817	 4.96156665877064E-02 
1818	 0.049527443813518 
1819	 4.95275889461957E-02 
1820	 4.95900443795225E-02 
1821	 0.049616887253059 
1822	 4.96899492271195E-02 
1823	 4.96704323665602E-02 
1824	 0.049626756696119 
1825	 4.95984775283792E-02 
1826	 4.95881269875807E-02 
1827	 4.95780902785858E-02 
1828	 4.95915422744178E-02 
1829	 4.96249180731465E-02 
1830	 4.96476929957547E-02 
1831	 4.96883709843098E-02 
1832	 4.97008130477861E-02 
1833	 4.97030375967954E-02 
1834	 4.97561949230244E-02 
1835	 4.97813365982375E-02 
1836	 4.97833286905353E-02 
1837	 4.97736248267137E-02 
1838	 4.97413985165978E-02 
1839	 4.97127979436803E-02 
1840	 4.96560577767001E-02 
1841	 4.96272098260546E-02 
1842	 4.96125197839827E-02 
1843	 4.95932393817543E-02 
1844	 4.95442735041982E-02 
1845	 4.95388245200188E-02 
1846	 4.95346345687922E-02 
1847	 4.95620434757128E-02 
1848	 4.95906650802878E-02 
1849	 4.96769774424549E-02 
1850	 0.049709938387865 
1851	 4.97257853697747E-02 
1852	 4.96991913425604E-02 
1853	 4.97536738350201E-02 
1854	 4.98116572364835E-02 
1855	 0.049780238198628 
1856	 4.97650760630105E-02 
1857	 4.97085313585293E-02 
1858	 4.96322431389944E-02 
1859	 4.96140470498011E-02 
1860	 4.96748424335788E-02 
1861	 4.96974867933588E-02 
1862	 4.97438159237268E-02 
1863	 4.97350690598817E-02 
1864	 4.97088328437205E-02 
1865	 4.96666371341398E-02 
1866	 4.96367241588114E-02 
1867	 4.96503967328134E-02 
1868	 4.96320612550068E-02 
1869	 4.95926975338866E-02 
1870	 0.049573726606639 
1871	 4.95248577643154E-02 
1872	 4.95014517808574E-02 
1873	 4.94933209715801E-02 
1874	 4.95393123887611E-02 
1875	 4.95540114069852E-02 
1876	 4.95715528105169E-02 
1877	 0.049590612781309 
1878	 0.049560293883815 
1879	 4.95436647187047E-02 
1880	 4.94768131293715E-02 
1881	 4.94148463490411E-02 
1882	 4.93159735744616E-02 
1883	 4.93242405826139E-02 
1884	 4.93030266257918E-02 
1885	 4.92221232699403E-02 
1886	 4.92102199427853E-02 
1887	 4.91441553732501E-02 
1888	 4.90636753934003E-02 
1889	 4.90842933979067E-02 
1890	 0.049104204511747 
1891	 4.90954772393479E-02 
1892	 4.90633778419599E-02 
1893	 4.90377168265437E-02 
1894	 4.90020030852333E-02 
1895	 4.89742404205859E-02 
1896	 4.89438990279843E-02 
1897	 4.89342478418666E-02 
1898	 4.89187061321887E-02 
1899	 4.88538563369671E-02 
1900	 4.87875460892398E-02 
1901	 4.87546700712228E-02 
1902	 4.87112457607696E-02 
1903	 0.048703581917578 
1904	 4.86776936969448E-02 
1905	 4.86683521539076E-02 
1906	 4.86053889993798E-02 
1907	 4.85271794606342E-02 
1908	 4.84524019125817E-02 
1909	 4.84405676957853E-02 
1910	 4.84159677886853E-02 
1911	 4.84496518017074E-02 
1912	 4.85752287894838E-02 
1913	 4.85720607428032E-02 
1914	 4.85604431203245E-02 
1915	 4.85290527057758E-02 
1916	 4.84708921073573E-02 
1917	 4.82974424714702E-02 
1918	 4.82300221377289E-02 
1919	 4.82366438596499E-02 
1920	 0.048236268511832 
1921	 4.82289306104047E-02 
1922	 4.82478537330675E-02 
1923	 4.82434824935086E-02 
1924	 0.048193476322914 
1925	 4.82190028834026E-02 
1926	 4.82408718794196E-02 
1927	 4.82777039448586E-02 
1928	 4.82438542158202E-02 
1929	 4.81761132450782E-02 
1930	 4.81929678365954E-02 
1931	 4.81102505964178E-02 
1932	 4.80171550301682E-02 
1933	 4.80415662255181E-02 
1934	 4.79980219058465E-02 
1935	 4.79663506225668E-02 
1936	 4.80196768463079E-02 
1937	 0.048053557553556 
1938	 4.81382107110308E-02 
1939	 4.81394514600899E-02 
1940	 4.80967986211974E-02 
1941	 4.80635352382941E-02 
1942	 4.80523423971584E-02 
1943	 4.80533226357973E-02 
1944	 4.81173402979967E-02 
1945	 4.81900924847747E-02 
1946	 4.81357894552124E-02 
1947	 4.80757628643242E-02 
1948	 4.80614378516083E-02 
1949	 4.80301219442293E-02 
1950	 4.80558900085351E-02 
1951	 0.048207854696139 
1952	 0.048246750216075 
1953	 4.82510906406471E-02 
1954	 4.82606434146413E-02 
1955	 4.82211491648143E-02 
1956	 4.82028977651642E-02 
1957	 4.82321974066295E-02 
1958	 4.82606938570902E-02 
1959	 4.82980858867152E-02 
1960	 4.83425100192288E-02 
1961	 4.83933599772064E-02 
1962	 0.048488012998534 
1963	 0.04850079109108 
1964	 4.84803625970583E-02 
1965	 4.84622170826858E-02 
1966	 4.83862732150804E-02 
1967	 4.83164984446695E-02 
1968	 4.83285048962236E-02 
1969	 0.04833440712364 
1970	 4.83800069067338E-02 
1971	 4.84368291484861E-02 
1972	 4.84397094961908E-02 
1973	 4.84299261610631E-02 
1974	 4.84420776902868E-02 
1975	 4.84292953576334E-02 
1976	 4.84594682207252E-02 
1977	 4.85535187889141E-02 
1978	 4.85929151898812E-02 
1979	 0.048635743342944 
1980	 4.86174698656989E-02 
1981	 4.86257291917717E-02 
1982	 4.86787448996459E-02 
1983	 4.86571173495275E-02 
1984	 4.86498122001395E-02 
1985	 4.86118827089063E-02 
1986	 4.85430896595695E-02 
1987	 4.85569856795007E-02 
1988	 4.86621800338758E-02 
1989	 4.87130667791263E-02 
1990	 4.87885354845956E-02 
1991	 4.88431190372113E-02 
1992	 4.88658163196063E-02 
1993	 4.89170915552868E-02 
1994	 4.89493935945581E-02 
1995	 4.89573550160737E-02 
1996	 4.89945102790193E-02 
1997	 4.89916853283627E-02 
1998	 4.89888917706857E-02 
1999	 4.89784814990069E-02 
2000	 4.89943609355551E-02 
2001	 4.89886110621304E-02 
2002	 4.90200874524852E-02 
2003	 4.91141125152669E-02 
2004	 4.91547743643191E-02 
2005	 4.91906075141431E-02 
2006	 4.92189893645319E-02 
2007	 0.049201017546974 
2008	 4.92274180138013E-02 
2009	 4.92773751513798E-02 
2010	 4.92753894438282E-02 
2011	 4.93035959117523E-02 
2012	 4.93113008283687E-02 
2013	 4.93200852201359E-02 
2014	 4.93216894351823E-02 
2015	 4.93294904041038E-02 
2016	 4.93423098266706E-02 
2017	 4.93443545885705E-02 
2018	 4.93052091317966E-02 
2019	 0.049321891425075 
2020	 4.93608356947786E-02 
2021	 4.94098457753308E-02 
2022	 4.94932113305881E-02 
2023	 4.95971781060326E-02 
2024	 4.96031615767124E-02 
2025	 0.049585998296803 
2026	 0.049617903807376 
2027	 4.96511382988606E-02 
2028	 4.96687133582158E-02 
2029	 4.97386148947636E-02 
2030	 4.97620820948969E-02 
2031	 4.97102185881567E-02 
2032	 4.97038640379504E-02 
2033	 4.96916167270077E-02 
2034	 0.049708314260783 
2035	 0.04975420391055 
2036	 4.98236900303129E-02 
2037	 0.049831073259819 
2038	 4.98803008468661E-02 
2039	 4.98827736279796E-02 
2040	 0.049797885834405 
2041	 4.98215192775842E-02 
2042	 4.98962475368761E-02 
2043	 4.99450535474734E-02 
2044	 5.00662912789866E-02 
2045	 5.00912982806666E-02 
2046	 5.00180259034386E-02 
2047	 5.00221791241944E-02 
2048	 5.00258036269655E-02 
2049	 5.00368429553878E-02 
2050	 5.00969758732161E-02 
2051	 5.01582072143439E-02 
2052	 5.01214031762398E-02 
2053	 5.01106541104677E-02 
2054	 5.01590081168898E-02 
2055	 5.02497927015198E-02 
2056	 5.02854230820746E-02 
2057	 5.03688060680365E-02 
2058	 5.03908684299024E-02 
2059	 5.03185052648505E-02 
2060	 5.03192215666418E-02 
2061	 5.03566637035275E-02 
2062	 5.03608473514054E-02 
2063	 5.03746441604726E-02 
2064	 5.03687050444352E-02 
2065	 5.03091887286418E-02 
2066	 5.02977211794403E-02 
2067	 5.03004452537756E-02 
2068	 5.03438315562742E-02 
2069	 5.03785634729827E-02 
2070	 5.04534386055829E-02 
2071	 5.04789740628064E-02 
2072	 5.04798784245772E-02 
2073	 5.04826791061034E-02 
2074	 5.04713835887209E-02 
2075	 0.050470668579878 
2076	 5.04699916432756E-02 
2077	 5.04678329780519E-02 
2078	 5.04669659157775E-02 
2079	 5.04682925337584E-02 
2080	 5.04414688305098E-02 
2081	 5.04579020205916E-02 
2082	 5.05070821156591E-02 
2083	 5.05641907253678E-02 
2084	 5.05734867248799E-02 
2085	 5.06128533981208E-02 
2086	 5.06392727372592E-02 
2087	 5.06204354275809E-02 
2088	 5.06278222440693E-02 
2089	 0.050659656797418 
2090	 5.07039264778378E-02 
2091	 5.07837532754609E-02 
2092	 5.08029400605317E-02 
2093	 5.08006346137621E-02 
2094	 5.08047755232074E-02 
2095	 5.07473624386049E-02 
2096	 5.07240895643358E-02 
2097	 5.07228701846957E-02 
2098	 5.07594266992283E-02 
2099	 5.07458584926837E-02 
2100	 5.07743757035175E-02 
2101	 5.08006435944763E-02 
2102	 5.08444902318031E-02 
2103	 5.08729537438749E-02 
2104	 0.05090471580929 
2105	 5.09203207270336E-02 
2106	 5.09080809243938E-02 
2107	 5.09332158935337E-02 
2108	 5.09691168433505E-02 
2109	 5.10210498399991E-02 
2110	 5.11284252726039E-02 
2111	 5.11698881202623E-02 
2112	 5.12062539553679E-02 
2113	 5.12077513289115E-02 
2114	 5.11214310283994E-02 
2115	 5.10902492846303E-02 
2116	 5.11073375505403E-02 
2117	 5.10344142350444E-02 
2118	 5.10269690442637E-02 
2119	 5.10589266012436E-02 
2120	 5.10734703910258E-02 
2121	 0.051097231235317 
2122	 5.11080599181712E-02 
2123	 5.11133917711954E-02 
2124	 5.11188730194689E-02 
2125	 5.11004017898031E-02 
2126	 5.11154737711609E-02 
2127	 5.11585943414777E-02 
2128	 5.11827133585803E-02 
2129	 5.12378179254402E-02 
2130	 5.12479858822886E-02 
2131	 5.12144099044344E-02 
2132	 5.11990893653281E-02 
2133	 5.11806283925592E-02 
2134	 5.11514940949642E-02 
2135	 5.10828063158678E-02 
2136	 5.10004880091904E-02 
2137	 5.09786447896235E-02 
2138	 5.09283817895766E-02 
2139	 5.09609399593103E-02 
2140	 5.11271328151034E-02 
2141	 5.11689901584383E-02 
2142	 5.11840603220132E-02 
2143	 5.11960364482924E-02 
2144	 5.11904570432518E-02 
2145	 5.11313779623777E-02 
2146	 0.050998657987408 
2147	 0.050949616801492 
2148	 5.09315126726789E-02 
2149	 5.08397484227902E-02 
2150	 5.07505031458649E-02 
2151	 5.06922239193146E-02 
2152	 5.05645060265249E-02 
2153	 5.04578704070287E-02 
2154	 5.04626098108158E-02 
2155	 5.04335397606924E-02 
2156	 5.04531828704822E-02 
2157	 5.05038607326338E-02 
2158	 5.04916341726827E-02 
2159	 0.050522221798586 
2160	 5.04735768946236E-02 
2161	 0.050292193739198 
2162	 5.02215806582507E-02 
2163	 5.02188237745178E-02 
2164	 5.01340804894056E-02 
2165	 4.99949610237113E-02 
2166	 4.99503298664952E-02 
2167	 0.04991328459709 
2168	 4.98605086530301E-02 
2169	 4.99166904853077E-02 
2170	 4.98957412661042E-02 
2171	 4.97533020827896E-02 
2172	 4.96859009652965E-02 
2173	 4.96740941022265E-02 
2174	 4.96130221207217E-02 
2175	 4.95461776413941E-02 
2176	 4.95721214209605E-02 
2177	 4.95096815606146E-02 
2178	 4.94050581991589E-02 
2179	 4.93133286834806E-02 
2180	 4.92055838743787E-02 
2181	 4.91022492098137E-02 
2182	 4.89773324691441E-02 
2183	 4.89145670260001E-02 
2184	 4.88608638988292E-02 
2185	 4.88241958319256E-02 
2186	 4.88550039821714E-02 
2187	 4.88651487988839E-02 
2188	 4.88925986894159E-02 
2189	 4.88800278609207E-02 
2190	 4.88453896272936E-02 
2191	 0.048802748100081 
2192	 4.87334771300753E-02 
2193	 4.86595555951263E-02 
2194	 4.85407537199966E-02 
2195	 4.85042805563019E-02 
2196	 4.85275745305569E-02 
2197	 4.85015300899821E-02 
2198	 4.85227920925738E-02 
2199	 4.85266391701256E-02 
2200	 4.85178603568899E-02 
2201	 4.84591548179314E-02 
2202	 4.84186582851433E-02 
2203	 4.84012427735173E-02 
2204	 4.83702671991728E-02 
2205	 4.83103297409367E-02 
2206	 4.82657501334297E-02 
2207	 4.82288070562523E-02 
2208	 4.81977826350043E-02 
2209	 4.81761885070141E-02 
2210	 4.81216345146602E-02 
2211	 4.80337313888966E-02 
2212	 4.80186441721004E-02 
2213	 4.80054456830131E-02 
2214	 4.80086479723042E-02 
2215	 4.81186806136255E-02 
2216	 4.81480240883923E-02 
2217	 4.81237380225688E-02 
2218	 0.048108493700472 
2219	 4.80802694712618E-02 
2220	 4.80353011686391E-02 
2221	 4.79294900663641E-02 
2222	 4.78868120780043E-02 
2223	 4.79243918063173E-02 
2224	 4.79987496940328E-02 
2225	 4.80507215966432E-02 
2226	 4.81742169237648E-02 
2227	 4.82045074383804E-02 
2228	 0.048120784932334 
2229	 4.81345252010186E-02 
2230	 4.81858962824907E-02 
2231	 4.81963534414428E-02 
2232	 4.82687399391366E-02 
2233	 4.82186274929183E-02 
2234	 4.80202971258718E-02 
2235	 4.79851982937128E-02 
2236	 4.79308921130626E-02 
2237	 4.79525856817229E-02 
2238	 4.81233658392934E-02 
2239	 4.82492684855665E-02 
2240	 4.84309753145141E-02 
2241	 4.84957464589998E-02 
2242	 4.85002969095896E-02 
2243	 4.85334324072937E-02 
2244	 4.85034704916394E-02 
2245	 0.048470191463863 
2246	 4.84642404438893E-02 
2247	 4.84574930958398E-02 
2248	 4.83704548085533E-02 
2249	 4.83523173483772E-02 
2250	 4.84203381525996E-02 
2251	 4.84833581205829E-02 
2252	 4.84033467779679E-02 
2253	 4.83604568160932E-02 
2254	 4.83474320767186E-02 
2255	 4.82365747132385E-02 
2256	 0.048340532751591 
2257	 4.84283686814173E-02 
2258	 4.84495524291591E-02 
2259	 4.84537983439704E-02 
2260	 4.84790340018054E-02 
2261	 4.84572436593635E-02 
2262	 4.84603404150456E-02 
2263	 4.84865864535541E-02 
2264	 4.84856375949829E-02 
2265	 4.84909945405919E-02 
2266	 4.84639411676886E-02 
2267	 4.84245833562658E-02 
2268	 4.83688108472967E-02 
2269	 4.81849572244441E-02 
2270	 4.81709519271363E-02 
2271	 4.82998517301196E-02 
2272	 4.83245635596092E-02 
2273	 4.84236718024282E-02 
2274	 4.84474861281871E-02 
2275	 4.82385804553778E-02 
2276	 0.048262361892212 
2277	 4.84694907484083E-02 
2278	 4.85779009692371E-02 
2279	 4.88158540945423E-02 
2280	 4.89319047970868E-02 
2281	 4.88480554204973E-02 
2282	 4.88548683983777E-02 
2283	 0.04887629224761 
2284	 0.048943076443934 
2285	 4.88208340870529E-02 
2286	 4.87403772193047E-02 
2287	 4.86918856644374E-02 
2288	 4.85462022667787E-02 
2289	 4.85517083036753E-02 
2290	 4.86013164362107E-02 
2291	 4.85746257575969E-02 
2292	 4.85605109992641E-02 
2293	 0.048516305995429 
2294	 0.048576040362481 
2295	 4.87123909243008E-02 
2296	 4.87645210888878E-02 
2297	 4.88628547279243E-02 
2298	 0.049100805599205 
2299	 4.90897880581814E-02 
2300	 4.88776134837844E-02 
2301	 4.88943200523485E-02 
2302	 4.88502297301575E-02 
2303	 4.89373193587143E-02 
2304	 4.93039130596661E-02 
2305	 4.94155240574065E-02 
2306	 4.94179685719364E-02 
2307	 4.94511568879146E-02 
2308	 4.94300471978855E-02 
2309	 4.93935383437538E-02 
2310	 0.049338528013746 
2311	 4.93219120350025E-02 
2312	 4.92236564839628E-02 
2313	 4.92749493043539E-02 
2314	 4.94702608630492E-02 
2315	 0.049549539861323 
2316	 4.97362472525604E-02 
2317	 4.97540750119518E-02 
2318	 4.95570893329916E-02 
2319	 0.049514483284328 
2320	 4.94982015579599E-02 
2321	 4.94242893029562E-02 
2322	 0.049350087318304 
2323	 4.93035620411377E-02 
2324	 4.92421241667557E-02 
2325	 4.91769960654652E-02 
2326	 4.91295052453004E-02 
2327	 4.91713084135722E-02 
2328	 4.91657731175446E-02 
2329	 4.92078018599333E-02 
2330	 4.94247967481518E-02 
2331	 4.95309892894511E-02 
2332	 4.95464017265664E-02 
2333	 4.95942890656127E-02 
2334	 4.92833616405448E-02 
2335	 4.92508014785485E-02 
2336	 4.94363981296576E-02 
2337	 4.93901325640252E-02 
2338	 4.95897287002469E-02 
2339	 4.98308878679706E-02 
2340	 4.97199219490693E-02 
2341	 4.96844852447776E-02 
2342	 4.97570082753313E-02 
2343	 4.97360173155732E-02 
2344	 4.96956500778193E-02 
2345	 4.96680481016607E-02 
2346	 0.049731451462255 
2347	 4.96603037353145E-02 
2348	 4.97471257124066E-02 
2349	 5.00383349253011E-02 
2350	 4.99995537031998E-02 
2351	 4.99988403916416E-02 
2352	 4.99009741791358E-02 
2353	 4.96723625326243E-02 
2354	 4.96688591780899E-02 
2355	 4.95604856197465E-02 
2356	 4.95387693182831E-02 
2357	 4.95258518854659E-02 
2358	 4.92794336634211E-02 
2359	 4.92070154410642E-02 
2360	 0.049135704313549 
2361	 4.89162635186597E-02 
2362	 4.89836536734184E-02 
2363	 4.92212566314765E-02 
2364	 4.94085318033032E-02 
2365	 4.96820251395127E-02 
2366	 4.97847049154392E-02 
2367	 0.04968801072655 
2368	 4.94761650395963E-02 
2369	 4.92209489351641E-02 
2370	 4.91519616040659E-02 
2371	 4.90956082430298E-02 
2372	 4.91587236386361E-02 
2373	 4.94761216536354E-02 
2374	 4.96760508992123E-02 
2375	 4.96867051443531E-02 
2376	 4.98407075729867E-02 
2377	 4.98136304490566E-02 
2378	 4.94561545326481E-02 
2379	 0.049386681657433 
2380	 4.93602393590907E-02 
2381	 4.89035443723913E-02 
2382	 4.88201429066541E-02 
2383	 4.91686686557146E-02 
2384	 4.92235502994795E-02 
2385	 4.92232288547893E-02 
2386	 4.93333594215276E-02 
2387	 4.92626999917528E-02 
2388	 4.94151206900937E-02 
2389	 4.98385143106201E-02 
2390	 4.99764861034641E-02 
2391	 5.02192899565975E-02 
2392	 5.02805846277172E-02 
2393	 5.00102874686609E-02 
2394	 4.99075859504411E-02 
2395	 4.98165400517248E-02 
2396	 0.049662782624549 
2397	 4.95406782742101E-02 
2398	 4.93409721004467E-02 
2399	 4.89786899462078E-02 
2400	 4.88365975639879E-02 
2401	 0.048728123831161 
2402	 4.87838474202238E-02 
2403	 4.90296185424795E-02 
2404	 4.92724693847189E-02 
2405	 4.92306675305088E-02 
2406	 0.049088356890883 
2407	 4.87915987768751E-02 
2408	 0.048800171699713 
2409	 4.91352781694077E-02 
2410	 4.91319747923401E-02 
2411	 4.93644223695704E-02 
2412	 4.92328713828608E-02 
2413	 4.84986429613166E-02 
2414	 4.80250057059928E-02 
2415	 4.77160432844994E-02 
2416	 0.047933752910043 
2417	 0.048399374142083 
2418	 4.87684643497319E-02 
2419	 4.88925095979882E-02 
2420	 4.89051851885906E-02 
2421	 4.90111838011874E-02 
2422	 4.91403633972286E-02 
2423	 4.95013663173982E-02 
2424	 4.94161104790087E-02 
2425	 4.91181697309522E-02 
2426	 4.88350993211734E-02 
2427	 4.87498620165533E-02 
2428	 4.91675704593962E-02 
2429	 4.94017600945767E-02 
2430	 4.95488996765599E-02 
2431	 4.96663205829963E-02 
2432	 4.94679703996719E-02 
2433	 4.87149315717174E-02 
2434	 4.79147776305959E-02 
2435	 4.74971447033083E-02 
2436	 4.73277604230413E-02 
2437	 4.80039324714558E-02 
2438	 4.89951918578288E-02 
2439	 4.91744478509717E-02 
2440	 4.90113844444198E-02 
2441	 4.87922339347739E-02 
2442	 4.85757990899341E-02 
2443	 4.87207410059307E-02 
2444	 4.86914519502535E-02 
2445	 4.84721399339776E-02 
2446	 4.82406990895575E-02 
2447	 4.82509225496262E-02 
2448	 0.04889281337016 
2449	 4.92698861084217E-02 
2450	 4.93011624950374E-02 
2451	 4.88887964881695E-02 
2452	 4.80612614789749E-02 
2453	 4.79602496740775E-02 
2454	 4.78420580565069E-02 
2455	 4.82885006494327E-02 
2456	 4.91341219598359E-02 
2457	 0.04907270318505 
2458	 4.96485866725668E-02 
2459	 4.95425366123288E-02 
2460	 4.85769373778093E-02 
2461	 4.86169437414966E-02 
2462	 4.83687516633655E-02 
2463	 4.80480486895339E-02 
2464	 4.81988075412854E-02 
2465	 4.78328122160582E-02 
2466	 4.72336978590021E-02 
2467	 4.72272160412367E-02 
2468	 4.81632976766755E-02 
2469	 4.87122873343249E-02 
2470	 4.84427139737322E-02 
2471	 4.86509149994455E-02 
2472	 4.79027956505241E-02 
2473	 4.70724816177727E-02 
2474	 4.78374305756614E-02 
2475	 4.77418005840538E-02 
2476	 4.74948884519293E-02 
2477	 4.77260943274514E-02 
2478	 4.74612436211863E-02 
2479	 4.78592168260125E-02 
2480	 4.82777532433379E-02 
2481	 4.89291333602307E-02 
2482	 4.99406892165079E-02 
2483	 4.96792850824105E-02 
2484	 4.96957344016247E-02 
2485	 4.95662625513207E-02 
2486	 4.83872157314736E-02 
2487	 4.86090007778548E-02 
2488	 4.94382103756692E-02 
2489	 4.90683495575986E-02 
2490	 5.00562689125803E-02 
2491	 5.00698929085889E-02 
2492	 0.048117949892447 
2493	 4.73249080816083E-02 
2494	 4.63445116158632E-02 
2495	 4.57283859488004E-02 
2496	 4.68261896871372E-02 
2497	 4.70737812290298E-02 
2498	 4.60058685837243E-02 
2499	 4.56340933084057E-02 
2500	 4.59744406955138E-02 
