Wavelength	Tablay400072.asd
350	 0.272453531858798 
351	 0.217049438882928 
352	 0.243405298423443 
353	 0.309039644078905 
354	 0.288710317418038 
355	 0.214450230883746 
356	 0.169911543659068 
357	 0.193328335744439 
358	 0.191864559664137 
359	 0.218894598995244 
360	 0.256187136983433 
361	 0.252415688916211 
362	 0.173017488005253 
363	 0.150606780267365 
364	 0.223673502859396 
365	 0.244324221627175 
366	 0.241127194120541 
367	 0.196484427301358 
368	 0.124397792741111 
369	 0.174919063859089 
370	 0.172836300310803 
371	 0.141961883976663 
372	 0.196692308767992 
373	 0.164219861537602 
374	 0.12541319233685 
375	 0.131119161892033 
376	 0.156126060840742 
377	 0.184643017173713 
378	 0.185576082266839 
379	 0.149994150641382 
380	 0.119609162589014 
381	 0.11500953233891 
382	 0.132698164895442 
383	 0.151251425395788 
384	 0.145215398847571 
385	 0.126788347510787 
386	 0.112654975125691 
387	 0.110889021989254 
388	 0.124046442763324 
389	 0.139121958061361 
390	 0.141042912537515 
391	 0.116635305644933 
392	 0.104707467505448 
393	 0.110444026720416 
394	 0.11334013461597 
395	 0.09476359230928 
396	 8.51442315192254E-02 
397	 9.52630397790115E-02 
398	 9.59170653363826E-02 
399	 9.12032156116758E-02 
400	 8.87520226336042E-02 
401	 9.15909215679232E-02 
402	 0.078556686334223 
403	 8.16015338144309E-02 
404	 9.72134957836618E-02 
405	 9.66591597015931E-02 
406	 9.82959886583487E-02 
407	 8.95445739749744E-02 
408	 7.12127825547677E-02 
409	 7.78508716138239E-02 
410	 8.31422961751546E-02 
411	 8.22967968707629E-02 
412	 7.74968083643518E-02 
413	 6.83824362296437E-02 
414	 6.51629238584326E-02 
415	 6.93544847893849E-02 
416	 7.38472648833246E-02 
417	 6.62376121142461E-02 
418	 6.34359170009296E-02 
419	 7.16686179897067E-02 
420	 6.07622619569123E-02 
421	 5.34893076899714E-02 
422	 5.63832895071373E-02 
423	 6.57886717312575E-02 
424	 5.90107858529179E-02 
425	 5.53694050783019E-02 
426	 5.89238168827252E-02 
427	 5.40658016942282E-02 
428	 5.24636038126981E-02 
429	 5.14525686913427E-02 
430	 0.048867115244009 
431	 5.38730468908409E-02 
432	 5.34481313053984E-02 
433	 4.97783889012107E-02 
434	 5.20582269973192E-02 
435	 5.27093430547782E-02 
436	 5.10053156317605E-02 
437	 4.91456660679838E-02 
438	 5.27204522919503E-02 
439	 5.05845912158563E-02 
440	 4.83631454244065E-02 
441	 5.21404401836193E-02 
442	 4.96438763800519E-02 
443	 4.91541977415964E-02 
444	 5.00590336134052E-02 
445	 4.54708355266664E-02 
446	 4.74410659675016E-02 
447	 4.86100683286813E-02 
448	 4.52474117758894E-02 
449	 4.80552986680066E-02 
450	 4.83899414628928E-02 
451	 0.046405625247819 
452	 4.51902601573671E-02 
453	 4.47971628573747E-02 
454	 4.50918042925819E-02 
455	 4.58046337088924E-02 
456	 4.65654302354661E-02 
457	 0.047198944770542 
458	 4.60029333461939E-02 
459	 4.29173841932601E-02 
460	 4.31443505762528E-02 
461	 4.48009951524221E-02 
462	 4.53208172152226E-02 
463	 4.26945245091778E-02 
464	 4.26652704965175E-02 
465	 4.38563580702184E-02 
466	 4.44507362496737E-02 
467	 4.31854795740183E-02 
468	 4.24924508938586E-02 
469	 4.23190428600735E-02 
470	 4.21402649294017E-02 
471	 4.27910829773927E-02 
472	 4.31041796320871E-02 
473	 4.26654783517041E-02 
474	 4.17243740021452E-02 
475	 4.02414548067696E-02 
476	 4.05519911044572E-02 
477	 4.29253083030465E-02 
478	 4.26301275992848E-02 
479	 4.21279592175443E-02 
480	 4.18790889897465E-02 
481	 4.16226364535735E-02 
482	 4.09825950364125E-02 
483	 4.08293960985433E-02 
484	 4.13781962656434E-02 
485	 0.042027520348819 
486	 4.06306511299505E-02 
487	 3.91047596292824E-02 
488	 3.92501790170148E-02 
489	 3.97902378337583E-02 
490	 3.99022508449323E-02 
491	 3.92144094503606E-02 
492	 0.037969259242596 
493	 3.89587737580931E-02 
494	 4.02536563014633E-02 
495	 0.040587364045956 
496	 4.06944436525221E-02 
497	 3.95261799527559E-02 
498	 3.88661628414374E-02 
499	 4.01165087010952E-02 
500	 3.91957985309073E-02 
501	 3.86181142001417E-02 
502	 0.039080017128996 
503	 3.94642683407259E-02 
504	 3.85400502056892E-02 
505	 3.74793755731728E-02 
506	 3.73866808678949E-02 
507	 0.038322071655335 
508	 3.86483362534737E-02 
509	 3.83824859559707E-02 
510	 3.82283481988244E-02 
511	 3.78888854793035E-02 
512	 3.75948939558316E-02 
513	 3.74550675887811E-02 
514	 0.037382873645779 
515	 3.72099469222808E-02 
516	 0.037397485582193 
517	 3.79958847507505E-02 
518	 3.70612826403763E-02 
519	 3.63626702003904E-02 
520	 3.64958440137347E-02 
521	 3.70726901312741E-02 
522	 3.65659850947457E-02 
523	 3.64108088356913E-02 
524	 3.71723898892568E-02 
525	 3.69250820569052E-02 
526	 3.67416413421874E-02 
527	 3.65997519497924E-02 
528	 3.62647031951047E-02 
529	 3.63800327102889E-02 
530	 3.63360070568463E-02 
531	 3.60592913491422E-02 
532	 3.60969190001473E-02 
533	 3.64340784358987E-02 
534	 3.65981696246496E-02 
535	 3.63474553871032E-02 
536	 3.63749313894454E-02 
537	 3.63376144194644E-02 
538	 3.61967485481948E-02 
539	 3.60827228304024E-02 
540	 0.036060247722928 
541	 3.60121295205132E-02 
542	 3.59554284408648E-02 
543	 3.61794375033009E-02 
544	 3.60208077624747E-02 
545	 3.58399765195739E-02 
546	 3.60645750761724E-02 
547	 0.035941207014367 
548	 3.58910305484797E-02 
549	 3.59548154026939E-02 
550	 3.58279848974231E-02 
551	 3.59444559814506E-02 
552	 3.60575678763889E-02 
553	 3.59668076329335E-02 
554	 3.58744754178776E-02 
555	 3.59082592630049E-02 
556	 3.59809564064193E-02 
557	 3.59338315987655E-02 
558	 3.59702815116461E-02 
559	 3.60226537699937E-02 
560	 3.60866335647755E-02 
561	 3.62868653310721E-02 
562	 3.60834612404972E-02 
563	 3.59974915036937E-02 
564	 3.64555765356713E-02 
565	 3.63913781067024E-02 
566	 3.64563108605396E-02 
567	 3.67123910332637E-02 
568	 0.036799493272107 
569	 3.71521034559136E-02 
570	 3.74303176618922E-02 
571	 3.74267516664148E-02 
572	 3.74151965056911E-02 
573	 3.75511971934795E-02 
574	 0.037858334431786 
575	 3.82303239552509E-02 
576	 3.82152046341956E-02 
577	 0.038454955163661 
578	 3.90161623594273E-02 
579	 3.92560560513184E-02 
580	 3.97571838248214E-02 
581	 4.02572384556928E-02 
582	 4.05284444369703E-02 
583	 4.10278754561708E-02 
584	 4.16146622389457E-02 
585	 4.21944538281932E-02 
586	 4.27176558244151E-02 
587	 4.32748292959106E-02 
588	 4.40588629842295E-02 
589	 4.50394497148576E-02 
590	 4.58240563988111E-02 
591	 4.64442073978415E-02 
592	 4.71368952796709E-02 
593	 4.81083400453957E-02 
594	 4.91035359797382E-02 
595	 5.01469670900798E-02 
596	 5.12183291004346E-02 
597	 5.22657315183451E-02 
598	 5.35147394972336E-02 
599	 0.054894473273399 
600	 5.63768720326791E-02 
601	 0.058175068709614 
602	 6.00175068419346E-02 
603	 6.17781159373799E-02 
604	 6.35079083135722E-02 
605	 0.065980319229553 
606	 6.83936660333735E-02 
607	 7.06793641001444E-02 
608	 7.38084868037603E-02 
609	 7.65984262917496E-02 
610	 7.95372863885296E-02 
611	 8.32360351197051E-02 
612	 8.72837491874719E-02 
613	 9.13718866049873E-02 
614	 9.56756232653783E-02 
615	 0.100612638771561 
616	 0.105394263325825 
617	 0.110604816109601 
618	 0.116448131529673 
619	 0.122135900682925 
620	 0.128264470547056 
621	 0.134708224096618 
622	 0.141167596927154 
623	 0.147665784776973 
624	 0.154395301055243 
625	 0.161308936284257 
626	 0.168136961065057 
627	 0.174897615739041 
628	 0.181683073294896 
629	 0.188519782319313 
630	 0.195229144362375 
631	 0.201831217875355 
632	 0.208247370293194 
633	 0.214366884687111 
634	 0.220274872789024 
635	 0.225997469856065 
636	 0.231560212162477 
637	 0.236967060376629 
638	 0.242039942162107 
639	 0.246787056175126 
640	 0.25127672197362 
641	 0.25559084581113 
642	 0.259711722780767 
643	 0.263581217891171 
644	 0.267160835015174 
645	 0.270727521364576 
646	 0.274119369146033 
647	 0.277202022821767 
648	 0.279979668632822 
649	 0.282605417522137 
650	 0.285105921980521 
651	 0.28748831471504 
652	 0.289873326899644 
653	 0.292135040079307 
654	 0.294187073747585 
655	 0.296006965634279 
656	 0.297884151877323 
657	 0.299669036811033 
658	 0.301253676314611 
659	 0.302766577197568 
660	 0.304241996773872 
661	 0.305579433298506 
662	 0.306722001112502 
663	 0.308151373886906 
664	 0.30946944176776 
665	 0.310524311521224 
666	 0.311474761028689 
667	 0.312550016085642 
668	 0.313658687311814 
669	 0.314671306780619 
670	 0.315549854681287 
671	 0.316287451503959 
672	 0.317107264882131 
673	 0.318212212953703 
674	 0.318922538589049 
675	 0.319600025203237 
676	 0.320419937477109 
677	 0.321228385862837 
678	 0.321967399468981 
679	 0.322553241269508 
680	 0.32301323142568 
681	 0.323701810184567 
682	 0.324338095466093 
683	 0.324927491625294 
684	 0.325619072820379 
685	 0.326363589057533 
686	 0.326971406585107 
687	 0.327411311370287 
688	 0.327887340342645 
689	 0.328404406698617 
690	 0.328922610487134 
691	 0.329405343603034 
692	 0.329901495982708 
693	 0.330273588922512 
694	 0.330620749981655 
695	 0.331158028502835 
696	 0.331685026483313 
697	 0.33222331810844 
698	 0.332734127473292 
699	 0.333042314722042 
700	 0.33339381589521 
701	 0.333807789170996 
702	 0.334230609595136 
703	 0.334601879614358 
704	 0.335010369160073 
705	 0.335433831690501 
706	 0.335779912023623 
707	 0.336084188268357 
708	 0.336458828246394 
709	 0.336884671434917 
710	 0.337099956248783 
711	 0.337546686469328 
712	 0.337975237969906 
713	 0.338125349121549 
714	 0.338561832015383 
715	 0.338911042552434 
716	 0.339171988654254 
717	 0.339595120705029 
718	 0.339936058991375 
719	 0.340293667084874 
720	 0.340679334195603 
721	 0.340871154999005 
722	 0.341239767669808 
723	 0.341628316178495 
724	 0.341839807185055 
725	 0.342180502964538 
726	 0.342603048264047 
727	 0.342987032231623 
728	 0.343195817508521 
729	 0.343413325889284 
730	 0.343702531566112 
731	 0.344034938815562 
732	 0.344261542142115 
733	 0.344570039297448 
734	 0.344925651769738 
735	 0.345258707834054 
736	 0.345637498657279 
737	 0.345948511284927 
738	 0.346189272907885 
739	 0.34644043638689 
740	 0.346798124370204 
741	 0.347134654166861 
742	 0.347402766022313 
743	 0.347715859878035 
744	 0.348014889696348 
745	 0.348289764821938 
746	 0.348554887358468 
747	 0.348857427603058 
748	 0.349215452017369 
749	 0.349611034584999 
750	 0.349994420279596 
751	 0.350243177700689 
752	 0.350595830436306 
753	 0.351066611888793 
754	 0.351345307960503 
755	 0.351709822827675 
756	 0.352051804672075 
757	 0.352298080667375 
758	 0.352734047242415 
759	 0.353146344020601 
760	 0.353504059645144 
761	 0.353869910947824 
762	 0.354310364758959 
763	 0.354732321162882 
764	 0.355097736995724 
765	 0.355445107830643 
766	 0.355844833222731 
767	 0.356259097356163 
768	 0.356659364036724 
769	 0.357093791696515 
770	 0.357514252745202 
771	 0.357883626734885 
772	 0.358206083576167 
773	 0.358656688079712 
774	 0.359051777785395 
775	 0.359395948135459 
776	 0.359845031810754 
777	 0.360293673155147 
778	 0.360706893143389 
779	 0.361073232900468 
780	 0.361392444714815 
781	 0.361953359290151 
782	 0.362507351619953 
783	 0.362803071898512 
784	 0.363149592802141 
785	 0.363536083302355 
786	 0.363956663247264 
787	 0.364400536351924 
788	 0.364846382127964 
789	 0.365239338634573 
790	 0.365598630574394 
791	 0.366025538438422 
792	 0.366401736404369 
793	 0.366778038914271 
794	 0.367204620611204 
795	 0.367657577494108 
796	 0.367988449416194 
797	 0.368319838776403 
798	 0.3687930340714 
799	 0.369101890089004 
800	 0.369453074026593 
801	 0.369828689183233 
802	 0.370072142800238 
803	 0.370633949016004 
804	 0.371125066515198 
805	 0.371388299797423 
806	 0.371774082126097 
807	 0.372219031204118 
808	 0.372634152868751 
809	 0.372975265038709 
810	 0.373379736597698 
811	 0.373635479549118 
812	 0.373902937227448 
813	 0.374396796943008 
814	 0.37462956202713 
815	 0.374843306884552 
816	 0.375159256725946 
817	 0.375542054373256 
818	 0.375937336669284 
819	 0.376303952074773 
820	 0.376604094095901 
821	 0.376797766987541 
822	 0.377098736858338 
823	 0.377405127973281 
824	 0.377615074325088 
825	 0.377907213259387 
826	 0.378229409069358 
827	 0.378495228529805 
828	 0.378645948150352 
829	 0.378860220583629 
830	 0.37913821119683 
831	 0.379409148341366 
832	 0.379566868389878 
833	 0.379698407982865 
834	 0.379849178221761 
835	 0.380069571865971 
836	 0.380423580810691 
837	 0.380675622095236 
838	 0.380815774016232 
839	 0.380897718118489 
840	 0.3809487903821 
841	 0.381106403619181 
842	 0.381332055529021 
843	 0.381538780203606 
844	 0.381833502092393 
845	 0.382004125389242 
846	 0.38205329841848 
847	 0.382155058451779 
848	 0.382411684294475 
849	 0.382598001856482 
850	 0.382673944326273 
851	 0.382866622921834 
852	 0.382980130409734 
853	 0.383076283221484 
854	 0.383234325825622 
855	 0.383466499691584 
856	 0.383605198148351 
857	 0.383676405872937 
858	 0.383751164304956 
859	 0.383783210724553 
860	 0.384025650155413 
861	 0.384269593777788 
862	 0.384178546744215 
863	 0.384186487195743 
864	 0.384233697465514 
865	 0.38427282448058 
866	 0.384299071442236 
867	 0.384347257209314 
868	 0.384448029094908 
869	 0.384579711617901 
870	 0.384656220990447 
871	 0.384692358647297 
872	 0.384695129356976 
873	 0.384685291271186 
874	 0.384706346695488 
875	 0.3848059896146 
876	 0.384897340660506 
877	 0.384907847355524 
878	 0.384974216882548 
879	 0.385059585576697 
880	 0.385090180032558 
881	 0.385032340661137 
882	 0.385159760629857 
883	 0.38520791920055 
884	 0.385136482242804 
885	 0.385103482753782 
886	 0.385183659997966 
887	 0.385263014338297 
888	 0.385261693968732 
889	 0.385174925496986 
890	 0.385016642835379 
891	 0.38504268756888 
892	 0.385276083838762 
893	 0.38529475083572 
894	 0.385431624092438 
895	 0.385502868718341 
896	 0.385372973787408 
897	 0.385351480365264 
898	 0.385326849104963 
899	 0.385320361376956 
900	 0.38535910604796 
901	 0.385333808997282 
902	 0.385411002605586 
903	 0.38551018985399 
904	 0.38548335017695 
905	 0.385547038273944 
906	 0.385541141650803 
907	 0.385542970959493 
908	 0.385750700280539 
909	 0.3858410908999 
910	 0.385896912708853 
911	 0.385976769514016 
912	 0.386070971919491 
913	 0.386169110424145 
914	 0.38626613330743 
915	 0.38631381654165 
916	 0.386225647020705 
917	 0.386437503074522 
918	 0.386600867167667 
919	 0.386509973724971 
920	 0.386519965400352 
921	 0.386532928728948 
922	 0.386576772029802 
923	 0.386675622317819 
924	 0.386766901015607 
925	 0.387088018110614 
926	 0.387354784727112 
927	 0.387306246334346 
928	 0.387346543336719 
929	 0.387335484667042 
930	 0.387365700024579 
931	 0.387576789348173 
932	 0.387903357416777 
933	 0.38824219712265 
934	 0.38837557605563 
935	 0.38818995954443 
936	 0.388356364681303 
937	 0.388468056882509 
938	 0.388553206914963 
939	 0.388901313080597 
940	 0.389143663977463 
941	 0.38937996745646 
942	 0.389514882411045 
943	 0.389355402409463 
944	 0.389608864182454 
945	 0.389718174376757 
946	 0.389612139482504 
947	 0.389829673086453 
948	 0.390090323116895 
949	 0.390308270273093 
950	 0.390510154075499 
951	 0.390801794257104 
952	 0.390750877765725 
953	 0.390641327539168 
954	 0.390747041105794 
955	 0.391098906368254 
956	 0.391312007342065 
957	 0.391353445773434 
958	 0.391279007660379 
959	 0.391148332920499 
960	 0.391193475551759 
961	 0.391379801037661 
962	 0.391602912663827 
963	 0.391774573230628 
964	 0.39217570782507 
965	 0.392426069103105 
966	 0.392355176648468 
967	 0.392634912586668 
968	 0.392733785073642 
969	 0.392760945363337 
970	 0.392935733565084 
971	 0.393303895505144 
972	 0.393320722462482 
973	 0.393129656911068 
974	 0.393102763375316 
975	 0.393597189813496 
976	 0.393701342337423 
977	 0.393598000287254 
978	 0.393688094833496 
979	 0.39385222556375 
980	 0.393857713110646 
981	 0.393965896546622 
982	 0.39432845221715 
983	 0.394146390257183 
984	 0.39457031730835 
985	 0.395115286084643 
986	 0.395075633082224 
987	 0.395061776323 
988	 0.395039784888984 
989	 0.39509378768127 
990	 0.39521417030467 
991	 0.394984096818241 
992	 0.395004913913816 
993	 0.395327160270686 
994	 0.395722473891314 
995	 0.395846341381715 
996	 0.395904830823347 
997	 0.396074231907593 
998	 0.396291995124902 
999	 0.395715451402189 
1000	 0.395880415707606 
1001	 0.394142582974205 
1002	 0.394260326456541 
1003	 0.394219033223227 
1004	 0.394359156748793 
1005	 0.394762776935126 
1006	 0.394861741737916 
1007	 0.394798964234169 
1008	 0.39494564741658 
1009	 0.395051294699078 
1010	 0.395164438415634 
1011	 0.395525529094699 
1012	 0.395644630855485 
1013	 0.395516574824639 
1014	 0.395510831955554 
1015	 0.395417525526549 
1016	 0.395505592963813 
1017	 0.395732398518866 
1018	 0.395800091405877 
1019	 0.395815836830212 
1020	 0.39590960213185 
1021	 0.395905814476055 
1022	 0.395684707009777 
1023	 0.395795499938916 
1024	 0.396101470987206 
1025	 0.396213507973589 
1026	 0.396407851960913 
1027	 0.396520335202714 
1028	 0.396470294242097 
1029	 0.396506536266183 
1030	 0.396585111848624 
1031	 0.396719167825199 
1032	 0.396808605957295 
1033	 0.3969061392793 
1034	 0.397169623143164 
1035	 0.397307648768857 
1036	 0.397449404602497 
1037	 0.397656893668916 
1038	 0.397798921264354 
1039	 0.397842319979841 
1040	 0.39796701350405 
1041	 0.398077779625718 
1042	 0.398245437980144 
1043	 0.398489300955275 
1044	 0.398683681448342 
1045	 0.398731854044687 
1046	 0.398773768358055 
1047	 0.398770228345736 
1048	 0.398702770463512 
1049	 0.398825884793089 
1050	 0.399074989049566 
1051	 0.398911034156587 
1052	 0.398714100735645 
1053	 0.398763446216363 
1054	 0.398854918857379 
1055	 0.398898842602449 
1056	 0.399208212031832 
1057	 0.399369589902617 
1058	 0.399400521732009 
1059	 0.399385552898372 
1060	 0.399453775893117 
1061	 0.399512988384743 
1062	 0.399488670273441 
1063	 0.399401254708359 
1064	 0.399509568951591 
1065	 0.399662065482654 
1066	 0.399723290036777 
1067	 0.399755045629815 
1068	 0.399740776698958 
1069	 0.399960148746201 
1070	 0.399943548894697 
1071	 0.399852416041661 
1072	 0.399732768658276 
1073	 0.399764098573396 
1074	 0.399450627941483 
1075	 0.399302902254776 
1076	 0.399463213216845 
1077	 0.399504580273166 
1078	 0.399446409673231 
1079	 0.399467383777835 
1080	 0.399559021888676 
1081	 0.399504077976399 
1082	 0.399540357299038 
1083	 0.399661357689878 
1084	 0.399664849160797 
1085	 0.399708326894568 
1086	 0.399755067511268 
1087	 0.399785623578814 
1088	 0.399781175926282 
1089	 0.399900248009206 
1090	 0.40008647660382 
1091	 0.400132708072474 
1092	 0.40011939150381 
1093	 0.40021088474693 
1094	 0.400244364957771 
1095	 0.40024677959822 
1096	 0.400327942201786 
1097	 0.400406935199199 
1098	 0.40042773789594 
1099	 0.400408269235392 
1100	 0.400441643296252 
1101	 0.400505363232863 
1102	 0.400599557381175 
1103	 0.400700745883515 
1104	 0.400900500570405 
1105	 0.401057973682165 
1106	 0.401097405668633 
1107	 0.401125956962119 
1108	 0.401246969380999 
1109	 0.401489939454076 
1110	 0.40175963488752 
1111	 0.402045944206487 
1112	 0.402210593909395 
1113	 0.402219558846092 
1114	 0.402300798115848 
1115	 0.402424853502262 
1116	 0.402621159681723 
1117	 0.402901546419163 
1118	 0.403169607651637 
1119	 0.40353386016059 
1120	 0.40373789902496 
1121	 0.403828394704001 
1122	 0.404020492819161 
1123	 0.404307098796375 
1124	 0.404555772440934 
1125	 0.404830728230696 
1126	 0.405081929982774 
1127	 0.405232549103442 
1128	 0.405381179733892 
1129	 0.405634761609517 
1130	 0.40592685367826 
1131	 0.406143476066701 
1132	 0.406318096693631 
1133	 0.406498166792846 
1134	 0.406722176718729 
1135	 0.406887986799337 
1136	 0.407008745891306 
1137	 0.407155432067596 
1138	 0.407302788622056 
1139	 0.407398217370981 
1140	 0.407444720304221 
1141	 0.407595057311969 
1142	 0.40777056038177 
1143	 0.40795649952476 
1144	 0.408192046902085 
1145	 0.408422604144559 
1146	 0.408524477985175 
1147	 0.408632279010555 
1148	 0.408717176360058 
1149	 0.408700138948692 
1150	 0.408751019418604 
1151	 0.408769087935174 
1152	 0.408783197476718 
1153	 0.408798146226242 
1154	 0.408870204933282 
1155	 0.408960645087427 
1156	 0.409013140367135 
1157	 0.409138144143123 
1158	 0.40917102957714 
1159	 0.409143269362702 
1160	 0.409061693839278 
1161	 0.408991802006862 
1162	 0.408843105934991 
1163	 0.408698650821444 
1164	 0.408691673596399 
1165	 0.408652598932577 
1166	 0.408602456814648 
1167	 0.408610342758352 
1168	 0.408546710195633 
1169	 0.4084880881286 
1170	 0.408447511492105 
1171	 0.408385221024705 
1172	 0.408300326467302 
1173	 0.408165423269145 
1174	 0.40800402726152 
1175	 0.407831902007908 
1176	 0.407582063658982 
1177	 0.407415995938766 
1178	 0.407279366746615 
1179	 0.40713741995791 
1180	 0.407085298184509 
1181	 0.40702577262273 
1182	 0.406947503487862 
1183	 0.40688010507129 
1184	 0.406775611993757 
1185	 0.406660237406459 
1186	 0.406589878670731 
1187	 0.406553029894551 
1188	 0.406505967021698 
1189	 0.406458093711718 
1190	 0.406451385967835 
1191	 0.406445618460877 
1192	 0.406477591743649 
1193	 0.406588403883685 
1194	 0.40664847223158 
1195	 0.406712342314963 
1196	 0.406770334521729 
1197	 0.406791198214767 
1198	 0.406833526097384 
1199	 0.406942413336359 
1200	 0.406967646950758 
1201	 0.407063134166834 
1202	 0.407205489152606 
1203	 0.407332519141358 
1204	 0.407531947490916 
1205	 0.407759380689411 
1206	 0.407992206944039 
1207	 0.408333002619249 
1208	 0.408784021091485 
1209	 0.409193142736651 
1210	 0.409607461940352 
1211	 0.410106744329233 
1212	 0.410584705813199 
1213	 0.411183299777138 
1214	 0.411941858796088 
1215	 0.412694452443219 
1216	 0.413498750817275 
1217	 0.41432358344563 
1218	 0.415213074342274 
1219	 0.416059368163353 
1220	 0.416953414691331 
1221	 0.417805301783626 
1222	 0.418633152235653 
1223	 0.419526373863739 
1224	 0.420413910576331 
1225	 0.421331349605699 
1226	 0.422205005004497 
1227	 0.423098904203405 
1228	 0.423918303107723 
1229	 0.424722436154629 
1230	 0.425443132390223 
1231	 0.426059031694433 
1232	 0.426726962783177 
1233	 0.427355933171827 
1234	 0.42797175717462 
1235	 0.428608251440715 
1236	 0.429232152682709 
1237	 0.429811266370166 
1238	 0.430402634286883 
1239	 0.430997126811293 
1240	 0.431613296517226 
1241	 0.432244803065162 
1242	 0.432779574627884 
1243	 0.433353570964835 
1244	 0.433938250510947 
1245	 0.434504632516437 
1246	 0.435080290506533 
1247	 0.435599964148339 
1248	 0.43605497551309 
1249	 0.436576546193951 
1250	 0.437118236622065 
1251	 0.43760377758796 
1252	 0.438099714668076 
1253	 0.438591882834252 
1254	 0.438994787680529 
1255	 0.439468221037902 
1256	 0.440059932361973 
1257	 0.440553538041144 
1258	 0.440999254422873 
1259	 0.441448132694724 
1260	 0.441780072136564 
1261	 0.442227315361943 
1262	 0.442796105037368 
1263	 0.443324622778079 
1264	 0.443759085384478 
1265	 0.444186182922982 
1266	 0.444633938826996 
1267	 0.444975715297844 
1268	 0.445393939604731 
1269	 0.445924864488652 
1270	 0.446363586416313 
1271	 0.44673330441129 
1272	 0.447131862451493 
1273	 0.447564558310611 
1274	 0.447932645492041 
1275	 0.44826250368912 
1276	 0.448583587309592 
1277	 0.448850652270164 
1278	 0.449147063348528 
1279	 0.449432766200029 
1280	 0.449740728024134 
1281	 0.450071020724604 
1282	 0.450399849685989 
1283	 0.450790579170579 
1284	 0.451101528899206 
1285	 0.45137503342062 
1286	 0.451615960357251 
1287	 0.451852378716492 
1288	 0.452017349916621 
1289	 0.452251312031952 
1290	 0.452538193991501 
1291	 0.452753428817599 
1292	 0.452954418790926 
1293	 0.453141589625067 
1294	 0.453281221287647 
1295	 0.453441180956176 
1296	 0.453597862675227 
1297	 0.453769856198736 
1298	 0.453951307416185 
1299	 0.454119588092208 
1300	 0.454298130341007 
1301	 0.454466545125397 
1302	 0.454602347879001 
1303	 0.454766260415699 
1304	 0.454932902938676 
1305	 0.455122738626052 
1306	 0.455374148047781 
1307	 0.455566798452233 
1308	 0.455755997321177 
1309	 0.455925224073631 
1310	 0.456040058912602 
1311	 0.456041617692844 
1312	 0.456227095061757 
1313	 0.456453052545782 
1314	 0.456691465579999 
1315	 0.457058143063524 
1316	 0.457311291467472 
1317	 0.457492453116577 
1318	 0.45772460110664 
1319	 0.457951118515587 
1320	 0.458201298357891 
1321	 0.458486843731314 
1322	 0.458741328787245 
1323	 0.458975251913841 
1324	 0.459243539262921 
1325	 0.459525626367078 
1326	 0.459791200938955 
1327	 0.460093104335331 
1328	 0.460354249254771 
1329	 0.460511945460712 
1330	 0.460778433672791 
1331	 0.461163961137519 
1332	 0.461437195871534 
1333	 0.461669190749728 
1334	 0.46196735087525 
1335	 0.462198912223758 
1336	 0.462337076063304 
1337	 0.462515666518904 
1338	 0.462732759851417 
1339	 0.462898498077549 
1340	 0.462992451038619 
1341	 0.463160406398395 
1342	 0.463360031181501 
1343	 0.463550353346998 
1344	 0.463778337742941 
1345	 0.463947155738145 
1346	 0.464121192040921 
1347	 0.464222230979315 
1348	 0.464256673887941 
1349	 0.464301625674209 
1350	 0.464298095162925 
1351	 0.464312513793472 
1352	 0.464356160081171 
1353	 0.464348525739779 
1354	 0.464269544429782 
1355	 0.46425852792394 
1356	 0.464262556157023 
1357	 0.464261403470938 
1358	 0.464313035730863 
1359	 0.464341906537658 
1360	 0.464377608843073 
1361	 0.464337976251366 
1362	 0.464333625436366 
1363	 0.464339253260282 
1364	 0.464297999360198 
1365	 0.464237410465262 
1366	 0.464142954450345 
1367	 0.464017297302834 
1368	 0.463874593085784 
1369	 0.463716444135949 
1370	 0.463512722575955 
1371	 0.463265452523769 
1372	 0.463032532755124 
1373	 0.462773808559969 
1374	 0.46250773299259 
1375	 0.462237204319172 
1376	 0.461969397520287 
1377	 0.461699956163461 
1378	 0.461389901146989 
1379	 0.46106510531243 
1380	 0.460741889365844 
1381	 0.460383970313471 
1382	 0.46002376128551 
1383	 0.459703417658213 
1384	 0.459321079011208 
1385	 0.458870355048344 
1386	 0.458442595827752 
1387	 0.457959330212949 
1388	 0.457547831467043 
1389	 0.457156395405465 
1390	 0.45681627665614 
1391	 0.456531827546017 
1392	 0.456278202883689 
1393	 0.456084360129628 
1394	 0.455871191690454 
1395	 0.455658663521469 
1396	 0.455495772292801 
1397	 0.455210352976371 
1398	 0.454911553635082 
1399	 0.454487557718824 
1400	 0.453992219699741 
1401	 0.453372251364634 
1402	 0.452663187877668 
1403	 0.451838768579528 
1404	 0.450855980709861 
1405	 0.449885196869782 
1406	 0.448855025407931 
1407	 0.447755187162698 
1408	 0.446577420839166 
1409	 0.445415832574433 
1410	 0.444204428551253 
1411	 0.442959444303144 
1412	 0.441688100417697 
1413	 0.440445439392368 
1414	 0.439152663291598 
1415	 0.437889816087694 
1416	 0.436658168304092 
1417	 0.435446319025809 
1418	 0.434220466701975 
1419	 0.433023747291994 
1420	 0.431857816549416 
1421	 0.430736398893632 
1422	 0.429651748452877 
1423	 0.428568989994338 
1424	 0.427548042075044 
1425	 0.426466490831917 
1426	 0.425471630138783 
1427	 0.424521698841232 
1428	 0.423568357193838 
1429	 0.422708317128219 
1430	 0.421784846988078 
1431	 0.420837847412453 
1432	 0.419878727963048 
1433	 0.41897139093026 
1434	 0.417883779269518 
1435	 0.416733383483796 
1436	 0.415475329019291 
1437	 0.414040998656996 
1438	 0.412698531623345 
1439	 0.411293505915494 
1440	 0.40995437890931 
1441	 0.408598382283717 
1442	 0.407375232887641 
1443	 0.40606822147986 
1444	 0.40514253766097 
1445	 0.404321768699938 
1446	 0.403901822237701 
1447	 0.403783870155893 
1448	 0.403963776654391 
1449	 0.404487717808114 
1450	 0.405236661688071 
1451	 0.406385725211225 
1452	 0.407561608326591 
1453	 0.409050396980064 
1454	 0.410437217219267 
1455	 0.411904936269859 
1456	 0.413306181096764 
1457	 0.414738610632921 
1458	 0.416064142352781 
1459	 0.417309246822174 
1460	 0.418534657363285 
1461	 0.41972841252398 
1462	 0.420814715031863 
1463	 0.42182675450151 
1464	 0.422811341878608 
1465	 0.423688292876094 
1466	 0.424561430966463 
1467	 0.425388642535687 
1468	 0.426191883112972 
1469	 0.426949588546396 
1470	 0.427613607736674 
1471	 0.428311727641973 
1472	 0.428998494767087 
1473	 0.429686173227061 
1474	 0.430359353029863 
1475	 0.431040146387225 
1476	 0.431764537952127 
1477	 0.432358229411478 
1478	 0.432929113637825 
1479	 0.433395206833689 
1480	 0.433766367885482 
1481	 0.434074304742995 
1482	 0.434309573067957 
1483	 0.434482067314127 
1484	 0.434534402108195 
1485	 0.434625348081265 
1486	 0.434642410652929 
1487	 0.434754072246207 
1488	 0.434875787252976 
1489	 0.435062172913363 
1490	 0.4352573607972 
1491	 0.435596152460881 
1492	 0.436007158839766 
1493	 0.436524215604307 
1494	 0.437162430862137 
1495	 0.437884823403097 
1496	 0.438678139204876 
1497	 0.439588171642132 
1498	 0.440707654251691 
1499	 0.441743488594285 
1500	 0.442839519969625 
1501	 0.443907805390618 
1502	 0.444942848832662 
1503	 0.445974066473071 
1504	 0.447050469005116 
1505	 0.448058410601252 
1506	 0.449065580577995 
1507	 0.449965040036581 
1508	 0.450804813773841 
1509	 0.45156586085732 
1510	 0.452200860588423 
1511	 0.452821299149034 
1512	 0.453355831479956 
1513	 0.453909177116604 
1514	 0.454464462098697 
1515	 0.454976081126414 
1516	 0.45553319557989 
1517	 0.455968884122154 
1518	 0.456277486892652 
1519	 0.456589140032839 
1520	 0.456843967455278 
1521	 0.457042088013204 
1522	 0.457269512174179 
1523	 0.457507465771187 
1524	 0.457666961062839 
1525	 0.4577760838247 
1526	 0.457890464527764 
1527	 0.45796523286417 
1528	 0.45803983197832 
1529	 0.458111257346899 
1530	 0.458171400701795 
1531	 0.458215649065406 
1532	 0.45823741794999 
1533	 0.458220256429165 
1534	 0.458289297986016 
1535	 0.458327133686584 
1536	 0.458500679251446 
1537	 0.458805155544742 
1538	 0.459055854211924 
1539	 0.45933699447766 
1540	 0.459643851880783 
1541	 0.459896467272641 
1542	 0.460341860223993 
1543	 0.460916165143334 
1544	 0.461475987305688 
1545	 0.462119376733594 
1546	 0.462802922796198 
1547	 0.463500638072537 
1548	 0.464247660329544 
1549	 0.465103346792935 
1550	 0.465918387277403 
1551	 0.466752847308827 
1552	 0.467535737969161 
1553	 0.468309128164414 
1554	 0.469078641615338 
1555	 0.46979914033751 
1556	 0.470545853622193 
1557	 0.471327455114533 
1558	 0.472073587569493 
1559	 0.472800698148359 
1560	 0.473517983735317 
1561	 0.474253188271224 
1562	 0.474913854948523 
1563	 0.475502145837261 
1564	 0.476134692551726 
1565	 0.476742076034462 
1566	 0.477352099541864 
1567	 0.478013821569369 
1568	 0.478610559775204 
1569	 0.479116526554926 
1570	 0.479706260494553 
1571	 0.480350237033785 
1572	 0.480925569323911 
1573	 0.481483493889077 
1574	 0.48207624976651 
1575	 0.482641065531129 
1576	 0.483207611892478 
1577	 0.483851095315356 
1578	 0.484418283435624 
1579	 0.48489870306821 
1580	 0.485417610045537 
1581	 0.485936017455197 
1582	 0.486452460321391 
1583	 0.486996408444323 
1584	 0.48749212193142 
1585	 0.48795495877712 
1586	 0.488422377585602 
1587	 0.488853349897181 
1588	 0.489302906091165 
1589	 0.48978113976456 
1590	 0.490225306883471 
1591	 0.490592322972206 
1592	 0.491071038262153 
1593	 0.491607186840911 
1594	 0.492128943403322 
1595	 0.492759045339801 
1596	 0.493300238031528 
1597	 0.49375625720192 
1598	 0.494244157650544 
1599	 0.494727693803018 
1600	 0.495205659087662 
1601	 0.495674674830673 
1602	 0.496157347265394 
1603	 0.496665920176817 
1604	 0.497126576781152 
1605	 0.497572799355485 
1606	 0.498014843656626 
1607	 0.498422070122908 
1608	 0.498820285480986 
1609	 0.499201761683657 
1610	 0.499613501640259 
1611	 0.500053017426959 
1612	 0.50043211886145 
1613	 0.500813106727101 
1614	 0.50116839613615 
1615	 0.501441432375521 
1616	 0.501746521335085 
1617	 0.50210714788217 
1618	 0.502392345794205 
1619	 0.502619197359554 
1620	 0.502862327058676 
1621	 0.50304177294248 
1622	 0.503270251497511 
1623	 0.503562872103574 
1624	 0.503818533774228 
1625	 0.504091997409356 
1626	 0.504326650607865 
1627	 0.504564967002013 
1628	 0.504705824943589 
1629	 0.504690600129057 
1630	 0.504809687478747 
1631	 0.504928721995012 
1632	 0.505072776673614 
1633	 0.505357284968062 
1634	 0.505568198056097 
1635	 0.505704785116714 
1636	 0.505883033687207 
1637	 0.506104226893904 
1638	 0.506267207540471 
1639	 0.506382346527734 
1640	 0.506540054925971 
1641	 0.50671861922583 
1642	 0.506845030811727 
1643	 0.506997159211283 
1644	 0.507102267808089 
1645	 0.507117922704916 
1646	 0.507145229166364 
1647	 0.507146883163739 
1648	 0.507184111422466 
1649	 0.50729646021961 
1650	 0.507274900575724 
1651	 0.507250404410178 
1652	 0.507122296014659 
1653	 0.506824172085268 
1654	 0.5065522010799 
1655	 0.506268781941953 
1656	 0.505926757414499 
1657	 0.505566038915731 
1658	 0.505116366666971 
1659	 0.504565269946814 
1660	 0.504021185594118 
1661	 0.503455788830789 
1662	 0.502806762133028 
1663	 0.502116303180784 
1664	 0.5013794569986 
1665	 0.500547535838078 
1666	 0.499694987699963 
1667	 0.49886910148796 
1668	 0.497909251149279 
1669	 0.496844780135192 
1670	 0.495742231694056 
1671	 0.494587858612202 
1672	 0.493317985578113 
1673	 0.492015298789931 
1674	 0.490554334195799 
1675	 0.488875846288432 
1676	 0.487250708998836 
1677	 0.485606335495982 
1678	 0.483830039643775 
1679	 0.481984086019373 
1680	 0.480100812137663 
1681	 0.47811007583381 
1682	 0.476048475204423 
1683	 0.473948769762953 
1684	 0.471844954481256 
1685	 0.469666921572959 
1686	 0.467445696378151 
1687	 0.465238706027209 
1688	 0.462889177826898 
1689	 0.460372798456134 
1690	 0.45789586308891 
1691	 0.455443998975846 
1692	 0.452898884008768 
1693	 0.450326919379201 
1694	 0.447660193934166 
1695	 0.444849882925601 
1696	 0.442016946094315 
1697	 0.439167568073033 
1698	 0.436163690487068 
1699	 0.433054915879162 
1700	 0.429999151418318 
1701	 0.426795432885572 
1702	 0.423788105817813 
1703	 0.420825247886895 
1704	 0.417962459585103 
1705	 0.415143521073458 
1706	 0.412463048457696 
1707	 0.410104410699205 
1708	 0.408017022108997 
1709	 0.40605624746603 
1710	 0.404238009400683 
1711	 0.402419663507324 
1712	 0.400644896289562 
1713	 0.398901564406611 
1714	 0.397251015396677 
1715	 0.395785992955708 
1716	 0.394264641475716 
1717	 0.392822489889175 
1718	 0.391407138506821 
1719	 0.389909061926954 
1720	 0.388576770090226 
1721	 0.387345338301698 
1722	 0.38622851711117 
1723	 0.385303977628822 
1724	 0.384346493834016 
1725	 0.383498529029801 
1726	 0.382852999158807 
1727	 0.382387911044198 
1728	 0.382294207349945 
1729	 0.382532749256338 
1730	 0.382946088691112 
1731	 0.38350920003311 
1732	 0.384354111689807 
1733	 0.385297627269386 
1734	 0.386371539645098 
1735	 0.387598973370767 
1736	 0.388765466202229 
1737	 0.389864818917295 
1738	 0.390978674982975 
1739	 0.391773888304583 
1740	 0.392332526235493 
1741	 0.39275276202768 
1742	 0.392895817118849 
1743	 0.393001642437995 
1744	 0.393017308871269 
1745	 0.392935035392666 
1746	 0.392676650413231 
1747	 0.39249059051518 
1748	 0.392181009733408 
1749	 0.392021557818715 
1750	 0.391881574095277 
1751	 0.391923884314825 
1752	 0.392120597740045 
1753	 0.392371688100946 
1754	 0.392719137360783 
1755	 0.393213654446294 
1756	 0.393769913181136 
1757	 0.394492405307356 
1758	 0.395421255909477 
1759	 0.396454985849825 
1760	 0.397667659371127 
1761	 0.399187312604044 
1762	 0.400687840309138 
1763	 0.402203991931993 
1764	 0.403895137078424 
1765	 0.4055691387559 
1766	 0.407392132975562 
1767	 0.409388082724229 
1768	 0.411481256071478 
1769	 0.413598185846287 
1770	 0.415576416264381 
1771	 0.417567547471327 
1772	 0.419425200422379 
1773	 0.421102763111301 
1774	 0.422891241120722 
1775	 0.424544482031246 
1776	 0.426005445373945 
1777	 0.427406893268579 
1778	 0.428666182538128 
1779	 0.429947323670273 
1780	 0.431222319312797 
1781	 0.432409545500826 
1782	 0.433586744576112 
1783	 0.434623521060937 
1784	 0.435606385159504 
1785	 0.436637327014039 
1786	 0.437565710138169 
1787	 0.438443209796224 
1788	 0.439263963097603 
1789	 0.439965299813483 
1790	 0.440707860554289 
1791	 0.441443709316564 
1792	 0.442189094461586 
1793	 0.442939361374232 
1794	 0.443645681176519 
1795	 0.444296499425589 
1796	 0.444853204239137 
1797	 0.445511384336415 
1798	 0.446176248464957 
1799	 0.44680814576377 
1800	 0.44748774033945 
1801	 0.44234062478058 
1802	 0.443052599450484 
1803	 0.443653795412451 
1804	 0.444183043739734 
1805	 0.444737587647741 
1806	 0.445230284778513 
1807	 0.445639540531869 
1808	 0.446103496497385 
1809	 0.446576305928437 
1810	 0.447021931151081 
1811	 0.447454743241796 
1812	 0.447901691503491 
1813	 0.448340194762963 
1814	 0.448772120138163 
1815	 0.449236632216687 
1816	 0.449701154609358 
1817	 0.450176010755794 
1818	 0.450636059331419 
1819	 0.451152049997393 
1820	 0.45169297511532 
1821	 0.452233513313558 
1822	 0.452810731684942 
1823	 0.45341200941884 
1824	 0.453892096649933 
1825	 0.454439853534455 
1826	 0.454933001057646 
1827	 0.455376067771787 
1828	 0.455805596912977 
1829	 0.456202604091138 
1830	 0.456621019178654 
1831	 0.45700956699709 
1832	 0.457435519178094 
1833	 0.45787953799603 
1834	 0.458347752024171 
1835	 0.458795028891484 
1836	 0.459179175399186 
1837	 0.459562268514651 
1838	 0.459927859222771 
1839	 0.460287234094805 
1840	 0.460621281123654 
1841	 0.460959324003974 
1842	 0.46129387275863 
1843	 0.461608658559432 
1844	 0.461943880689914 
1845	 0.462255921094596 
1846	 0.462518994144174 
1847	 0.46274980463248 
1848	 0.462964918353222 
1849	 0.463178710234356 
1850	 0.463300105230521 
1851	 0.46339082592312 
1852	 0.463431593109085 
1853	 0.463363642641958 
1854	 0.463205377113783 
1855	 0.463046923334375 
1856	 0.462808506429244 
1857	 0.462431409543426 
1858	 0.462036602309732 
1859	 0.461582240228841 
1860	 0.461019920511838 
1861	 0.460447886761709 
1862	 0.459881945995424 
1863	 0.45921630661464 
1864	 0.45842355747579 
1865	 0.457618407244016 
1866	 0.456731611977831 
1867	 0.455723413131271 
1868	 0.454700911073688 
1869	 0.453561218030292 
1870	 0.452271859941055 
1871	 0.450826283565405 
1872	 0.449348887970956 
1873	 0.447764293050922 
1874	 0.446140515176021 
1875	 0.444427304924472 
1876	 0.442621765867276 
1877	 0.440783965769127 
1878	 0.438680254475952 
1879	 0.436468196772257 
1880	 0.43432853422606 
1881	 0.432045717107802 
1882	 0.429610815005293 
1883	 0.427197089354672 
1884	 0.424658573900045 
1885	 0.421699792972383 
1886	 0.418711575614101 
1887	 0.415545546946521 
1888	 0.412246446576597 
1889	 0.409213572382812 
1890	 0.405974175718628 
1891	 0.402663151297176 
1892	 0.399308563664674 
1893	 0.395836412517497 
1894	 0.392147209215735 
1895	 0.388620213242534 
1896	 0.385028166464435 
1897	 0.381383367821541 
1898	 0.377936478750873 
1899	 0.374401464325475 
1900	 0.370975714302124 
1901	 0.367670694606145 
1902	 0.364225941210952 
1903	 0.360965595231546 
1904	 0.357760200115071 
1905	 0.354552778288872 
1906	 0.351448280118515 
1907	 0.348706620705993 
1908	 0.345933652419318 
1909	 0.343212053100208 
1910	 0.34064385067067 
1911	 0.337952475457634 
1912	 0.335332669920741 
1913	 0.332752962545299 
1914	 0.33015022584444 
1915	 0.327736002806676 
1916	 0.325464588901827 
1917	 0.323234594941788 
1918	 0.321092050675463 
1919	 0.318964400329737 
1920	 0.316654568512835 
1921	 0.314383951948416 
1922	 0.312063856063784 
1923	 0.309708135449982 
1924	 0.307581128065581 
1925	 0.305380498479872 
1926	 0.303162708500633 
1927	 0.30096549095585 
1928	 0.29877519180784 
1929	 0.296493799922915 
1930	 0.294348115668588 
1931	 0.292299348783651 
1932	 0.290328193123994 
1933	 0.288675876535136 
1934	 0.287119078411523 
1935	 0.285676821494768 
1936	 0.284531969002065 
1937	 0.283509475709529 
1938	 0.282614719392353 
1939	 0.281923723048297 
1940	 0.281424948217667 
1941	 0.281082571883793 
1942	 0.280916322691824 
1943	 0.280928588520515 
1944	 0.281173326293774 
1945	 0.281568469060165 
1946	 0.282094309117245 
1947	 0.282719179265481 
1948	 0.283502101688862 
1949	 0.284448606708439 
1950	 0.285542669313024 
1951	 0.286802262406827 
1952	 0.288252400653577 
1953	 0.289821971561436 
1954	 0.291647373665246 
1955	 0.293732016620167 
1956	 0.295823197246403 
1957	 0.2980026103956 
1958	 0.300203337835823 
1959	 0.302178334383143 
1960	 0.304099300415424 
1961	 0.305884926015267 
1962	 0.307555535002517 
1963	 0.30904380956908 
1964	 0.310391517750257 
1965	 0.311615598892005 
1966	 0.312713318623236 
1967	 0.31362835886256 
1968	 0.314367799761304 
1969	 0.315118204245852 
1970	 0.315731944508962 
1971	 0.316371432856776 
1972	 0.317153808837035 
1973	 0.317900589924191 
1974	 0.318738730649828 
1975	 0.319669286980389 
1976	 0.320605195447109 
1977	 0.321601364208119 
1978	 0.322616724309496 
1979	 0.323654101039207 
1980	 0.324673970507315 
1981	 0.325886504416371 
1982	 0.327075390549092 
1983	 0.328297739122049 
1984	 0.329628804145302 
1985	 0.330848489530189 
1986	 0.332090023790304 
1987	 0.33349587310501 
1988	 0.334905922070647 
1989	 0.336589523794859 
1990	 0.338480682006966 
1991	 0.340468806227196 
1992	 0.342616139339802 
1993	 0.345007781313247 
1994	 0.347309554460825 
1995	 0.349776999734643 
1996	 0.352301804640771 
1997	 0.354832517414551 
1998	 0.357459501337615 
1999	 0.360255642723569 
2000	 0.362812731847959 
2001	 0.365485421747302 
2002	 0.367841566977639 
2003	 0.369929153094681 
2004	 0.372047907474351 
2005	 0.374043337554249 
2006	 0.375921651000907 
2007	 0.377797439184565 
2008	 0.37943932424802 
2009	 0.380910351574854 
2010	 0.382393394451285 
2011	 0.383680980920866 
2012	 0.384933189031856 
2013	 0.386074210501236 
2014	 0.387108305205765 
2015	 0.388045645554779 
2016	 0.388869130124796 
2017	 0.389637379300021 
2018	 0.390327476575777 
2019	 0.390929992713979 
2020	 0.391467989774949 
2021	 0.391924684364447 
2022	 0.392215031195303 
2023	 0.392354671065219 
2024	 0.392528375348579 
2025	 0.392673701046755 
2026	 0.392749047830924 
2027	 0.392857564616973 
2028	 0.392819156641276 
2029	 0.392587790056271 
2030	 0.392440484844857 
2031	 0.392254492252251 
2032	 0.39207049971989 
2033	 0.391930955905928 
2034	 0.391725868909327 
2035	 0.391471185811693 
2036	 0.391188328972432 
2037	 0.390913782187773 
2038	 0.390657353938594 
2039	 0.390381414347082 
2040	 0.390104845680286 
2041	 0.389839748691159 
2042	 0.389530048767754 
2043	 0.389307437853469 
2044	 0.389158270111925 
2045	 0.388972422938433 
2046	 0.388828668812977 
2047	 0.388641107052198 
2048	 0.388400089819934 
2049	 0.388197338021852 
2050	 0.38798616048575 
2051	 0.387818542167637 
2052	 0.387672925090766 
2053	 0.387491379605706 
2054	 0.387347618431041 
2055	 0.387228875877743 
2056	 0.387099904792733 
2057	 0.386989215582433 
2058	 0.386870672972079 
2059	 0.38673125593198 
2060	 0.386615668466043 
2061	 0.386552960488662 
2062	 0.386410578891334 
2063	 0.38620410479859 
2064	 0.386051588561657 
2065	 0.385863721167954 
2066	 0.385702998111468 
2067	 0.385617173476085 
2068	 0.38561045401633 
2069	 0.385550599586417 
2070	 0.385517531369783 
2071	 0.385430005214242 
2072	 0.385306719301961 
2073	 0.385192641826228 
2074	 0.385050501957133 
2075	 0.384908730878684 
2076	 0.38478943973902 
2077	 0.384637788885295 
2078	 0.384447909622852 
2079	 0.384271761305728 
2080	 0.384122866614438 
2081	 0.383902156490463 
2082	 0.383624141639468 
2083	 0.383388267398816 
2084	 0.383075938094245 
2085	 0.382763122906664 
2086	 0.382451331685178 
2087	 0.382142559949446 
2088	 0.381837287081697 
2089	 0.381495125911836 
2090	 0.381218016903524 
2091	 0.381042045390206 
2092	 0.380734923809688 
2093	 0.380454386200839 
2094	 0.380060018268161 
2095	 0.379442075505598 
2096	 0.378974220186015 
2097	 0.378557648376732 
2098	 0.378090820559981 
2099	 0.377661262909031 
2100	 0.377247730878632 
2101	 0.376767876366644 
2102	 0.37621383110605 
2103	 0.375669571769315 
2104	 0.375108877856089 
2105	 0.37454652360676 
2106	 0.373952514551815 
2107	 0.373373030980257 
2108	 0.372878338021577 
2109	 0.37223105802365 
2110	 0.371453629878464 
2111	 0.370740141417361 
2112	 0.369951984462094 
2113	 0.369207410993498 
2114	 0.368581780478126 
2115	 0.367862142438458 
2116	 0.367107556841719 
2117	 0.366281925774849 
2118	 0.365465982668422 
2119	 0.364592200214161 
2120	 0.363775831915788 
2121	 0.362950686297614 
2122	 0.362179041088023 
2123	 0.361438177150527 
2124	 0.36071171748023 
2125	 0.36010018417616 
2126	 0.35932308949926 
2127	 0.35844149635045 
2128	 0.3576463443072 
2129	 0.356695724167817 
2130	 0.3559471475816 
2131	 0.355463738531046 
2132	 0.354817157677588 
2133	 0.354131825857147 
2134	 0.353526228892884 
2135	 0.352842472767562 
2136	 0.352091701622071 
2137	 0.351409253165067 
2138	 0.350761158730548 
2139	 0.350158344506486 
2140	 0.349540853949108 
2141	 0.349023650396258 
2142	 0.348608359058282 
2143	 0.348186679402125 
2144	 0.347819685186251 
2145	 0.347448143354572 
2146	 0.347077432186539 
2147	 0.34675517550179 
2148	 0.346454075992514 
2149	 0.346179567240024 
2150	 0.345957948052754 
2151	 0.345756320343044 
2152	 0.345594434059952 
2153	 0.345423593512041 
2154	 0.345300810575013 
2155	 0.345088889818319 
2156	 0.344864101651297 
2157	 0.344541993943456 
2158	 0.344402837130227 
2159	 0.344366498744763 
2160	 0.344191907936291 
2161	 0.344093412698264 
2162	 0.343865932467177 
2163	 0.34338971244698 
2164	 0.343147011855836 
2165	 0.342996630662347 
2166	 0.342840244347873 
2167	 0.342829475296559 
2168	 0.34267254361355 
2169	 0.342385294895893 
2170	 0.342203497694342 
2171	 0.342016119082863 
2172	 0.341843399281731 
2173	 0.34168033223861 
2174	 0.341642412176087 
2175	 0.341560653090642 
2176	 0.341467227250504 
2177	 0.341450745772083 
2178	 0.341521731315284 
2179	 0.341541341506359 
2180	 0.341585815946369 
2181	 0.341592180194578 
2182	 0.341565880556482 
2183	 0.341574705144143 
2184	 0.341588981878204 
2185	 0.341607182411839 
2186	 0.341660788694469 
2187	 0.341669447287198 
2188	 0.34169142393339 
2189	 0.341614798014089 
2190	 0.341486363480835 
2191	 0.341336029292881 
2192	 0.341050498466787 
2193	 0.340857089735893 
2194	 0.340701358870176 
2195	 0.340528507311248 
2196	 0.340384960066064 
2197	 0.340275244708959 
2198	 0.340031860825275 
2199	 0.339737374834854 
2200	 0.339389197209347 
2201	 0.338918357880355 
2202	 0.338535993483929 
2203	 0.338172790152723 
2204	 0.337752365076716 
2205	 0.337339310849579 
2206	 0.33689255088532 
2207	 0.33636252086741 
2208	 0.335884138615679 
2209	 0.335448113976821 
2210	 0.334953923150904 
2211	 0.334478452702019 
2212	 0.333922527315919 
2213	 0.333187471981907 
2214	 0.332658282180895 
2215	 0.332133073433379 
2216	 0.331702093096727 
2217	 0.331512095053862 
2218	 0.331223394846962 
2219	 0.33085691812286 
2220	 0.330623533814645 
2221	 0.330527007846362 
2222	 0.330277365554348 
2223	 0.330135749939325 
2224	 0.329980371496568 
2225	 0.329818940103157 
2226	 0.329724118166981 
2227	 0.329521279216048 
2228	 0.329409280050574 
2229	 0.329048062392275 
2230	 0.328557161132461 
2231	 0.327896702565437 
2232	 0.327050596053586 
2233	 0.326179489870926 
2234	 0.325229667957449 
2235	 0.324056665099541 
2236	 0.322772942664126 
2237	 0.32134898690877 
2238	 0.319695817769178 
2239	 0.317952227112894 
2240	 0.316111574474546 
2241	 0.314140882304516 
2242	 0.312044743609645 
2243	 0.309735634687954 
2244	 0.307287683447558 
2245	 0.30471653796717 
2246	 0.301811050203679 
2247	 0.298972434146428 
2248	 0.296070707707005 
2249	 0.293104105497377 
2250	 0.290086845812492 
2251	 0.287121475387768 
2252	 0.283813548376069 
2253	 0.280643603905 
2254	 0.277340327127726 
2255	 0.273835860267526 
2256	 0.270646130643811 
2257	 0.267506277514614 
2258	 0.26446790444554 
2259	 0.261661730127751 
2260	 0.25867069897639 
2261	 0.255622226659201 
2262	 0.252698923293124 
2263	 0.249714186836404 
2264	 0.246908287147073 
2265	 0.244279879184841 
2266	 0.241633925277299 
2267	 0.239061390275992 
2268	 0.236531676301208 
2269	 0.234022137450644 
2270	 0.23162066415309 
2271	 0.229293713146149 
2272	 0.227022257499424 
2273	 0.22487321494238 
2274	 0.222711442194712 
2275	 0.220592448180731 
2276	 0.218505199026809 
2277	 0.216541749109322 
2278	 0.214445149122815 
2279	 0.212269711722907 
2280	 0.21010749797895 
2281	 0.207827339321137 
2282	 0.205602145154881 
2283	 0.203495179166598 
2284	 0.201340322247306 
2285	 0.198832858519922 
2286	 0.196449717364535 
2287	 0.19381329737699 
2288	 0.190959468611324 
2289	 0.1884665972744 
2290	 0.185754352548744 
2291	 0.182985604944542 
2292	 0.180528166674432 
2293	 0.177842833327842 
2294	 0.175173933300226 
2295	 0.172747091046188 
2296	 0.170281729042936 
2297	 0.168181107387572 
2298	 0.16627679939061 
2299	 0.164724419954749 
2300	 0.163456264746536 
2301	 0.162555082688379 
2302	 0.16203971069926 
2303	 0.161748782497343 
2304	 0.161799022997902 
2305	 0.162076717082165 
2306	 0.162612476836122 
2307	 0.16338607983522 
2308	 0.164454091434815 
2309	 0.165808143756457 
2310	 0.16745276941003 
2311	 0.169319165880586 
2312	 0.17170563822693 
2313	 0.173821804705014 
2314	 0.175938911658254 
2315	 0.17825660616843 
2316	 0.180652717234962 
2317	 0.183006487384782 
2318	 0.185743272914831 
2319	 0.187944660208762 
2320	 0.189914257381671 
2321	 0.191609766651985 
2322	 0.193095588194198 
2323	 0.194189918278471 
2324	 0.194839626835483 
2325	 0.195367977657703 
2326	 0.195534087184412 
2327	 0.195579322691877 
2328	 0.195435808015546 
2329	 0.195198018295111 
2330	 0.194797057789944 
2331	 0.194219347170383 
2332	 0.193480412556926 
2333	 0.192404995299475 
2334	 0.191009317304271 
2335	 0.189434711322718 
2336	 0.187828795182903 
2337	 0.186346174392284 
2338	 0.184818159075392 
2339	 0.182998113962954 
2340	 0.181038330555955 
2341	 0.179366884064488 
2342	 0.177903154577539 
2343	 0.176662402273875 
2344	 0.175738752517287 
2345	 0.17484361826124 
2346	 0.174288290897492 
2347	 0.174132156487238 
2348	 0.174068566895476 
2349	 0.174459179954585 
2350	 0.17513767320384 
2351	 0.176028427618749 
2352	 0.177510338665216 
2353	 0.179384218959679 
2354	 0.181152074271401 
2355	 0.182881290522587 
2356	 0.184331247640962 
2357	 0.18548589811294 
2358	 0.186649186027493 
2359	 0.187507730214166 
2360	 0.188175548846649 
2361	 0.188645466015211 
2362	 0.188807890873254 
2363	 0.188701297967939 
2364	 0.188796453302044 
2365	 0.188823733767691 
2366	 0.188421601324264 
2367	 0.188268849510386 
2368	 0.187895788386529 
2369	 0.18732605787191 
2370	 0.187070446688476 
2371	 0.186984328333988 
2372	 0.186975643181148 
2373	 0.186872484614265 
2374	 0.186861393903186 
2375	 0.186789215273575 
2376	 0.186427740071905 
2377	 0.186202960114939 
2378	 0.186092624164536 
2379	 0.185747295889266 
2380	 0.185514123736084 
2381	 0.185383467123679 
2382	 0.185130493797964 
2383	 0.184710182918437 
2384	 0.184476603148507 
2385	 0.184323868261179 
2386	 0.184092619169703 
2387	 0.183821388945198 
2388	 0.183813903611786 
2389	 0.183826502603419 
2390	 0.18400953828683 
2391	 0.184682683931664 
2392	 0.184796103578145 
2393	 0.184669137244221 
2394	 0.184549245506862 
2395	 0.184099173966182 
2396	 0.183940731419379 
2397	 0.183987880655037 
2398	 0.183943525616281 
2399	 0.183999164928389 
2400	 0.183780884895419 
2401	 0.183221186039754 
2402	 0.183268835804499 
2403	 0.183273053791003 
2404	 0.182939754272789 
2405	 0.182802688596757 
2406	 0.182386570941453 
2407	 0.181789858587901 
2408	 0.181723050881573 
2409	 0.181702071325387 
2410	 0.181784418242299 
2411	 0.181729409797421 
2412	 0.181241001427214 
2413	 0.1811045946435 
2414	 0.181107943070884 
2415	 0.180932442275891 
2416	 0.180882477838884 
2417	 0.180829733370405 
2418	 0.180799377693374 
2419	 0.180894328053463 
2420	 0.181105797599438 
2421	 0.181233496043985 
2422	 0.181006232424922 
2423	 0.180830492952129 
2424	 0.180466053083905 
2425	 0.180160631210356 
2426	 0.180456433073952 
2427	 0.180278087533124 
2428	 0.180216913191438 
2429	 0.180692226959491 
2430	 0.180518661472263 
2431	 0.180846077872835 
2432	 0.181358244976276 
2433	 0.180892527015495 
2434	 0.18034863415892 
2435	 0.179382350819547 
2436	 0.178800660241603 
2437	 0.179177403147615 
2438	 0.179307899462837 
2439	 0.179494354027137 
2440	 0.179580062096985 
2441	 0.179185365034256 
2442	 0.178850867618511 
2443	 0.179056036581772 
2444	 0.179172040206331 
2445	 0.178462723756578 
2446	 0.178001525024354 
2447	 0.177298130909315 
2448	 0.176387867329126 
2449	 0.176345393938282 
2450	 0.176089663378213 
2451	 0.175690395120581 
2452	 0.175388465463852 
2453	 0.174870737306733 
2454	 0.174648580223933 
2455	 0.17440779747753 
2456	 0.174085826612209 
2457	 0.174039143713728 
2458	 0.173187540645273 
2459	 0.172666037861936 
2460	 0.172931750100558 
2461	 0.172044807272511 
2462	 0.171715533949936 
2463	 0.171860400480622 
2464	 0.170838137370773 
2465	 0.170256959958971 
2466	 0.169494896906953 
2467	 0.168072139423244 
2468	 0.168115487961214 
2469	 0.168452985187342 
2470	 0.168736823595907 
2471	 0.169652349945708 
2472	 0.169470383263693 
2473	 0.168794091333528 
2474	 0.168350006443372 
2475	 0.167907056556073 
2476	 0.167574216529387 
2477	 0.167071678577671 
2478	 0.167432309385901 
2479	 0.168243776725023 
2480	 0.168292674746082 
2481	 0.168616732120867 
2482	 0.168736520144406 
2483	 0.168883074091726 
2484	 0.16900958703712 
2485	 0.169078184906634 
2486	 0.168605433551719 
2487	 0.16883705653756 
2488	 0.170051781124157 
2489	 0.170104579811229 
2490	 0.169815512036682 
2491	 0.169659234984824 
2492	 0.169114903982081 
2493	 0.170418037818174 
2494	 0.171896433199723 
2495	 0.172486203503681 
2496	 0.173243109632055 
2497	 0.173078475785874 
2498	 0.173742000131498 
2499	 0.174558303637863 
2500	 0.175240627553711 
