Wavelength	Tablay400112.asd
350	 0.191209083661688 
351	 9.07759225987096E-02 
352	-9.01610517062762E-03 
353	-3.95024332286639E-03 
354	 0.131793052269415 
355	 0.137107468637389 
356	 6.48487318145622E-02 
357	 0.032576149005625 
358	 0.101205590074279 
359	 0.135399785076038 
360	 0.111172924695653 
361	 7.54293636928699E-02 
362	 4.31580900699831E-02 
363	 5.62996213180879E-02 
364	 9.32367713620208E-02 
365	 3.31805343285044E-02 
366	 2.71514054156318E-02 
367	 4.93804442487017E-02 
368	 5.33024719205574E-02 
369	 7.11547664416272E-02 
370	 8.13472129741562E-02 
371	 6.60858881310412E-02 
372	 2.39069620922008E-02 
373	 5.22535743297055E-02 
374	 9.08109673877814E-02 
375	 8.84112162290078E-02 
376	 2.71583167113338E-02 
377	 0.038813226225761 
378	 7.40526768203319E-02 
379	 6.57186952155475E-02 
380	 4.91322729818938E-02 
381	 4.09479476046545E-02 
382	 4.42096475725609E-02 
383	 5.18065935530859E-02 
384	 5.45873033231009E-02 
385	 6.17184150100245E-02 
386	 6.69190114750104E-02 
387	 3.78741420192832E-02 
388	 0.059308407492132 
389	 8.36301220896557E-02 
390	 6.27679938382195E-02 
391	 5.71881383433425E-02 
392	 6.29623786816405E-02 
393	 6.78079729671286E-02 
394	 5.83493695572251E-02 
395	 5.91012988424348E-02 
396	 5.40060887531169E-02 
397	 4.29675117418481E-02 
398	 6.02817559679526E-02 
399	 6.88779302327433E-02 
400	 6.86492224775846E-02 
401	 6.80873225809666E-02 
402	 0.063131580401243 
403	 6.24230265355873E-02 
404	 6.39660306856769E-02 
405	 5.94638985632024E-02 
406	 7.54466504119608E-02 
407	 7.74274040279833E-02 
408	 5.21190509284546E-02 
409	 3.72183670756362E-02 
410	 4.51853011591094E-02 
411	 6.02807437606948E-02 
412	 6.24316370775413E-02 
413	 6.33087347108094E-02 
414	 5.37334967033554E-02 
415	 4.30843947830106E-02 
416	 5.49422953486178E-02 
417	 0.061943103934151 
418	 6.13272995653592E-02 
419	 5.75234545473588E-02 
420	 6.17677934680503E-02 
421	 5.85536461872735E-02 
422	 5.48542182181847E-02 
423	 6.21195686067528E-02 
424	 0.06081430801243 
425	 5.90199114329355E-02 
426	 6.02382535517344E-02 
427	 6.08042894783779E-02 
428	 5.59782573902764E-02 
429	 4.98582150077917E-02 
430	 4.83969746727026E-02 
431	 5.84939131588944E-02 
432	 0.058271393594228 
433	 0.051866544186967 
434	 5.53397057217985E-02 
435	 5.31849071012875E-02 
436	 5.54982977397967E-02 
437	 6.22785503756946E-02 
438	 5.44748757480272E-02 
439	 5.17101841633642E-02 
440	 5.53856946225737E-02 
441	 6.03615634364105E-02 
442	 5.77211984735836E-02 
443	 5.58026762694307E-02 
444	 5.62741266460091E-02 
445	 5.54100381997123E-02 
446	 0.054325823237819 
447	 5.48416954081535E-02 
448	 5.73214168348061E-02 
449	 5.92546307594557E-02 
450	 5.80835877732669E-02 
451	 5.60895281620225E-02 
452	 5.67038317059336E-02 
453	 0.057900776190813 
454	 5.67905737995601E-02 
455	 0.054788164326565 
456	 5.76493745539938E-02 
457	 5.62341243083476E-02 
458	 5.38582752347206E-02 
459	 5.41912113887578E-02 
460	 5.39799129188785E-02 
461	 5.36705967452444E-02 
462	 5.42853390984031E-02 
463	 5.66318028816974E-02 
464	 5.70508346180471E-02 
465	 5.58192782946481E-02 
466	 5.44570007252345E-02 
467	 5.56269347773221E-02 
468	 5.65185903356297E-02 
469	 5.63470891442159E-02 
470	 5.54779855810697E-02 
471	 5.63648868366851E-02 
472	 5.66556830981807E-02 
473	 5.57766240344822E-02 
474	 5.47155187779086E-02 
475	 5.47057346922492E-02 
476	 5.50675039019756E-02 
477	 5.52085217996182E-02 
478	 5.55329356809936E-02 
479	 5.49935444467365E-02 
480	 5.45967182564684E-02 
481	 5.55391684662286E-02 
482	 5.49178122148119E-02 
483	 5.60850143119694E-02 
484	 5.82055876251769E-02 
485	 5.55969071890098E-02 
486	 0.054793135890457 
487	 5.52880616640132E-02 
488	 5.56610422456889E-02 
489	 5.70658411756231E-02 
490	 5.64593553080783E-02 
491	 5.50122817063191E-02 
492	 5.58311567874867E-02 
493	 5.57051505348172E-02 
494	 5.55123747441849E-02 
495	 5.59225256357289E-02 
496	 5.65618583938922E-02 
497	 5.69593789933482E-02 
498	 5.66439309484995E-02 
499	 5.56254419249024E-02 
500	 5.57214756637761E-02 
501	 5.59765528119076E-02 
502	 5.59469010043646E-02 
503	 0.055770716709374 
504	 5.62844126618409E-02 
505	 5.69642569729274E-02 
506	 5.73952853226033E-02 
507	 5.81268614809518E-02 
508	 5.79148953807552E-02 
509	 5.75076035075208E-02 
510	 5.81475817959445E-02 
511	 5.80222319060967E-02 
512	 5.76498104173029E-02 
513	 5.76151361691909E-02 
514	 5.83457526082921E-02 
515	 5.81016973522309E-02 
516	 5.77385934683076E-02 
517	 5.81463966719038E-02 
518	 5.79593800388221E-02 
519	 5.76061202685601E-02 
520	 5.74676794671126E-02 
521	 5.78299887600323E-02 
522	 5.86275009998297E-02 
523	 5.89866684306445E-02 
524	 5.86159785095999E-02 
525	 5.84678458616239E-02 
526	 5.84073137833527E-02 
527	 5.86391325616982E-02 
528	 5.92706405558756E-02 
529	 0.059504587778399 
530	 5.93372931041036E-02 
531	 5.91083548900236E-02 
532	 5.94222017089948E-02 
533	 5.96253542184397E-02 
534	 5.99055311680892E-02 
535	 6.03472596161871E-02 
536	 6.01566644758223E-02 
537	 6.03910647437426E-02 
538	 6.08835439569074E-02 
539	 6.08571333187314E-02 
540	 6.05324357922758E-02 
541	 6.06805304069559E-02 
542	 6.13136752143938E-02 
543	 6.11582782221577E-02 
544	 6.13088532241319E-02 
545	 6.14986723325144E-02 
546	 0.061320949001373 
547	 6.16456194389767E-02 
548	 6.16736356792581E-02 
549	 6.13967047432702E-02 
550	 0.061532438261075 
551	 0.062093823719016 
552	 6.22779110040821E-02 
553	 6.18015063937137E-02 
554	 0.062041571076961 
555	 6.23006638469465E-02 
556	 0.062370948154996 
557	 6.23088991909529E-02 
558	 6.24314076314711E-02 
559	 6.26847282126543E-02 
560	 6.29449939185895E-02 
561	 6.30507230023412E-02 
562	 6.30625465803574E-02 
563	 0.063281012597533 
564	 6.37443947420031E-02 
565	 6.32005482037398E-02 
566	 6.33001020429708E-02 
567	 6.39756764904828E-02 
568	 6.39331463484815E-02 
569	 6.38872643429161E-02 
570	 6.38331786950013E-02 
571	 0.063733930355548 
572	 6.36811672974785E-02 
573	 6.37915687077133E-02 
574	 6.39333984288886E-02 
575	 6.39164094059882E-02 
576	 6.38316441000717E-02 
577	 6.38878537547412E-02 
578	 6.40885135512185E-02 
579	 6.42040571719639E-02 
580	 6.43145020784976E-02 
581	 6.44649695549965E-02 
582	 6.45960150883758E-02 
583	 6.42889436937229E-02 
584	 6.42861346001238E-02 
585	 6.45909305364633E-02 
586	 6.47676899364279E-02 
587	 0.064820063789237 
588	 6.47522383892901E-02 
589	 6.46510010401659E-02 
590	 0.064713050548969 
591	 6.49967490154962E-02 
592	 6.52728817036536E-02 
593	 6.52900091989409E-02 
594	 6.51156250524443E-02 
595	 6.49892380428564E-02 
596	 6.49488751142279E-02 
597	 6.48696880271326E-02 
598	 0.06507366552621 
599	 6.53080700335398E-02 
600	 6.53437786601098E-02 
601	 6.52272234706192E-02 
602	 6.51514542437382E-02 
603	 0.065240685910191 
604	 6.54977065629771E-02 
605	 6.54264753247177E-02 
606	 6.53200343449096E-02 
607	 0.065354660731299 
608	 6.54763980733281E-02 
609	 6.54270243024133E-02 
610	 6.53510639077863E-02 
611	 6.53890074160178E-02 
612	 6.52863423611223E-02 
613	 6.52793314297101E-02 
614	 6.54073527220168E-02 
615	 6.55657465146432E-02 
616	 6.56326207671878E-02 
617	 6.55830617319355E-02 
618	 6.54620020857486E-02 
619	 0.065394215863663 
620	 6.54688127288248E-02 
621	 6.55216253796285E-02 
622	 6.54020668625987E-02 
623	 6.54615293433784E-02 
624	 6.56468094481641E-02 
625	 6.57902371392067E-02 
626	 6.56624358741663E-02 
627	 6.56234357204518E-02 
628	 6.54349484468297E-02 
629	 6.50974203209358E-02 
630	 6.55328115586101E-02 
631	 6.57537176109479E-02 
632	 6.56089683145133E-02 
633	 6.53704716027724E-02 
634	 6.53628911584642E-02 
635	 6.55411634512939E-02 
636	 6.56726175085849E-02 
637	 6.53548234443461E-02 
638	 6.52754789929514E-02 
639	 6.53931796596698E-02 
640	 6.55073313940091E-02 
641	 6.55561113401834E-02 
642	 6.55335027486593E-02 
643	 6.54742761278921E-02 
644	 0.065416949308464 
645	 6.51202964763594E-02 
646	 6.51022573061725E-02 
647	 0.065414344446463 
648	 6.52036253577471E-02 
649	 0.065139307292153 
650	 6.52386387317434E-02 
651	 6.53281432526263E-02 
652	 6.53072736832776E-02 
653	 6.52554185016353E-02 
654	 6.52266582030361E-02 
655	 6.52385474239301E-02 
656	 6.51756074762345E-02 
657	 6.50870622588623E-02 
658	 6.50635965685977E-02 
659	 6.52581303167339E-02 
660	 6.52380238306972E-02 
661	 6.50813185462566E-02 
662	 6.50141506665411E-02 
663	 6.48713222131041E-02 
664	 6.49165270406257E-02 
665	 6.50920958999859E-02 
666	 6.50193394642421E-02 
667	 6.50341718993667E-02 
668	 6.50170624678036E-02 
669	 6.48868784971037E-02 
670	 6.48805292449691E-02 
671	 6.49544027310813E-02 
672	 6.49791163995038E-02 
673	 6.48333338609177E-02 
674	 6.47317143690253E-02 
675	 6.48199078619776E-02 
676	 6.50122422295785E-02 
677	 6.49684825097958E-02 
678	 6.49811412509642E-02 
679	 6.49034926918319E-02 
680	 6.46650528427187E-02 
681	 0.064729358460048 
682	 6.47797008535867E-02 
683	 6.47565629968265E-02 
684	 6.47475587243889E-02 
685	 6.48092000186141E-02 
686	 6.47894105303985E-02 
687	 0.064663355336156 
688	 6.46070135108229E-02 
689	 6.47290741815905E-02 
690	 6.48110200813974E-02 
691	 6.46960538797907E-02 
692	 6.47748197294723E-02 
693	 6.47211213024169E-02 
694	 6.45913357724089E-02 
695	 6.46501383139014E-02 
696	 6.46520076642292E-02 
697	 6.46963465036654E-02 
698	 6.47897613049914E-02 
699	 6.47312164131586E-02 
700	 6.47262032184099E-02 
701	 6.47973599607085E-02 
702	 6.48904209817146E-02 
703	 6.48825291119264E-02 
704	 0.06484122433826 
705	 0.064804281294011 
706	 6.47940173278427E-02 
707	 6.49398187548152E-02 
708	 6.50350505125604E-02 
709	 6.49741315567018E-02 
710	 6.48804752013932E-02 
711	 0.064918508299606 
712	 6.50191680256665E-02 
713	 6.50622328947144E-02 
714	 0.065052873691141 
715	 6.50764789459675E-02 
716	 6.51425827599362E-02 
717	 6.52051303384476E-02 
718	 6.52714907602356E-02 
719	 0.065361315144082 
720	 6.54470168874838E-02 
721	 6.54109345535334E-02 
722	 6.55192529064914E-02 
723	 6.56129404263866E-02 
724	 6.55189819731503E-02 
725	 0.065527712326553 
726	 6.56784727093534E-02 
727	 6.58177725587864E-02 
728	 6.57205256996934E-02 
729	 6.58810714139306E-02 
730	 0.065984511818519 
731	 6.59181739441636E-02 
732	 6.60726750037494E-02 
733	 6.61754380821413E-02 
734	 6.62996514991775E-02 
735	 6.65121908758983E-02 
736	 6.64768222330755E-02 
737	 6.65003390807971E-02 
738	 6.66399084825306E-02 
739	 6.67778194400103E-02 
740	 6.69104959731834E-02 
741	 6.70074841078022E-02 
742	 6.70694360795101E-02 
743	 6.71413283425428E-02 
744	 6.72798111176349E-02 
745	 6.74695987696154E-02 
746	 6.76487107953217E-02 
747	 6.76707504086089E-02 
748	 6.77595095422681E-02 
749	 6.79549677888103E-02 
750	 6.81655895868554E-02 
751	 6.82177463602651E-02 
752	 0.068305472782941 
753	 6.84702413284574E-02 
754	 0.068513050338905 
755	 6.86770435258899E-02 
756	 6.88901153245046E-02 
757	 6.90367714827198E-02 
758	 0.069080685992469 
759	 6.92390408873073E-02 
760	 6.94281326623673E-02 
761	 6.94820167328071E-02 
762	 6.97183721228523E-02 
763	 6.99224758546481E-02 
764	 7.00157825206834E-02 
765	 7.01100056692843E-02 
766	 7.03083774182673E-02 
767	 7.05461371634235E-02 
768	 7.07448904445678E-02 
769	 7.08732109705236E-02 
770	 0.071035157543727 
771	 7.12521229756237E-02 
772	 7.14836874769625E-02 
773	 7.15708487523552E-02 
774	 7.16599603599499E-02 
775	 0.071817536055672 
776	 7.20267267999784E-02 
777	 7.22597864943506E-02 
778	 7.24637330747891E-02 
779	 7.26199763629812E-02 
780	 7.27681365902009E-02 
781	 7.29499138722862E-02 
782	 0.073127997297503 
783	 7.32797947539085E-02 
784	 0.073533801156132 
785	 7.37073371699181E-02 
786	 7.38001685204367E-02 
787	 7.39321473304155E-02 
788	 0.074240009669595 
789	 7.45034058683176E-02 
790	 7.46377724147907E-02 
791	 7.47594690264038E-02 
792	 0.07480787303829 
793	 7.49394881174067E-02 
794	 7.52383139552197E-02 
795	 7.55487592798013E-02 
796	 7.56077382996305E-02 
797	 7.56165027812865E-02 
798	 0.075856953289901 
799	 7.60396415112016E-02 
800	 7.62123813469674E-02 
801	 0.076360329597 
802	 0.076435599502277 
803	 7.66477630837236E-02 
804	 0.076797228915417 
805	 7.68507532305037E-02 
806	 7.70976395043212E-02 
807	 7.71618722320559E-02 
808	 7.72234653742703E-02 
809	 7.74581386243952E-02 
810	 7.76224789471603E-02 
811	 7.76445403557515E-02 
812	 7.76659936469383E-02 
813	 7.78732624464073E-02 
814	 0.078091716734168 
815	 7.82119032558825E-02 
816	 7.82745862369431E-02 
817	 7.84319782732722E-02 
818	 7.85455099475013E-02 
819	 7.85757686452144E-02 
820	 7.85867501427601E-02 
821	 7.87790497040123E-02 
822	 7.89369128545156E-02 
823	 7.90093833596925E-02 
824	 7.90376895279296E-02 
825	 7.91971981821945E-02 
826	 7.93217435975963E-02 
827	 0.079378121201472 
828	 7.94035353057092E-02 
829	 0.079417700457808 
830	 7.95852284368499E-02 
831	 0.079810820663385 
832	 7.98044793170086E-02 
833	 7.97937011415153E-02 
834	 7.98472869929836E-02 
835	 7.99458906174178E-02 
836	 7.99743023249906E-02 
837	 8.00841745788325E-02 
838	 8.01803967309611E-02 
839	 8.01626400850151E-02 
840	 8.00633515733466E-02 
841	 0.08016919598701 
842	 8.03630794913714E-02 
843	 8.04083694221862E-02 
844	 8.04111980832977E-02 
845	 0.08038699044645 
846	 8.03848283877306E-02 
847	 8.04591112177384E-02 
848	 8.05047945833023E-02 
849	 8.05021950869252E-02 
850	 8.04999106833542E-02 
851	 0.080604055230111 
852	 8.05945037167201E-02 
853	 8.05552160989784E-02 
854	 8.05753756840561E-02 
855	 8.06193765753171E-02 
856	 8.06241474793459E-02 
857	 8.06332720726772E-02 
858	 8.06956404825971E-02 
859	 8.07563018642064E-02 
860	 0.080704227114091 
861	 8.06770840084998E-02 
862	 8.08570199226776E-02 
863	 8.08842922125658E-02 
864	 8.08788756599374E-02 
865	 8.09045022826003E-02 
866	 8.09434756739439E-02 
867	 8.09755693376497E-02 
868	 8.08643427524596E-02 
869	 0.080698158249717 
870	 8.08595648209891E-02 
871	 8.09066838322265E-02 
872	 8.08691605211031E-02 
873	 8.08441071371025E-02 
874	 8.08285252034945E-02 
875	 8.09817775551234E-02 
876	 8.11016465918713E-02 
877	 8.09976477499421E-02 
878	 8.09238809803196E-02 
879	 0.081012622236745 
880	 8.10948775308249E-02 
881	 0.080957176876647 
882	 8.10126720785489E-02 
883	 8.10612009773892E-02 
884	 8.10398235304273E-02 
885	 8.10309287145098E-02 
886	 0.081175572964847 
887	 8.13228107400403E-02 
888	 8.13377827698278E-02 
889	 8.11751665563337E-02 
890	 8.11871165818592E-02 
891	 8.12534453957095E-02 
892	 8.12836921795093E-02 
893	 8.13943571325173E-02 
894	 8.13157851315575E-02 
895	 8.12432463994428E-02 
896	 8.13456752329165E-02 
897	 8.14242153955519E-02 
898	 8.13745130733299E-02 
899	 8.13326607173732E-02 
900	 8.14422582407985E-02 
901	 8.15289276621916E-02 
902	 8.15268987072916E-02 
903	 8.15216098444519E-02 
904	 8.16223976983142E-02 
905	 8.16260075368929E-02 
906	 8.16152778168767E-02 
907	 8.16798969057505E-02 
908	 8.18552967379168E-02 
909	 8.18485783793988E-02 
910	 8.18640089692757E-02 
911	 8.19046819476503E-02 
912	 8.17747434218201E-02 
913	 8.19949430226821E-02 
914	 8.22335307337845E-02 
915	 8.22558944331241E-02 
916	 8.21578943979345E-02 
917	 8.22173515133825E-02 
918	 0.082376280460846 
919	 8.25014518439054E-02 
920	 8.24763143077674E-02 
921	 8.24831162895815E-02 
922	 8.24994160638173E-02 
923	 8.25222723285996E-02 
924	 8.27464156139228E-02 
925	 8.28931428106628E-02 
926	 0.082965551638987 
927	 8.30460420132438E-02 
928	 8.31348339160548E-02 
929	 8.32476325419139E-02 
930	 8.32876487466585E-02 
931	 8.32038660237902E-02 
932	 8.33293847900901E-02 
933	 8.34532656702256E-02 
934	 0.083497273811684 
935	 8.35026581501875E-02 
936	 0.083671400828201 
937	 8.36840758899196E-02 
938	 8.36693464531554E-02 
939	 0.083981509917732 
940	 8.41741022604151E-02 
941	 8.42479131171206E-02 
942	 8.43039286032079E-02 
943	 8.44715580879555E-02 
944	 8.46590871385009E-02 
945	 8.47856987967387E-02 
946	 8.48552328277655E-02 
947	 8.49502290418361E-02 
948	 8.50024863409459E-02 
949	 8.51430348169636E-02 
950	 8.53799469644435E-02 
951	 8.55475646341924E-02 
952	 8.57853651111649E-02 
953	 8.56871128499702E-02 
954	 8.53763087853484E-02 
955	 8.57895002440285E-02 
956	 8.58715704536962E-02 
957	 8.58155179279749E-02 
958	 8.59437382103102E-02 
959	 8.63224553709387E-02 
960	 8.63381491904837E-02 
961	 0.086369498530821 
962	 8.65652676764468E-02 
963	 8.61606232489328E-02 
964	 8.62090479126636E-02 
965	 0.086668982134005 
966	 8.70588389721974E-02 
967	 0.086638006951823 
968	 0.086834206094591 
969	 8.70768208410302E-02 
970	 8.67998341288473E-02 
971	 8.69367671945712E-02 
972	 8.71817404006263E-02 
973	 8.74760112418519E-02 
974	 8.76740025002614E-02 
975	 8.71952101059037E-02 
976	 8.72578223623214E-02 
977	 8.74976296010772E-02 
978	 8.73435788994594E-02 
979	 8.72499020529253E-02 
980	 8.74964949278823E-02 
981	 8.76918704126356E-02 
982	 0.087559140819721 
983	 8.80292624021809E-02 
984	 8.78298686442815E-02 
985	 8.77467711280843E-02 
986	 8.85168477870493E-02 
987	 0.088221482210201 
988	 8.82771686777961E-02 
989	 8.85387658181623E-02 
990	 8.84916536840144E-02 
991	 0.088360013266816 
992	 8.85958333837102E-02 
993	 8.89006650220325E-02 
994	 8.88388387592512E-02 
995	 8.85153029415409E-02 
996	 8.85151179839588E-02 
997	 8.88274985112553E-02 
998	 8.91040297806278E-02 
999	 8.87491710778325E-02 
1000	 8.87071896639758E-02 
1001	 9.00862891749504E-02 
1002	 9.03557813164883E-02 
1003	 0.090527856015118 
1004	 9.07022942995277E-02 
1005	 9.09689202499641E-02 
1006	 0.091040489893897 
1007	 9.10583041501808E-02 
1008	 9.10141291894796E-02 
1009	 9.07136839203111E-02 
1010	 9.07180309723055E-02 
1011	 9.07707824112182E-02 
1012	 9.09305543697577E-02 
1013	 9.14205608821262E-02 
1014	 9.16471041940289E-02 
1015	 9.18802555082375E-02 
1016	 9.19291132165762E-02 
1017	 9.17620431680143E-02 
1018	 9.16398887332782E-02 
1019	 9.16800256909675E-02 
1020	 9.17463430348741E-02 
1021	 9.17480915410425E-02 
1022	 0.09182079946687 
1023	 9.19248366385026E-02 
1024	 9.19841108042672E-02 
1025	 9.20210657818671E-02 
1026	 9.21789731982226E-02 
1027	 9.21609058217319E-02 
1028	 9.19837913147573E-02 
1029	 9.17862405743986E-02 
1030	 9.16784080479009E-02 
1031	 9.18031525107657E-02 
1032	 9.19943551708832E-02 
1033	 9.21356117597894E-02 
1034	 0.092183181400045 
1035	 9.21965181322845E-02 
1036	 9.22478338360391E-02 
1037	 9.22830369659595E-02 
1038	 9.23027040393046E-02 
1039	 9.23426672116297E-02 
1040	 9.23813575184524E-02 
1041	 9.23509078835057E-02 
1042	 9.23370261511557E-02 
1043	 0.09237572956205 
1044	 9.24216338201924E-02 
1045	 9.22638256155224E-02 
1046	 9.22552787470152E-02 
1047	 9.24156477777805E-02 
1048	 9.24368891725651E-02 
1049	 9.23470038966113E-02 
1050	 9.24192034427685E-02 
1051	 9.24811728507022E-02 
1052	 9.24657995861933E-02 
1053	 9.24330756036479E-02 
1054	 9.24171431070576E-02 
1055	 9.24039278822116E-02 
1056	 9.23586502432502E-02 
1057	 9.23689069737316E-02 
1058	 9.24569980052818E-02 
1059	 9.25139247293387E-02 
1060	 0.092664635617246 
1061	 9.27342466144638E-02 
1062	 9.27646460168239E-02 
1063	 0.092984608507737 
1064	 9.31569431013475E-02 
1065	 9.31227070567473E-02 
1066	 9.32303639955996E-02 
1067	 9.34729137208646E-02 
1068	 9.35889928284244E-02 
1069	 9.36390443839762E-02 
1070	 9.37069929726811E-02 
1071	 9.37299308315566E-02 
1072	 9.37658493528656E-02 
1073	 9.38265340653619E-02 
1074	 9.39520860880358E-02 
1075	 9.40300575864193E-02 
1076	 9.41297064961474E-02 
1077	 9.43097057928046E-02 
1078	 9.43509999764409E-02 
1079	 9.44079638625863E-02 
1080	 9.43880052449486E-02 
1081	 9.43736078566262E-02 
1082	 9.45453712908996E-02 
1083	 9.46740908348324E-02 
1084	 9.47788939156771E-02 
1085	 9.49391303334163E-02 
1086	 9.51112354902064E-02 
1087	 9.52728393895066E-02 
1088	 9.54333391991485E-02 
1089	 9.55287304217283E-02 
1090	 9.55348662399122E-02 
1091	 9.55525010589059E-02 
1092	 9.55658231649303E-02 
1093	 0.095679765372413 
1094	 9.59505883511233E-02 
1095	 9.60100905449506E-02 
1096	 9.61019247023648E-02 
1097	 9.63066955958962E-02 
1098	 9.63109621540865E-02 
1099	 9.64468962178722E-02 
1100	 9.66533937848213E-02 
1101	 9.66739907470773E-02 
1102	 9.67211278106876E-02 
1103	 9.67852802715115E-02 
1104	 9.68151271482086E-02 
1105	 9.67991148380736E-02 
1106	 9.68707841659446E-02 
1107	 9.70350476503943E-02 
1108	 9.72553982333084E-02 
1109	 9.74097083011732E-02 
1110	 9.76297239928422E-02 
1111	 9.78242131350776E-02 
1112	 9.78447279776642E-02 
1113	 9.79209690031348E-02 
1114	 9.79820837084972E-02 
1115	 9.79876957214621E-02 
1116	 0.098086550776581 
1117	 9.81425097508355E-02 
1118	 9.81913062370635E-02 
1119	 9.82493377630028E-02 
1120	 9.83004185163851E-02 
1121	 9.83084918291074E-02 
1122	 9.83638739896404E-02 
1123	 9.85114602911084E-02 
1124	 9.86568866924546E-02 
1125	 0.098810823484079 
1126	 9.89661673420938E-02 
1127	 9.90178626636534E-02 
1128	 9.90066643753239E-02 
1129	 0.099021710177699 
1130	 9.90303642540203E-02 
1131	 0.099124798382403 
1132	 9.92910359167744E-02 
1133	 9.94487358474188E-02 
1134	 9.96145803544041E-02 
1135	 9.97371653395571E-02 
1136	 9.97801168118947E-02 
1137	 0.099884999262123 
1138	 0.100012261280822 
1139	 0.100142970963514 
1140	 0.100318997541622 
1141	 0.100416730340987 
1142	 0.100551210243221 
1143	 0.100711978789779 
1144	 0.100809521498548 
1145	 0.100902879345152 
1146	 0.10099084545975 
1147	 0.10106761107804 
1148	 0.101137375896586 
1149	 0.101305230490486 
1150	 0.10146159413616 
1151	 0.101560852147419 
1152	 0.101708409680611 
1153	 0.101858571294236 
1154	 0.102037196909456 
1155	 0.102269318165301 
1156	 0.102458741511134 
1157	 0.102711667863934 
1158	 0.102859252565703 
1159	 0.102906119538986 
1160	 0.103002286488556 
1161	 0.103080866217379 
1162	 0.103167004772887 
1163	 0.103400058681486 
1164	 0.103561881384761 
1165	 0.10367978746123 
1166	 0.103890061924833 
1167	 0.104100809717973 
1168	 0.104267297942739 
1169	 0.104435023034074 
1170	 0.104619441337702 
1171	 0.104783333722672 
1172	 0.10489487079418 
1173	 0.105051944104169 
1174	 0.105265959131514 
1175	 0.10543473275511 
1176	 0.105566995961909 
1177	 0.105732312845839 
1178	 0.105930033231772 
1179	 0.106035548922994 
1180	 0.106208561663321 
1181	 0.106486104131772 
1182	 0.106739037468548 
1183	 0.106987245577149 
1184	 0.107224758044853 
1185	 0.107394293784459 
1186	 0.107554839415429 
1187	 0.107675884716587 
1188	 0.107821369701499 
1189	 0.107901753146309 
1190	 0.108116514173359 
1191	 0.108435064462016 
1192	 0.108665881935037 
1193	 0.108943332408449 
1194	 0.109185164680642 
1195	 0.109349563475077 
1196	 0.109551113513285 
1197	 0.109771963251371 
1198	 0.109992588294133 
1199	 0.110254283902303 
1200	 0.110507711714504 
1201	 0.110733987728702 
1202	 0.110971770682668 
1203	 0.11124921450881 
1204	 0.111521307036734 
1205	 0.111792337463858 
1206	 0.112149366265103 
1207	 0.11241674267067 
1208	 0.112574654336865 
1209	 0.112832017081881 
1210	 0.113143251350101 
1211	 0.113402278614198 
1212	 0.113662643874343 
1213	 0.113939560555357 
1214	 0.114172805559329 
1215	 0.114455620823581 
1216	 0.114804179199591 
1217	 0.115119532502985 
1218	 0.115405388067525 
1219	 0.115744697352791 
1220	 0.116093535165509 
1221	 0.116422047348283 
1222	 0.116765881914197 
1223	 0.117115156760329 
1224	 0.117455242830183 
1225	 0.11777402664746 
1226	 0.118109929855848 
1227	 0.118437389588454 
1228	 0.118811492766201 
1229	 0.119237395282386 
1230	 0.11959831460857 
1231	 0.120005125405847 
1232	 0.120322442642684 
1233	 0.12047388403553 
1234	 0.120774779203921 
1235	 0.121119015395541 
1236	 0.121454225174218 
1237	 0.121916405450992 
1238	 0.122285694766366 
1239	 0.122588983300457 
1240	 0.122858601807753 
1241	 0.123218678392906 
1242	 0.123531146016267 
1243	 0.12387232119791 
1244	 0.124273746394658 
1245	 0.124616368695123 
1246	 0.124897736397631 
1247	 0.125251474733524 
1248	 0.125659422505816 
1249	 0.125989980391491 
1250	 0.126311171307842 
1251	 0.126628780913833 
1252	 0.126853926651565 
1253	 0.12717835139319 
1254	 0.127608773814458 
1255	 0.12795950346654 
1256	 0.128308372364901 
1257	 0.128642627349992 
1258	 0.128941894140987 
1259	 0.129221624100461 
1260	 0.129425136858674 
1261	 0.129735561756683 
1262	 0.13010336116413 
1263	 0.130453136832644 
1264	 0.130790319083222 
1265	 0.131215490208153 
1266	 0.131527275352019 
1267	 0.131705934912493 
1268	 0.132024779412339 
1269	 0.132407201054452 
1270	 0.132731664320597 
1271	 0.133076569268175 
1272	 0.133411937042949 
1273	 0.133675434039935 
1274	 0.13402331568782 
1275	 0.134450734956449 
1276	 0.134829320968654 
1277	 0.135206371440299 
1278	 0.135592646068018 
1279	 0.136003133065757 
1280	 0.136356524403295 
1281	 0.136630835188692 
1282	 0.136999952366869 
1283	 0.137390571093566 
1284	 0.137766244850903 
1285	 0.138165833979749 
1286	 0.138663351608452 
1287	 0.139060867908663 
1288	 0.139380844831295 
1289	 0.139766184746582 
1290	 0.140147176855751 
1291	 0.140585592351691 
1292	 0.141115550325232 
1293	 0.141504980208565 
1294	 0.141825112016112 
1295	 0.142237591519483 
1296	 0.142594651657879 
1297	 0.143006328259778 
1298	 0.143550901375627 
1299	 0.144018021327697 
1300	 0.144414224173682 
1301	 0.144852894037701 
1302	 0.145353379377219 
1303	 0.145782584774445 
1304	 0.146164424284315 
1305	 0.146564242594258 
1306	 0.146903476248138 
1307	 0.14729252075613 
1308	 0.147712680843378 
1309	 0.148164021223717 
1310	 0.14859497058386 
1311	 0.149050243583078 
1312	 0.149457169221238 
1313	 0.149840811819225 
1314	 0.150223835863595 
1315	 0.15055228212416 
1316	 0.150968925333614 
1317	 0.151448944735674 
1318	 0.15185977586631 
1319	 0.152255810776042 
1320	 0.152700976763547 
1321	 0.153151864264047 
1322	 0.153561058701527 
1323	 0.154039482911765 
1324	 0.154423865330969 
1325	 0.154660857613161 
1326	 0.154992982859586 
1327	 0.155339797369497 
1328	 0.155703143773897 
1329	 0.156125199370374 
1330	 0.1565076750327 
1331	 0.156866310105316 
1332	 0.157239385064694 
1333	 0.157626591246526 
1334	 0.157986693291109 
1335	 0.158312922894863 
1336	 0.158618982217054 
1337	 0.158959310674237 
1338	 0.159274801202304 
1339	 0.159599180597481 
1340	 0.159976691076159 
1341	 0.160290654605112 
1342	 0.160551571627269 
1343	 0.160834959768611 
1344	 0.161090094744094 
1345	 0.16140393125683 
1346	 0.161759151738997 
1347	 0.162077893211471 
1348	 0.162418756484881 
1349	 0.162745410416854 
1350	 0.163043064714138 
1351	 0.163335884298455 
1352	 0.163628649688654 
1353	 0.163933057045306 
1354	 0.164248196539602 
1355	 0.164525048952848 
1356	 0.164767415899181 
1357	 0.165055284483351 
1358	 0.165320624890014 
1359	 0.165614471193071 
1360	 0.165961530693353 
1361	 0.166337276038453 
1362	 0.166657688651856 
1363	 0.166914658901468 
1364	 0.167187636571196 
1365	 0.167421878462681 
1366	 0.167697660138018 
1367	 0.167980190309776 
1368	 0.168275264740285 
1369	 0.168609719905285 
1370	 0.168879564516891 
1371	 0.169127252890191 
1372	 0.169382342089345 
1373	 0.169626913881655 
1374	 0.16983160831566 
1375	 0.170030575573407 
1376	 0.170214601646444 
1377	 0.17032050841574 
1378	 0.170495935495756 
1379	 0.170745457282893 
1380	 0.170919010003652 
1381	 0.171097349809758 
1382	 0.171228110226134 
1383	 0.171291959924292 
1384	 0.171360165900094 
1385	 0.17143310379406 
1386	 0.171458101774901 
1387	 0.17145743059126 
1388	 0.171420798457649 
1389	 0.171318022897859 
1390	 0.171226856022103 
1391	 0.171092789560159 
1392	 0.170985616137749 
1393	 0.17092163337622 
1394	 0.170887351606378 
1395	 0.170942475051077 
1396	 0.1710919578981 
1397	 0.171205739664485 
1398	 0.17137905450989 
1399	 0.171504652206781 
1400	 0.171608419476 
1401	 0.171716285344677 
1402	 0.171837096981084 
1403	 0.171917822702072 
1404	 0.171981783064844 
1405	 0.17202642755152 
1406	 0.172042371799452 
1407	 0.17205263773523 
1408	 0.17205546726783 
1409	 0.172033134008136 
1410	 0.171962242544454 
1411	 0.17193680700273 
1412	 0.171882396929563 
1413	 0.171902335804168 
1414	 0.171983542014691 
1415	 0.172066645163347 
1416	 0.172188290777046 
1417	 0.172313991429539 
1418	 0.172453698921692 
1419	 0.172601149921543 
1420	 0.172737757083271 
1421	 0.172925668130779 
1422	 0.173154079960611 
1423	 0.173382619612881 
1424	 0.173650085125665 
1425	 0.17392434132006 
1426	 0.174185633018829 
1427	 0.174427017939336 
1428	 0.174678893005243 
1429	 0.17495358947932 
1430	 0.175225131754704 
1431	 0.175487863862843 
1432	 0.175788746058863 
1433	 0.17611923344073 
1434	 0.176427437194598 
1435	 0.176768922622735 
1436	 0.17705492235903 
1437	 0.177289905394114 
1438	 0.177563527393611 
1439	 0.177825991422712 
1440	 0.178105009148217 
1441	 0.178410672417373 
1442	 0.17871259414688 
1443	 0.178984290595996 
1444	 0.179326348603708 
1445	 0.179715969190277 
1446	 0.180091780069334 
1447	 0.180442222478747 
1448	 0.180914398393626 
1449	 0.181458664652032 
1450	 0.181987492536436 
1451	 0.182575877456828 
1452	 0.183214109113672 
1453	 0.183875473098241 
1454	 0.184520876720243 
1455	 0.185258615640301 
1456	 0.185936200993926 
1457	 0.186534747620098 
1458	 0.187167296306452 
1459	 0.187840555738184 
1460	 0.188471952941828 
1461	 0.189077761814911 
1462	 0.189673557609555 
1463	 0.190220101564211 
1464	 0.190800793044226 
1465	 0.191394381243935 
1466	 0.192006551312485 
1467	 0.19256189375017 
1468	 0.193176230466412 
1469	 0.193766723044719 
1470	 0.194236208102966 
1471	 0.194775318071559 
1472	 0.195325510385799 
1473	 0.195844131469243 
1474	 0.196351948884786 
1475	 0.196881519620025 
1476	 0.197399599057703 
1477	 0.197923797115151 
1478	 0.19847543975364 
1479	 0.198992646886792 
1480	 0.199490615438606 
1481	 0.199979567942767 
1482	 0.200473523658869 
1483	 0.200927569615946 
1484	 0.201339378715468 
1485	 0.201775769988603 
1486	 0.202188762471356 
1487	 0.202623541966958 
1488	 0.203076197518633 
1489	 0.203529948563797 
1490	 0.203970947489775 
1491	 0.204454624931863 
1492	 0.204976198581522 
1493	 0.205482166606866 
1494	 0.205993834775136 
1495	 0.206524775007647 
1496	 0.207055069845168 
1497	 0.207602013987428 
1498	 0.208194149838653 
1499	 0.208758394384589 
1500	 0.209306524632761 
1501	 0.209865902787789 
1502	 0.210418085107199 
1503	 0.210978976146296 
1504	 0.211572465791907 
1505	 0.212125117441825 
1506	 0.212664216465671 
1507	 0.213196027341196 
1508	 0.213689893237806 
1509	 0.214199035965006 
1510	 0.214721425440858 
1511	 0.215222905780615 
1512	 0.215739077673309 
1513	 0.216212430531433 
1514	 0.216626697356524 
1515	 0.217071478643305 
1516	 0.217498088173827 
1517	 0.217938392677067 
1518	 0.218449805437181 
1519	 0.218885981342232 
1520	 0.219257404442447 
1521	 0.219645811485817 
1522	 0.219998486789182 
1523	 0.220432863389456 
1524	 0.220819093674635 
1525	 0.221233085426229 
1526	 0.221640112796176 
1527	 0.222031372879255 
1528	 0.222383846523502 
1529	 0.222754854931768 
1530	 0.223081057596356 
1531	 0.223305919774262 
1532	 0.223664414687057 
1533	 0.224089124163999 
1534	 0.224463993891359 
1535	 0.224890158821298 
1536	 0.225227973542011 
1537	 0.225476777567542 
1538	 0.225820144776751 
1539	 0.22614802733933 
1540	 0.226553864316459 
1541	 0.227049879596602 
1542	 0.227495412205928 
1543	 0.227956746098902 
1544	 0.228411277553659 
1545	 0.228847980368691 
1546	 0.229304884860037 
1547	 0.229790170101835 
1548	 0.230242263767671 
1549	 0.230675114501407 
1550	 0.23112848699689 
1551	 0.231569932813198 
1552	 0.232030826125368 
1553	 0.232500457618912 
1554	 0.23300133447819 
1555	 0.233545857411393 
1556	 0.234037185732772 
1557	 0.234539466769144 
1558	 0.235015513526807 
1559	 0.235435086084432 
1560	 0.235880705379388 
1561	 0.236335958703374 
1562	 0.236791447428527 
1563	 0.23723407139779 
1564	 0.237696746056337 
1565	 0.238189290477273 
1566	 0.238653254876057 
1567	 0.239114075546284 
1568	 0.239566703729808 
1569	 0.239987151817731 
1570	 0.240439105178346 
1571	 0.240917677159355 
1572	 0.241369348151182 
1573	 0.241817288256315 
1574	 0.242269428834644 
1575	 0.242695636403785 
1576	 0.243147735739825 
1577	 0.24362841278192 
1578	 0.244096812490037 
1579	 0.24457924185636 
1580	 0.245035372732622 
1581	 0.245463365790326 
1582	 0.245913986436071 
1583	 0.246354918921761 
1584	 0.246811402885148 
1585	 0.247325289993288 
1586	 0.247769445118158 
1587	 0.248161512429624 
1588	 0.248583632794813 
1589	 0.24897300728868 
1590	 0.249386764364281 
1591	 0.249829149567204 
1592	 0.250279425558748 
1593	 0.250748092033961 
1594	 0.25119613801994 
1595	 0.251660113844798 
1596	 0.252099193423654 
1597	 0.252498147611182 
1598	 0.252911692990717 
1599	 0.253319121679685 
1600	 0.253742899270641 
1601	 0.254181756098073 
1602	 0.254611047472919 
1603	 0.255032194052104 
1604	 0.255474916443349 
1605	 0.25595602443117 
1606	 0.256380672603047 
1607	 0.256781401741753 
1608	 0.257200165669063 
1609	 0.257571558478493 
1610	 0.257969551845636 
1611	 0.258390798240031 
1612	 0.258830551486843 
1613	 0.25933788761734 
1614	 0.259747496620954 
1615	 0.260127381821173 
1616	 0.260503780074972 
1617	 0.260766871083988 
1618	 0.261100221172434 
1619	 0.261500358676889 
1620	 0.261871238934731 
1621	 0.262247897649034 
1622	 0.262614138229307 
1623	 0.262969356842702 
1624	 0.263318164519399 
1625	 0.26365430228761 
1626	 0.26400220468137 
1627	 0.264362030184599 
1628	 0.264699448193655 
1629	 0.26502643727115 
1630	 0.26535365753292 
1631	 0.265649645404437 
1632	 0.26597735746137 
1633	 0.26632976067885 
1634	 0.266682417821927 
1635	 0.267073131473651 
1636	 0.267406739829791 
1637	 0.267683783276284 
1638	 0.268014952058092 
1639	 0.268336692913146 
1640	 0.268677484044876 
1641	 0.269113817764438 
1642	 0.26945870484905 
1643	 0.269723439382978 
1644	 0.270035191437665 
1645	 0.270346429923751 
1646	 0.270625064768866 
1647	 0.270907389174756 
1648	 0.271191430374844 
1649	 0.271453029774554 
1650	 0.271702235557225 
1651	 0.271979764102949 
1652	 0.272209832678849 
1653	 0.272380049246883 
1654	 0.27255653382756 
1655	 0.272724458151122 
1656	 0.272879107016763 
1657	 0.273049508199513 
1658	 0.273153031736344 
1659	 0.273187358505979 
1660	 0.273261271231596 
1661	 0.273322081347475 
1662	 0.273356640489559 
1663	 0.273431375757927 
1664	 0.273436931931164 
1665	 0.273370355797497 
1666	 0.273297107366288 
1667	 0.273217986860777 
1668	 0.273077651739833 
1669	 0.272915948358338 
1670	 0.272685278299184 
1671	 0.272385546041237 
1672	 0.272052645816349 
1673	 0.271650035574451 
1674	 0.271228058194728 
1675	 0.270792796812966 
1676	 0.27029064097514 
1677	 0.269749818929413 
1678	 0.269148960269564 
1679	 0.268436594313302 
1680	 0.267778092381332 
1681	 0.267158795760972 
1682	 0.266415856560667 
1683	 0.265622640091166 
1684	 0.264813529706242 
1685	 0.263919311739892 
1686	 0.263014911209949 
1687	 0.262133246792414 
1688	 0.261163155731966 
1689	 0.260070803081524 
1690	 0.259009375802971 
1691	 0.257952126410379 
1692	 0.256892078092062 
1693	 0.255843453788229 
1694	 0.254739631346598 
1695	 0.253602720819986 
1696	 0.252410042728596 
1697	 0.251181838865726 
1698	 0.249885108344618 
1699	 0.248505095238109 
1700	 0.247191385513582 
1701	 0.245811696761903 
1702	 0.244534970805765 
1703	 0.243324306065939 
1704	 0.242128309448183 
1705	 0.240945393651166 
1706	 0.239878803769979 
1707	 0.238894873831198 
1708	 0.237927741948728 
1709	 0.237066061851394 
1710	 0.236283243139158 
1711	 0.235517264034452 
1712	 0.234948375326159 
1713	 0.234394297627585 
1714	 0.233807618786503 
1715	 0.233271365247954 
1716	 0.232724567732739 
1717	 0.232223144636419 
1718	 0.231765669820463 
1719	 0.231347701500638 
1720	 0.230942847874462 
1721	 0.230591261695289 
1722	 0.23032560956528 
1723	 0.230085528276705 
1724	 0.22985269356289 
1725	 0.229690984594772 
1726	 0.229682349270692 
1727	 0.229811404571441 
1728	 0.230088332284631 
1729	 0.230521354583675 
1730	 0.231007120362562 
1731	 0.231532464987001 
1732	 0.232185343370487 
1733	 0.232883755173286 
1734	 0.233604049997807 
1735	 0.234391279492804 
1736	 0.235191353036539 
1737	 0.235963819333612 
1738	 0.236677303516455 
1739	 0.23725477564043 
1740	 0.237753411762608 
1741	 0.238113600247901 
1742	 0.238304625091613 
1743	 0.238509734940347 
1744	 0.238621161747962 
1745	 0.238721590605874 
1746	 0.23877611042363 
1747	 0.238847133840804 
1748	 0.2388426108696 
1749	 0.238921914554604 
1750	 0.239090604171658 
1751	 0.23921996486653 
1752	 0.239328668966682 
1753	 0.239558402967036 
1754	 0.239795502772977 
1755	 0.24008662995329 
1756	 0.240437363017519 
1757	 0.240807479153137 
1758	 0.241402850711382 
1759	 0.242134071099104 
1760	 0.24294001299898 
1761	 0.243867422147963 
1762	 0.244786565394389 
1763	 0.245712986189442 
1764	 0.246763540600171 
1765	 0.24783943899255 
1766	 0.248916009500865 
1767	 0.250084959486995 
1768	 0.251295894742568 
1769	 0.252515989753026 
1770	 0.253732678103965 
1771	 0.25485588082621 
1772	 0.255949455710406 
1773	 0.257072145958975 
1774	 0.258142011986553 
1775	 0.25912910545164 
1776	 0.260093596048537 
1777	 0.26095120843963 
1778	 0.261746637011487 
1779	 0.26256944494006 
1780	 0.263286828631564 
1781	 0.26399605816921 
1782	 0.264664715787654 
1783	 0.26518047936858 
1784	 0.265772306786661 
1785	 0.266223606830839 
1786	 0.266699273935592 
1787	 0.267274645163006 
1788	 0.267726038414555 
1789	 0.268067436227511 
1790	 0.268503921445519 
1791	 0.268941387405115 
1792	 0.26937069405587 
1793	 0.269848337677062 
1794	 0.270172222082026 
1795	 0.270582103821092 
1796	 0.271003749301916 
1797	 0.271423208949822 
1798	 0.271908474951432 
1799	 0.272280898026938 
1800	 0.272611491846263 
1801	 0.274688273413042 
1802	 0.275097070709643 
1803	 0.275494327902039 
1804	 0.275859024897258 
1805	 0.276257944607421 
1806	 0.276654856898865 
1807	 0.277023895067768 
1808	 0.277438605926365 
1809	 0.277907189593167 
1810	 0.278327913720184 
1811	 0.278783038787674 
1812	 0.279191154848678 
1813	 0.27954352843403 
1814	 0.279915522003891 
1815	 0.280271098779183 
1816	 0.280603479133834 
1817	 0.281016983869381 
1818	 0.281482747113686 
1819	 0.281919790660131 
1820	 0.282428433495681 
1821	 0.282874415313848 
1822	 0.283239815568113 
1823	 0.283686365708906 
1824	 0.284150752701841 
1825	 0.28456976911352 
1826	 0.284992938995854 
1827	 0.285435938757574 
1828	 0.285822010307082 
1829	 0.28614593280402 
1830	 0.286532087811064 
1831	 0.286902820183994 
1832	 0.287329635945363 
1833	 0.287776567763772 
1834	 0.288185989158089 
1835	 0.288617388049143 
1836	 0.288998669716345 
1837	 0.289328221532967 
1838	 0.289577831884401 
1839	 0.289910084096924 
1840	 0.290217891925608 
1841	 0.290559796430406 
1842	 0.290942128670645 
1843	 0.291388523225086 
1844	 0.291816005646097 
1845	 0.292117887934002 
1846	 0.292414893184281 
1847	 0.292699381841494 
1848	 0.292958103938677 
1849	 0.293170346577059 
1850	 0.293387080164757 
1851	 0.293621862520525 
1852	 0.293776033501792 
1853	 0.293917182257832 
1854	 0.294062922664343 
1855	 0.29415366012925 
1856	 0.294256004360203 
1857	 0.294378201445038 
1858	 0.294430005416702 
1859	 0.29444534160208 
1860	 0.294479960969351 
1861	 0.294399000736631 
1862	 0.294226321244904 
1863	 0.294021114424454 
1864	 0.293771746019927 
1865	 0.293574972856939 
1866	 0.293372871413466 
1867	 0.293034150476131 
1868	 0.29266324678067 
1869	 0.292182055989041 
1870	 0.291660935071633 
1871	 0.291086503153199 
1872	 0.29047883840325 
1873	 0.289806424866018 
1874	 0.28916141092078 
1875	 0.288436859283462 
1876	 0.287497826725361 
1877	 0.286655663513407 
1878	 0.285687261369601 
1879	 0.284503293947849 
1880	 0.283412614943612 
1881	 0.282202784102263 
1882	 0.280865283229455 
1883	 0.279450142385774 
1884	 0.278070651933277 
1885	 0.276425294663444 
1886	 0.274726057070166 
1887	 0.272835257849323 
1888	 0.270717867685962 
1889	 0.268683631842727 
1890	 0.266423000069085 
1891	 0.264156036635937 
1892	 0.261836475936286 
1893	 0.259339708318442 
1894	 0.25665934235694 
1895	 0.254049398137977 
1896	 0.251286864099031 
1897	 0.248452396536218 
1898	 0.245782144243424 
1899	 0.243044366909974 
1900	 0.240421616825429 
1901	 0.237895905956415 
1902	 0.235304692721231 
1903	 0.232878729559603 
1904	 0.230497880091147 
1905	 0.228105129345958 
1906	 0.225827036883371 
1907	 0.223862097131119 
1908	 0.221990962773419 
1909	 0.220261053201591 
1910	 0.218697734176427 
1911	 0.217154804112406 
1912	 0.215762591126789 
1913	 0.21456973132216 
1914	 0.213466666851459 
1915	 0.212479338283245 
1916	 0.211661580414646 
1917	 0.210901521861098 
1918	 0.210134282071491 
1919	 0.209498426779693 
1920	 0.208986656945259 
1921	 0.208526607581393 
1922	 0.208124874909302 
1923	 0.207812903596782 
1924	 0.207508377375205 
1925	 0.207254102542435 
1926	 0.20703612805333 
1927	 0.20688251921489 
1928	 0.206732114836236 
1929	 0.206613269552467 
1930	 0.206479687325977 
1931	 0.20641991877257 
1932	 0.206436530303577 
1933	 0.206481742593743 
1934	 0.206529560489369 
1935	 0.206584095679074 
1936	 0.206708346422008 
1937	 0.206888099619734 
1938	 0.207137454331381 
1939	 0.207431363401633 
1940	 0.207815495518674 
1941	 0.208116089286049 
1942	 0.208535045789118 
1943	 0.20896394397167 
1944	 0.2093512201502 
1945	 0.209862925545933 
1946	 0.210387216865275 
1947	 0.210872992193518 
1948	 0.211455112259089 
1949	 0.212116697736642 
1950	 0.212782189009029 
1951	 0.213478930134029 
1952	 0.21420872633214 
1953	 0.214976629432845 
1954	 0.21572702292985 
1955	 0.21658156792207 
1956	 0.217459681006018 
1957	 0.218354365835891 
1958	 0.21933586428436 
1959	 0.22021965653308 
1960	 0.221073513540184 
1961	 0.221901229320411 
1962	 0.222687095230014 
1963	 0.223437555817006 
1964	 0.224146502650946 
1965	 0.224849010300044 
1966	 0.225529104567033 
1967	 0.226176842771244 
1968	 0.226817724991676 
1969	 0.227516864643112 
1970	 0.228167075864009 
1971	 0.228821296909063 
1972	 0.229425883584216 
1973	 0.230020760221142 
1974	 0.230667576120048 
1975	 0.231335046219549 
1976	 0.231970071375079 
1977	 0.232636701121068 
1978	 0.233310452076802 
1979	 0.233956086605829 
1980	 0.2345913828588 
1981	 0.235321845493855 
1982	 0.236004156383577 
1983	 0.23665050109124 
1984	 0.237343876611457 
1985	 0.238055223975152 
1986	 0.238769102971908 
1987	 0.239487833892832 
1988	 0.240187570656451 
1989	 0.240966577613821 
1990	 0.241764717094973 
1991	 0.242596719075218 
1992	 0.243474193436781 
1993	 0.244431155709902 
1994	 0.245350117707079 
1995	 0.246310333209507 
1996	 0.247258209459596 
1997	 0.248233173285307 
1998	 0.249218991876751 
1999	 0.250222973831238 
2000	 0.251199137334924 
2001	 0.25224252205591 
2002	 0.253138032405989 
2003	 0.253928657228139 
2004	 0.254738887741043 
2005	 0.255459135864057 
2006	 0.256231474274497 
2007	 0.25705415534597 
2008	 0.257846655992961 
2009	 0.258549335673655 
2010	 0.259260235301779 
2011	 0.259875172527816 
2012	 0.260399301298141 
2013	 0.260908178362094 
2014	 0.261375729013955 
2015	 0.261799312023276 
2016	 0.262194986139903 
2017	 0.26252695306601 
2018	 0.262788984044148 
2019	 0.26305371496526 
2020	 0.263242877529131 
2021	 0.263435336241324 
2022	 0.263749145080352 
2023	 0.26397678308507 
2024	 0.264209483532254 
2025	 0.264409059900392 
2026	 0.264517973101561 
2027	 0.264524168457508 
2028	 0.264556622479171 
2029	 0.264538998903169 
2030	 0.264504003415272 
2031	 0.264428650662915 
2032	 0.264370781699296 
2033	 0.264322388165323 
2034	 0.264247562410613 
2035	 0.264139179987459 
2036	 0.264067431646869 
2037	 0.264043106259119 
2038	 0.263900114914521 
2039	 0.263811949570105 
2040	 0.263769442691345 
2041	 0.263691213337976 
2042	 0.263563883968706 
2043	 0.263497195089647 
2044	 0.263480246271691 
2045	 0.263424402187875 
2046	 0.263367827178205 
2047	 0.26331201932909 
2048	 0.263211618513878 
2049	 0.263159265611919 
2050	 0.263133171063962 
2051	 0.263126016090086 
2052	 0.263108842925739 
2053	 0.263141110754327 
2054	 0.263174411277718 
2055	 0.263238032939533 
2056	 0.263243993459689 
2057	 0.263274367184613 
2058	 0.263230682881904 
2059	 0.263092854419256 
2060	 0.263011212939579 
2061	 0.262916094085638 
2062	 0.26283830935287 
2063	 0.262806590503692 
2064	 0.262724494045738 
2065	 0.262607057096528 
2066	 0.262478398617054 
2067	 0.262397890946292 
2068	 0.262392982092278 
2069	 0.262405057320595 
2070	 0.262546625142477 
2071	 0.26253958424642 
2072	 0.262480218834507 
2073	 0.262425908052265 
2074	 0.262312556818248 
2075	 0.262228414465996 
2076	 0.262146080084088 
2077	 0.262078461041972 
2078	 0.262039534944355 
2079	 0.261950573162146 
2080	 0.261867539616422 
2081	 0.261755781979035 
2082	 0.261617842669957 
2083	 0.261405089296588 
2084	 0.261213104987018 
2085	 0.261084793184317 
2086	 0.260935493764085 
2087	 0.260787118627145 
2088	 0.260642939885197 
2089	 0.260522699832605 
2090	 0.260363663857646 
2091	 0.260212000654501 
2092	 0.26002479391112 
2093	 0.259785203952608 
2094	 0.259567054948268 
2095	 0.259313551421316 
2096	 0.259084948089256 
2097	 0.258876814939187 
2098	 0.258697524997963 
2099	 0.258453747385881 
2100	 0.258215153801027 
2101	 0.257908110826259 
2102	 0.25751393244271 
2103	 0.257202939073207 
2104	 0.256865083255026 
2105	 0.256588960719203 
2106	 0.256426949698926 
2107	 0.256143420806566 
2108	 0.255818147459965 
2109	 0.255503934876745 
2110	 0.255132800324294 
2111	 0.254771533599098 
2112	 0.254461876202937 
2113	 0.254088228848139 
2114	 0.253637601245489 
2115	 0.253231518012275 
2116	 0.252849985800503 
2117	 0.252415885117052 
2118	 0.251957613348558 
2119	 0.251482537149789 
2120	 0.251035719154759 
2121	 0.250528408746698 
2122	 0.25011667703677 
2123	 0.249780382748158 
2124	 0.249431548499594 
2125	 0.24909384731012 
2126	 0.248772854985452 
2127	 0.248503036799273 
2128	 0.248204939186667 
2129	 0.247892041881276 
2130	 0.247608373925853 
2131	 0.247300182614899 
2132	 0.247032409204873 
2133	 0.246786495897137 
2134	 0.246604097237254 
2135	 0.246423278588728 
2136	 0.246259333321316 
2137	 0.246051771658533 
2138	 0.2458048990882 
2139	 0.245658771524022 
2140	 0.245516789841697 
2141	 0.245399826915793 
2142	 0.245390959059024 
2143	 0.245310520488477 
2144	 0.245141716618892 
2145	 0.245107284277319 
2146	 0.245152464915749 
2147	 0.245158246236451 
2148	 0.245239018365143 
2149	 0.245264764770508 
2150	 0.245169486285551 
2151	 0.245203152639738 
2152	 0.245322075151119 
2153	 0.245418509643085 
2154	 0.245508755931159 
2155	 0.245690907906169 
2156	 0.245788654217411 
2157	 0.24582201725178 
2158	 0.245890912278925 
2159	 0.245988803791805 
2160	 0.246026837253777 
2161	 0.246000071992247 
2162	 0.246050395314724 
2163	 0.246117513956344 
2164	 0.246166214174819 
2165	 0.246271167523955 
2166	 0.24632699643762 
2167	 0.246339724285439 
2168	 0.246332309964497 
2169	 0.24631511885872 
2170	 0.246279541122473 
2171	 0.246180934024897 
2172	 0.246127178871033 
2173	 0.246079014091569 
2174	 0.246029243656182 
2175	 0.246099748910908 
2176	 0.246182244792041 
2177	 0.246206352810247 
2178	 0.246277878157907 
2179	 0.246276292428147 
2180	 0.246164073031439 
2181	 0.246137052176538 
2182	 0.246146431268239 
2183	 0.246124430246961 
2184	 0.246108809140703 
2185	 0.246072344422701 
2186	 0.246047919810554 
2187	 0.24595078523236 
2188	 0.245817225403398 
2189	 0.245666604281765 
2190	 0.245418941881864 
2191	 0.24523404304644 
2192	 0.245052648167946 
2193	 0.244892712493692 
2194	 0.244803518226321 
2195	 0.244663926207528 
2196	 0.244579605955269 
2197	 0.244374532544936 
2198	 0.244027882152519 
2199	 0.243702090212466 
2200	 0.2433520155061 
2201	 0.242905409103809 
2202	 0.242542120557816 
2203	 0.242211054882476 
2204	 0.241870083368427 
2205	 0.241558229501976 
2206	 0.241179554554498 
2207	 0.240759641023232 
2208	 0.240402694322182 
2209	 0.240021830461341 
2210	 0.239667357144104 
2211	 0.239425640921716 
2212	 0.239074703461949 
2213	 0.238643313737378 
2214	 0.238245137179597 
2215	 0.237830729168744 
2216	 0.237391254891966 
2217	 0.236908278756714 
2218	 0.236488915036667 
2219	 0.236087092499089 
2220	 0.235696608645544 
2221	 0.235365978188562 
2222	 0.235040484148738 
2223	 0.234682372252054 
2224	 0.234217933256272 
2225	 0.233684397662048 
2226	 0.233105764865962 
2227	 0.232453849746676 
2228	 0.231684257145536 
2229	 0.230952912455645 
2230	 0.230234339568399 
2231	 0.229362509038172 
2232	 0.228457899821229 
2233	 0.227397427103233 
2234	 0.22615376749811 
2235	 0.224935963542371 
2236	 0.223706733715297 
2237	 0.222320174496171 
2238	 0.220788073727508 
2239	 0.219283388361249 
2240	 0.217699714683116 
2241	 0.216016263058216 
2242	 0.214349253878387 
2243	 0.212561205969751 
2244	 0.210634395096457 
2245	 0.208642877923567 
2246	 0.206491506764086 
2247	 0.204412364312923 
2248	 0.202226945384213 
2249	 0.200092138936668 
2250	 0.198026105294734 
2251	 0.196029155901662 
2252	 0.193841472488598 
2253	 0.191794440861806 
2254	 0.189622372971086 
2255	 0.187470188673347 
2256	 0.185598111755919 
2257	 0.183537788822416 
2258	 0.181580353569086 
2259	 0.179755189263647 
2260	 0.177869676723746 
2261	 0.175898820987537 
2262	 0.174079266394438 
2263	 0.172304384771246 
2264	 0.170605443088932 
2265	 0.169003965060597 
2266	 0.167408089688549 
2267	 0.165942449625471 
2268	 0.164396644686571 
2269	 0.162835774835993 
2270	 0.161274634704271 
2271	 0.159612847998676 
2272	 0.158083175128452 
2273	 0.156639225543293 
2274	 0.155195559781702 
2275	 0.153945329074773 
2276	 0.152502389094208 
2277	 0.150912388841678 
2278	 0.149364083691749 
2279	 0.147695420905104 
2280	 0.146086874255237 
2281	 0.144564781773734 
2282	 0.142978735712888 
2283	 0.14136039521585 
2284	 0.139815579687136 
2285	 0.137993420012884 
2286	 0.136254632145226 
2287	 0.134479933286493 
2288	 0.132632520035751 
2289	 0.130985912317654 
2290	 0.129218341158848 
2291	 0.127412725456576 
2292	 0.125594268924274 
2293	 0.1236691700096 
2294	 0.122021510883027 
2295	 0.120605896649243 
2296	 0.119205437204971 
2297	 0.118038330293537 
2298	 0.11710072548263 
2299	 0.116294915121973 
2300	 0.115674923790513 
2301	 0.115175072545508 
2302	 0.114815673046524 
2303	 0.114639272910731 
2304	 0.114611955574585 
2305	 0.114729554235986 
2306	 0.115107903982277 
2307	 0.115545301400203 
2308	 0.115984583648591 
2309	 0.116751259585855 
2310	 0.117769713971944 
2311	 0.118902959268237 
2312	 0.120465255884086 
2313	 0.121769566204014 
2314	 0.123071907534117 
2315	 0.124322902601722 
2316	 0.125426896558108 
2317	 0.126650731444633 
2318	 0.128025896098204 
2319	 0.129162386661581 
2320	 0.130288478599922 
2321	 0.131210953475293 
2322	 0.131911341294455 
2323	 0.132618339430646 
2324	 0.133276631902972 
2325	 0.133767492709143 
2326	 0.13426362146408 
2327	 0.134375507779916 
2328	 0.134013594917844 
2329	 0.133812507221163 
2330	 0.133504192772217 
2331	 0.133041792730679 
2332	 0.132783918960931 
2333	 0.132531265723622 
2334	 0.131804336662084 
2335	 0.130955510707025 
2336	 0.129835271761805 
2337	 0.128682423100753 
2338	 0.127754620644934 
2339	 0.126793709541898 
2340	 0.126021413644148 
2341	 0.12521233013487 
2342	 0.124384794104276 
2343	 0.123709176373442 
2344	 0.123071242959813 
2345	 0.122701496053473 
2346	 0.122383843451705 
2347	 0.122398293564782 
2348	 0.122770202881983 
2349	 0.123045031184624 
2350	 0.123524350207254 
2351	 0.124110564121579 
2352	 0.124844532234029 
2353	 0.125853498530552 
2354	 0.126890313038393 
2355	 0.127859418681345 
2356	 0.128402684795333 
2357	 0.129011120967805 
2358	 0.129664880792953 
2359	 0.130274968418457 
2360	 0.131174929156958 
2361	 0.131513337301466 
2362	 0.131583283223163 
2363	 0.131633064805508 
2364	 0.131449332515001 
2365	 0.131419149013566 
2366	 0.131545159123908 
2367	 0.131740339860752 
2368	 0.131747162217304 
2369	 0.131640952893143 
2370	 0.131521349098498 
2371	 0.131253777865215 
2372	 0.131120306320292 
2373	 0.131278099281976 
2374	 0.131387708689315 
2375	 0.131254086970872 
2376	 0.131129623203593 
2377	 0.130963502553741 
2378	 0.13076837870714 
2379	 0.130777699958827 
2380	 0.130901220710187 
2381	 0.130933072511507 
2382	 0.13087365783857 
2383	 0.130667708540397 
2384	 0.130688151356985 
2385	 0.130827572751951 
2386	 0.130767459105537 
2387	 0.130777188622588 
2388	 0.130843895336789 
2389	 0.130498141380022 
2390	 0.130658928529335 
2391	 0.131390880696229 
2392	 0.13161965142829 
2393	 0.131777635027094 
2394	 0.132083636560194 
2395	 0.132292963049985 
2396	 0.132357176047719 
2397	 0.132524037856027 
2398	 0.132546230814856 
2399	 0.132271426674599 
2400	 0.132201206057814 
2401	 0.132236247690622 
2402	 0.132246971612861 
2403	 0.132218847078846 
2404	 0.132393310423622 
2405	 0.132227494021745 
2406	 0.131844907776574 
2407	 0.131996835990485 
2408	 0.132172393422609 
2409	 0.132268957634696 
2410	 0.132431647179516 
2411	 0.132450044123282 
2412	 0.132321205875383 
2413	 0.132505197835822 
2414	 0.132817301961212 
2415	 0.132381248467771 
2416	 0.132089727090139 
2417	 0.132185971224726 
2418	 0.131986021269054 
2419	 0.131984404339093 
2420	 0.132109381440833 
2421	 0.132071069657737 
2422	 0.132047759359945 
2423	 0.132268883947985 
2424	 0.132235142598496 
2425	 0.131650040418056 
2426	 0.131707518086209 
2427	 0.132071813775477 
2428	 0.132192552504781 
2429	 0.132743510454762 
2430	 0.132714287058274 
2431	 0.132200223868629 
2432	 0.132255011398948 
2433	 0.132197348958637 
2434	 0.131792310124654 
2435	 0.131464780536235 
2436	 0.131114910715561 
2437	 0.130501620954527 
2438	 0.129909535803435 
2439	 0.129796526398488 
2440	 0.129926292405626 
2441	 0.12997911529009 
2442	 0.130369224379643 
2443	 0.130599807424093 
2444	 0.13030513413149 
2445	 0.130039664632529 
2446	 0.129566772977507 
2447	 0.12920709582102 
2448	 0.129191033604871 
2449	 0.129323304527993 
2450	 0.129588653042834 
2451	 0.129460397594802 
2452	 0.128740569670034 
2453	 0.127690684650913 
2454	 0.126861547395463 
2455	 0.126325730838056 
2456	 0.12618134155025 
2457	 0.126151052300053 
2458	 0.125380128877084 
2459	 0.124863094315103 
2460	 0.124210327799546 
2461	 0.123302067354599 
2462	 0.122953463093106 
2463	 0.122215552702318 
2464	 0.121735356392215 
2465	 0.121554812363598 
2466	 0.121521966275078 
2467	 0.121790165524315 
2468	 0.121817839346373 
2469	 0.121883362741627 
2470	 0.121640858657792 
2471	 0.120971817349277 
2472	 0.120308980323817 
2473	 0.119612133950823 
2474	 0.119646149072377 
2475	 0.120207588907646 
2476	 0.120014236059605 
2477	 0.120147457192433 
2478	 0.120157152797489 
2479	 0.119890023353163 
2480	 0.121551704520101 
2481	 0.122271406378922 
2482	 0.122522419112369 
2483	 0.121739167273554 
2484	 0.121076313925308 
2485	 0.120233545835169 
2486	 0.120706926081617 
2487	 0.121826844228469 
2488	 0.122996389596249 
2489	 0.123616526954611 
2490	 0.122684663979248 
2491	 0.121860801832705 
2492	 0.121442032814425 
2493	 0.121469638590878 
2494	 0.122300590970624 
2495	 0.122306836008873 
2496	 0.121374157494219 
2497	 0.121030537047441 
2498	 0.122279178664196 
2499	 0.123243492997979 
2500	 0.123202522440851 
