Wavelength	Tablay400084.asd
350	 0.116912948885197 
351	 9.83163497170067E-02 
352	 9.01839790065831E-02 
353	 3.62824850405709E-02 
354	 5.53257584413963E-02 
355	 0.126704508098668 
356	 0.143540648628793 
357	 0.060511053621349 
358	 6.12343109856468E-02 
359	 0.100108941038141 
360	 0.152465296252817 
361	 0.204109685071509 
362	 0.149591876733805 
363	 0.112164605157237 
364	 0.134198160036481 
365	 7.70258846530269E-02 
366	 4.91745135010705E-02 
367	 7.69132424560227E-02 
368	 0.137529725497186 
369	 0.113627138674254 
370	 0.102949604983248 
371	 0.123432463037047 
372	 0.145098915578372 
373	 0.11539575421469 
374	 8.94959312044266E-02 
375	 8.93259994974289E-02 
376	 8.75761943089395E-02 
377	 5.59456818667904E-02 
378	 4.66621287593716E-02 
379	 8.86973325829338E-02 
380	 9.28265047661573E-02 
381	 7.59384557244224E-02 
382	 5.08026556388461E-02 
383	 2.82976864012789E-02 
384	 6.18840665243812E-02 
385	 9.41254837554536E-02 
386	 0.089556764250467 
387	 6.68169288508355E-02 
388	 7.48626194851083E-02 
389	 8.33258884831388E-02 
390	 6.21085418775882E-02 
391	 6.31945232741567E-02 
392	 8.48554718914179E-02 
393	 9.80739367506663E-02 
394	 6.83139179808354E-02 
395	 6.50686836024225E-02 
396	 6.64814999164389E-02 
397	 5.74932456052254E-02 
398	 0.051411226820701 
399	 7.84801197913792E-02 
400	 9.83052971174326E-02 
401	 0.078123016290638 
402	 7.45930902954218E-02 
403	 6.11217648272921E-02 
404	 5.15762823080056E-02 
405	 8.39924278397028E-02 
406	 8.87677151258183E-02 
407	 8.22883187061955E-02 
408	 7.76520526237579E-02 
409	 5.41370625971274E-02 
410	 5.99415024653677E-02 
411	 7.79123828170461E-02 
412	 7.71750103624474E-02 
413	 7.16894253774948E-02 
414	 0.063422104715852 
415	 5.87898781194201E-02 
416	 6.72260985178306E-02 
417	 6.83765497530434E-02 
418	 6.37019280840303E-02 
419	 6.00793893667941E-02 
420	 6.89876286735361E-02 
421	 6.72862099940058E-02 
422	 6.11060258235092E-02 
423	 6.49174608902094E-02 
424	 6.45626103939734E-02 
425	 0.063904778663359 
426	 6.37859468503094E-02 
427	 6.03948531577291E-02 
428	 6.23508924350842E-02 
429	 6.29274098519852E-02 
430	 5.80059231559397E-02 
431	 6.09044644915891E-02 
432	 6.25864225476362E-02 
433	 0.06191918772141 
434	 6.17620012984582E-02 
435	 0.058690462930007 
436	 6.12586703040309E-02 
437	 6.87304975722075E-02 
438	 6.48974440318212E-02 
439	 6.19934876603621E-02 
440	 6.22772311447516E-02 
441	 6.45399931762444E-02 
442	 0.065904307030692 
443	 6.49992911701938E-02 
444	 6.23522623871601E-02 
445	 6.00113974107549E-02 
446	 6.00490055069567E-02 
447	 6.32609351506192E-02 
448	 6.76373096189715E-02 
449	 6.55664255543117E-02 
450	 6.50686804971705E-02 
451	 6.57675323524716E-02 
452	 6.50587387940335E-02 
453	 6.68745469629309E-02 
454	 6.67020534917958E-02 
455	 6.45860772471767E-02 
456	 0.06578546548835 
457	 6.32122755669301E-02 
458	 6.24838063448449E-02 
459	 6.71390325461625E-02 
460	 6.71938056555199E-02 
461	 6.61086259179721E-02 
462	 6.55538041727804E-02 
463	 6.59496998253032E-02 
464	 6.51397724803941E-02 
465	 0.064725762315815 
466	 0.065762991267837 
467	 6.80360845907904E-02 
468	 6.83176356286488E-02 
469	 6.69833465261448E-02 
470	 6.57356063425499E-02 
471	 6.66859473862171E-02 
472	 6.77706904593669E-02 
473	 6.73841520629484E-02 
474	 6.49130398627402E-02 
475	 6.72404096514928E-02 
476	 6.84015401327144E-02 
477	 6.54616588062967E-02 
478	 6.62681681041525E-02 
479	 6.61444182740597E-02 
480	 6.50616809742117E-02 
481	 6.46789377301358E-02 
482	 6.62403875450489E-02 
483	 6.69202261301952E-02 
484	 6.63568714595088E-02 
485	 6.71282852544351E-02 
486	 0.066753959605509 
487	 0.066412307982227 
488	 6.69009703945076E-02 
489	 6.53074654253055E-02 
490	 6.44790680173318E-02 
491	 6.51809089767744E-02 
492	 6.65070015374906E-02 
493	 6.41508955685652E-02 
494	 6.29392555752214E-02 
495	 6.45828093214317E-02 
496	 6.41708007275878E-02 
497	 0.06431952336054 
498	 6.45513125358948E-02 
499	 6.38976693834067E-02 
500	 6.30321259813095E-02 
501	 6.30809212388865E-02 
502	 6.36973864095705E-02 
503	 6.33383594558082E-02 
504	 6.20925787022327E-02 
505	 6.11267628494718E-02 
506	 6.11524610228429E-02 
507	 0.061567853991465 
508	 0.06087715363335 
509	 6.03380197254476E-02 
510	 0.061656675019941 
511	 6.06087648685565E-02 
512	 5.90622985327232E-02 
513	 5.84463180459211E-02 
514	 5.89845469238179E-02 
515	 5.84441746652868E-02 
516	 5.77232924922594E-02 
517	 5.78274694891512E-02 
518	 5.71737215948048E-02 
519	 5.65644426974059E-02 
520	 5.61679341981193E-02 
521	 5.57391717955264E-02 
522	 0.05583732921439 
523	 5.58190062020188E-02 
524	 5.53449306451427E-02 
525	 5.49310060764791E-02 
526	 5.47182105733574E-02 
527	 5.42788270172582E-02 
528	 5.33360666080062E-02 
529	 5.37186562616313E-02 
530	 5.35376031479494E-02 
531	 5.26894332075528E-02 
532	 0.053081412988695 
533	 5.30006482375202E-02 
534	 5.24733503042395E-02 
535	 0.051905806220719 
536	 5.17076544565035E-02 
537	 5.12913058038157E-02 
538	 5.07512894235693E-02 
539	 5.05285530280832E-02 
540	 5.05738308506807E-02 
541	 5.03147532653164E-02 
542	 4.97319076302475E-02 
543	 4.97750232282453E-02 
544	 4.95278760042166E-02 
545	 4.92150747486127E-02 
546	 4.92015972443003E-02 
547	 4.88570478538649E-02 
548	 4.87677284014398E-02 
549	 0.048832340273516 
550	 4.83693085825895E-02 
551	 4.82715209471386E-02 
552	 4.80852028756588E-02 
553	 4.75566935104089E-02 
554	 0.047579018376422 
555	 4.74068853395067E-02 
556	 4.70705928747359E-02 
557	 4.69377562347314E-02 
558	 4.69974197321757E-02 
559	 4.69061567652885E-02 
560	 4.66764265098237E-02 
561	 4.68600433875543E-02 
562	 4.65340700331444E-02 
563	 4.61439834854879E-02 
564	 4.62118703347121E-02 
565	 0.046075596998424 
566	 4.59520368262489E-02 
567	 4.58354850744109E-02 
568	 4.55696709631016E-02 
569	 4.53660361587694E-02 
570	 4.53152159799593E-02 
571	 4.53555434969802E-02 
572	 4.51390559135139E-02 
573	 4.50408871246241E-02 
574	 4.51091599149592E-02 
575	 4.52402842233628E-02 
576	 4.52537081393292E-02 
577	 4.51577608373928E-02 
578	 4.49645441579015E-02 
579	 4.46781933498104E-02 
580	 4.45719978099312E-02 
581	 4.46663522071227E-02 
582	 4.48052878106907E-02 
583	 4.44714664468141E-02 
584	 4.44324724871595E-02 
585	 4.46691717305432E-02 
586	 4.46899584069961E-02 
587	 4.43691487340926E-02 
588	 4.39934655817664E-02 
589	 4.37971187376875E-02 
590	 4.38468252196478E-02 
591	 4.39334017749415E-02 
592	 4.39633866464863E-02 
593	 4.39131848591689E-02 
594	 4.38581536844299E-02 
595	 4.38850249639688E-02 
596	 4.38483648164183E-02 
597	 4.34611715981393E-02 
598	 4.35942251145613E-02 
599	 4.37689876941804E-02 
600	 4.35883006105955E-02 
601	 0.04342903281309 
602	 4.32276959372719E-02 
603	 4.31821796062992E-02 
604	 4.34463100431626E-02 
605	 4.31607951472544E-02 
606	 0.043013432388377 
607	 4.32192658321827E-02 
608	 4.32596845609378E-02 
609	 4.30220535985992E-02 
610	 4.28492107463054E-02 
611	 4.29948860881792E-02 
612	 4.29994922144472E-02 
613	 0.043045759602187 
614	 4.30873238260343E-02 
615	 4.29496966685383E-02 
616	 4.27044112262432E-02 
617	 4.26610724489676E-02 
618	 4.28510740300444E-02 
619	 4.27759702745967E-02 
620	 4.26111670699262E-02 
621	 4.25076968751107E-02 
622	 4.25548302695187E-02 
623	 4.25237256233428E-02 
624	 0.04262776115144 
625	 4.27787447407902E-02 
626	 4.26227582693776E-02 
627	 4.24963537099542E-02 
628	 4.24311238261003E-02 
629	 4.24196871469596E-02 
630	 4.25343383598258E-02 
631	 4.24937346281633E-02 
632	 4.23075565499433E-02 
633	 4.21305607674212E-02 
634	 4.20274443670175E-02 
635	 4.22015648233822E-02 
636	 4.25213795144964E-02 
637	 4.24493437421808E-02 
638	 4.23730276397125E-02 
639	 4.22524008923172E-02 
640	 4.20632705859806E-02 
641	 4.21609028780758E-02 
642	 4.23284924843797E-02 
643	 4.23683048841231E-02 
644	 4.21475616240429E-02 
645	 4.19434762576077E-02 
646	 4.19399412156183E-02 
647	 4.21196752366719E-02 
648	 4.21842063924437E-02 
649	 4.19954980154375E-02 
650	 4.18341343000308E-02 
651	 4.19871423157013E-02 
652	 4.21989872291329E-02 
653	 4.20783938688038E-02 
654	 4.17833853406129E-02 
655	 4.18762354803772E-02 
656	 4.20426188881422E-02 
657	 4.21424934845672E-02 
658	 4.21019858970199E-02 
659	 4.18941914605871E-02 
660	 4.18998331068162E-02 
661	 4.19416544602315E-02 
662	 0.041755034199911 
663	 4.18670495371391E-02 
664	 0.041927487320472 
665	 4.19382936521773E-02 
666	 4.22661899613397E-02 
667	 4.21103883806633E-02 
668	 4.18837679727003E-02 
669	 4.19842059258099E-02 
670	 4.21662630372744E-02 
671	 4.21809364791321E-02 
672	 4.20774644238456E-02 
673	 4.20480838703258E-02 
674	 4.21416525321524E-02 
675	 4.21730969767519E-02 
676	 4.20957432104975E-02 
677	 4.20515507899255E-02 
678	 4.20081964977889E-02 
679	 4.19440094629539E-02 
680	 4.18785335293167E-02 
681	 4.19559170391766E-02 
682	 4.20666043270769E-02 
683	 4.21391853502253E-02 
684	 4.21382911123243E-02 
685	 4.21200535049539E-02 
686	 4.21318164328025E-02 
687	 4.21432496692724E-02 
688	 4.20193982810231E-02 
689	 4.19498579173438E-02 
690	 4.19799465065736E-02 
691	 4.20935598010527E-02 
692	 4.22357203155081E-02 
693	 4.22960303857425E-02 
694	 4.22410120175959E-02 
695	 4.21171114574181E-02 
696	 0.042165128566349 
697	 4.22847976712288E-02 
698	 4.23436662580156E-02 
699	 4.22256633571709E-02 
700	 0.042237133352741 
701	 4.23364969793577E-02 
702	 4.23944937345862E-02 
703	 0.042374110903131 
704	 4.23400943238802E-02 
705	 4.23759544286925E-02 
706	 4.25320636892875E-02 
707	 4.24141706041607E-02 
708	 4.23421540862243E-02 
709	 4.24647538764411E-02 
710	 4.24948049394331E-02 
711	 4.24588748484419E-02 
712	 4.24901338245016E-02 
713	 4.26521114105469E-02 
714	 4.25700664161306E-02 
715	 4.26143051402296E-02 
716	 4.27755376232895E-02 
717	 4.27838731077284E-02 
718	 4.28082910685418E-02 
719	 4.28259802650912E-02 
720	 4.28276303774269E-02 
721	 4.28676719077064E-02 
722	 4.29012513187216E-02 
723	 4.29404285585921E-02 
724	 4.29966782887374E-02 
725	 4.30025699605307E-02 
726	 4.30849643125121E-02 
727	 4.31890877165365E-02 
728	 4.31588924549109E-02 
729	 0.043231601359217 
730	 4.32691836676734E-02 
731	 4.32134338490063E-02 
732	 4.32101352530546E-02 
733	 4.33249139720599E-02 
734	 4.34094973658343E-02 
735	 4.33529723007654E-02 
736	 0.043440226370007 
737	 4.35094950841907E-02 
738	 4.35142101708949E-02 
739	 4.35001925229228E-02 
740	 4.35634440006663E-02 
741	 4.36581153446219E-02 
742	 4.37238482378547E-02 
743	 4.37070650879244E-02 
744	 4.37877715479554E-02 
745	 4.38879638115571E-02 
746	 4.39062532065665E-02 
747	 4.39187020724955E-02 
748	 4.38705103778951E-02 
749	 4.38466963067216E-02 
750	 4.39727283897265E-02 
751	 0.044029735601083 
752	 0.044098014075477 
753	 4.41814752089276E-02 
754	 4.41514947058305E-02 
755	 4.42059052928199E-02 
756	 4.42329472881131E-02 
757	 4.41629749575885E-02 
758	 4.42706916757907E-02 
759	 4.42576735493006E-02 
760	 4.42058957512509E-02 
761	 4.43277042163937E-02 
762	 4.44373758313546E-02 
763	 4.44746503904625E-02 
764	 0.044467856457044 
765	 4.45228717664425E-02 
766	 4.45792335180658E-02 
767	 4.45924750010072E-02 
768	 4.45621046506777E-02 
769	 4.45735907183681E-02 
770	 4.46520324365022E-02 
771	 4.47455137265016E-02 
772	 4.47779473587583E-02 
773	 4.47140856239076E-02 
774	 4.47581513881827E-02 
775	 4.48719848186557E-02 
776	 4.48378089199136E-02 
777	 4.48583669653167E-02 
778	 4.49180017667793E-02 
779	 4.49592351562692E-02 
780	 4.49065127001661E-02 
781	 4.49338212849895E-02 
782	 0.045040592344098 
783	 4.51507136102115E-02 
784	 4.51265341798946E-02 
785	 0.045100053797706 
786	 0.045111779031035 
787	 4.51439375706044E-02 
788	 0.04518660022165 
789	 4.52748497071713E-02 
790	 4.53449730166119E-02 
791	 4.52306147830914E-02 
792	 4.52376774923658E-02 
793	 4.53762677049986E-02 
794	 4.55392634953697E-02 
795	 4.55016004978648E-02 
796	 4.54248810113911E-02 
797	 4.54071964829839E-02 
798	 4.54840106632493E-02 
799	 0.045505643640928 
800	 4.55506284664138E-02 
801	 4.56042639518736E-02 
802	 4.55906644952489E-02 
803	 4.56467543787148E-02 
804	 4.56926519475861E-02 
805	 4.56929489547168E-02 
806	 4.57205498816458E-02 
807	 4.57262801560359E-02 
808	 4.57662229506619E-02 
809	 4.58770457123294E-02 
810	 4.59786947841867E-02 
811	 4.59820572211942E-02 
812	 4.59514434820717E-02 
813	 4.60026748879295E-02 
814	 4.60975616003808E-02 
815	 4.61078115543782E-02 
816	 4.60868831261432E-02 
817	 4.62249760203874E-02 
818	 4.62880349299742E-02 
819	 4.63001095986591E-02 
820	 4.63244476784125E-02 
821	 4.64200734515611E-02 
822	 4.64769787237828E-02 
823	 4.64892966808166E-02 
824	 4.64987533214435E-02 
825	 4.65971878749899E-02 
826	 4.66852330491143E-02 
827	 4.67497263141754E-02 
828	 4.68153508212214E-02 
829	 4.68644438999041E-02 
830	 0.04693580700194 
831	 0.04703900090003 
832	 0.047146757290382 
833	 4.71536640742779E-02 
834	 4.71392552391726E-02 
835	 4.71804561316219E-02 
836	 4.73012318433496E-02 
837	 4.75184872684655E-02 
838	 4.76389184124045E-02 
839	 4.75786255006128E-02 
840	 4.76942045861793E-02 
841	 4.77901077499415E-02 
842	 4.78681898547033E-02 
843	 4.79777207235249E-02 
844	 4.79917322663619E-02 
845	 4.81194073164948E-02 
846	 4.83108457543211E-02 
847	 4.83549882628891E-02 
848	 4.85033532650737E-02 
849	 4.85158128820285E-02 
850	 4.84321825607665E-02 
851	 4.86751517151592E-02 
852	 4.88464907326864E-02 
853	 4.89510677010832E-02 
854	 4.90561476352381E-02 
855	 4.91799257598619E-02 
856	 4.93184234483849E-02 
857	 4.93942412120232E-02 
858	 4.94058817334731E-02 
859	 4.97160711098751E-02 
860	 4.98539435025643E-02 
861	 4.98872039835742E-02 
862	 5.00933902246323E-02 
863	 5.01481913678196E-02 
864	 5.02590413484535E-02 
865	 5.04875166740516E-02 
866	 5.07272807434933E-02 
867	 5.08143996586255E-02 
868	 5.09425036348646E-02 
869	 5.11749248600611E-02 
870	 5.13337313988367E-02 
871	 5.15843911166148E-02 
872	 5.17406275514878E-02 
873	 5.17460137582585E-02 
874	 5.19836461432258E-02 
875	 0.052241824662292 
876	 5.24933126988741E-02 
877	 5.27281434867246E-02 
878	 5.27733122009438E-02 
879	 5.30802591813159E-02 
880	 5.34262713565336E-02 
881	 5.34188211715425E-02 
882	 5.36660454694358E-02 
883	 5.40171635218423E-02 
884	 5.43318854140668E-02 
885	 5.45380408770839E-02 
886	 0.054781950197818 
887	 5.49787816056632E-02 
888	 5.51934319199767E-02 
889	 5.56523151746222E-02 
890	 0.055938764081133 
891	 5.61784251367279E-02 
892	 5.65159704444198E-02 
893	 5.69516363173099E-02 
894	 5.72065526943303E-02 
895	 5.73643162564541E-02 
896	 0.057616534378701 
897	 5.81966145775352E-02 
898	 5.84576089248589E-02 
899	 5.86819492672129E-02 
900	 5.92423711729414E-02 
901	 5.95440028140325E-02 
902	 0.059905052821407 
903	 6.03301142817739E-02 
904	 0.060690667136763 
905	 6.10754057442819E-02 
906	 6.14589222156318E-02 
907	 6.18960659929728E-02 
908	 6.24644137335781E-02 
909	 6.29711681686109E-02 
910	 6.33284222020395E-02 
911	 6.36676763928128E-02 
912	 6.42765772129207E-02 
913	 6.48418831058771E-02 
914	 6.53072340923965E-02 
915	 6.57568273375222E-02 
916	 6.63930765967487E-02 
917	 6.70766619454901E-02 
918	 6.76830887438446E-02 
919	 6.81940064610326E-02 
920	 6.87727502739161E-02 
921	 6.92986800349028E-02 
922	 6.98063774743075E-02 
923	 7.03797092475277E-02 
924	 7.11292272195261E-02 
925	 7.18665944628462E-02 
926	 7.25180468296765E-02 
927	 7.31052386721539E-02 
928	 7.37899341517598E-02 
929	 7.46440672529552E-02 
930	 7.54157269973906E-02 
931	 7.58847501908589E-02 
932	 7.65380142459427E-02 
933	 7.74681885299518E-02 
934	 7.83809348936686E-02 
935	 7.89355051216001E-02 
936	 7.96880849588498E-02 
937	 8.05643235193304E-02 
938	 8.14582563212463E-02 
939	 8.22840669493489E-02 
940	 8.30969867962541E-02 
941	 8.39437449305267E-02 
942	 8.48088188257937E-02 
943	 8.56413203997274E-02 
944	 8.65358152120018E-02 
945	 8.75285880102425E-02 
946	 8.86017693600102E-02 
947	 0.08966777306686 
948	 9.03998688353734E-02 
949	 9.13268528589947E-02 
950	 9.25561373047857E-02 
951	 9.35323606361721E-02 
952	 9.42142354034124E-02 
953	 0.095041107182236 
954	 9.62506839259146E-02 
955	 9.76180269321479E-02 
956	 9.83303342440831E-02 
957	 9.91227990393934E-02 
958	 0.100449545250941 
959	 0.101701610491127 
960	 0.102661312910579 
961	 0.103726739659779 
962	 0.104980351564993 
963	 0.105596525542082 
964	 0.106804477672459 
965	 0.108234226814285 
966	 0.109311495678282 
967	 0.109990750937309 
968	 0.111402670373942 
969	 0.112826543721317 
970	 0.1136615015122 
971	 0.115007663112903 
972	 0.116337685176859 
973	 0.117547798603533 
974	 0.118637996692607 
975	 0.119514321447398 
976	 0.120801373966815 
977	 0.122246057334539 
978	 0.12346187625207 
979	 0.124611479963513 
980	 0.125721909127918 
981	 0.126953507927715 
982	 0.128367510470097 
983	 0.12963047087591 
984	 0.130660141797627 
985	 0.131896485464756 
986	 0.133588694686323 
987	 0.134747935820863 
988	 0.136226956001276 
989	 0.137721968344063 
990	 0.13876461534022 
991	 0.139763365804171 
992	 0.141066943658829 
993	 0.142460846062437 
994	 0.143549342411918 
995	 0.144072110561005 
996	 0.145345623293796 
997	 0.147293130966483 
998	 0.149158961028477 
999	 0.149943504063799 
1000	 0.151015494876455 
1001	 0.153408620152285 
1002	 0.154811574742915 
1003	 0.15610387626264 
1004	 0.157404722872956 
1005	 0.159006537519309 
1006	 0.160356137793224 
1007	 0.16147547897443 
1008	 0.162620754832921 
1009	 0.163671413319374 
1010	 0.164896095870158 
1011	 0.166190187013589 
1012	 0.16737261186556 
1013	 0.168616432456811 
1014	 0.169894465150888 
1015	 0.171089630290665 
1016	 0.172185510538284 
1017	 0.173609564515598 
1018	 0.174926056817569 
1019	 0.176272928732762 
1020	 0.177730498352738 
1021	 0.178962870975323 
1022	 0.180064173853735 
1023	 0.181325789316899 
1024	 0.182518622814234 
1025	 0.183708982761711 
1026	 0.18494202241973 
1027	 0.186239072676947 
1028	 0.187592492040458 
1029	 0.188819365399434 
1030	 0.189931225343989 
1031	 0.191356320693474 
1032	 0.192669863995551 
1033	 0.193838651608457 
1034	 0.195092370345397 
1035	 0.1962175470871 
1036	 0.197336726906524 
1037	 0.198296917045515 
1038	 0.199367523505064 
1039	 0.200490862554556 
1040	 0.201638344872915 
1041	 0.202770287890745 
1042	 0.203877893260609 
1043	 0.205025028618701 
1044	 0.20623106567084 
1045	 0.207256858100469 
1046	 0.208268486350081 
1047	 0.209259544710118 
1048	 0.210290000438282 
1049	 0.21138014406479 
1050	 0.212460153160543 
1051	 0.213638195594582 
1052	 0.214820620822609 
1053	 0.215895220202935 
1054	 0.216880328039658 
1055	 0.217962318111229 
1056	 0.219046786468566 
1057	 0.220001517960832 
1058	 0.220924249433818 
1059	 0.221900922741294 
1060	 0.222759505866488 
1061	 0.223641942363724 
1062	 0.224633017990124 
1063	 0.225701144539197 
1064	 0.226656963992945 
1065	 0.227615678019909 
1066	 0.228604309812212 
1067	 0.229447740755861 
1068	 0.230403632359756 
1069	 0.231430325967298 
1070	 0.232378937292959 
1071	 0.233298766864416 
1072	 0.234288926319329 
1073	 0.235237579657372 
1074	 0.236025389937948 
1075	 0.23685233218288 
1076	 0.237741141112853 
1077	 0.238590181747386 
1078	 0.239468167135483 
1079	 0.240357427931629 
1080	 0.241218420464476 
1081	 0.242010783001944 
1082	 0.242869495927536 
1083	 0.243802372363998 
1084	 0.244630238276046 
1085	 0.245353851032367 
1086	 0.246099569697563 
1087	 0.246765921660159 
1088	 0.247566175599623 
1089	 0.248415377341203 
1090	 0.249204504809242 
1091	 0.249947975135679 
1092	 0.250539728915596 
1093	 0.251116444042373 
1094	 0.251749251209748 
1095	 0.252498186301927 
1096	 0.253339690003944 
1097	 0.254101420092607 
1098	 0.254770845802099 
1099	 0.255386656779498 
1100	 0.25589907097705 
1101	 0.256478814575292 
1102	 0.257264532103464 
1103	 0.257943013190975 
1104	 0.25865674333839 
1105	 0.259323429403607 
1106	 0.259965728449805 
1107	 0.260498113694111 
1108	 0.261085910886473 
1109	 0.261738125801654 
1110	 0.262351214330943 
1111	 0.262880337750454 
1112	 0.263440565464104 
1113	 0.26413085209432 
1114	 0.264795332564417 
1115	 0.265392948090271 
1116	 0.265864096418482 
1117	 0.26629859818325 
1118	 0.266803877598718 
1119	 0.267235029748006 
1120	 0.267787398645298 
1121	 0.268503952163986 
1122	 0.269116450278424 
1123	 0.269582839930068 
1124	 0.270044945646846 
1125	 0.270451327385088 
1126	 0.270931494397465 
1127	 0.271455475814795 
1128	 0.272031403880121 
1129	 0.272612381593217 
1130	 0.27307681838412 
1131	 0.273511810066108 
1132	 0.273912354480854 
1133	 0.274313197441189 
1134	 0.274671582021138 
1135	 0.275078527556907 
1136	 0.275584309399252 
1137	 0.276002347394815 
1138	 0.276373118069036 
1139	 0.276745172089181 
1140	 0.277096147183417 
1141	 0.277391844612975 
1142	 0.277727441604496 
1143	 0.278137899257709 
1144	 0.278542696712966 
1145	 0.278896300028967 
1146	 0.279280957613591 
1147	 0.279673747656491 
1148	 0.279997650066284 
1149	 0.280324542933631 
1150	 0.280625506178651 
1151	 0.280860729420184 
1152	 0.281159100741252 
1153	 0.281510243894371 
1154	 0.281829553559993 
1155	 0.2821842359107 
1156	 0.282490460624687 
1157	 0.282772987995223 
1158	 0.283020645611587 
1159	 0.283217710060744 
1160	 0.283399540670571 
1161	 0.283637887792759 
1162	 0.283946594554538 
1163	 0.284298024109713 
1164	 0.284604127593956 
1165	 0.284883655022166 
1166	 0.285131209251414 
1167	 0.285375900156683 
1168	 0.285616162210647 
1169	 0.285824900185205 
1170	 0.286001440823569 
1171	 0.286210403440273 
1172	 0.28642237024961 
1173	 0.286605439734552 
1174	 0.28680400887244 
1175	 0.286963498740711 
1176	 0.287026962900273 
1177	 0.28718695741681 
1178	 0.287406991053937 
1179	 0.287602742256658 
1180	 0.28779762825614 
1181	 0.287950603901245 
1182	 0.288112071648721 
1183	 0.288287724125809 
1184	 0.28840158682861 
1185	 0.288523560876934 
1186	 0.288661484015036 
1187	 0.288735594938224 
1188	 0.288892301499714 
1189	 0.289153850040375 
1190	 0.289324454214058 
1191	 0.289458467052384 
1192	 0.289600252505069 
1193	 0.289689080546556 
1194	 0.289856964110316 
1195	 0.290065926987692 
1196	 0.290282930640385 
1197	 0.290533125704113 
1198	 0.290813950739687 
1199	 0.291047945096848 
1200	 0.291244391513515 
1201	 0.291489300069426 
1202	 0.291610692134536 
1203	 0.291765438244956 
1204	 0.292094351656911 
1205	 0.292342183224534 
1206	 0.292579538357356 
1207	 0.292879872867042 
1208	 0.293168514898668 
1209	 0.293505430707794 
1210	 0.29392159501251 
1211	 0.294322859630274 
1212	 0.294753310138381 
1213	 0.29518244244756 
1214	 0.295606819818421 
1215	 0.296056978904455 
1216	 0.296498119674743 
1217	 0.296981884071112 
1218	 0.297512078404775 
1219	 0.29805238169862 
1220	 0.298595903800439 
1221	 0.299134554668804 
1222	 0.299641936161534 
1223	 0.30021261723246 
1224	 0.300750668281683 
1225	 0.30130827323036 
1226	 0.301815426492925 
1227	 0.302282747304902 
1228	 0.302770723196643 
1229	 0.30323869633108 
1230	 0.30373152363469 
1231	 0.304277630693068 
1232	 0.304747603129679 
1233	 0.305203775625205 
1234	 0.30562008300089 
1235	 0.305928252690864 
1236	 0.306318156161273 
1237	 0.306730112961135 
1238	 0.307139217679443 
1239	 0.307600080160663 
1240	 0.308039138967674 
1241	 0.308408626560475 
1242	 0.308804555070816 
1243	 0.309197305964722 
1244	 0.309580187307106 
1245	 0.309954312458339 
1246	 0.310369539341501 
1247	 0.31068600874337 
1248	 0.310935288680539 
1249	 0.311208075131573 
1250	 0.311421428750063 
1251	 0.311676503993536 
1252	 0.311955614239449 
1253	 0.312234771725811 
1254	 0.312493730936328 
1255	 0.312802831963361 
1256	 0.313187547651128 
1257	 0.31349881380865 
1258	 0.313799559509174 
1259	 0.314103842886801 
1260	 0.314363355369875 
1261	 0.31462624421475 
1262	 0.314875249305564 
1263	 0.315169206251131 
1264	 0.315480858950753 
1265	 0.31581105563745 
1266	 0.316082572339441 
1267	 0.316359715555422 
1268	 0.316650434037268 
1269	 0.316901820931162 
1270	 0.317153039768062 
1271	 0.31747208111672 
1272	 0.317702207420429 
1273	 0.317778237485269 
1274	 0.31802139103846 
1275	 0.318339546986407 
1276	 0.318630568170913 
1277	 0.319035644572839 
1278	 0.31933738288358 
1279	 0.319571556685097 
1280	 0.319793432652335 
1281	 0.319919690171968 
1282	 0.320130287941963 
1283	 0.320354085675523 
1284	 0.320603142020705 
1285	 0.320887006565243 
1286	 0.321245062625138 
1287	 0.32155774856309 
1288	 0.321884349281545 
1289	 0.322155659256972 
1290	 0.322418268322633 
1291	 0.322648480547609 
1292	 0.322796598309746 
1293	 0.323026417861388 
1294	 0.323296620204736 
1295	 0.323523284296426 
1296	 0.323780767633224 
1297	 0.323986020803867 
1298	 0.324094137802997 
1299	 0.324292528900209 
1300	 0.324539386088821 
1301	 0.324749376665876 
1302	 0.324991206995819 
1303	 0.325207378145162 
1304	 0.325373559837791 
1305	 0.325556939999774 
1306	 0.325769456465365 
1307	 0.325949644754389 
1308	 0.32609539766126 
1309	 0.326261289789957 
1310	 0.326406208943675 
1311	 0.326516698871285 
1312	 0.326681547688781 
1313	 0.326865702931789 
1314	 0.32704568310073 
1315	 0.327260657974927 
1316	 0.327435101220471 
1317	 0.327554825359252 
1318	 0.327760099402469 
1319	 0.32798112551507 
1320	 0.328229204456902 
1321	 0.328553454821775 
1322	 0.328835977217862 
1323	 0.329138580188156 
1324	 0.32938244168869 
1325	 0.329579065332362 
1326	 0.329800646627828 
1327	 0.330013612086814 
1328	 0.330198002290317 
1329	 0.330430123161153 
1330	 0.33057237337091 
1331	 0.330637991120366 
1332	 0.33068728843699 
1333	 0.330683313220225 
1334	 0.330646831528662 
1335	 0.330679447663056 
1336	 0.330712575393342 
1337	 0.330765475538284 
1338	 0.330846593237544 
1339	 0.330969840324255 
1340	 0.331080696374428 
1341	 0.331279162207042 
1342	 0.331554452678022 
1343	 0.331840372844193 
1344	 0.332202036334263 
1345	 0.33249426764207 
1346	 0.332817731290401 
1347	 0.333064863423583 
1348	 0.333241031412002 
1349	 0.33343142797886 
1350	 0.333605819890075 
1351	 0.333755342897726 
1352	 0.333892075444132 
1353	 0.334011052437243 
1354	 0.334081473097894 
1355	 0.334183092901935 
1356	 0.33432536275658 
1357	 0.33440320703135 
1358	 0.334432772882835 
1359	 0.334495905080734 
1360	 0.334537511402916 
1361	 0.334586089614162 
1362	 0.334647094505317 
1363	 0.334674180977618 
1364	 0.334684387453928 
1365	 0.334624823734951 
1366	 0.334641402700722 
1367	 0.334708040590153 
1368	 0.334701962550182 
1369	 0.334692340699419 
1370	 0.334664791416627 
1371	 0.334599245791054 
1372	 0.334518813690675 
1373	 0.334441083530119 
1374	 0.334333928350562 
1375	 0.334205123926954 
1376	 0.334030054365797 
1377	 0.333821187729832 
1378	 0.333610702145773 
1379	 0.333343776891681 
1380	 0.333092193874248 
1381	 0.332874383374078 
1382	 0.332605880103038 
1383	 0.332297174874198 
1384	 0.331993549391504 
1385	 0.331648075906712 
1386	 0.331335326310484 
1387	 0.331002003105726 
1388	 0.330733947763817 
1389	 0.330521393533862 
1390	 0.330315119248465 
1391	 0.330128858070131 
1392	 0.32999138458461 
1393	 0.329854644402738 
1394	 0.329716114909747 
1395	 0.329682868564413 
1396	 0.329745413265815 
1397	 0.329729861053726 
1398	 0.329761081566031 
1399	 0.329740659680018 
1400	 0.329698482166125 
1401	 0.329571215586747 
1402	 0.329443178720102 
1403	 0.3292095546444 
1404	 0.328864381286025 
1405	 0.328494212931866 
1406	 0.328046701196469 
1407	 0.327623581550786 
1408	 0.327154920441427 
1409	 0.326689355544931 
1410	 0.326216528196101 
1411	 0.325768106769301 
1412	 0.325265864690986 
1413	 0.324859332131299 
1414	 0.324528466246089 
1415	 0.324199056498606 
1416	 0.323933942797039 
1417	 0.323642512893109 
1418	 0.323298229718403 
1419	 0.323047377437635 
1420	 0.322859754345601 
1421	 0.322653100546901 
1422	 0.322518160186371 
1423	 0.322354950173984 
1424	 0.322161826417393 
1425	 0.321965541551006 
1426	 0.321769190963574 
1427	 0.321538554617541 
1428	 0.321312608566874 
1429	 0.32111006619974 
1430	 0.320943560482683 
1431	 0.32082204623732 
1432	 0.320684571385829 
1433	 0.320575491047809 
1434	 0.320428016055401 
1435	 0.320279919059508 
1436	 0.320096389432258 
1437	 0.319868650940605 
1438	 0.319673700229602 
1439	 0.319455348868864 
1440	 0.319282827109369 
1441	 0.319125768814407 
1442	 0.319012832517544 
1443	 0.318936674330165 
1444	 0.318866244616935 
1445	 0.318821068536396 
1446	 0.318805719163496 
1447	 0.318792065702131 
1448	 0.318831630036831 
1449	 0.318901337794261 
1450	 0.319033441096613 
1451	 0.319230435524985 
1452	 0.319436304310439 
1453	 0.319758738120805 
1454	 0.319969637094804 
1455	 0.320138691170811 
1456	 0.32029152417425 
1457	 0.320357498063311 
1458	 0.320470512387579 
1459	 0.320609049444069 
1460	 0.320734621165563 
1461	 0.3209237422601 
1462	 0.321009420230926 
1463	 0.321080798810882 
1464	 0.321051349935885 
1465	 0.320909070391828 
1466	 0.320716108139315 
1467	 0.32052594048757 
1468	 0.320246598526165 
1469	 0.319858945246785 
1470	 0.319430308498289 
1471	 0.318902556074955 
1472	 0.318240831686975 
1473	 0.31756851842553 
1474	 0.316855670069583 
1475	 0.316073099047252 
1476	 0.31522594712594 
1477	 0.314304648119874 
1478	 0.313332264214984 
1479	 0.312277827015702 
1480	 0.311148951678695 
1481	 0.309933282959656 
1482	 0.308607014374418 
1483	 0.307282928854538 
1484	 0.305880712793361 
1485	 0.304473550466239 
1486	 0.303031984033682 
1487	 0.301628459208786 
1488	 0.300164163541917 
1489	 0.298798842812992 
1490	 0.297413310711826 
1491	 0.296230939122989 
1492	 0.295090200590631 
1493	 0.294188891082849 
1494	 0.293521427549221 
1495	 0.292939640128373 
1496	 0.292495535569074 
1497	 0.292198348216364 
1498	 0.292023657792518 
1499	 0.292002215640061 
1500	 0.292042700528529 
1501	 0.292424595775205 
1502	 0.292829059441239 
1503	 0.293819175141407 
1504	 0.295190643951876 
1505	 0.297001677738518 
1506	 0.299419597862575 
1507	 0.302006069177901 
1508	 0.305207649295122 
1509	 0.308208945885059 
1510	 0.311608350467446 
1511	 0.314514226213802 
1512	 0.317302846394404 
1513	 0.319693789687943 
1514	 0.321639854301642 
1515	 0.32341903281825 
1516	 0.324782042563477 
1517	 0.326129523741667 
1518	 0.327270759130535 
1519	 0.328388155564623 
1520	 0.329427149384594 
1521	 0.33042192351522 
1522	 0.3313891115664 
1523	 0.332436437378432 
1524	 0.333453419116332 
1525	 0.334506727505424 
1526	 0.335509345773121 
1527	 0.336496227835459 
1528	 0.337436009716635 
1529	 0.33835834703595 
1530	 0.339227159284799 
1531	 0.340053923304856 
1532	 0.340833069586141 
1533	 0.341597909138746 
1534	 0.342238293933193 
1535	 0.342764677412652 
1536	 0.343332984309604 
1537	 0.343822323545646 
1538	 0.34435756236199 
1539	 0.344929404403878 
1540	 0.345474250518612 
1541	 0.345988889235084 
1542	 0.346529580112118 
1543	 0.347086671809027 
1544	 0.347634052575495 
1545	 0.34820233721029 
1546	 0.348712737197923 
1547	 0.349208356644273 
1548	 0.349671392689937 
1549	 0.350056416525802 
1550	 0.350512175706449 
1551	 0.350990223356666 
1552	 0.351449541724117 
1553	 0.351943380873762 
1554	 0.352390960357645 
1555	 0.352794813449339 
1556	 0.353216825162671 
1557	 0.353659134338166 
1558	 0.354040050881332 
1559	 0.354393654886501 
1560	 0.354735109957857 
1561	 0.354997270760621 
1562	 0.355335399086639 
1563	 0.355732251698378 
1564	 0.356069257078657 
1565	 0.356399664983667 
1566	 0.356735729627019 
1567	 0.357035217011203 
1568	 0.35735172348181 
1569	 0.357709387337519 
1570	 0.358027134057982 
1571	 0.358305921860746 
1572	 0.358605968248088 
1573	 0.358902199259277 
1574	 0.359205123342245 
1575	 0.359529763244315 
1576	 0.359826376662108 
1577	 0.360119719763946 
1578	 0.360393458252176 
1579	 0.360627743719142 
1580	 0.360889817175213 
1581	 0.361142106891592 
1582	 0.361417885693441 
1583	 0.361721856530982 
1584	 0.362020842048961 
1585	 0.362333171094388 
1586	 0.362638441235216 
1587	 0.362959760738828 
1588	 0.363244873762787 
1589	 0.363507761884531 
1590	 0.363770558563114 
1591	 0.364023609000421 
1592	 0.364249188402704 
1593	 0.36443225592527 
1594	 0.364663697747012 
1595	 0.364895666010492 
1596	 0.36513222363332 
1597	 0.365408710074664 
1598	 0.365675628530052 
1599	 0.365950925741638 
1600	 0.366186151299348 
1601	 0.366363825213554 
1602	 0.366623398829764 
1603	 0.366948090747541 
1604	 0.367181511559198 
1605	 0.367449518165831 
1606	 0.367662301574433 
1607	 0.367738478587072 
1608	 0.36785902264237 
1609	 0.367996074887283 
1610	 0.368139382054789 
1611	 0.368277192949821 
1612	 0.368413688229599 
1613	 0.368558466956321 
1614	 0.368713687260931 
1615	 0.368850989684497 
1616	 0.369021572526814 
1617	 0.369241674353687 
1618	 0.369435603832381 
1619	 0.369646872872586 
1620	 0.36982636706946 
1621	 0.369981563366334 
1622	 0.370120443718414 
1623	 0.370257381768902 
1624	 0.370352014741699 
1625	 0.370402272498689 
1626	 0.370458672758823 
1627	 0.370454278211566 
1628	 0.370500747090112 
1629	 0.370578285137844 
1630	 0.370657082126373 
1631	 0.370766091175276 
1632	 0.370866179495844 
1633	 0.370955628676792 
1634	 0.371068221176672 
1635	 0.371201320547393 
1636	 0.371321978765239 
1637	 0.371438629385282 
1638	 0.371566334687877 
1639	 0.371737752863914 
1640	 0.371834626258283 
1641	 0.371896426359847 
1642	 0.371958310830484 
1643	 0.371936229389192 
1644	 0.37196891576379 
1645	 0.372081595668352 
1646	 0.372129967831385 
1647	 0.372155299354568 
1648	 0.372171874031509 
1649	 0.372177699593445 
1650	 0.372117689381974 
1651	 0.371995913963251 
1652	 0.371912999098365 
1653	 0.371791714270091 
1654	 0.371684071525689 
1655	 0.371613615491314 
1656	 0.371537026537961 
1657	 0.371496834296 
1658	 0.371357466246125 
1659	 0.371228411222287 
1660	 0.370978384945493 
1661	 0.370546399269351 
1662	 0.370177692421727 
1663	 0.36979281708267 
1664	 0.369394364456734 
1665	 0.369048793031111 
1666	 0.368585811236951 
1667	 0.368034660574516 
1668	 0.367459387862807 
1669	 0.366845264269674 
1670	 0.366149728452661 
1671	 0.365415606797842 
1672	 0.364586705131054 
1673	 0.363626719538982 
1674	 0.362676367530942 
1675	 0.361705303192812 
1676	 0.360670199677456 
1677	 0.359620153251974 
1678	 0.358476685876297 
1679	 0.357232794122158 
1680	 0.355941553096453 
1681	 0.354582445834267 
1682	 0.353175117023247 
1683	 0.3517075004313 
1684	 0.350221890875628 
1685	 0.348711539164541 
1686	 0.347124712749967 
1687	 0.345467364919633 
1688	 0.343760158016776 
1689	 0.341988849996045 
1690	 0.34016438068928 
1691	 0.338312320161447 
1692	 0.336409240620635 
1693	 0.334416121889302 
1694	 0.332431608681088 
1695	 0.330398573223871 
1696	 0.32838441361803 
1697	 0.326397309222462 
1698	 0.324284884171546 
1699	 0.32212049067713 
1700	 0.319981642905619 
1701	 0.317733060820091 
1702	 0.315646809016237 
1703	 0.313593435041181 
1704	 0.311662814780094 
1705	 0.309802935282663 
1706	 0.307935144399096 
1707	 0.306329573740914 
1708	 0.304785584947084 
1709	 0.303396960651848 
1710	 0.302154333043087 
1711	 0.30096819823132 
1712	 0.299888630497944 
1713	 0.298772614117997 
1714	 0.297698131604081 
1715	 0.296828504972603 
1716	 0.295992200110399 
1717	 0.295241956451849 
1718	 0.29466770463976 
1719	 0.294009774436602 
1720	 0.293303551332705 
1721	 0.292683222705646 
1722	 0.292103752814501 
1723	 0.291671384557617 
1724	 0.291423260493991 
1725	 0.291304766378057 
1726	 0.29135574192974 
1727	 0.291512961310389 
1728	 0.291700551626113 
1729	 0.292071296179048 
1730	 0.292591499365101 
1731	 0.293185240943508 
1732	 0.294007318275177 
1733	 0.294947779284187 
1734	 0.295993680724776 
1735	 0.29712831226308 
1736	 0.298241892473709 
1737	 0.299275366628908 
1738	 0.300072079919267 
1739	 0.300744913090254 
1740	 0.301254968625245 
1741	 0.301643974734359 
1742	 0.301890944888296 
1743	 0.302079947592474 
1744	 0.302145880726825 
1745	 0.302127806612021 
1746	 0.302011279799458 
1747	 0.30187636601929 
1748	 0.301569964643073 
1749	 0.301431895493562 
1750	 0.301332913608039 
1751	 0.301276984787885 
1752	 0.30130183114814 
1753	 0.301382715963645 
1754	 0.301469845237655 
1755	 0.30170554803612 
1756	 0.302004901404599 
1757	 0.302390967290519 
1758	 0.303023165424936 
1759	 0.303653629884008 
1760	 0.304421376447933 
1761	 0.305332822350063 
1762	 0.306151954304897 
1763	 0.307109112566603 
1764	 0.308217784958159 
1765	 0.309370963409422 
1766	 0.310669264361198 
1767	 0.312018349388427 
1768	 0.313497760194967 
1769	 0.315050484517115 
1770	 0.316516392251832 
1771	 0.318004595652874 
1772	 0.319412061250318 
1773	 0.320673463413971 
1774	 0.321933333765753 
1775	 0.323145471349712 
1776	 0.324193743555206 
1777	 0.32515780292753 
1778	 0.326046385161159 
1779	 0.326814292109411 
1780	 0.327528721736008 
1781	 0.328201892941854 
1782	 0.3289284663575 
1783	 0.329687406476191 
1784	 0.330321167459459 
1785	 0.330934589659137 
1786	 0.331457123091916 
1787	 0.331790744449918 
1788	 0.332183720733851 
1789	 0.332571741429226 
1790	 0.332859540028827 
1791	 0.333106365851718 
1792	 0.333397253873711 
1793	 0.333668573455448 
1794	 0.333892560694554 
1795	 0.334076897391399 
1796	 0.334277940113979 
1797	 0.334590561771756 
1798	 0.334989843926475 
1799	 0.335388496909509 
1800	 0.335738177835369 
1801	 0.337247217449045 
1802	 0.337489264328632 
1803	 0.337748268239744 
1804	 0.338044478909522 
1805	 0.338248200216367 
1806	 0.33849077241199 
1807	 0.338745041552922 
1808	 0.339023434732553 
1809	 0.339330192039418 
1810	 0.339598079210521 
1811	 0.339855157895146 
1812	 0.340118879384499 
1813	 0.340307974198996 
1814	 0.340568316808351 
1815	 0.340946336245807 
1816	 0.341413267706966 
1817	 0.341755289748462 
1818	 0.342087022512668 
1819	 0.342413695687671 
1820	 0.342603930967426 
1821	 0.342922946330032 
1822	 0.343317383301495 
1823	 0.343787238294416 
1824	 0.3441599047613 
1825	 0.344501728065517 
1826	 0.344823184842105 
1827	 0.34505615748804 
1828	 0.345379513312842 
1829	 0.345741762207533 
1830	 0.346081495196909 
1831	 0.346476075844154 
1832	 0.34679397738251 
1833	 0.347039104891892 
1834	 0.347353665957 
1835	 0.347626969730977 
1836	 0.347906007592976 
1837	 0.348238765982284 
1838	 0.34861918337045 
1839	 0.348954542779839 
1840	 0.349350447729084 
1841	 0.349675105302068 
1842	 0.349906834079067 
1843	 0.350210497899346 
1844	 0.350596187215358 
1845	 0.350879777396516 
1846	 0.351245665655808 
1847	 0.351555969611476 
1848	 0.351819524812923 
1849	 0.352022472892432 
1850	 0.352221300493061 
1851	 0.35237520007633 
1852	 0.352588967222087 
1853	 0.352666439759849 
1854	 0.352718327687983 
1855	 0.352835399933056 
1856	 0.352848825030414 
1857	 0.352927663724452 
1858	 0.352980362874653 
1859	 0.352973921416439 
1860	 0.352952535877269 
1861	 0.352828199699788 
1862	 0.352610869018061 
1863	 0.352413831130077 
1864	 0.352120478197978 
1865	 0.351800249042768 
1866	 0.351540529948859 
1867	 0.351218840206384 
1868	 0.350949762752143 
1869	 0.350669151980233 
1870	 0.350237561477476 
1871	 0.349724232261662 
1872	 0.349153011699537 
1873	 0.348475049131805 
1874	 0.347733329137127 
1875	 0.346984101378805 
1876	 0.346175092103117 
1877	 0.345278270407242 
1878	 0.344235210595696 
1879	 0.343075577490997 
1880	 0.341929168984863 
1881	 0.34066298912372 
1882	 0.339291914620739 
1883	 0.337860028640438 
1884	 0.336345091704715 
1885	 0.334665576531668 
1886	 0.332967754897981 
1887	 0.331238866474687 
1888	 0.329516279898936 
1889	 0.327898046326008 
1890	 0.326376453241811 
1891	 0.324935859781885 
1892	 0.32344912269663 
1893	 0.321907146174948 
1894	 0.320326123435482 
1895	 0.318774685409212 
1896	 0.31706984310255 
1897	 0.315369488628821 
1898	 0.313848209443027 
1899	 0.312189601506176 
1900	 0.310536518536808 
1901	 0.3089266780734 
1902	 0.307209795574537 
1903	 0.305535215328275 
1904	 0.303914798280596 
1905	 0.302325766427276 
1906	 0.300789465585512 
1907	 0.299363698464459 
1908	 0.297990986681586 
1909	 0.296683136617318 
1910	 0.295473458624356 
1911	 0.294293695728613 
1912	 0.293198577398247 
1913	 0.292137314287718 
1914	 0.291163902012092 
1915	 0.290284909003499 
1916	 0.289522552626107 
1917	 0.288727064507669 
1918	 0.288079115176049 
1919	 0.287501279816458 
1920	 0.286824805930067 
1921	 0.286289921815667 
1922	 0.285777928117181 
1923	 0.28526129102755 
1924	 0.284883168369504 
1925	 0.284516056044425 
1926	 0.284178230429708 
1927	 0.283822987626952 
1928	 0.283578185331032 
1929	 0.28340224821337 
1930	 0.283296906254582 
1931	 0.283194796764099 
1932	 0.283122860379459 
1933	 0.283041791198618 
1934	 0.283029404972877 
1935	 0.283035478065252 
1936	 0.28307998934352 
1937	 0.283202131363952 
1938	 0.283362059947101 
1939	 0.283542641112896 
1940	 0.283768987319063 
1941	 0.284123517796599 
1942	 0.284388402421085 
1943	 0.28470211699118 
1944	 0.28505772898692 
1945	 0.285420687859705 
1946	 0.285884691767671 
1947	 0.286274518454178 
1948	 0.28672956048729 
1949	 0.287275998290958 
1950	 0.287773579006258 
1951	 0.288277927513772 
1952	 0.288804027722474 
1953	 0.289332966707972 
1954	 0.289830054271842 
1955	 0.290427597614853 
1956	 0.291014870933141 
1957	 0.291646518225614 
1958	 0.292266189836533 
1959	 0.292785250790011 
1960	 0.293357174146869 
1961	 0.293871763675098 
1962	 0.294361734770479 
1963	 0.294797472203331 
1964	 0.295214999408868 
1965	 0.295543097651967 
1966	 0.295810900318192 
1967	 0.296018551608778 
1968	 0.296173039346517 
1969	 0.296340701965658 
1970	 0.296532234519388 
1971	 0.296759509431947 
1972	 0.296978895260836 
1973	 0.297178644933839 
1974	 0.297372181192796 
1975	 0.297498942989247 
1976	 0.297719645155811 
1977	 0.297970682156737 
1978	 0.298245676837689 
1979	 0.298534905868453 
1980	 0.298928024965079 
1981	 0.299302230377025 
1982	 0.299775820319278 
1983	 0.300434299992997 
1984	 0.301128175647664 
1985	 0.30188425481844 
1986	 0.302746642686561 
1987	 0.303566174754095 
1988	 0.304428350765197 
1989	 0.305221755564144 
1990	 0.306005014168792 
1991	 0.306735657546375 
1992	 0.307407222289286 
1993	 0.308052313933533 
1994	 0.30872695227267 
1995	 0.309441308886541 
1996	 0.310120582641517 
1997	 0.310797962191671 
1998	 0.311420606316452 
1999	 0.311997422717319 
2000	 0.31254529692207 
2001	 0.313074638940783 
2002	 0.313550762385701 
2003	 0.31401508140206 
2004	 0.314372636405702 
2005	 0.314614462288882 
2006	 0.314869997918575 
2007	 0.315045036327539 
2008	 0.31526793889919 
2009	 0.31544233496882 
2010	 0.315565700778162 
2011	 0.315630111159359 
2012	 0.315534351755841 
2013	 0.315426955493059 
2014	 0.315304208473511 
2015	 0.315057301498672 
2016	 0.314677369112911 
2017	 0.314310752717145 
2018	 0.31385746596854 
2019	 0.313390913827221 
2020	 0.312897473509412 
2021	 0.312423840739281 
2022	 0.311863742018027 
2023	 0.311252661237093 
2024	 0.31064983267529 
2025	 0.310001327120705 
2026	 0.309431868132874 
2027	 0.308858119954886 
2028	 0.3083665757777 
2029	 0.307988559799724 
2030	 0.307555614539923 
2031	 0.307199296730098 
2032	 0.30675249828291 
2033	 0.30634257210385 
2034	 0.305751958436234 
2035	 0.305113179011371 
2036	 0.304257969725462 
2037	 0.303351800207684 
2038	 0.302219880651152 
2039	 0.301140809520183 
2040	 0.299926092281767 
2041	 0.298882757570071 
2042	 0.297687148095643 
2043	 0.296966359063168 
2044	 0.296374793327512 
2045	 0.296161838664863 
2046	 0.296470430427885 
2047	 0.296707566477327 
2048	 0.297209458504635 
2049	 0.297698766936759 
2050	 0.29835237917051 
2051	 0.29884284823826 
2052	 0.299305194066118 
2053	 0.299691377173739 
2054	 0.299968508976892 
2055	 0.300038195750047 
2056	 0.300172898833198 
2057	 0.300262585291028 
2058	 0.30037120572084 
2059	 0.300401394780878 
2060	 0.300532516526954 
2061	 0.300678376928544 
2062	 0.300923051625874 
2063	 0.301242411790605 
2064	 0.301604037957031 
2065	 0.302041629427309 
2066	 0.302520410328808 
2067	 0.303098933648072 
2068	 0.303642804240092 
2069	 0.304132594712097 
2070	 0.30465255741699 
2071	 0.305095266966826 
2072	 0.305440930551472 
2073	 0.305818623375354 
2074	 0.306233699407012 
2075	 0.306533781474961 
2076	 0.306786197824501 
2077	 0.306969926764171 
2078	 0.307089631040269 
2079	 0.307143071654799 
2080	 0.307089730130359 
2081	 0.307050248953427 
2082	 0.306967334099273 
2083	 0.306822978581886 
2084	 0.3067105979127 
2085	 0.306642391202415 
2086	 0.306546846274449 
2087	 0.306442188838157 
2088	 0.306332590002515 
2089	 0.306215007493507 
2090	 0.306101552375886 
2091	 0.306006948582524 
2092	 0.30588127080148 
2093	 0.30575688889842 
2094	 0.305592921907837 
2095	 0.305372177898825 
2096	 0.305163650904535 
2097	 0.304910885563642 
2098	 0.304713768704355 
2099	 0.304548969331563 
2100	 0.304340869346885 
2101	 0.304154471924373 
2102	 0.304019377545217 
2103	 0.303784826875132 
2104	 0.303529570064828 
2105	 0.303206657625262 
2106	 0.302789129764274 
2107	 0.302385984061642 
2108	 0.301929371116978 
2109	 0.301510586176689 
2110	 0.301117428538222 
2111	 0.300685626923323 
2112	 0.300211397257383 
2113	 0.299779788946321 
2114	 0.299403710196583 
2115	 0.298932746380893 
2116	 0.298423854020617 
2117	 0.297944792844531 
2118	 0.297411545284494 
2119	 0.296752371324266 
2120	 0.296216052995048 
2121	 0.295731639839168 
2122	 0.29525059781264 
2123	 0.294804579344933 
2124	 0.294336327166666 
2125	 0.293864154401654 
2126	 0.293414833836103 
2127	 0.292916203555439 
2128	 0.292533242632467 
2129	 0.292262516514958 
2130	 0.291943865740768 
2131	 0.291663151114159 
2132	 0.291391889953981 
2133	 0.291096892127264 
2134	 0.290809928188952 
2135	 0.290587720923038 
2136	 0.290384881492668 
2137	 0.290238427656561 
2138	 0.290148065018705 
2139	 0.290013205581234 
2140	 0.289931404567613 
2141	 0.289800613834051 
2142	 0.289585707835016 
2143	 0.289458296308574 
2144	 0.289332281980924 
2145	 0.289288174825813 
2146	 0.289325640606361 
2147	 0.289361022595111 
2148	 0.289475403096954 
2149	 0.289540545271047 
2150	 0.289577343130803 
2151	 0.289629609728476 
2152	 0.289646347313331 
2153	 0.289744891873518 
2154	 0.289819902395835 
2155	 0.289937147698195 
2156	 0.290020608710553 
2157	 0.290117599666133 
2158	 0.290164662670829 
2159	 0.290168075382584 
2160	 0.290213143133714 
2161	 0.290241626519817 
2162	 0.290292983004898 
2163	 0.290400370303909 
2164	 0.290445559414714 
2165	 0.29046957084652 
2166	 0.29048657483613 
2167	 0.290451241325352 
2168	 0.290451983720305 
2169	 0.290477668783082 
2170	 0.290479081714771 
2171	 0.290487311259241 
2172	 0.290486696759843 
2173	 0.290445427417778 
2174	 0.290433845727005 
2175	 0.290424196544264 
2176	 0.290461141837173 
2177	 0.290498914285146 
2178	 0.2905490155436 
2179	 0.290609417502793 
2180	 0.290706113283665 
2181	 0.29076127770066 
2182	 0.290844771320772 
2183	 0.29085435466593 
2184	 0.290847863436332 
2185	 0.290742241946636 
2186	 0.290512254983229 
2187	 0.29034179697414 
2188	 0.290118649114945 
2189	 0.289924932689526 
2190	 0.289796703450368 
2191	 0.289613471496662 
2192	 0.289415769258752 
2193	 0.289163239957265 
2194	 0.288883986662328 
2195	 0.28856338817462 
2196	 0.288171139684899 
2197	 0.287782770991111 
2198	 0.287392449563577 
2199	 0.286911205119704 
2200	 0.286365066670084 
2201	 0.28578670897746 
2202	 0.28510094404698 
2203	 0.284357565315538 
2204	 0.283424867934223 
2205	 0.282341069111267 
2206	 0.281214614508205 
2207	 0.279867807811426 
2208	 0.27864201663481 
2209	 0.277311465836786 
2210	 0.276236458917985 
2211	 0.275100157482126 
2212	 0.274385544325031 
2213	 0.273979469202833 
2214	 0.273745999543417 
2215	 0.273877706975922 
2216	 0.274040693428405 
2217	 0.274398885612542 
2218	 0.274782400728092 
2219	 0.275431696729927 
2220	 0.275848869382997 
2221	 0.276353136823927 
2222	 0.2765835290719 
2223	 0.276502353130952 
2224	 0.276264538414469 
2225	 0.275929453434466 
2226	 0.275508237632054 
2227	 0.274852992509291 
2228	 0.274045396180279 
2229	 0.273202706807028 
2230	 0.272091335499538 
2231	 0.271060859146063 
2232	 0.270117398701481 
2233	 0.268966196297727 
2234	 0.267732555006491 
2235	 0.266326470363816 
2236	 0.26477177148231 
2237	 0.263136575917355 
2238	 0.261305323941833 
2239	 0.259442278122118 
2240	 0.257518249999723 
2241	 0.255502419134102 
2242	 0.253452068916734 
2243	 0.251212175349431 
2244	 0.24881171170075 
2245	 0.246361775600156 
2246	 0.243655267330864 
2247	 0.241049956428847 
2248	 0.238436268575866 
2249	 0.235826928272722 
2250	 0.233313474285948 
2251	 0.230721435331585 
2252	 0.227758297937433 
2253	 0.224861286481355 
2254	 0.221819830058933 
2255	 0.218760546166483 
2256	 0.21614437138473 
2257	 0.213467821172273 
2258	 0.210827064973937 
2259	 0.208364357568528 
2260	 0.205617946460439 
2261	 0.202797473971729 
2262	 0.199899054804941 
2263	 0.196711033076204 
2264	 0.193786858669155 
2265	 0.191101095937299 
2266	 0.187992868515779 
2267	 0.185099665910643 
2268	 0.181471826612011 
2269	 0.177382732628678 
2270	 0.172932889202391 
2271	 0.167834679409475 
2272	 0.162741632928689 
2273	 0.157313653624168 
2274	 0.151745912696428 
2275	 0.14608305111832 
2276	 0.140198731372334 
2277	 0.133550398983348 
2278	 0.127725797392618 
2279	 0.121667161931195 
2280	 0.116584497347579 
2281	 0.11224775794308 
2282	 0.108506578138002 
2283	 0.105378755762038 
2284	 0.103008283838089 
2285	 0.101285420482783 
2286	 0.10016211545914 
2287	 0.099736952791348 
2288	 0.09990319446946 
2289	 0.100291902611058 
2290	 0.10124537104566 
2291	 0.102653427993804 
2292	 0.10422776780984 
2293	 0.106433193554448 
2294	 0.108887609385845 
2295	 0.111242840454835 
2296	 0.113663814292917 
2297	 0.115828035891219 
2298	 0.117864906369 
2299	 0.119756730138406 
2300	 0.121403824194028 
2301	 0.123125022160009 
2302	 0.124772838235964 
2303	 0.126371039320014 
2304	 0.127982806884096 
2305	 0.129451086954912 
2306	 0.130732052015641 
2307	 0.132130443753608 
2308	 0.133418655775407 
2309	 0.134893028049021 
2310	 0.136519726846372 
2311	 0.138068746030786 
2312	 0.139701003072251 
2313	 0.141303550755767 
2314	 0.142914104089767 
2315	 0.144423262944981 
2316	 0.146041315732455 
2317	 0.147294454084687 
2318	 0.148407173814628 
2319	 0.149222825241843 
2320	 0.149751610358345 
2321	 0.150001085556286 
2322	 0.149958481415094 
2323	 0.149680153927831 
2324	 0.149185691425645 
2325	 0.148347817986264 
2326	 0.147284521443642 
2327	 0.145805403712607 
2328	 0.143910914810493 
2329	 0.141647818509811 
2330	 0.139099887006312 
2331	 0.13589215954081 
2332	 0.132375472712299 
2333	 0.128467407317324 
2334	 0.12416631228607 
2335	 0.119935101212792 
2336	 0.115313620198623 
2337	 0.110517078071571 
2338	 0.10608981617293 
2339	 0.101640330643262 
2340	 9.73544713799363E-02 
2341	 9.36638082501927E-02 
2342	 0.090126799169996 
2343	 0.086807440250368 
2344	 8.42575933158815E-02 
2345	 8.24956175228679E-02 
2346	 8.12433640664535E-02 
2347	 8.06647451128801E-02 
2348	 8.03315049705949E-02 
2349	 7.99111468975189E-02 
2350	 7.93779703379967E-02 
2351	 7.85351490859889E-02 
2352	 7.77362178776376E-02 
2353	 7.69524392289051E-02 
2354	 7.65315471147857E-02 
2355	 7.66023699902467E-02 
2356	 7.71070472359438E-02 
2357	 7.83269126954726E-02 
2358	 0.080175297327237 
2359	 8.26333517849678E-02 
2360	 8.58649174864832E-02 
2361	 9.00554867421649E-02 
2362	 9.45870723858575E-02 
2363	 9.96102298198863E-02 
2364	 0.104680368808812 
2365	 0.109494254164385 
2366	 0.114368228335588 
2367	 0.118550247216257 
2368	 0.122291275070108 
2369	 0.125635565288016 
2370	 0.128359913468215 
2371	 0.131016308924033 
2372	 0.133509561944524 
2373	 0.135488910978762 
2374	 0.136896416806007 
2375	 0.138068645090559 
2376	 0.138940956453181 
2377	 0.139291469624137 
2378	 0.139866974702119 
2379	 0.140317580360647 
2380	 0.14050331034659 
2381	 0.140948408168312 
2382	 0.141315755633479 
2383	 0.141592754571205 
2384	 0.141901585360795 
2385	 0.142206654554046 
2386	 0.142754834375011 
2387	 0.143314719676517 
2388	 0.144084703960658 
2389	 0.145195964083674 
2390	 0.146079744386317 
2391	 0.147200765847797 
2392	 0.147876687666359 
2393	 0.148240919088709 
2394	 0.148696883747779 
2395	 0.148712187754601 
2396	 0.149204554185209 
2397	 0.149991038632299 
2398	 0.150625020779749 
2399	 0.151378517010551 
2400	 0.152124806988887 
2401	 0.152965988757513 
2402	 0.153745206441791 
2403	 0.154349937899241 
2404	 0.154938093457211 
2405	 0.155376159956034 
2406	 0.1561750250724 
2407	 0.157273455394068 
2408	 0.157924635887341 
2409	 0.158172019327545 
2410	 0.158205708138733 
2411	 0.15808250535827 
2412	 0.158423315675817 
2413	 0.159246589988983 
2414	 0.159822329697514 
2415	 0.160120846163071 
2416	 0.160247205876166 
2417	 0.160178562969658 
2418	 0.160353128572729 
2419	 0.160718052279261 
2420	 0.161431712041125 
2421	 0.162197312845078 
2422	 0.162428512785762 
2423	 0.162700653723999 
2424	 0.162813613078022 
2425	 0.162534731132553 
2426	 0.162778652652041 
2427	 0.163467645132865 
2428	 0.163420497610863 
2429	 0.163533254179711 
2430	 0.163882757178892 
2431	 0.16351665443578 
2432	 0.163474512534871 
2433	 0.163473042023625 
2434	 0.163907180876485 
2435	 0.164577617738675 
2436	 0.16432465664258 
2437	 0.164159993251378 
2438	 0.163664024834445 
2439	 0.162773978927587 
2440	 0.162895783623566 
2441	 0.163375708745765 
2442	 0.163373985161955 
2443	 0.163209646818287 
2444	 0.162867496082811 
2445	 0.162657814055292 
2446	 0.162749633254239 
2447	 0.163129417836154 
2448	 0.163668052942728 
2449	 0.163710880045476 
2450	 0.163104412977325 
2451	 0.162612497636584 
2452	 0.16201565109174 
2453	 0.160750089514137 
2454	 0.160205913262256 
2455	 0.159466439019168 
2456	 0.158624680426734 
2457	 0.159283416893457 
2458	 0.159494254132962 
2459	 0.159241979800281 
2460	 0.158669330730562 
2461	 0.157468131743624 
2462	 0.157247647357502 
2463	 0.157158386852702 
2464	 0.157162745938305 
2465	 0.157764835241722 
2466	 0.157824924744065 
2467	 0.158239300766688 
2468	 0.158711804061983 
2469	 0.158289381933603 
2470	 0.157776770555066 
2471	 0.156995536496408 
2472	 0.156784836869557 
2473	 0.157793671386911 
2474	 0.158214197582539 
2475	 0.158179950563257 
2476	 0.157925174665493 
2477	 0.156748312755694 
2478	 0.155674182877381 
2479	 0.155086522763994 
2480	 0.155181863951893 
2481	 0.155029638168995 
2482	 0.155296960595062 
2483	 0.154517019129418 
2484	 0.154132774628119 
2485	 0.154346259947622 
2486	 0.154178838325664 
2487	 0.1545978371937 
2488	 0.155590525274604 
2489	 0.156342390502176 
2490	 0.157788053477468 
2491	 0.159284067038101 
2492	 0.159314973443153 
2493	 0.159170498633232 
2494	 0.158907881969516 
2495	 0.15848252539889 
2496	 0.159043630895023 
2497	 0.159067785784624 
2498	 0.159310721753823 
2499	 0.159624134464837 
2500	 0.158338382093708 
