Wavelength	Tablay400061.asd
350	 0.422105640935503 
351	 0.423568741672368 
352	 0.363602205997327 
353	 0.224557657330749 
354	 0.155635870997159 
355	 0.267919466827163 
356	 0.356309956111804 
357	 0.255398083139567 
358	 0.256588085372396 
359	 0.231532435470625 
360	 0.218066957176326 
361	 0.297878810368378 
362	 0.233720229680244 
363	 0.186801824348802 
364	 0.226156279346099 
365	 0.228681846834143 
366	 0.207042097776714 
367	 0.205521487412924 
368	 0.246490941183833 
369	 0.2665655236617 
370	 0.217562103520199 
371	 0.163961859560135 
372	 0.23602634395683 
373	 0.271940123709584 
374	 0.248021395456111 
375	 0.18968363866975 
376	 0.18907936925987 
377	 0.200612888756815 
378	 0.213917946305056 
379	 0.220527123729533 
380	 0.181717309131758 
381	 0.169357918121666 
382	 0.181667128454487 
383	 0.176079481100191 
384	 0.18082174013361 
385	 0.199204401560788 
386	 0.209895796523778 
387	 0.160431221682934 
388	 0.1586763091886 
389	 0.1899823612146 
390	 0.207146872175902 
391	 0.176897689982711 
392	 0.169265660096205 
393	 0.180725238869909 
394	 0.165563171975632 
395	 0.148849404156746 
396	 0.148345163134848 
397	 0.158259029849759 
398	 0.139594380540469 
399	 0.150080807604454 
400	 0.172936656979767 
401	 0.177963244760827 
402	 0.164976480001558 
403	 0.155719749659403 
404	 0.156801102560404 
405	 0.161634495674377 
406	 0.157898297711122 
407	 0.151852350091305 
408	 0.148328518906895 
409	 0.143633475646272 
410	 0.148272524411107 
411	 0.148893697519029 
412	 0.135221346547198 
413	 0.148978971075864 
414	 0.153582882608192 
415	 0.141999096690124 
416	 0.136206894592375 
417	 0.135618805564161 
418	 0.137433585278289 
419	 0.139438595172475 
420	 0.143051197753027 
421	 0.140305287880672 
422	 0.135201040415278 
423	 0.135668658503731 
424	 0.139873997889917 
425	 0.144064721463766 
426	 0.143859033894333 
427	 0.134592757101552 
428	 0.136682976467066 
429	 0.14247258659675 
430	 0.142987303286531 
431	 0.144392902701104 
432	 0.143727194574332 
433	 0.140633562658178 
434	 0.136941627325752 
435	 0.140457102876168 
436	 0.142615089031636 
437	 0.14142484779157 
438	 0.147654092648688 
439	 0.145009633134066 
440	 0.139972842751022 
441	 0.141907094311485 
442	 0.144719866593963 
443	 0.144743717873513 
444	 0.142427942675644 
445	 0.141427566227438 
446	 0.144826252462799 
447	 0.145985174261185 
448	 0.143275849071582 
449	 0.149684891966661 
450	 0.149374829380775 
451	 0.146464827704474 
452	 0.149750951426857 
453	 0.148680495808748 
454	 0.148316886307066 
455	 0.149914034270493 
456	 0.149684961410278 
457	 0.150620440124414 
458	 0.151214170880438 
459	 0.150617247709864 
460	 0.152624932566963 
461	 0.154533585480758 
462	 0.154488583049958 
463	 0.152143457432075 
464	 0.155593039758966 
465	 0.155513136173843 
466	 0.150861213195185 
467	 0.155765088582829 
468	 0.155295425460177 
469	 0.152438484162007 
470	 0.153256662977491 
471	 0.154832309666691 
472	 0.156193168185745 
473	 0.156492223770088 
474	 0.155323674815624 
475	 0.157714881558373 
476	 0.158728946848287 
477	 0.156159478508873 
478	 0.156960287410773 
479	 0.156955406594772 
480	 0.156430018666589 
481	 0.156894243043093 
482	 0.156971455786289 
483	 0.157755197669884 
484	 0.159038177684733 
485	 0.159077212104248 
486	 0.159659288986255 
487	 0.160229044685965 
488	 0.160275668024137 
489	 0.16110951859201 
490	 0.161019237023861 
491	 0.160522858895053 
492	 0.161186292204578 
493	 0.161569407404862 
494	 0.1617026398168 
495	 0.161733870985396 
496	 0.161648531559925 
497	 0.16256152819724 
498	 0.163202098080058 
499	 0.162384334294543 
500	 0.162523051511679 
501	 0.163200819360039 
502	 0.164040475735834 
503	 0.164794607421384 
504	 0.165022779132336 
505	 0.1648122654873 
506	 0.164625729241091 
507	 0.16562164909268 
508	 0.166330209605007 
509	 0.166736033589846 
510	 0.167358091941124 
511	 0.167731611388163 
512	 0.167659776486641 
513	 0.167653455443777 
514	 0.169075284448417 
515	 0.169430098552279 
516	 0.169598874042896 
517	 0.170646702366079 
518	 0.171196990225619 
519	 0.171739655356071 
520	 0.17239546659297 
521	 0.173037019084972 
522	 0.173903316918009 
523	 0.174785425052452 
524	 0.175646926161384 
525	 0.176939958398882 
526	 0.17818174067836 
527	 0.179049015345947 
528	 0.179511832641311 
529	 0.180734849740202 
530	 0.181917845557415 
531	 0.182953453955564 
532	 0.184552604271349 
533	 0.186636078788968 
534	 0.188391705210703 
535	 0.189529408245609 
536	 0.191658046978946 
537	 0.194028132975988 
538	 0.196531042280011 
539	 0.199374299381361 
540	 0.202323223616492 
541	 0.205308162079469 
542	 0.208472950363942 
543	 0.212249919759202 
544	 0.216266299517531 
545	 0.220435208658847 
546	 0.224774226422026 
547	 0.229290428903995 
548	 0.234481063406539 
549	 0.24010378403914 
550	 0.245302517512781 
551	 0.250717495617032 
552	 0.256332584315688 
553	 0.262123072003989 
554	 0.26834554824259 
555	 0.27448327748574 
556	 0.280593792044194 
557	 0.286968525506953 
558	 0.293522400186951 
559	 0.299758336476042 
560	 0.30561688207898 
561	 0.311695197805262 
562	 0.317416513476601 
563	 0.32295369257582 
564	 0.328441786107237 
565	 0.333080979806129 
566	 0.337709408878556 
567	 0.342189175407566 
568	 0.345758877272599 
569	 0.349623031928372 
570	 0.353333516485749 
571	 0.356543892181891 
572	 0.359676778664897 
573	 0.362271192031688 
574	 0.364462307207882 
575	 0.366621326354606 
576	 0.369019511306237 
577	 0.37101227793062 
578	 0.372535737541471 
579	 0.37423524880007 
580	 0.375751840009832 
581	 0.377183104847195 
582	 0.378609199339112 
583	 0.379719197788331 
584	 0.380864526384572 
585	 0.382081590654514 
586	 0.383190171400246 
587	 0.383922300135144 
588	 0.384562616876677 
589	 0.38523052164153 
590	 0.385646174010478 
591	 0.386343910223335 
592	 0.386993261620277 
593	 0.387239673785773 
594	 0.387822836100094 
595	 0.388469855468168 
596	 0.389053047162386 
597	 0.389598648338342 
598	 0.390055293660472 
599	 0.390408359914388 
600	 0.390695605228714 
601	 0.391076815294285 
602	 0.391248081731963 
603	 0.391319828267057 
604	 0.391547073182807 
605	 0.391808254975879 
606	 0.392082373675169 
607	 0.392334094877222 
608	 0.392503316142525 
609	 0.392786061300775 
610	 0.393016330795702 
611	 0.393067314707505 
612	 0.393244296218191 
613	 0.393419893491096 
614	 0.393575978969508 
615	 0.393739509381131 
616	 0.393590839893318 
617	 0.3936669517132 
618	 0.394043075636686 
619	 0.393758707079675 
620	 0.39386754105881 
621	 0.394170675021263 
622	 0.394174236401665 
623	 0.394066277250211 
624	 0.39418311529038 
625	 0.394418331583005 
626	 0.394291391551666 
627	 0.394435859193896 
628	 0.394478132741818 
629	 0.394227437312127 
630	 0.394433305589512 
631	 0.394485832500349 
632	 0.394408439145169 
633	 0.394455233455358 
634	 0.394395285587271 
635	 0.394454702077708 
636	 0.394572692151021 
637	 0.394302228478156 
638	 0.394215093168321 
639	 0.394319761319925 
640	 0.394465710848095 
641	 0.394492302846873 
642	 0.394457520184945 
643	 0.394373428455219 
644	 0.394237198786885 
645	 0.394165200110156 
646	 0.394077875833331 
647	 0.39397902246174 
648	 0.394059544230217 
649	 0.393943972913545 
650	 0.393786253640848 
651	 0.393812724801037 
652	 0.393829403002744 
653	 0.393757838111655 
654	 0.393621861909393 
655	 0.39352465024614 
656	 0.393502146570889 
657	 0.393372014160038 
658	 0.393133287666651 
659	 0.393265374146863 
660	 0.393234418434052 
661	 0.393021393961798 
662	 0.392806954691496 
663	 0.392722194118754 
664	 0.392595473005173 
665	 0.392432929324952 
666	 0.392423826589996 
667	 0.392335814511048 
668	 0.39210757746138 
669	 0.391839691561093 
670	 0.391984730105939 
671	 0.391906132389169 
672	 0.39169006638282 
673	 0.391686265054976 
674	 0.391597616946242 
675	 0.391377062911151 
676	 0.391091230376577 
677	 0.390911742904276 
678	 0.390804706891589 
679	 0.390672874962101 
680	 0.390491391617029 
681	 0.390538512051639 
682	 0.390335603086708 
683	 0.390002563438775 
684	 0.389932293685059 
685	 0.389817992302689 
686	 0.389665494947568 
687	 0.389479751601205 
688	 0.389217063909486 
689	 0.389109524684856 
690	 0.389034381586937 
691	 0.388848294712859 
692	 0.388680654267633 
693	 0.388574258451388 
694	 0.388458409247043 
695	 0.388218505911536 
696	 0.388034480418234 
697	 0.387945092884066 
698	 0.387880770584906 
699	 0.387633817944668 
700	 0.387437570872453 
701	 0.387295034706305 
702	 0.387144913496448 
703	 0.386945536713732 
704	 0.386799646563975 
705	 0.386716515645934 
706	 0.386628670907472 
707	 0.386407362214556 
708	 0.38625643936399 
709	 0.386238993517984 
710	 0.386127208923447 
711	 0.385722459969164 
712	 0.385408286445416 
713	 0.385498389420473 
714	 0.385292268299701 
715	 0.385165589134746 
716	 0.385085582630911 
717	 0.384767102208816 
718	 0.384679038806141 
719	 0.384651891502988 
720	 0.384524640327727 
721	 0.384296279624221 
722	 0.38411297292505 
723	 0.384002852465187 
724	 0.383941808861217 
725	 0.383876225590185 
726	 0.383840786495486 
727	 0.383749510587066 
728	 0.383472152216814 
729	 0.38332419792116 
730	 0.383229004539677 
731	 0.383143640592786 
732	 0.383176987357376 
733	 0.383084992930706 
734	 0.38293412504239 
735	 0.382819498034476 
736	 0.382538557784038 
737	 0.382490999815611 
738	 0.382618724380108 
739	 0.382586661423083 
740	 0.382617411938466 
741	 0.382478101121631 
742	 0.382189501861299 
743	 0.382212382665444 
744	 0.382217948305895 
745	 0.382180771674335 
746	 0.382151831738104 
747	 0.382169139153515 
748	 0.382142794088963 
749	 0.382099397884375 
750	 0.382110953064894 
751	 0.382023389883888 
752	 0.381963907237852 
753	 0.381982016731436 
754	 0.381991799415769 
755	 0.381980138354678 
756	 0.382033183622776 
757	 0.382180387535483 
758	 0.38223114550718 
759	 0.382220537224451 
760	 0.382193471570729 
761	 0.382185265678668 
762	 0.382088702580774 
763	 0.382156077008569 
764	 0.382341679111075 
765	 0.382290139916107 
766	 0.382494321999785 
767	 0.382667389869164 
768	 0.382611275609732 
769	 0.38266828618922 
770	 0.382768569142431 
771	 0.382873867080758 
772	 0.382964105040659 
773	 0.383107310614491 
774	 0.383195550805328 
775	 0.383225371488747 
776	 0.383283541802703 
777	 0.383378546941927 
778	 0.383541471195045 
779	 0.383704544774101 
780	 0.383629532764538 
781	 0.38378670120702 
782	 0.383955070924858 
783	 0.383892283179212 
784	 0.384000495299841 
785	 0.384222748871701 
786	 0.384443596675086 
787	 0.384528413557279 
788	 0.384462692507281 
789	 0.384563256415041 
790	 0.384812836790698 
791	 0.384791954015448 
792	 0.384904447021436 
793	 0.385136187210773 
794	 0.385371678189389 
795	 0.385466224489965 
796	 0.385551297519871 
797	 0.385600190245675 
798	 0.385592234960314 
799	 0.385823404685923 
800	 0.385957367326595 
801	 0.385998867435289 
802	 0.386192396571591 
803	 0.386166729037631 
804	 0.386134636059862 
805	 0.38626934804463 
806	 0.386565387727734 
807	 0.386647724472329 
808	 0.386642547578284 
809	 0.3867355781001 
810	 0.386890828107262 
811	 0.38684598998381 
812	 0.386813027592278 
813	 0.387084291660674 
814	 0.38708878091639 
815	 0.387088444811541 
816	 0.387225211456115 
817	 0.387457102746986 
818	 0.387422708478928 
819	 0.387428084952278 
820	 0.387577669844566 
821	 0.387477763098532 
822	 0.387610430919235 
823	 0.387722274803654 
824	 0.38758979627367 
825	 0.387710595482138 
826	 0.387752387216981 
827	 0.387726125007796 
828	 0.387754831381317 
829	 0.387599832646658 
830	 0.387687018179243 
831	 0.387935550828476 
832	 0.387846783715451 
833	 0.387798589426475 
834	 0.387709341986052 
835	 0.387599513051261 
836	 0.387732356062761 
837	 0.387907689669398 
838	 0.387899592151904 
839	 0.387653028102844 
840	 0.387556622442105 
841	 0.387684629747983 
842	 0.387816588778431 
843	 0.387705995870165 
844	 0.387665657747693 
845	 0.387669954975381 
846	 0.387653756972766 
847	 0.387554013939372 
848	 0.387510115238573 
849	 0.387458716320436 
850	 0.387382181476407 
851	 0.387343836826952 
852	 0.387217408846437 
853	 0.38709644597658 
854	 0.387053157236248 
855	 0.387015919271406 
856	 0.387040121672768 
857	 0.387036385146728 
858	 0.386918327993715 
859	 0.386763567121611 
860	 0.386660550532257 
861	 0.386594773374342 
862	 0.386506370635832 
863	 0.386437259795925 
864	 0.386362621262505 
865	 0.386270701111843 
866	 0.386156488175245 
867	 0.385901926238345 
868	 0.385765267542826 
869	 0.385811808210547 
870	 0.385780846716417 
871	 0.385625134070203 
872	 0.385416755935178 
873	 0.385273023083425 
874	 0.385345764045693 
875	 0.385252354049193 
876	 0.385053230892577 
877	 0.384899057907315 
878	 0.384698794648922 
879	 0.384531453372088 
880	 0.38441575844606 
881	 0.384342919294381 
882	 0.384354692816528 
883	 0.384286388556078 
884	 0.384140900573821 
885	 0.384039818357722 
886	 0.383864504211065 
887	 0.383735047013094 
888	 0.38364603920995 
889	 0.383441217114395 
890	 0.383384336458701 
891	 0.383281227356687 
892	 0.383054076789635 
893	 0.382955617673465 
894	 0.382835452117911 
895	 0.38264344738329 
896	 0.382433199898817 
897	 0.382475047989571 
898	 0.382317512923959 
899	 0.382129495082612 
900	 0.382134731869072 
901	 0.381888210245752 
902	 0.381811689548932 
903	 0.381826291671311 
904	 0.381658199906627 
905	 0.381459112115667 
906	 0.381443890730696 
907	 0.381404786803734 
908	 0.380974199512699 
909	 0.380994248313213 
910	 0.380916460797944 
911	 0.380663804481156 
912	 0.380705348022835 
913	 0.380501340392011 
914	 0.380386512252476 
915	 0.380417648757622 
916	 0.380139842223998 
917	 0.380224058755702 
918	 0.380154095507814 
919	 0.379723276315904 
920	 0.379712782580278 
921	 0.37980480975767 
922	 0.379827002760192 
923	 0.379708844231252 
924	 0.379546164006988 
925	 0.379447977032461 
926	 0.379544457894164 
927	 0.379796400692476 
928	 0.379646010020514 
929	 0.379462974736962 
930	 0.379379862787402 
931	 0.379402606449173 
932	 0.379492245816177 
933	 0.379488068644231 
934	 0.379432885772471 
935	 0.379428314449914 
936	 0.379194464154647 
937	 0.379172868027453 
938	 0.379335459237652 
939	 0.379360036321196 
940	 0.379517856200028 
941	 0.379572433064783 
942	 0.379514381716221 
943	 0.379541808369541 
944	 0.379553571006086 
945	 0.379610288410812 
946	 0.379642456477635 
947	 0.379482295968729 
948	 0.379596464753455 
949	 0.379610426543473 
950	 0.379480585547457 
951	 0.379668615113872 
952	 0.379494768342777 
953	 0.379178493688549 
954	 0.37911323504839 
955	 0.379620249440022 
956	 0.37933593976787 
957	 0.379203758390746 
958	 0.37964591994772 
959	 0.379400318990396 
960	 0.379528161784421 
961	 0.379559856600172 
962	 0.379238577837947 
963	 0.379395709481233 
964	 0.379359390309206 
965	 0.37929407626 
966	 0.379342261396401 
967	 0.379102687096233 
968	 0.3792676920181 
969	 0.379371253245205 
970	 0.379073240770557 
971	 0.379202343101304 
972	 0.379063520779514 
973	 0.378926901838215 
974	 0.379108352856028 
975	 0.37926504394084 
976	 0.378850229127597 
977	 0.378581413639555 
978	 0.379021834825214 
979	 0.378978491419114 
980	 0.37891604597346 
981	 0.378923353787988 
982	 0.378927737490905 
983	 0.378716848384754 
984	 0.378440926672743 
985	 0.378546693824495 
986	 0.379149445036666 
987	 0.379056488906301 
988	 0.37857842819375 
989	 0.378465210301657 
990	 0.37899372278934 
991	 0.378299846264643 
992	 0.378497423860629 
993	 0.378850381613408 
994	 0.378285397147118 
995	 0.378279163071953 
996	 0.378646710943335 
997	 0.378894124334322 
998	 0.378670881792406 
999	 0.378530689075305 
1000	 0.378360339435088 
1001	 0.380719647398776 
1002	 0.380761653825035 
1003	 0.380532661746462 
1004	 0.380452817403206 
1005	 0.38056855588214 
1006	 0.380452638736458 
1007	 0.380056285760378 
1008	 0.380039770263994 
1009	 0.380230713373189 
1010	 0.380254027241431 
1011	 0.380473263529381 
1012	 0.380453368349599 
1013	 0.380085647790189 
1014	 0.379974284387615 
1015	 0.379870883339804 
1016	 0.37981473762074 
1017	 0.380221179382287 
1018	 0.380390034915954 
1019	 0.38008681474494 
1020	 0.379904098308217 
1021	 0.379839486495155 
1022	 0.379559890707116 
1023	 0.379503637302291 
1024	 0.379925793589228 
1025	 0.379873176659167 
1026	 0.379491548945731 
1027	 0.379344576641627 
1028	 0.379122901740692 
1029	 0.378974686670004 
1030	 0.379214872615683 
1031	 0.37924672121239 
1032	 0.379136200079536 
1033	 0.379153209769709 
1034	 0.37907044722787 
1035	 0.378979535069422 
1036	 0.378932045718164 
1037	 0.378971667564512 
1038	 0.378951523291767 
1039	 0.37892146310545 
1040	 0.378876760957453 
1041	 0.378829941194091 
1042	 0.378721532884118 
1043	 0.378528357159639 
1044	 0.378387250227478 
1045	 0.378352588622072 
1046	 0.378627101105547 
1047	 0.37885813944569 
1048	 0.378793905571384 
1049	 0.378688223075165 
1050	 0.378436630624387 
1051	 0.378246694301208 
1052	 0.378286803672731 
1053	 0.378294427874687 
1054	 0.378392983809679 
1055	 0.378365522350529 
1056	 0.378270198244769 
1057	 0.378266556242446 
1058	 0.378275745523321 
1059	 0.378215526605688 
1060	 0.378144458527839 
1061	 0.378076565459391 
1062	 0.378045738317753 
1063	 0.378024600502883 
1064	 0.378053449607816 
1065	 0.378112135333164 
1066	 0.378123620207522 
1067	 0.378085764918407 
1068	 0.378196121112324 
1069	 0.37831517953465 
1070	 0.378269037110692 
1071	 0.378090513860967 
1072	 0.377978312302719 
1073	 0.37779129627706 
1074	 0.377646250897199 
1075	 0.377746382022837 
1076	 0.37771336172948 
1077	 0.377609379562352 
1078	 0.37753957149545 
1079	 0.3773437736393 
1080	 0.377197266175338 
1081	 0.377280066846308 
1082	 0.377379465472487 
1083	 0.377334745054459 
1084	 0.377196785847392 
1085	 0.376972776833396 
1086	 0.376876138228509 
1087	 0.376717596508863 
1088	 0.376798530894923 
1089	 0.377036361606792 
1090	 0.377232628690863 
1091	 0.3772845553109 
1092	 0.377238977688509 
1093	 0.377137521734749 
1094	 0.376924469823323 
1095	 0.376891552415227 
1096	 0.376965499140533 
1097	 0.376870063210184 
1098	 0.376944260044999 
1099	 0.377064900129801 
1100	 0.376992868211956 
1101	 0.376882571162876 
1102	 0.376812947910454 
1103	 0.37681320600142 
1104	 0.37677508667089 
1105	 0.376802352021721 
1106	 0.376993400064941 
1107	 0.37715979179386 
1108	 0.377140606085062 
1109	 0.377113057748335 
1110	 0.377153997665296 
1111	 0.37719873192738 
1112	 0.377336537393155 
1113	 0.377402721749392 
1114	 0.377355824515114 
1115	 0.377361116976586 
1116	 0.377297035855815 
1117	 0.37729450348798 
1118	 0.377356422310976 
1119	 0.377502677941509 
1120	 0.377593934771013 
1121	 0.377717894010433 
1122	 0.377822260812837 
1123	 0.377831598324703 
1124	 0.377856599347796 
1125	 0.377909696720183 
1126	 0.377992148261424 
1127	 0.378179963738761 
1128	 0.378289075700418 
1129	 0.378284836708745 
1130	 0.378334362137748 
1131	 0.378351508886224 
1132	 0.378381295746221 
1133	 0.378494296411393 
1134	 0.37849677862684 
1135	 0.378540668279877 
1136	 0.378562693681637 
1137	 0.378655742344218 
1138	 0.378857784200457 
1139	 0.378928610379976 
1140	 0.378990757208533 
1141	 0.378983302541418 
1142	 0.378831361765481 
1143	 0.378754694837707 
1144	 0.378817756603603 
1145	 0.378786034037757 
1146	 0.37879480335025 
1147	 0.378811112650193 
1148	 0.378692447890232 
1149	 0.378653865103259 
1150	 0.378635727530111 
1151	 0.378538644836556 
1152	 0.37845579770247 
1153	 0.378355580342155 
1154	 0.378258989293542 
1155	 0.378139050500147 
1156	 0.378078961085109 
1157	 0.378076807103894 
1158	 0.37804544595475 
1159	 0.378048539372405 
1160	 0.377977757259452 
1161	 0.377893520445735 
1162	 0.377792658347814 
1163	 0.377744363888816 
1164	 0.377695166829772 
1165	 0.37756656205756 
1166	 0.377460737695979 
1167	 0.377329604284928 
1168	 0.37716789833122 
1169	 0.377025511666822 
1170	 0.376904544632909 
1171	 0.376803271413972 
1172	 0.37671843630121 
1173	 0.376582692043259 
1174	 0.37648450713891 
1175	 0.376322527010444 
1176	 0.376027903401421 
1177	 0.375852095753307 
1178	 0.375754473782725 
1179	 0.375580700948034 
1180	 0.375386343306537 
1181	 0.375284012484316 
1182	 0.375183632961697 
1183	 0.375094839238211 
1184	 0.375041496340883 
1185	 0.374876876202772 
1186	 0.374651701378254 
1187	 0.374234476209147 
1188	 0.374014221396668 
1189	 0.373823855687161 
1190	 0.373693081823064 
1191	 0.373671750250072 
1192	 0.373615163789203 
1193	 0.373574351275818 
1194	 0.373524975648175 
1195	 0.373474863288105 
1196	 0.373438053354734 
1197	 0.37343004983984 
1198	 0.373379831363441 
1199	 0.373280037303198 
1200	 0.37327243382966 
1201	 0.373245052959345 
1202	 0.373230965389433 
1203	 0.373350098981872 
1204	 0.373472880906297 
1205	 0.373550559069571 
1206	 0.373615477140249 
1207	 0.37372897467273 
1208	 0.373766290343696 
1209	 0.373965453251267 
1210	 0.374279972266221 
1211	 0.374592744905928 
1212	 0.374971731908525 
1213	 0.375376213776927 
1214	 0.37578449277182 
1215	 0.376287713169992 
1216	 0.376906490172443 
1217	 0.377481375797919 
1218	 0.378087148843304 
1219	 0.378678431873983 
1220	 0.379340108257373 
1221	 0.380058778927004 
1222	 0.380830085845894 
1223	 0.381664273168941 
1224	 0.382427777144848 
1225	 0.383169700168375 
1226	 0.383867888658775 
1227	 0.384546710266383 
1228	 0.385191090625943 
1229	 0.385750400055128 
1230	 0.386379558262655 
1231	 0.387078718816944 
1232	 0.387666695112282 
1233	 0.388218515732824 
1234	 0.388758744197706 
1235	 0.389198331800562 
1236	 0.389681344433533 
1237	 0.390239040227423 
1238	 0.390721896227421 
1239	 0.391202163274106 
1240	 0.391587154060286 
1241	 0.391917800785691 
1242	 0.392220634095418 
1243	 0.392586151354815 
1244	 0.39295246594322 
1245	 0.393312647126998 
1246	 0.393733293438604 
1247	 0.394083295645743 
1248	 0.394330839503421 
1249	 0.394711032372553 
1250	 0.395182098069836 
1251	 0.395548047070107 
1252	 0.395939304105409 
1253	 0.396281071182286 
1254	 0.396526796079772 
1255	 0.396799211640362 
1256	 0.397081257515793 
1257	 0.397365736421679 
1258	 0.397617585938196 
1259	 0.397887759544569 
1260	 0.398220605207634 
1261	 0.398487124042521 
1262	 0.398705683781384 
1263	 0.398920221395009 
1264	 0.39917685739136 
1265	 0.39940604521175 
1266	 0.399694815863772 
1267	 0.400058599728159 
1268	 0.400369596502958 
1269	 0.400676536188859 
1270	 0.400973248454921 
1271	 0.401269861370084 
1272	 0.401550663911962 
1273	 0.401766489758267 
1274	 0.402081294668819 
1275	 0.402494261439582 
1276	 0.4027930455811 
1277	 0.403078644296078 
1278	 0.403375738724595 
1279	 0.403583087112986 
1280	 0.40383182511859 
1281	 0.404164539619401 
1282	 0.404450199877238 
1283	 0.404702937354274 
1284	 0.404941777341854 
1285	 0.405167287835139 
1286	 0.405363037580192 
1287	 0.405625831526335 
1288	 0.405907528050272 
1289	 0.406162630856916 
1290	 0.406470507403983 
1291	 0.406701786490247 
1292	 0.406847794128162 
1293	 0.407061875211409 
1294	 0.40728612463287 
1295	 0.407514655669877 
1296	 0.407753498903311 
1297	 0.408008168835552 
1298	 0.408328334189742 
1299	 0.408536848935821 
1300	 0.408671812878074 
1301	 0.408865226525563 
1302	 0.409020807603208 
1303	 0.40917614826833 
1304	 0.409356479455018 
1305	 0.409567556087329 
1306	 0.40976906505948 
1307	 0.40996561583676 
1308	 0.410153959928126 
1309	 0.410458335335595 
1310	 0.410669792764445 
1311	 0.410831734202641 
1312	 0.411021788683207 
1313	 0.411212898080342 
1314	 0.411418617225804 
1315	 0.411615022409416 
1316	 0.41184005803365 
1317	 0.412093948166036 
1318	 0.412340367589638 
1319	 0.412606542763716 
1320	 0.412845212925432 
1321	 0.413062944179008 
1322	 0.413304255221826 
1323	 0.413551107012036 
1324	 0.413783124143907 
1325	 0.414048047535597 
1326	 0.414263330188906 
1327	 0.414391106890814 
1328	 0.414598149758027 
1329	 0.414857881891397 
1330	 0.415067271816828 
1331	 0.415305802300018 
1332	 0.41551347222868 
1333	 0.41566417250179 
1334	 0.415796472483521 
1335	 0.415977328232583 
1336	 0.416177048014499 
1337	 0.416381789572332 
1338	 0.416624003680118 
1339	 0.416795882488743 
1340	 0.416942018881966 
1341	 0.417106594721572 
1342	 0.417243352316153 
1343	 0.417388437024949 
1344	 0.417573963761638 
1345	 0.417692469075567 
1346	 0.417764774342804 
1347	 0.417844735165915 
1348	 0.417884846445638 
1349	 0.417967774264971 
1350	 0.41809584301115 
1351	 0.418161379837111 
1352	 0.418232620258028 
1353	 0.418259637277703 
1354	 0.41816472996126 
1355	 0.418179181781219 
1356	 0.418259649195928 
1357	 0.418302281731214 
1358	 0.418410474944334 
1359	 0.418458687077372 
1360	 0.418446038757258 
1361	 0.418413208674399 
1362	 0.41842985231819 
1363	 0.418425845929783 
1364	 0.418382324115418 
1365	 0.418333861756144 
1366	 0.418263265925117 
1367	 0.418145305672903 
1368	 0.418033401045228 
1369	 0.417946020177177 
1370	 0.41778496616559 
1371	 0.417567148540271 
1372	 0.417366183769124 
1373	 0.417159689348361 
1374	 0.416903551973228 
1375	 0.416621603350176 
1376	 0.416331219390095 
1377	 0.415992803801448 
1378	 0.415656657969036 
1379	 0.415340146363828 
1380	 0.414977601775726 
1381	 0.41455578976471 
1382	 0.414161743205119 
1383	 0.413736029171401 
1384	 0.413350054644501 
1385	 0.413021737769202 
1386	 0.412648741845299 
1387	 0.412265665452151 
1388	 0.41190248621421 
1389	 0.411475344289092 
1390	 0.411129705411558 
1391	 0.41085113398481 
1392	 0.410549053378345 
1393	 0.410370102381722 
1394	 0.410243749567093 
1395	 0.410180771178687 
1396	 0.410243582375307 
1397	 0.410185016179831 
1398	 0.410169000862022 
1399	 0.410026868316726 
1400	 0.40981939833516 
1401	 0.409521138343362 
1402	 0.409144698684259 
1403	 0.408717974813712 
1404	 0.408206572619308 
1405	 0.407657994958907 
1406	 0.407055650506492 
1407	 0.406424572006459 
1408	 0.405709040836656 
1409	 0.405015440830246 
1410	 0.404308167923544 
1411	 0.403598900856275 
1412	 0.402863287844526 
1413	 0.402166682203009 
1414	 0.401454688109194 
1415	 0.400795693763192 
1416	 0.400132718243216 
1417	 0.399567548318302 
1418	 0.399081050519388 
1419	 0.398621545209356 
1420	 0.398285339936624 
1421	 0.397892368626963 
1422	 0.397513145048683 
1423	 0.397095117603874 
1424	 0.396626313771999 
1425	 0.396171283336054 
1426	 0.395730824800555 
1427	 0.395231343766997 
1428	 0.39478022793595 
1429	 0.394424947314719 
1430	 0.39401978848638 
1431	 0.393654171475032 
1432	 0.393204093880658 
1433	 0.392683979092371 
1434	 0.392235214875948 
1435	 0.391792120047769 
1436	 0.391320320929855 
1437	 0.390873896748233 
1438	 0.390423182812084 
1439	 0.389915466145351 
1440	 0.389454684596738 
1441	 0.389019976926192 
1442	 0.388625826368509 
1443	 0.388190461874239 
1444	 0.387898475777715 
1445	 0.387644424075169 
1446	 0.387565920145425 
1447	 0.387600768850609 
1448	 0.387761466300408 
1449	 0.388095518194724 
1450	 0.388488915308582 
1451	 0.388988444649846 
1452	 0.389559912422109 
1453	 0.390244088014499 
1454	 0.390957580865599 
1455	 0.391747376453793 
1456	 0.392565633239126 
1457	 0.393478614302962 
1458	 0.394348257592917 
1459	 0.395240739355162 
1460	 0.396120833674509 
1461	 0.396954108192885 
1462	 0.397810854657888 
1463	 0.398717199804583 
1464	 0.39957721707712 
1465	 0.400381937069548 
1466	 0.401258310912055 
1467	 0.402119463144559 
1468	 0.402866136999227 
1469	 0.403613241561649 
1470	 0.404352312409947 
1471	 0.405118136988103 
1472	 0.405873872957126 
1473	 0.406608163040734 
1474	 0.40739147732297 
1475	 0.408075212405581 
1476	 0.408670830785827 
1477	 0.409303424752446 
1478	 0.409937676039136 
1479	 0.410505151448776 
1480	 0.411072313310878 
1481	 0.411554461473962 
1482	 0.411926537325414 
1483	 0.412360187581623 
1484	 0.412762882243919 
1485	 0.413187616022507 
1486	 0.413662634270547 
1487	 0.414065896926601 
1488	 0.414423870687615 
1489	 0.414808604538363 
1490	 0.415158880696974 
1491	 0.415547752732748 
1492	 0.415915200083692 
1493	 0.416389423507377 
1494	 0.416934312807289 
1495	 0.417473433094791 
1496	 0.418093119896122 
1497	 0.418698925668143 
1498	 0.419298386809075 
1499	 0.419899183273246 
1500	 0.420534459447126 
1501	 0.421147457188172 
1502	 0.421738589372041 
1503	 0.422323831512631 
1504	 0.422929205742092 
1505	 0.423491654210426 
1506	 0.424041002416676 
1507	 0.424542966929633 
1508	 0.425005129979573 
1509	 0.425440211238792 
1510	 0.425809170006074 
1511	 0.426194351213389 
1512	 0.42655520830623 
1513	 0.426931095425919 
1514	 0.427347983408242 
1515	 0.427713776420627 
1516	 0.428066262500418 
1517	 0.42838929258973 
1518	 0.428665407196229 
1519	 0.428927111933223 
1520	 0.429161018531672 
1521	 0.429400546218533 
1522	 0.429583396562981 
1523	 0.429778880215639 
1524	 0.429979502810049 
1525	 0.430180114914002 
1526	 0.43036284830696 
1527	 0.430556087597118 
1528	 0.430712167957854 
1529	 0.430825740422184 
1530	 0.430978137411161 
1531	 0.431139727615471 
1532	 0.431277767516827 
1533	 0.431433882941216 
1534	 0.431537667895877 
1535	 0.431582546487654 
1536	 0.431684930356465 
1537	 0.431760922084263 
1538	 0.43192398615419 
1539	 0.432147720161339 
1540	 0.43237168951889 
1541	 0.43263054158503 
1542	 0.432911526109269 
1543	 0.433214424418174 
1544	 0.43352540080418 
1545	 0.433854616996059 
1546	 0.434224752244764 
1547	 0.434622320826578 
1548	 0.435013840721788 
1549	 0.435437873660135 
1550	 0.435869228935094 
1551	 0.436312720616298 
1552	 0.436721864283215 
1553	 0.437157417718173 
1554	 0.437546106222671 
1555	 0.437841658704743 
1556	 0.438230781788391 
1557	 0.438665817451191 
1558	 0.439074196539974 
1559	 0.439534587232986 
1560	 0.439924444856124 
1561	 0.440233264834453 
1562	 0.44061399621983 
1563	 0.441008610533054 
1564	 0.44139457341574 
1565	 0.441828802539839 
1566	 0.4422151703688 
1567	 0.442567756243788 
1568	 0.442912067875218 
1569	 0.443250244321649 
1570	 0.443564005584822 
1571	 0.443831183891224 
1572	 0.444131061078511 
1573	 0.444428419015899 
1574	 0.444733387599759 
1575	 0.445052433517497 
1576	 0.445379691276639 
1577	 0.445697016442023 
1578	 0.446046350599351 
1579	 0.446452869558246 
1580	 0.446801963781354 
1581	 0.447142772317469 
1582	 0.447472709277679 
1583	 0.447755433607001 
1584	 0.448061100585075 
1585	 0.448358464511832 
1586	 0.448692843977403 
1587	 0.449065571585054 
1588	 0.449405961936088 
1589	 0.449759749710108 
1590	 0.450102905370621 
1591	 0.450418497941552 
1592	 0.450736951353091 
1593	 0.45106261894313 
1594	 0.451388447069224 
1595	 0.451704803562532 
1596	 0.452013372201123 
1597	 0.452320105087573 
1598	 0.452633946454427 
1599	 0.452953454269635 
1600	 0.453250447506386 
1601	 0.453549877379944 
1602	 0.453835803297684 
1603	 0.454068094095281 
1604	 0.454344006391549 
1605	 0.454654243415458 
1606	 0.454947254883993 
1607	 0.455255999078208 
1608	 0.455548831263301 
1609	 0.455817930608994 
1610	 0.456096744445291 
1611	 0.456380321200462 
1612	 0.456658741017158 
1613	 0.456957746300983 
1614	 0.457210042871113 
1615	 0.45742146458377 
1616	 0.457654913190812 
1617	 0.45789190696159 
1618	 0.458094473489983 
1619	 0.458301419158781 
1620	 0.458467941554468 
1621	 0.458512116719982 
1622	 0.45867908653089 
1623	 0.458927851836452 
1624	 0.459138310097576 
1625	 0.459432961020345 
1626	 0.459651804035126 
1627	 0.459761233839148 
1628	 0.459936941358233 
1629	 0.460146845663678 
1630	 0.460315047120781 
1631	 0.460496772495827 
1632	 0.460650591604348 
1633	 0.460761295214188 
1634	 0.460868806763447 
1635	 0.460977245830501 
1636	 0.461060891504544 
1637	 0.461080297534207 
1638	 0.461157473820564 
1639	 0.461251849451555 
1640	 0.461355823915126 
1641	 0.461521434489627 
1642	 0.461642673658365 
1643	 0.461743982977512 
1644	 0.461840739043402 
1645	 0.461934467380127 
1646	 0.461996702461801 
1647	 0.462040968494822 
1648	 0.462065767069395 
1649	 0.46205772833152 
1650	 0.462033878021452 
1651	 0.462010698698875 
1652	 0.46194325370402 
1653	 0.461828413172039 
1654	 0.461715704690051 
1655	 0.461591139632037 
1656	 0.461435115323642 
1657	 0.461285952466222 
1658	 0.461069449692662 
1659	 0.460818396085132 
1660	 0.460496643865819 
1661	 0.460117775038226 
1662	 0.459686422045083 
1663	 0.459163503500279 
1664	 0.458623506336893 
1665	 0.458094565885891 
1666	 0.457416283175355 
1667	 0.456638746313951 
1668	 0.455854794775343 
1669	 0.454983574228087 
1670	 0.454055081287679 
1671	 0.453134337936321 
1672	 0.452066089791118 
1673	 0.450867369019245 
1674	 0.449615398754852 
1675	 0.448299697303546 
1676	 0.446901061529395 
1677	 0.445420853431782 
1678	 0.443867191228659 
1679	 0.442199768147277 
1680	 0.440484448961731 
1681	 0.438717448226569 
1682	 0.436840034834362 
1683	 0.434896220755653 
1684	 0.432882348471416 
1685	 0.430797002117197 
1686	 0.428595690397854 
1687	 0.426287751347014 
1688	 0.423881469970456 
1689	 0.421340410662947 
1690	 0.418739746975813 
1691	 0.416049577283232 
1692	 0.413370735343735 
1693	 0.410648306500094 
1694	 0.407875304340221 
1695	 0.405074030381305 
1696	 0.402172375407604 
1697	 0.399208898418433 
1698	 0.396097685714996 
1699	 0.392878630453332 
1700	 0.389698594203681 
1701	 0.386370087696879 
1702	 0.383193374524331 
1703	 0.380009628463666 
1704	 0.376999410925174 
1705	 0.374047030060554 
1706	 0.371200101674187 
1707	 0.368681758637196 
1708	 0.366316662726994 
1709	 0.36412893499538 
1710	 0.36213045735247 
1711	 0.360135954290476 
1712	 0.358311086156091 
1713	 0.35649655189341 
1714	 0.354648194107888 
1715	 0.353065148748079 
1716	 0.351470994166364 
1717	 0.350005814805452 
1718	 0.348837843368078 
1719	 0.347606765790515 
1720	 0.346476882549931 
1721	 0.345406078814238 
1722	 0.344305483803826 
1723	 0.343482750844663 
1724	 0.342795174634572 
1725	 0.342218979626784 
1726	 0.341891804122867 
1727	 0.341782721775261 
1728	 0.341934023567356 
1729	 0.342406332826642 
1730	 0.343193566760747 
1731	 0.344224121040568 
1732	 0.345546875344645 
1733	 0.347034737853483 
1734	 0.348691260441784 
1735	 0.350485274704029 
1736	 0.352213568682 
1737	 0.353956246888883 
1738	 0.355665941278882 
1739	 0.357041946519448 
1740	 0.358239723115937 
1741	 0.359197909204375 
1742	 0.359940508408202 
1743	 0.360428381521501 
1744	 0.360629799537017 
1745	 0.36069540566718 
1746	 0.360443034254191 
1747	 0.360204652767385 
1748	 0.359811562435511 
1749	 0.359484749962341 
1750	 0.359059515933734 
1751	 0.358740268282722 
1752	 0.358475795522586 
1753	 0.358288872827293 
1754	 0.358114498947937 
1755	 0.358116362506824 
1756	 0.358185211447825 
1757	 0.358436397712987 
1758	 0.358933010991824 
1759	 0.359471099747305 
1760	 0.360234952395075 
1761	 0.36121138575921 
1762	 0.362273593542846 
1763	 0.363626651292506 
1764	 0.36506122940065 
1765	 0.366587314538757 
1766	 0.368427901676315 
1767	 0.370315255953968 
1768	 0.372357984519768 
1769	 0.374597532154808 
1770	 0.376669685383429 
1771	 0.378733004009367 
1772	 0.380768870586376 
1773	 0.38263980699851 
1774	 0.384564377688615 
1775	 0.386401578531017 
1776	 0.38810165471234 
1777	 0.389719891835622 
1778	 0.391088653100276 
1779	 0.392350886100194 
1780	 0.393610954912017 
1781	 0.394780603130804 
1782	 0.395933083273533 
1783	 0.39700329173287 
1784	 0.397984980368842 
1785	 0.398835500726855 
1786	 0.399614032528914 
1787	 0.400306905768027 
1788	 0.40101361816468 
1789	 0.401675129761888 
1790	 0.402318157648388 
1791	 0.402985180330145 
1792	 0.403487402001962 
1793	 0.403839512152474 
1794	 0.404265844509279 
1795	 0.40467769870568 
1796	 0.405176982308101 
1797	 0.405699234983819 
1798	 0.406164727119521 
1799	 0.406576590085302 
1800	 0.406959497509841 
1801	 0.402441390755323 
1802	 0.402938236951981 
1803	 0.403387920948146 
1804	 0.40381876366251 
1805	 0.40425157417357 
1806	 0.404623076497183 
1807	 0.404871911715894 
1808	 0.405307109032114 
1809	 0.405793627727667 
1810	 0.40626855413269 
1811	 0.406970748760515 
1812	 0.407441451153023 
1813	 0.407720967135977 
1814	 0.40807441651702 
1815	 0.408440127463103 
1816	 0.408700863562958 
1817	 0.409103406802942 
1818	 0.40958891184962 
1819	 0.410114670617207 
1820	 0.41078044326792 
1821	 0.411308336457417 
1822	 0.411865814729151 
1823	 0.412344162548489 
1824	 0.412648378878811 
1825	 0.413020758559784 
1826	 0.413488408428844 
1827	 0.41402103339844 
1828	 0.41451034909679 
1829	 0.415085498146028 
1830	 0.415588675627059 
1831	 0.41602520938608 
1832	 0.41650904700648 
1833	 0.416980073669608 
1834	 0.417426328007855 
1835	 0.417804931672007 
1836	 0.418167170816341 
1837	 0.418607784723362 
1838	 0.419041534310319 
1839	 0.419511496873352 
1840	 0.420088376855789 
1841	 0.420611597205936 
1842	 0.421112106156873 
1843	 0.421651419672366 
1844	 0.422152928438524 
1845	 0.422562458067675 
1846	 0.423019201493783 
1847	 0.423424301650064 
1848	 0.423789469397907 
1849	 0.424174994936235 
1850	 0.424479530078532 
1851	 0.42467585850542 
1852	 0.424918536145451 
1853	 0.425199745325877 
1854	 0.425382928154956 
1855	 0.425612833963453 
1856	 0.425746788230114 
1857	 0.425790393958804 
1858	 0.425815935380077 
1859	 0.42575738114891 
1860	 0.425616211216331 
1861	 0.425470796659217 
1862	 0.42527402987605 
1863	 0.42500762352107 
1864	 0.424811929276031 
1865	 0.424594157647925 
1866	 0.424266666022133 
1867	 0.423915307849189 
1868	 0.423483132993297 
1869	 0.422915233979448 
1870	 0.422293193687389 
1871	 0.421601691909707 
1872	 0.420886021453089 
1873	 0.420134295637238 
1874	 0.419257393857255 
1875	 0.418349220897832 
1876	 0.417366815577088 
1877	 0.416266743972849 
1878	 0.415035451522348 
1879	 0.413766597583614 
1880	 0.412525749612466 
1881	 0.411110215309035 
1882	 0.40954905613961 
1883	 0.407989969461842 
1884	 0.406340204023796 
1885	 0.404392396179989 
1886	 0.402476720627726 
1887	 0.4004454394537 
1888	 0.398219680577819 
1889	 0.396051551855775 
1890	 0.393684077403953 
1891	 0.391314036814014 
1892	 0.388965767322136 
1893	 0.386543311728851 
1894	 0.384002179914991 
1895	 0.381631076143455 
1896	 0.37914509819638 
1897	 0.376574685061239 
1898	 0.374224970873563 
1899	 0.371810597652121 
1900	 0.369498855899348 
1901	 0.367353729964512 
1902	 0.365108300628874 
1903	 0.362978829932476 
1904	 0.360910855350265 
1905	 0.358874337083357 
1906	 0.356895848064155 
1907	 0.355172725723704 
1908	 0.353447077090602 
1909	 0.3518121722951 
1910	 0.350399074472822 
1911	 0.348944866883526 
1912	 0.34761916953633 
1913	 0.346363361095887 
1914	 0.345050589965028 
1915	 0.343820327048213 
1916	 0.342655840477056 
1917	 0.341493884585114 
1918	 0.340408956674643 
1919	 0.339368346134476 
1920	 0.338257939143543 
1921	 0.337231103707721 
1922	 0.33619628848839 
1923	 0.335101988702356 
1924	 0.334146389074461 
1925	 0.333203483749361 
1926	 0.332300497914571 
1927	 0.331467973486735 
1928	 0.330611357616563 
1929	 0.329752956231367 
1930	 0.328965596152717 
1931	 0.328151073716852 
1932	 0.327352242535224 
1933	 0.326716597028041 
1934	 0.326110202741007 
1935	 0.325621102260575 
1936	 0.325268913735992 
1937	 0.324979337419978 
1938	 0.324792632897814 
1939	 0.3246861631997 
1940	 0.324651273485219 
1941	 0.324719451544008 
1942	 0.324825504383418 
1943	 0.325027139726078 
1944	 0.325262125584754 
1945	 0.325490152842617 
1946	 0.32590437655811 
1947	 0.326355425713153 
1948	 0.326816737388437 
1949	 0.327470153363252 
1950	 0.328135935480582 
1951	 0.328820603452581 
1952	 0.329593291941737 
1953	 0.330464770506615 
1954	 0.33137255622042 
1955	 0.332320865361492 
1956	 0.333312478369397 
1957	 0.334314371769895 
1958	 0.335255609292477 
1959	 0.336108961283942 
1960	 0.337030124765553 
1961	 0.337926446681953 
1962	 0.338829781207131 
1963	 0.339667248681421 
1964	 0.340527879317819 
1965	 0.341236398759208 
1966	 0.341841132658388 
1967	 0.342398235252001 
1968	 0.342885519850945 
1969	 0.343453730197903 
1970	 0.34402936924466 
1971	 0.34457669188002 
1972	 0.345097749411603 
1973	 0.345628606764344 
1974	 0.346194577406636 
1975	 0.346774184429239 
1976	 0.347357764554391 
1977	 0.34798202049393 
1978	 0.348586217995641 
1979	 0.349120796858685 
1980	 0.349776961293284 
1981	 0.350550858215576 
1982	 0.351308470465182 
1983	 0.352104305225626 
1984	 0.352913998505702 
1985	 0.353608160183154 
1986	 0.354278111426005 
1987	 0.355034286166797 
1988	 0.355790930761561 
1989	 0.356643613196001 
1990	 0.357547604450668 
1991	 0.358542651692016 
1992	 0.359625265715784 
1993	 0.36078850780629 
1994	 0.361934423598837 
1995	 0.363230356942547 
1996	 0.364476865495692 
1997	 0.365639443590548 
1998	 0.366873849211689 
1999	 0.368138224584873 
2000	 0.369339502592372 
2001	 0.370603353996537 
2002	 0.371766425858238 
2003	 0.372878644985874 
2004	 0.373919230090865 
2005	 0.374894823461408 
2006	 0.375812589881744 
2007	 0.37665960264933 
2008	 0.377434822779626 
2009	 0.378206707808648 
2010	 0.378941894869274 
2011	 0.379580669371122 
2012	 0.38013822038758 
2013	 0.380677111024566 
2014	 0.381123000521158 
2015	 0.381579132989429 
2016	 0.382049028749573 
2017	 0.382463947655337 
2018	 0.382851227654257 
2019	 0.383178225778803 
2020	 0.38347858243046 
2021	 0.383670871924441 
2022	 0.383846615052793 
2023	 0.383953086142107 
2024	 0.383968805387791 
2025	 0.383982655907654 
2026	 0.383992214228643 
2027	 0.38397724238705 
2028	 0.383913162861515 
2029	 0.383820547629196 
2030	 0.383755514846245 
2031	 0.383640698318503 
2032	 0.383545351344276 
2033	 0.383511318602658 
2034	 0.383413971929217 
2035	 0.383261345959615 
2036	 0.383120361622638 
2037	 0.382990991761186 
2038	 0.382821658052161 
2039	 0.382635188188014 
2040	 0.382422661758891 
2041	 0.382229083217676 
2042	 0.38201023164997 
2043	 0.381815545198834 
2044	 0.38163172915516 
2045	 0.381452055442161 
2046	 0.381260577375718 
2047	 0.381114044804791 
2048	 0.381061038799585 
2049	 0.380906583077653 
2050	 0.380732240667394 
2051	 0.380525202504299 
2052	 0.380247025766389 
2053	 0.379998989830216 
2054	 0.379805270626651 
2055	 0.379672837711198 
2056	 0.379509506402592 
2057	 0.379366511624071 
2058	 0.379211228221991 
2059	 0.379046814710559 
2060	 0.378892781673613 
2061	 0.37874142411549 
2062	 0.378598872424422 
2063	 0.378465530685032 
2064	 0.378325226284308 
2065	 0.378194534585559 
2066	 0.378053591387872 
2067	 0.377893437103541 
2068	 0.377781211153421 
2069	 0.377630966477414 
2070	 0.377468537048717 
2071	 0.377316132243097 
2072	 0.377145673545393 
2073	 0.376997602978874 
2074	 0.376884364738206 
2075	 0.376731952426616 
2076	 0.376573873514 
2077	 0.376396855629327 
2078	 0.376180648372825 
2079	 0.375984385892586 
2080	 0.375768275456209 
2081	 0.375590506923759 
2082	 0.375433043065003 
2083	 0.375307330690396 
2084	 0.375185102519855 
2085	 0.374997924993684 
2086	 0.374766598483455 
2087	 0.374426423241766 
2088	 0.374214221085861 
2089	 0.374010721153285 
2090	 0.373827319761329 
2091	 0.373777347687585 
2092	 0.373577019470497 
2093	 0.373268955172829 
2094	 0.373025800913669 
2095	 0.372743461257992 
2096	 0.372488144109737 
2097	 0.372309053472345 
2098	 0.372068564516477 
2099	 0.371794272435703 
2100	 0.37150941850463 
2101	 0.371148289629719 
2102	 0.370712870454963 
2103	 0.370320122111817 
2104	 0.369826204904275 
2105	 0.369494907212967 
2106	 0.36930545202534 
2107	 0.36898343407594 
2108	 0.368760568157122 
2109	 0.368359870369754 
2110	 0.367763863362596 
2111	 0.367240546213929 
2112	 0.366660509472233 
2113	 0.366091930668791 
2114	 0.365569806064372 
2115	 0.364988595062526 
2116	 0.364354043606543 
2117	 0.363681104220719 
2118	 0.363131692052313 
2119	 0.362594116998177 
2120	 0.3621173388011 
2121	 0.361775652558726 
2122	 0.361348442363435 
2123	 0.36089889815008 
2124	 0.360468398191445 
2125	 0.36001224912617 
2126	 0.359612192390043 
2127	 0.359211993796606 
2128	 0.358879184147857 
2129	 0.358579979295144 
2130	 0.35835787024003 
2131	 0.358231037414335 
2132	 0.358107885251323 
2133	 0.358024558387731 
2134	 0.358000617914293 
2135	 0.357976172598377 
2136	 0.357921204511795 
2137	 0.357907354855514 
2138	 0.357928259836162 
2139	 0.357919345628157 
2140	 0.357904284649311 
2141	 0.357907769153117 
2142	 0.357889765357574 
2143	 0.357936897159279 
2144	 0.358035887041592 
2145	 0.358123224486944 
2146	 0.358234781563674 
2147	 0.358341437801101 
2148	 0.358452402939323 
2149	 0.358569692516441 
2150	 0.358688206354382 
2151	 0.358835977630473 
2152	 0.359022199908354 
2153	 0.359130693220276 
2154	 0.35940774476563 
2155	 0.359692117234209 
2156	 0.359887377254005 
2157	 0.360107275459738 
2158	 0.360241219884249 
2159	 0.360241885820909 
2160	 0.3603259174253 
2161	 0.360449435965695 
2162	 0.360513662582016 
2163	 0.3605710522247 
2164	 0.36057999674821 
2165	 0.360544328230706 
2166	 0.3604816811838 
2167	 0.360398430808223 
2168	 0.360277695671265 
2169	 0.360063406229349 
2170	 0.35990485050596 
2171	 0.359678533677839 
2172	 0.359565536730075 
2173	 0.359542322819303 
2174	 0.359579445479629 
2175	 0.359485830611446 
2176	 0.359443985169833 
2177	 0.359381368908984 
2178	 0.359221655942789 
2179	 0.359165202192529 
2180	 0.359244080101166 
2181	 0.359147230457084 
2182	 0.35894014963575 
2183	 0.358844033069513 
2184	 0.358721413081614 
2185	 0.35862912249961 
2186	 0.358680084316407 
2187	 0.358565886081453 
2188	 0.358377076887655 
2189	 0.358149868460149 
2190	 0.357810047512237 
2191	 0.357519557723551 
2192	 0.357222396538583 
2193	 0.356896189756887 
2194	 0.35656185317418 
2195	 0.356232256032487 
2196	 0.355888311619923 
2197	 0.35552418341597 
2198	 0.355179627990878 
2199	 0.35478045529184 
2200	 0.354300469468024 
2201	 0.3537022926115 
2202	 0.35320327659921 
2203	 0.352685287019521 
2204	 0.352199496850097 
2205	 0.351834421851632 
2206	 0.351279149596456 
2207	 0.350630038139208 
2208	 0.349978481344065 
2209	 0.349203428514699 
2210	 0.348505907593346 
2211	 0.347864211861479 
2212	 0.34715147185956 
2213	 0.346391835155854 
2214	 0.345679783871719 
2215	 0.344903592981493 
2216	 0.344222958702613 
2217	 0.343633222462746 
2218	 0.343034094698011 
2219	 0.342554913355041 
2220	 0.341962183339358 
2221	 0.341347522607932 
2222	 0.340649749447595 
2223	 0.339929123108241 
2224	 0.339082577346016 
2225	 0.338232196108171 
2226	 0.337334990116806 
2227	 0.336348736886391 
2228	 0.335291872071516 
2229	 0.334184390478 
2230	 0.332970429468366 
2231	 0.33178210297319 
2232	 0.330611173860528 
2233	 0.329224368950161 
2234	 0.32786486000098 
2235	 0.326189665480849 
2236	 0.324229815978942 
2237	 0.322253939052285 
2238	 0.320061593440915 
2239	 0.317817649964389 
2240	 0.315518028786292 
2241	 0.313071224409935 
2242	 0.310546379894418 
2243	 0.307875693866926 
2244	 0.305085624962285 
2245	 0.302126468972195 
2246	 0.298845773454066 
2247	 0.295655377929442 
2248	 0.292381184125858 
2249	 0.289081418873069 
2250	 0.28579823307676 
2251	 0.282522600754357 
2252	 0.279059614359756 
2253	 0.275711524951708 
2254	 0.272166773561523 
2255	 0.268534028984929 
2256	 0.265201799395171 
2257	 0.261699751434253 
2258	 0.258350142253429 
2259	 0.255274152827541 
2260	 0.251959381676072 
2261	 0.248443477564311 
2262	 0.245235796653424 
2263	 0.242011658553451 
2264	 0.239046446137644 
2265	 0.236398228647542 
2266	 0.23361233934353 
2267	 0.231007081606728 
2268	 0.228214808695618 
2269	 0.22524110290413 
2270	 0.222515792496918 
2271	 0.219755108833889 
2272	 0.21716367584039 
2273	 0.214813513455092 
2274	 0.212424106223697 
2275	 0.210167233874605 
2276	 0.207794427050552 
2277	 0.205488755612202 
2278	 0.203045202942847 
2279	 0.200357319140139 
2280	 0.197821797579763 
2281	 0.195324540095371 
2282	 0.192746339662896 
2283	 0.190219631911849 
2284	 0.18769697715362 
2285	 0.184793289998304 
2286	 0.18198825127967 
2287	 0.179102410446985 
2288	 0.176068187904274 
2289	 0.17320183757605 
2290	 0.17015866742945 
2291	 0.167061021456709 
2292	 0.16403043623717 
2293	 0.160848240927905 
2294	 0.157847191892119 
2295	 0.155020259786503 
2296	 0.152131720372708 
2297	 0.149492023376214 
2298	 0.147001692403853 
2299	 0.144760477095955 
2300	 0.142698141696139 
2301	 0.140925735232036 
2302	 0.139355473307582 
2303	 0.138204927860906 
2304	 0.137267811675815 
2305	 0.13686999276034 
2306	 0.137064838792495 
2307	 0.137437087039571 
2308	 0.138264292542153 
2309	 0.139222436705022 
2310	 0.140291806873439 
2311	 0.141888482757254 
2312	 0.14398583763954 
2313	 0.146098940655407 
2314	 0.148699852215235 
2315	 0.151220852981593 
2316	 0.153869234959058 
2317	 0.156390783549372 
2318	 0.159126388191697 
2319	 0.161443825302167 
2320	 0.163558648635431 
2321	 0.165379327568788 
2322	 0.166910527814496 
2323	 0.168238181059733 
2324	 0.169320604283732 
2325	 0.170170116513362 
2326	 0.17074864314872 
2327	 0.171147754151682 
2328	 0.171265389679901 
2329	 0.171250249531141 
2330	 0.171097087872615 
2331	 0.170666269081153 
2332	 0.170077603345597 
2333	 0.169176071095639 
2334	 0.168011089806195 
2335	 0.16693030941521 
2336	 0.165697485568983 
2337	 0.164021995261361 
2338	 0.162259236884421 
2339	 0.160456008604431 
2340	 0.158678423906741 
2341	 0.156995683971509 
2342	 0.155216794240174 
2343	 0.153444383696718 
2344	 0.151687186036995 
2345	 0.150256511914985 
2346	 0.149340445680321 
2347	 0.148768108841503 
2348	 0.148701877102369 
2349	 0.148992483927516 
2350	 0.149699077478945 
2351	 0.150910685052055 
2352	 0.152120405865723 
2353	 0.153700993294394 
2354	 0.155602195220877 
2355	 0.157518577400449 
2356	 0.15942619517135 
2357	 0.161390933099959 
2358	 0.163142430539582 
2359	 0.164083356716835 
2360	 0.164765555891144 
2361	 0.165198148087017 
2362	 0.165338273415119 
2363	 0.165562769115936 
2364	 0.165701840875334 
2365	 0.165785169550517 
2366	 0.16556329781272 
2367	 0.165163703325287 
2368	 0.164935479764814 
2369	 0.164584485010904 
2370	 0.164595657467467 
2371	 0.164838825164499 
2372	 0.164846969221441 
2373	 0.164880231666976 
2374	 0.164672236399294 
2375	 0.164242806015638 
2376	 0.16386210863717 
2377	 0.16382150141806 
2378	 0.163965434954269 
2379	 0.163981978180376 
2380	 0.164100475409497 
2381	 0.16411426040606 
2382	 0.164133923319672 
2383	 0.164084565404899 
2384	 0.163959544631552 
2385	 0.163811883181466 
2386	 0.163745870331648 
2387	 0.163530270243129 
2388	 0.163529290934544 
2389	 0.163748079766421 
2390	 0.163912258843391 
2391	 0.164048206344803 
2392	 0.16430963445164 
2393	 0.164814953406507 
2394	 0.164902337548453 
2395	 0.164786783642729 
2396	 0.164743649194856 
2397	 0.164464254485044 
2398	 0.164385896489517 
2399	 0.164460094226537 
2400	 0.164703050691713 
2401	 0.165060753546622 
2402	 0.165181718596647 
2403	 0.165601743871876 
2404	 0.165853376505338 
2405	 0.166050818357837 
2406	 0.166424925718211 
2407	 0.166567468954642 
2408	 0.166791563633998 
2409	 0.166930266330621 
2410	 0.166934111512958 
2411	 0.166912529938323 
2412	 0.166911609410215 
2413	 0.166983931948895 
2414	 0.166976931599903 
2415	 0.167309651042814 
2416	 0.167562976233609 
2417	 0.167345919524727 
2418	 0.167300944555577 
2419	 0.167274505261499 
2420	 0.167117800891392 
2421	 0.167180270176985 
2422	 0.167578117514243 
2423	 0.167929138048382 
2424	 0.16788629898015 
2425	 0.167825516969724 
2426	 0.168142316472072 
2427	 0.168280146895543 
2428	 0.168153296284636 
2429	 0.168341268494005 
2430	 0.168127604368307 
2431	 0.167764090716705 
2432	 0.167722154525557 
2433	 0.167502927928755 
2434	 0.167373861444416 
2435	 0.167208057084118 
2436	 0.167065561496656 
2437	 0.167200896142851 
2438	 0.16715240109643 
2439	 0.167140402768916 
2440	 0.167392520036589 
2441	 0.167491167027908 
2442	 0.167753282636719 
2443	 0.167936283494932 
2444	 0.167546548887693 
2445	 0.167208826257569 
2446	 0.166914424016145 
2447	 0.166520504936798 
2448	 0.166475215535039 
2449	 0.166514296925831 
2450	 0.166014418413123 
2451	 0.165365160439897 
2452	 0.165180074984578 
2453	 0.165251993387914 
2454	 0.165606426862742 
2455	 0.166069584345689 
2456	 0.16627553655201 
2457	 0.166593965762569 
2458	 0.166985146632077 
2459	 0.166864362398561 
2460	 0.166192581582511 
2461	 0.165474573634545 
2462	 0.16492595427492 
2463	 0.164885322813792 
2464	 0.165785845659961 
2465	 0.166461557727694 
2466	 0.166587686576007 
2467	 0.166996333579818 
2468	 0.166474705491824 
2469	 0.165968223297762 
2470	 0.16643471835571 
2471	 0.166241385837446 
2472	 0.167123919417418 
2473	 0.168274008476381 
2474	 0.167881748472223 
2475	 0.168297097458018 
2476	 0.168359789410371 
2477	 0.168059496073304 
2478	 0.168977443576007 
2479	 0.16913500421482 
2480	 0.169198710146862 
2481	 0.169278047825589 
2482	 0.168149480384494 
2483	 0.168153091990461 
2484	 0.168527022403794 
2485	 0.169014514380197 
2486	 0.170748929169931 
2487	 0.171819379064447 
2488	 0.172399964178479 
2489	 0.172431516875182 
2490	 0.172144614783066 
2491	 0.172938137493314 
2492	 0.17306673692925 
2493	 0.173455125666198 
2494	 0.174818315441822 
2495	 0.17643108512125 
2496	 0.17786443310981 
2497	 0.177979917885898 
2498	 0.177595385162746 
2499	 0.176698436558935 
2500	 0.1773038849025 
