Wavelength	Tablay400012.asd
350	 0.314970427541735 
351	 0.301214076608332 
352	 0.292864574844361 
353	 0.284896247413265 
354	 0.271374294570033 
355	 0.282721777343805 
356	 0.309757877608951 
357	 0.32313423524263 
358	 0.272840143487041 
359	 0.240169615214547 
360	 0.251165655946152 
361	 0.287804417415586 
362	 0.257464687923047 
363	 0.234945531684946 
364	 0.249143917008887 
365	 0.244056767421183 
366	 0.242886674485765 
367	 0.240139115811722 
368	 0.231182360715343 
369	 0.236665299641067 
370	 0.215810068895954 
371	 0.191576499023689 
372	 0.213402238632467 
373	 0.207780384348892 
374	 0.200679116165644 
375	 0.206174651019016 
376	 0.207206073478848 
377	 0.194876913792541 
378	 0.183084305297943 
379	 0.184885827486132 
380	 0.183994703794383 
381	 0.188495720045719 
382	 0.184983256437086 
383	 0.156028983508609 
384	 0.16826373000394 
385	 0.172551532487806 
386	 0.151970885650976 
387	 0.154677704287827 
388	 0.156008411790437 
389	 0.157702489367372 
390	 0.164192619146602 
391	 0.165950660624133 
392	 0.164996560369463 
393	 0.160364682638522 
394	 0.149846251001514 
395	 0.141877464295598 
396	 0.140317430929513 
397	 0.142320578849368 
398	 0.13578224084575 
399	 0.138916006791005 
400	 0.140879308656448 
401	 0.130650134676497 
402	 0.129247466925103 
403	 0.131209277381812 
404	 0.131822015581763 
405	 0.128600091921435 
406	 0.130057820583445 
407	 0.131362848707712 
408	 0.128035084858367 
409	 0.118537225194065 
410	 0.115540615506297 
411	 0.119751333442314 
412	 0.12573419126765 
413	 0.121566236335777 
414	 0.116315733487693 
415	 0.114752095364581 
416	 0.116396342722442 
417	 0.116655691654154 
418	 0.11753756449798 
419	 0.119296756418091 
420	 0.115094068568689 
421	 0.112247270238173 
422	 0.111221480690721 
423	 0.109922789064294 
424	 0.107908825283728 
425	 0.111649008583446 
426	 0.118036771599922 
427	 0.113524040033326 
428	 0.110083571992271 
429	 0.11095795655103 
430	 0.115099795230186 
431	 0.115924895233791 
432	 0.113477846481607 
433	 0.111310993987939 
434	 0.113800010357746 
435	 0.115072086798947 
436	 0.115406485565777 
437	 0.115626287468212 
438	 0.116266914206061 
439	 0.116798284626831 
440	 0.117756422440744 
441	 0.119459564106927 
442	 0.120286331940661 
443	 0.120898259911622 
444	 0.121409640905494 
445	 0.121599461541247 
446	 0.123632952560036 
447	 0.125521092385031 
448	 0.12603557860244 
449	 0.126807771337946 
450	 0.128095223565622 
451	 0.130055803533646 
452	 0.132504933289015 
453	 0.134322012763818 
454	 0.134834727246143 
455	 0.135052576587512 
456	 0.1375943048252 
457	 0.139824207302712 
458	 0.141580674844176 
459	 0.143098396913294 
460	 0.143929189834139 
461	 0.14615039515031 
462	 0.149141197667902 
463	 0.150995654584295 
464	 0.152266265521181 
465	 0.153217606788522 
466	 0.154460020209848 
467	 0.157128522132079 
468	 0.160292433525232 
469	 0.162785316555756 
470	 0.16405271384083 
471	 0.16605646663062 
472	 0.168427958959846 
473	 0.170918071804587 
474	 0.173421564633132 
475	 0.175657907483317 
476	 0.178165234171454 
477	 0.181100627858423 
478	 0.183636738886288 
479	 0.185091660716334 
480	 0.186631619144919 
481	 0.189656779116174 
482	 0.19214290012236 
483	 0.194904770282984 
484	 0.197972231038451 
485	 0.200331174587504 
486	 0.202780065178573 
487	 0.205178908380279 
488	 0.207406804010757 
489	 0.210045845186348 
490	 0.212627912476557 
491	 0.215155495638718 
492	 0.217826602379743 
493	 0.21988884248795 
494	 0.222413483099139 
495	 0.225576771693275 
496	 0.227796670980928 
497	 0.230324987503271 
498	 0.232973949726039 
499	 0.235303351724731 
500	 0.237618751518156 
501	 0.240329482245725 
502	 0.243190535291138 
503	 0.245449080252591 
504	 0.247335237464693 
505	 0.249645893856155 
506	 0.252614796864129 
507	 0.255007668459264 
508	 0.257244018493545 
509	 0.259420380460755 
510	 0.261555657355051 
511	 0.264025685964283 
512	 0.266234517224868 
513	 0.268089810418719 
514	 0.27021205128372 
515	 0.272563673303368 
516	 0.274985688242122 
517	 0.277233013175019 
518	 0.278867164273997 
519	 0.280762144259773 
520	 0.283039413689954 
521	 0.285281423351933 
522	 0.287331959235265 
523	 0.289274539417054 
524	 0.291192244406127 
525	 0.293058353712505 
526	 0.295110625796899 
527	 0.29709863828658 
528	 0.298764181147641 
529	 0.300824114797197 
530	 0.303009692880059 
531	 0.304960910615293 
532	 0.306314297459423 
533	 0.308198454264786 
534	 0.31017517728898 
535	 0.311811727836602 
536	 0.313717435317761 
537	 0.315597755989427 
538	 0.317406655001141 
539	 0.319230085706236 
540	 0.321045375670529 
541	 0.322743490251511 
542	 0.324366602713712 
543	 0.326225826030391 
544	 0.327772310556234 
545	 0.329226948284405 
546	 0.330932802549306 
547	 0.332673976958435 
548	 0.334379996432848 
549	 0.33597181324243 
550	 0.337380086745741 
551	 0.338970673740328 
552	 0.340613716029898 
553	 0.342169841054712 
554	 0.343721945989283 
555	 0.345176696695376 
556	 0.346645165362748 
557	 0.348265408365549 
558	 0.349603517709039 
559	 0.350924094706008 
560	 0.352329400565801 
561	 0.353601647168554 
562	 0.354995466702602 
563	 0.356314470566522 
564	 0.357392557128793 
565	 0.358644485382961 
566	 0.359830736289378 
567	 0.360898565625989 
568	 0.361960258029292 
569	 0.363243397070003 
570	 0.364613835129957 
571	 0.365937286940758 
572	 0.367182130015922 
573	 0.368566277472218 
574	 0.3700375803764 
575	 0.371460886261133 
576	 0.372901195560422 
577	 0.374314265173246 
578	 0.375681202420903 
579	 0.377019734338989 
580	 0.378373426686596 
581	 0.379701789884172 
582	 0.380987570351286 
583	 0.382338268101867 
584	 0.383677500645626 
585	 0.384927567044845 
586	 0.386035050232362 
587	 0.387151276304945 
588	 0.388195997476543 
589	 0.389190892999789 
590	 0.390380521110817 
591	 0.391269920079944 
592	 0.392066652520097 
593	 0.393079959605268 
594	 0.394052975499733 
595	 0.394902358575488 
596	 0.395698445916659 
597	 0.396616791643938 
598	 0.39734167260525 
599	 0.397925214246827 
600	 0.398494376817923 
601	 0.399200790562417 
602	 0.399777072899613 
603	 0.400223624327485 
604	 0.400662366352854 
605	 0.401157413873562 
606	 0.401622664367738 
607	 0.402056189940292 
608	 0.402574057539649 
609	 0.402927842132521 
610	 0.403234351534354 
611	 0.40363292118909 
612	 0.404013825881594 
613	 0.404411561233493 
614	 0.40479319979499 
615	 0.405090562570621 
616	 0.40531496833915 
617	 0.4056308238468 
618	 0.406042524590102 
619	 0.406236282608397 
620	 0.406496703221545 
621	 0.406753042973405 
622	 0.406887439567639 
623	 0.407133650456038 
624	 0.407376476064677 
625	 0.407629380083615 
626	 0.408018851643043 
627	 0.408229207796024 
628	 0.408386966661022 
629	 0.408620459738976 
630	 0.408852914314793 
631	 0.409036117549289 
632	 0.409182206117398 
633	 0.409337982577516 
634	 0.409567308038948 
635	 0.409696374481355 
636	 0.409737985874651 
637	 0.409953354579616 
638	 0.410192772195182 
639	 0.410412873431633 
640	 0.410594357957911 
641	 0.410715200201452 
642	 0.410810344338117 
643	 0.410943089479319 
644	 0.411163904309232 
645	 0.411246510435329 
646	 0.411337309361978 
647	 0.411507053262562 
648	 0.411629971604841 
649	 0.411711008286845 
650	 0.41184555056094 
651	 0.412084081321028 
652	 0.412164315230639 
653	 0.412217300842583 
654	 0.412331650904166 
655	 0.412532720365696 
656	 0.412607736204389 
657	 0.41267838362213 
658	 0.412823553811378 
659	 0.412922075815018 
660	 0.412946151243583 
661	 0.412962572190079 
662	 0.413048069958383 
663	 0.413096230474181 
664	 0.413160218903695 
665	 0.413251373434959 
666	 0.413332122778825 
667	 0.41345438956994 
668	 0.413505488275331 
669	 0.413453289747645 
670	 0.413545819569669 
671	 0.413684551012203 
672	 0.413800209324542 
673	 0.413840351652155 
674	 0.413789726072737 
675	 0.413807373815615 
676	 0.413897982455897 
677	 0.41387055349489 
678	 0.413999377910766 
679	 0.41408950342424 
680	 0.413994705648922 
681	 0.414049182932155 
682	 0.414090190540761 
683	 0.414115311694005 
684	 0.414188065766121 
685	 0.414155642192831 
686	 0.414155450961338 
687	 0.414237748469038 
688	 0.414292203291614 
689	 0.414286956832477 
690	 0.414253302850952 
691	 0.414231891828482 
692	 0.414214733668398 
693	 0.414238935383146 
694	 0.41426726631071 
695	 0.41423442110078 
696	 0.414283994177366 
697	 0.414336069895943 
698	 0.414333706788249 
699	 0.414293830714085 
700	 0.41437762601527 
701	 0.414390616972698 
702	 0.414187073237388 
703	 0.414197970046006 
704	 0.414254709470849 
705	 0.41430653590939 
706	 0.414378891252652 
707	 0.414332867337337 
708	 0.414292634299982 
709	 0.414303217739017 
710	 0.414216505333011 
711	 0.414212846012144 
712	 0.414240183930541 
713	 0.414213635759773 
714	 0.414210234164499 
715	 0.414226095005264 
716	 0.414227144888906 
717	 0.41417229068474 
718	 0.414169020098915 
719	 0.414210840336351 
720	 0.4142451274948 
721	 0.414165391693859 
722	 0.414186153084391 
723	 0.414227536318898 
724	 0.414178273683104 
725	 0.414186607180889 
726	 0.414141669611953 
727	 0.414112711397831 
728	 0.41425627531061 
729	 0.414225106866798 
730	 0.414133403275091 
731	 0.414109512057226 
732	 0.414202801819076 
733	 0.414242330658052 
734	 0.41424113684199 
735	 0.414252530031869 
736	 0.414249080185643 
737	 0.414272672987537 
738	 0.414298380156175 
739	 0.414268217561543 
740	 0.414256100210886 
741	 0.414263300627199 
742	 0.414277867644832 
743	 0.414283922121466 
744	 0.414221341641918 
745	 0.414186106310574 
746	 0.414251123769484 
747	 0.414269845909244 
748	 0.414279413632416 
749	 0.414292739199378 
750	 0.41430717760734 
751	 0.414301769720251 
752	 0.414346261809277 
753	 0.4144348111855 
754	 0.414457155361 
755	 0.414482446003293 
756	 0.414546276665548 
757	 0.414643372919761 
758	 0.414677980509454 
759	 0.41468896839855 
760	 0.414729292527451 
761	 0.414827621263951 
762	 0.414807377037057 
763	 0.414851519535276 
764	 0.41499182089709 
765	 0.415076962728204 
766	 0.415175687463101 
767	 0.415218042420777 
768	 0.415192343457287 
769	 0.415271013405018 
770	 0.415386406160929 
771	 0.415499371657856 
772	 0.41558160778296 
773	 0.415621269896334 
774	 0.415700118319703 
775	 0.415806359783873 
776	 0.415862059218597 
777	 0.416002208832361 
778	 0.416108767492643 
779	 0.416130181698838 
780	 0.416184231640192 
781	 0.416274086567321 
782	 0.416387346310555 
783	 0.416494301594497 
784	 0.416533837819182 
785	 0.416600035302813 
786	 0.416681568742874 
787	 0.416717271020564 
788	 0.416763515909062 
789	 0.416877474865514 
790	 0.417030722348566 
791	 0.417102022147479 
792	 0.417150113136866 
793	 0.417208177321449 
794	 0.417295991220304 
795	 0.417416081553391 
796	 0.417520188192983 
797	 0.417608542224295 
798	 0.417687966479978 
799	 0.417688624584555 
800	 0.417741798916258 
801	 0.417871389798975 
802	 0.418007995100457 
803	 0.418124007678351 
804	 0.418176741152502 
805	 0.418182094274242 
806	 0.418238036978497 
807	 0.418348214463373 
808	 0.418453651590559 
809	 0.418522327909469 
810	 0.418661119646424 
811	 0.418758010852696 
812	 0.418774453596123 
813	 0.418743811525351 
814	 0.41887783991532 
815	 0.418964466218864 
816	 0.418984323100945 
817	 0.41909294979067 
818	 0.419113356824783 
819	 0.41911020733286 
820	 0.419142584617322 
821	 0.41919916753528 
822	 0.419254772123577 
823	 0.419300607012601 
824	 0.419336953178857 
825	 0.419375692768571 
826	 0.419387491291215 
827	 0.419406587057775 
828	 0.419470291661854 
829	 0.419456381426504 
830	 0.419452153538097 
831	 0.419494690426525 
832	 0.419553369692399 
833	 0.41949248791313 
834	 0.419397286984778 
835	 0.419362351424365 
836	 0.41943737068848 
837	 0.419523032851943 
838	 0.419532453367497 
839	 0.419459569814614 
840	 0.419501418045812 
841	 0.419527788211459 
842	 0.419507499405402 
843	 0.419459358661114 
844	 0.419435528747559 
845	 0.419397822144916 
846	 0.419369644737018 
847	 0.419411849111385 
848	 0.419486234890875 
849	 0.419519829896952 
850	 0.41948702030712 
851	 0.419428361353508 
852	 0.419406321965195 
853	 0.419421659371379 
854	 0.419447100853645 
855	 0.419433631075774 
856	 0.419384574150123 
857	 0.419337602284526 
858	 0.419326583220251 
859	 0.41932641331763 
860	 0.419333777217538 
861	 0.419338167143073 
862	 0.419318750150379 
863	 0.41920767103644 
864	 0.419146776065821 
865	 0.419166850643103 
866	 0.419181561688196 
867	 0.419080029152577 
868	 0.418997655231441 
869	 0.418981308430086 
870	 0.418912689532763 
871	 0.418916911586827 
872	 0.418896672101665 
873	 0.418789956760803 
874	 0.418714358088001 
875	 0.418644225222367 
876	 0.418621448875214 
877	 0.418651041010394 
878	 0.418554194656611 
879	 0.418447281774398 
880	 0.41836131002675 
881	 0.418276510067244 
882	 0.41814407655294 
883	 0.418093341310446 
884	 0.418110379331593 
885	 0.418072214212639 
886	 0.417985810653798 
887	 0.417921042660161 
888	 0.417893354512075 
889	 0.417847670865651 
890	 0.417793436090589 
891	 0.417702907180063 
892	 0.41757083112141 
893	 0.417435940569953 
894	 0.417411260921124 
895	 0.417353552829707 
896	 0.417210065175059 
897	 0.417355460233644 
898	 0.4172757767727 
899	 0.417139218753366 
900	 0.417215607806356 
901	 0.417210379314795 
902	 0.41721074787991 
903	 0.417191504600816 
904	 0.417102993368581 
905	 0.417074338484116 
906	 0.417000041093758 
907	 0.416926338340162 
908	 0.41698009439873 
909	 0.416975119766279 
910	 0.416947850193766 
911	 0.416901222597303 
912	 0.41679741321465 
913	 0.41678168943649 
914	 0.416781831341658 
915	 0.416772416417763 
916	 0.416829066906683 
917	 0.416743865682892 
918	 0.416626538069569 
919	 0.41658389811525 
920	 0.416588036181072 
921	 0.41659727791089 
922	 0.416662248024122 
923	 0.416759212669164 
924	 0.41661002120585 
925	 0.416588573872584 
926	 0.416578258913747 
927	 0.416443439526484 
928	 0.416558416370078 
929	 0.416595514940423 
930	 0.416531295958541 
931	 0.416483357909401 
932	 0.416556177290499 
933	 0.416556024891155 
934	 0.416509006462697 
935	 0.416545565542645 
936	 0.416624592831824 
937	 0.416659490824247 
938	 0.416643640002208 
939	 0.416625970044978 
940	 0.416586420982631 
941	 0.416609512677407 
942	 0.416651394402485 
943	 0.416581804693667 
944	 0.416558818433665 
945	 0.416588097684998 
946	 0.416665816854087 
947	 0.416787060865023 
948	 0.416862179013773 
949	 0.416821156199058 
950	 0.416731553091421 
951	 0.416792806254652 
952	 0.416698681822065 
953	 0.416713737629809 
954	 0.416909139176093 
955	 0.416945295336032 
956	 0.417051546140157 
957	 0.417005390942717 
958	 0.416799788363111 
959	 0.416915702310348 
960	 0.416971079907804 
961	 0.416992557945033 
962	 0.417023428033371 
963	 0.416954206166096 
964	 0.416949415181942 
965	 0.416993430993734 
966	 0.41700649629843 
967	 0.416882360234559 
968	 0.416876808145316 
969	 0.416992914930052 
970	 0.417119998745603 
971	 0.417071357387457 
972	 0.417162371330651 
973	 0.417293939048342 
974	 0.417288126215005 
975	 0.417112017206913 
976	 0.417146251909859 
977	 0.417274715934112 
978	 0.417290079200045 
979	 0.417271754567767 
980	 0.41709953292937 
981	 0.417032772260882 
982	 0.417254790959093 
983	 0.417318398472328 
984	 0.417291924294867 
985	 0.417259468783326 
986	 0.417303043126874 
987	 0.417445723958829 
988	 0.417590247711356 
989	 0.41754897601496 
990	 0.417287645996001 
991	 0.417341176635825 
992	 0.41730639600403 
993	 0.417251880101956 
994	 0.417355182902038 
995	 0.417586274908188 
996	 0.417447303230541 
997	 0.417182375337771 
998	 0.41716795406911 
999	 0.417213002734673 
1000	 0.417283386624622 
1001	 0.412314005797182 
1002	 0.412352777097722 
1003	 0.412579121011738 
1004	 0.412594355782879 
1005	 0.41255563000327 
1006	 0.412482059444647 
1007	 0.412293641238293 
1008	 0.41218004879604 
1009	 0.41207995630497 
1010	 0.412027936501045 
1011	 0.411980699159679 
1012	 0.411950811541383 
1013	 0.411997652357095 
1014	 0.411993850897205 
1015	 0.412014767471643 
1016	 0.411971423797308 
1017	 0.411867802689343 
1018	 0.411691547923758 
1019	 0.411486496155448 
1020	 0.411457270873904 
1021	 0.411375906558152 
1022	 0.411281408578325 
1023	 0.41127263986554 
1024	 0.411339305903536 
1025	 0.411299112253226 
1026	 0.411287191912388 
1027	 0.411289409511687 
1028	 0.411203741157143 
1029	 0.411190782322209 
1030	 0.411233052705961 
1031	 0.411299481817442 
1032	 0.411389798112119 
1033	 0.411330759610505 
1034	 0.411382969322499 
1035	 0.41143731227821 
1036	 0.411430032931487 
1037	 0.411396657900488 
1038	 0.411420559176561 
1039	 0.411397831384936 
1040	 0.41141250372154 
1041	 0.411489866967594 
1042	 0.411521706161856 
1043	 0.411509808512553 
1044	 0.411596775330536 
1045	 0.411639460803982 
1046	 0.411624161415597 
1047	 0.411538687803651 
1048	 0.411357983290338 
1049	 0.411341901328419 
1050	 0.411382482233761 
1051	 0.411393840602702 
1052	 0.411546402164836 
1053	 0.411587210847781 
1054	 0.411485551169022 
1055	 0.411448796850082 
1056	 0.411449406317209 
1057	 0.411401409601962 
1058	 0.411319360952273 
1059	 0.411297485551077 
1060	 0.411202991005486 
1061	 0.410996822463769 
1062	 0.410786935131444 
1063	 0.410649083327728 
1064	 0.41055782375348 
1065	 0.410523785288215 
1066	 0.410557370563275 
1067	 0.41055339062944 
1068	 0.410474296562475 
1069	 0.410412466687953 
1070	 0.410342734858185 
1071	 0.410258512936448 
1072	 0.410109603867371 
1073	 0.410016500164721 
1074	 0.409952628956544 
1075	 0.40984527252268 
1076	 0.409758205849824 
1077	 0.40966567396541 
1078	 0.409573880262457 
1079	 0.409527678429755 
1080	 0.409526574344722 
1081	 0.409439636618124 
1082	 0.409277856357663 
1083	 0.409208346362282 
1084	 0.409126593793807 
1085	 0.409068366094131 
1086	 0.409000960785915 
1087	 0.408987406316989 
1088	 0.408873347896694 
1089	 0.408795290571992 
1090	 0.40876225358863 
1091	 0.408764381489601 
1092	 0.408737095383518 
1093	 0.408608996965562 
1094	 0.408535973012551 
1095	 0.40852193784135 
1096	 0.408488911594964 
1097	 0.408473652261678 
1098	 0.40847892928824 
1099	 0.408411633899629 
1100	 0.408302816201243 
1101	 0.408314556301376 
1102	 0.408333583662594 
1103	 0.408345534718926 
1104	 0.408362842962668 
1105	 0.408468987233483 
1106	 0.408489141817018 
1107	 0.408477741722291 
1108	 0.408484591862379 
1109	 0.408444671849793 
1110	 0.408400642567164 
1111	 0.408382534557169 
1112	 0.408381032863435 
1113	 0.408407230253571 
1114	 0.408519315679532 
1115	 0.408600970711756 
1116	 0.408615081413597 
1117	 0.408695664247762 
1118	 0.408776894257008 
1119	 0.408842449722804 
1120	 0.408914874287706 
1121	 0.409040808987716 
1122	 0.409093762456441 
1123	 0.409089673546993 
1124	 0.409148194046611 
1125	 0.409229364190486 
1126	 0.409328849523304 
1127	 0.409397217026355 
1128	 0.409469067326642 
1129	 0.409536961573525 
1130	 0.409555270939158 
1131	 0.409648072098086 
1132	 0.409739109885846 
1133	 0.409793280216246 
1134	 0.409891739322912 
1135	 0.409959603666007 
1136	 0.409997924012197 
1137	 0.410058541158243 
1138	 0.410146396559811 
1139	 0.410185250843493 
1140	 0.410197375618033 
1141	 0.410245082998208 
1142	 0.410262549939707 
1143	 0.410227951075296 
1144	 0.410254897466134 
1145	 0.410311036748731 
1146	 0.410297509398704 
1147	 0.41024778718572 
1148	 0.410282780848931 
1149	 0.41029754073705 
1150	 0.410278128772415 
1151	 0.410350567858816 
1152	 0.410381956011328 
1153	 0.410373929882625 
1154	 0.410356644598381 
1155	 0.410347693216766 
1156	 0.410324696318736 
1157	 0.410256727809225 
1158	 0.410217300357375 
1159	 0.410195684794541 
1160	 0.410183666011274 
1161	 0.410150911635478 
1162	 0.410118933089322 
1163	 0.410083654454839 
1164	 0.410029815240237 
1165	 0.409983639020458 
1166	 0.409952347677252 
1167	 0.409870506198186 
1168	 0.409778176007183 
1169	 0.409716661066044 
1170	 0.409638003217378 
1171	 0.409581770749384 
1172	 0.409583110113685 
1173	 0.409548155518577 
1174	 0.409510798264487 
1175	 0.409448867429936 
1176	 0.4093506816864 
1177	 0.409280001807424 
1178	 0.409216123861072 
1179	 0.409138481029287 
1180	 0.409056101672864 
1181	 0.408941137081311 
1182	 0.40878135856112 
1183	 0.408615173614012 
1184	 0.408503790706813 
1185	 0.408405973335875 
1186	 0.408292648073272 
1187	 0.408182071919141 
1188	 0.408098883524539 
1189	 0.408010596488163 
1190	 0.407931103112037 
1191	 0.407904236990943 
1192	 0.407834769346357 
1193	 0.407712346611074 
1194	 0.407645738614412 
1195	 0.407608516011697 
1196	 0.407541065878526 
1197	 0.407462575639186 
1198	 0.407435935970889 
1199	 0.407365058478712 
1200	 0.407321857129263 
1201	 0.407314963530392 
1202	 0.407314831135697 
1203	 0.407336738690774 
1204	 0.407371137658731 
1205	 0.40740645673192 
1206	 0.407456702495554 
1207	 0.407511412688363 
1208	 0.407545783641159 
1209	 0.407633071536061 
1210	 0.407724659138114 
1211	 0.407887939639747 
1212	 0.408122846524842 
1213	 0.408353588516311 
1214	 0.408622455845668 
1215	 0.408913871738974 
1216	 0.409214113192061 
1217	 0.409530243692158 
1218	 0.409868795211618 
1219	 0.41024047849034 
1220	 0.41066287711053 
1221	 0.411115486484602 
1222	 0.411521561968441 
1223	 0.411968709347062 
1224	 0.412368437381942 
1225	 0.412704401554259 
1226	 0.413065629549823 
1227	 0.413438741986757 
1228	 0.413796581422391 
1229	 0.414148930558756 
1230	 0.414479059057266 
1231	 0.414805324695864 
1232	 0.415117383086235 
1233	 0.415407624243049 
1234	 0.415675053841016 
1235	 0.415910011102863 
1236	 0.416170188357433 
1237	 0.416432499681692 
1238	 0.416673920628875 
1239	 0.416925377945635 
1240	 0.41717145901883 
1241	 0.417377972127896 
1242	 0.41755379978045 
1243	 0.41775037030584 
1244	 0.417958170108566 
1245	 0.41813557057236 
1246	 0.418295382289349 
1247	 0.418464462769997 
1248	 0.418621151284824 
1249	 0.418779864928291 
1250	 0.418937138194957 
1251	 0.419107705012855 
1252	 0.419272068728853 
1253	 0.41944732263064 
1254	 0.419649532150872 
1255	 0.419839589731853 
1256	 0.420039627956147 
1257	 0.420213446643538 
1258	 0.420345131834997 
1259	 0.420520914925815 
1260	 0.420711148766402 
1261	 0.420891064159831 
1262	 0.421083386031613 
1263	 0.421307679581883 
1264	 0.421500726356427 
1265	 0.42166835393483 
1266	 0.42184971240126 
1267	 0.422042109518419 
1268	 0.422218386478401 
1269	 0.422373010213497 
1270	 0.422548011445343 
1271	 0.42273712376959 
1272	 0.422906028903866 
1273	 0.42308561735458 
1274	 0.423240732007049 
1275	 0.423359989098224 
1276	 0.423497664189337 
1277	 0.423624769575567 
1278	 0.423765350687654 
1279	 0.423967225727579 
1280	 0.424083346487112 
1281	 0.424136680009453 
1282	 0.424220227482464 
1283	 0.424242952149489 
1284	 0.424301115708926 
1285	 0.424382841444657 
1286	 0.424529981926283 
1287	 0.424591814514892 
1288	 0.424623583650442 
1289	 0.424674773166305 
1290	 0.424695682961567 
1291	 0.424745344028793 
1292	 0.424823012768724 
1293	 0.424882979336982 
1294	 0.424952086584878 
1295	 0.42498574516628 
1296	 0.425004065447999 
1297	 0.425017484831073 
1298	 0.424979747526044 
1299	 0.424993083750195 
1300	 0.425037538856641 
1301	 0.425069041312898 
1302	 0.425113923598645 
1303	 0.42515813757684 
1304	 0.425184158193173 
1305	 0.425232539434609 
1306	 0.425303484356264 
1307	 0.425370947997616 
1308	 0.425447294592253 
1309	 0.425520870611285 
1310	 0.425604514285964 
1311	 0.425699989645205 
1312	 0.42576767231098 
1313	 0.425823346104628 
1314	 0.425900737887772 
1315	 0.425959356072401 
1316	 0.426050562740698 
1317	 0.426185137832852 
1318	 0.426287231361447 
1319	 0.426371939695585 
1320	 0.426481537055022 
1321	 0.426598782547986 
1322	 0.426711885016693 
1323	 0.426816835231644 
1324	 0.426960248497521 
1325	 0.42712881358065 
1326	 0.427279597766755 
1327	 0.42747070586842 
1328	 0.427626317882559 
1329	 0.427727111495163 
1330	 0.427859756394307 
1331	 0.427992669531617 
1332	 0.428141220631103 
1333	 0.428312750966908 
1334	 0.428485448682202 
1335	 0.428645922497703 
1336	 0.428813288578636 
1337	 0.428961416163882 
1338	 0.42908927610081 
1339	 0.429233300765234 
1340	 0.429378459176404 
1341	 0.429521085057004 
1342	 0.429675082742167 
1343	 0.429804980447406 
1344	 0.429919038823161 
1345	 0.430039015514272 
1346	 0.430147011962731 
1347	 0.43026210668148 
1348	 0.430378989133891 
1349	 0.430501865853424 
1350	 0.430649809791228 
1351	 0.430754780035974 
1352	 0.430839364938398 
1353	 0.430927988092231 
1354	 0.430968693096712 
1355	 0.431051890327385 
1356	 0.431175303512209 
1357	 0.431282852123065 
1358	 0.431426740753362 
1359	 0.431519308579339 
1360	 0.431590958926692 
1361	 0.431633341531391 
1362	 0.431633070524259 
1363	 0.431623271262552 
1364	 0.431637480389454 
1365	 0.431652698901423 
1366	 0.43166321454658 
1367	 0.431701034294042 
1368	 0.431683342834299 
1369	 0.43163642701138 
1370	 0.431585198740198 
1371	 0.431506911651167 
1372	 0.431433870653246 
1373	 0.431376704287998 
1374	 0.431267995483277 
1375	 0.431125463225339 
1376	 0.430984492949879 
1377	 0.43079486858398 
1378	 0.430640860679677 
1379	 0.430519773901168 
1380	 0.430365625543469 
1381	 0.430224498658438 
1382	 0.430038490289669 
1383	 0.429808031770979 
1384	 0.429581143790127 
1385	 0.429333420344553 
1386	 0.429083173538269 
1387	 0.428808094330943 
1388	 0.428563843691408 
1389	 0.428285880155927 
1390	 0.42807748194964 
1391	 0.427910707626039 
1392	 0.427799410405854 
1393	 0.427715754213334 
1394	 0.427636057857674 
1395	 0.427518148956694 
1396	 0.427379612969813 
1397	 0.427257032733696 
1398	 0.427124840979558 
1399	 0.426988488961365 
1400	 0.426885077820799 
1401	 0.4267074586238 
1402	 0.42650652169666 
1403	 0.42624524551787 
1404	 0.425935049516316 
1405	 0.425597068931983 
1406	 0.425204021368073 
1407	 0.42480214638169 
1408	 0.424370210559967 
1409	 0.42392604526479 
1410	 0.423446630704374 
1411	 0.422982932745959 
1412	 0.422488174032985 
1413	 0.422040016588785 
1414	 0.42161025854105 
1415	 0.421197322223097 
1416	 0.420798800710499 
1417	 0.420437985885149 
1418	 0.42010912117283 
1419	 0.419786059248551 
1420	 0.419516678569293 
1421	 0.419221718469107 
1422	 0.418897484913091 
1423	 0.418603267618542 
1424	 0.418319383225053 
1425	 0.418038140798655 
1426	 0.417774157245502 
1427	 0.417538306940069 
1428	 0.417304788075601 
1429	 0.41704443174954 
1430	 0.416807305036 
1431	 0.416579125298758 
1432	 0.416354904125347 
1433	 0.416139658907675 
1434	 0.415921343450549 
1435	 0.415716641566204 
1436	 0.415480194711493 
1437	 0.415224347823873 
1438	 0.414981693072667 
1439	 0.41471822971215 
1440	 0.414483039682708 
1441	 0.414267367246515 
1442	 0.414050025399187 
1443	 0.413813494340527 
1444	 0.413642213401288 
1445	 0.413463249653151 
1446	 0.413385276235588 
1447	 0.413358622972316 
1448	 0.413419829961643 
1449	 0.413573253324731 
1450	 0.413769056267365 
1451	 0.414041086792624 
1452	 0.414359500672358 
1453	 0.414750300211337 
1454	 0.415147839862267 
1455	 0.415598978657595 
1456	 0.416057755165202 
1457	 0.416540681518215 
1458	 0.41702414076475 
1459	 0.417529761144037 
1460	 0.418039388418756 
1461	 0.418561284160808 
1462	 0.419065818575425 
1463	 0.419572513612877 
1464	 0.420075981990523 
1465	 0.420580291294338 
1466	 0.421056150248657 
1467	 0.421511290778146 
1468	 0.421968969761618 
1469	 0.422414504541391 
1470	 0.422866037865252 
1471	 0.423325855836803 
1472	 0.423816463808667 
1473	 0.424267791999579 
1474	 0.424705409082568 
1475	 0.425131287547137 
1476	 0.425548668068695 
1477	 0.425946479002006 
1478	 0.426325254669856 
1479	 0.426696813656993 
1480	 0.427055103331076 
1481	 0.427397860257364 
1482	 0.42773431106502 
1483	 0.428050522791589 
1484	 0.428348855158249 
1485	 0.428629221909894 
1486	 0.428873842879034 
1487	 0.429144030139729 
1488	 0.429406015591072 
1489	 0.429678057261391 
1490	 0.429965832518955 
1491	 0.43025311972758 
1492	 0.430522440474984 
1493	 0.430832430068516 
1494	 0.431173121022989 
1495	 0.43150939883186 
1496	 0.431872374090059 
1497	 0.432218104131082 
1498	 0.432556253478277 
1499	 0.432898299467997 
1500	 0.433238164488656 
1501	 0.433581570568499 
1502	 0.433915540383884 
1503	 0.434268632395188 
1504	 0.434660353417444 
1505	 0.435007010959794 
1506	 0.435340931669621 
1507	 0.435673590210185 
1508	 0.435960104061449 
1509	 0.436273029130651 
1510	 0.436642931816724 
1511	 0.436947295895509 
1512	 0.437224753776591 
1513	 0.437487459216193 
1514	 0.43768729802893 
1515	 0.437909106521291 
1516	 0.438144141164381 
1517	 0.438364597065236 
1518	 0.438597591250365 
1519	 0.438795559674032 
1520	 0.438957608822442 
1521	 0.439124529196658 
1522	 0.439269510597244 
1523	 0.439411210677716 
1524	 0.439526537259493 
1525	 0.439630829010274 
1526	 0.439732846635452 
1527	 0.439805227484153 
1528	 0.439903674714587 
1529	 0.440008212944201 
1530	 0.440131764824269 
1531	 0.440274964413749 
1532	 0.440385804436571 
1533	 0.440513137869568 
1534	 0.440599646770504 
1535	 0.440627006142284 
1536	 0.440718450578269 
1537	 0.44082326845238 
1538	 0.440931098851156 
1539	 0.441054495044259 
1540	 0.441202602100169 
1541	 0.441353472417928 
1542	 0.44152977696892 
1543	 0.441750203657245 
1544	 0.44195372659995 
1545	 0.442147188947542 
1546	 0.442374060808528 
1547	 0.442614580827278 
1548	 0.442876631278838 
1549	 0.443194713695371 
1550	 0.443444845270994 
1551	 0.443672552514103 
1552	 0.44391281142189 
1553	 0.444108945327513 
1554	 0.444349928518497 
1555	 0.444648243053275 
1556	 0.444890770411259 
1557	 0.445114796311677 
1558	 0.445339544728665 
1559	 0.445524913226969 
1560	 0.445753288683789 
1561	 0.446016800368944 
1562	 0.446250553990369 
1563	 0.446484344325996 
1564	 0.446719936973083 
1565	 0.446939766664121 
1566	 0.447165875422465 
1567	 0.447399291294109 
1568	 0.447638732152742 
1569	 0.447880329058606 
1570	 0.448114254306198 
1571	 0.44835976071196 
1572	 0.448592854974273 
1573	 0.448808356758797 
1574	 0.449028691801524 
1575	 0.44925620730747 
1576	 0.44947014232591 
1577	 0.44966596075886 
1578	 0.449876213105043 
1579	 0.450090709789719 
1580	 0.45029827801907 
1581	 0.450521535574876 
1582	 0.450719787087588 
1583	 0.450878160142848 
1584	 0.451075186294561 
1585	 0.451279019012669 
1586	 0.451488646256716 
1587	 0.45174238564913 
1588	 0.451957118516807 
1589	 0.452137540460817 
1590	 0.452340091194658 
1591	 0.452530887031168 
1592	 0.452739163466362 
1593	 0.452974642802829 
1594	 0.453199974273308 
1595	 0.453429619635592 
1596	 0.453651443623971 
1597	 0.453872039405785 
1598	 0.454084965045614 
1599	 0.454290149869896 
1600	 0.454494599434843 
1601	 0.454691867204896 
1602	 0.454889626433467 
1603	 0.455076274061381 
1604	 0.45527929497733 
1605	 0.455496026490506 
1606	 0.455702546343082 
1607	 0.45592104442552 
1608	 0.456125976142026 
1609	 0.45631358501534 
1610	 0.45650912397988 
1611	 0.456720927108062 
1612	 0.456898582718934 
1613	 0.45705613183315 
1614	 0.45721136606855 
1615	 0.457347243221514 
1616	 0.457476657587283 
1617	 0.457595623546618 
1618	 0.457722165186059 
1619	 0.457841142567582 
1620	 0.457959238261787 
1621	 0.458088283065049 
1622	 0.458209963790909 
1623	 0.45833042134065 
1624	 0.458432562459835 
1625	 0.458527979061871 
1626	 0.458615007246654 
1627	 0.45865629030756 
1628	 0.458740293718532 
1629	 0.45886803611506 
1630	 0.458955124093266 
1631	 0.4590303344539 
1632	 0.459122831109754 
1633	 0.459187799215631 
1634	 0.459277266630886 
1635	 0.459422514144333 
1636	 0.459527008790526 
1637	 0.459609768289965 
1638	 0.459691112594343 
1639	 0.459760707538404 
1640	 0.459823129679251 
1641	 0.459864604755132 
1642	 0.459931453320701 
1643	 0.460011660108017 
1644	 0.460074273981599 
1645	 0.460173240037287 
1646	 0.460216696059534 
1647	 0.460190757869214 
1648	 0.460205362052204 
1649	 0.460257838883644 
1650	 0.460223737901479 
1651	 0.460154103888597 
1652	 0.460087863717861 
1653	 0.459937795379078 
1654	 0.459832692977861 
1655	 0.459779042175795 
1656	 0.459688721777304 
1657	 0.459596317722526 
1658	 0.459471245750416 
1659	 0.459361174070072 
1660	 0.459167154399113 
1661	 0.45892292236105 
1662	 0.458622937484043 
1663	 0.458220113677032 
1664	 0.457835548525518 
1665	 0.457430387786958 
1666	 0.456993971952565 
1667	 0.456579349847032 
1668	 0.456076275660319 
1669	 0.455515165608094 
1670	 0.454897951873703 
1671	 0.454200336935024 
1672	 0.45346879659997 
1673	 0.452701284619025 
1674	 0.451870393580254 
1675	 0.450980360365117 
1676	 0.450069023799746 
1677	 0.449111511710902 
1678	 0.448107272918936 
1679	 0.447056872424931 
1680	 0.44597127786153 
1681	 0.444845893245015 
1682	 0.443665971951431 
1683	 0.44245986109783 
1684	 0.441204122199011 
1685	 0.439918551474903 
1686	 0.438502098284566 
1687	 0.436962936748799 
1688	 0.435437290058007 
1689	 0.433821990241976 
1690	 0.432197454818411 
1691	 0.430611291865843 
1692	 0.428949464716317 
1693	 0.427213918591779 
1694	 0.425444985640634 
1695	 0.423642555216488 
1696	 0.421771709039679 
1697	 0.419825345590533 
1698	 0.417840203731033 
1699	 0.415796411198112 
1700	 0.41380908705364 
1701	 0.411795785015601 
1702	 0.409798637162258 
1703	 0.407770263594313 
1704	 0.405863425172301 
1705	 0.403946450987255 
1706	 0.402200067930474 
1707	 0.40065954461369 
1708	 0.399129805410759 
1709	 0.397697513022211 
1710	 0.396364588373308 
1711	 0.395045804908083 
1712	 0.393877632043814 
1713	 0.392799884657571 
1714	 0.391792507880812 
1715	 0.390895460803306 
1716	 0.389991070900485 
1717	 0.389117463223747 
1718	 0.388294377118678 
1719	 0.387480128847245 
1720	 0.386734260031785 
1721	 0.386045072360389 
1722	 0.38542856028773 
1723	 0.38495300473376 
1724	 0.384562439311561 
1725	 0.384284391475955 
1726	 0.384160873839735 
1727	 0.384178824139286 
1728	 0.384360743953626 
1729	 0.384783799492763 
1730	 0.385411808757802 
1731	 0.386110921983211 
1732	 0.387076008222298 
1733	 0.388175377563567 
1734	 0.389276508357795 
1735	 0.390525221518383 
1736	 0.391693170325129 
1737	 0.392707828511928 
1738	 0.393755552243717 
1739	 0.394609483600414 
1740	 0.395397417314019 
1741	 0.395984063682918 
1742	 0.396355141166968 
1743	 0.396634271236779 
1744	 0.39670122344531 
1745	 0.396751117887501 
1746	 0.396742250674894 
1747	 0.39661442653316 
1748	 0.396339871043232 
1749	 0.396138098738629 
1750	 0.39579479317192 
1751	 0.395623075231956 
1752	 0.395580039821396 
1753	 0.395538748281508 
1754	 0.395539783733811 
1755	 0.395633349282751 
1756	 0.395728676717714 
1757	 0.395993928113925 
1758	 0.396393447696111 
1759	 0.396871848294108 
1760	 0.397488908702262 
1761	 0.39820375850552 
1762	 0.398948155352873 
1763	 0.399847111765206 
1764	 0.400844102303325 
1765	 0.401935133375809 
1766	 0.40321033635767 
1767	 0.404544384257496 
1768	 0.405910448314596 
1769	 0.407262411039758 
1770	 0.408520830465786 
1771	 0.409796958325164 
1772	 0.411047059276639 
1773	 0.412268168176588 
1774	 0.413530868518509 
1775	 0.414596549598019 
1776	 0.415577434145023 
1777	 0.41657383434751 
1778	 0.417379562589087 
1779	 0.418185180393876 
1780	 0.418995975088409 
1781	 0.419670875682755 
1782	 0.420422093397597 
1783	 0.421173408804 
1784	 0.421769027772711 
1785	 0.422231697884698 
1786	 0.422693623823495 
1787	 0.423038799042704 
1788	 0.423448489889294 
1789	 0.423936576685401 
1790	 0.424306743118661 
1791	 0.424613804725576 
1792	 0.424883135532542 
1793	 0.425058094462262 
1794	 0.425290167202124 
1795	 0.425550929295012 
1796	 0.425858271673278 
1797	 0.426149165090212 
1798	 0.426434128222332 
1799	 0.426733622481642 
1800	 0.427014647595137 
1801	 0.428758692752758 
1802	 0.429119125516522 
1803	 0.429419999958824 
1804	 0.429695994002546 
1805	 0.429903187073106 
1806	 0.430137390845427 
1807	 0.43036853162485 
1808	 0.430594834774552 
1809	 0.430786001442938 
1810	 0.431018372423098 
1811	 0.431266837713569 
1812	 0.431518415125261 
1813	 0.431774216096335 
1814	 0.432075470940665 
1815	 0.432363494673327 
1816	 0.432655402972106 
1817	 0.432938179740966 
1818	 0.433210586810869 
1819	 0.433502790916617 
1820	 0.433783391074632 
1821	 0.434089412240751 
1822	 0.43439143765334 
1823	 0.4347725685871 
1824	 0.435167008221864 
1825	 0.435519429972183 
1826	 0.43585539000615 
1827	 0.436201997653503 
1828	 0.436502546192692 
1829	 0.436730100191332 
1830	 0.437018472360037 
1831	 0.437310125265759 
1832	 0.437618481282925 
1833	 0.437942091699367 
1834	 0.438246220164737 
1835	 0.438566507632676 
1836	 0.438863363425653 
1837	 0.439150969152171 
1838	 0.439438874841797 
1839	 0.439720654339142 
1840	 0.439976626594056 
1841	 0.440255928474375 
1842	 0.440541581642314 
1843	 0.440813848019338 
1844	 0.441167603635393 
1845	 0.441464603753997 
1846	 0.441712638463534 
1847	 0.441997471542705 
1848	 0.442238141553 
1849	 0.442423550251641 
1850	 0.442616994414443 
1851	 0.442825661848428 
1852	 0.442978649857522 
1853	 0.443094337851375 
1854	 0.443191059570972 
1855	 0.443242455809182 
1856	 0.443333732003963 
1857	 0.443410982553627 
1858	 0.44342584567836 
1859	 0.443437240272622 
1860	 0.443425575433332 
1861	 0.4433886149075 
1862	 0.443345183613045 
1863	 0.443273840497258 
1864	 0.443093604188541 
1865	 0.442923061069171 
1866	 0.442711859901628 
1867	 0.442451494928378 
1868	 0.442239379369319 
1869	 0.441994796420694 
1870	 0.441671066452975 
1871	 0.441297608865311 
1872	 0.440876198310794 
1873	 0.440399885631879 
1874	 0.439867358303683 
1875	 0.439292304835293 
1876	 0.438634619682365 
1877	 0.437973993156812 
1878	 0.437216625586811 
1879	 0.436373994784304 
1880	 0.435534483422073 
1881	 0.434602166039389 
1882	 0.433571789687237 
1883	 0.432527748323389 
1884	 0.431397626063239 
1885	 0.430108461056332 
1886	 0.428811300613261 
1887	 0.427360532526397 
1888	 0.425791533733786 
1889	 0.424281198173853 
1890	 0.422644579051943 
1891	 0.420980400313157 
1892	 0.419304499294122 
1893	 0.417533632441346 
1894	 0.415656213862573 
1895	 0.413802263372847 
1896	 0.41187422841878 
1897	 0.409934202113516 
1898	 0.408163438189569 
1899	 0.406346839909127 
1900	 0.404620202927815 
1901	 0.402999285732665 
1902	 0.401244601043884 
1903	 0.399590935427062 
1904	 0.398004408709643 
1905	 0.396441261760429 
1906	 0.39491198929351 
1907	 0.393607915781786 
1908	 0.392337263676474 
1909	 0.391116291622013 
1910	 0.389983424060903 
1911	 0.388827695324528 
1912	 0.387776221271161 
1913	 0.386772696500906 
1914	 0.385816518320316 
1915	 0.384960248928761 
1916	 0.38421998677663 
1917	 0.383472615444588 
1918	 0.382787281107425 
1919	 0.382176490002595 
1920	 0.381551157961195 
1921	 0.380956750981851 
1922	 0.380360267560185 
1923	 0.379789408891931 
1924	 0.37927874056563 
1925	 0.378792076657907 
1926	 0.378334502689404 
1927	 0.377930597266087 
1928	 0.377530649316789 
1929	 0.377136096809791 
1930	 0.376775730695124 
1931	 0.376465974938464 
1932	 0.376203789329758 
1933	 0.375976051213446 
1934	 0.37583076234241 
1935	 0.375724497895106 
1936	 0.375619434360377 
1937	 0.375582755397006 
1938	 0.375595174994078 
1939	 0.375631624811125 
1940	 0.375684000829043 
1941	 0.375867542071016 
1942	 0.376060626672263 
1943	 0.376280645941473 
1944	 0.376518780318337 
1945	 0.376806931635717 
1946	 0.377136038020439 
1947	 0.377474368487782 
1948	 0.377940726598999 
1949	 0.378434432001608 
1950	 0.37890971160538 
1951	 0.379362240283343 
1952	 0.379917904347312 
1953	 0.380508880935987 
1954	 0.381121659676342 
1955	 0.381835979331769 
1956	 0.382598501775999 
1957	 0.383318379529527 
1958	 0.384022470090041 
1959	 0.384691684014103 
1960	 0.385353534243278 
1961	 0.385995670919827 
1962	 0.386624826100071 
1963	 0.387219268317983 
1964	 0.387786051067805 
1965	 0.388325433498141 
1966	 0.388845759991134 
1967	 0.389328814740188 
1968	 0.389753483589161 
1969	 0.390204661310962 
1970	 0.390607297446381 
1971	 0.39102291489064 
1972	 0.391493206367298 
1973	 0.391944212217264 
1974	 0.392382798926101 
1975	 0.39279778459539 
1976	 0.393256653787232 
1977	 0.393724371827972 
1978	 0.394209004101218 
1979	 0.394735917326929 
1980	 0.395242389267727 
1981	 0.395785952938291 
1982	 0.396276405042525 
1983	 0.396796606698353 
1984	 0.397362806225164 
1985	 0.397867511579545 
1986	 0.398384380205638 
1987	 0.39893206082967 
1988	 0.399471501483556 
1989	 0.400068369413994 
1990	 0.400698986535356 
1991	 0.401369279469477 
1992	 0.402083468746881 
1993	 0.402822928512618 
1994	 0.403600653745525 
1995	 0.404431991062261 
1996	 0.405219922076999 
1997	 0.406033181476215 
1998	 0.406833255121116 
1999	 0.407629065496264 
2000	 0.408390558044074 
2001	 0.409186563240878 
2002	 0.409888770431298 
2003	 0.410510920389449 
2004	 0.411139588137549 
2005	 0.41171470258494 
2006	 0.412288666693662 
2007	 0.412866534436299 
2008	 0.413422332212678 
2009	 0.413934250485711 
2010	 0.414428592595596 
2011	 0.41485953518251 
2012	 0.415273408138621 
2013	 0.4156391624978 
2014	 0.41595514361282 
2015	 0.41625040801131 
2016	 0.416480024705402 
2017	 0.416740259029258 
2018	 0.417041715994287 
2019	 0.417246600501546 
2020	 0.417417812406042 
2021	 0.417569098493682 
2022	 0.417608703597358 
2023	 0.417592940733817 
2024	 0.417583352521041 
2025	 0.417549091297282 
2026	 0.417488535226006 
2027	 0.417385844392312 
2028	 0.417299144290689 
2029	 0.41720275102795 
2030	 0.417085536005246 
2031	 0.416966883100666 
2032	 0.416838312691189 
2033	 0.416692598344165 
2034	 0.416523170151657 
2035	 0.416343025435676 
2036	 0.416141470084817 
2037	 0.415917059758436 
2038	 0.415699908841801 
2039	 0.415512078110806 
2040	 0.415346105949738 
2041	 0.415186418573964 
2042	 0.415056427177869 
2043	 0.414897620902844 
2044	 0.41472168227558 
2045	 0.414571677668177 
2046	 0.4144085262579 
2047	 0.414274485954524 
2048	 0.414193171067084 
2049	 0.414084204200687 
2050	 0.413971479892587 
2051	 0.413866259165396 
2052	 0.413739943097152 
2053	 0.413581077032236 
2054	 0.413462589214877 
2055	 0.413349240668053 
2056	 0.413248737245945 
2057	 0.413181527509347 
2058	 0.413095839121239 
2059	 0.413010830204702 
2060	 0.412914762818095 
2061	 0.412826604071582 
2062	 0.41270352397684 
2063	 0.412551408161401 
2064	 0.412403389700294 
2065	 0.412217632217384 
2066	 0.412061788865618 
2067	 0.411935241629821 
2068	 0.411823010977847 
2069	 0.411706702354385 
2070	 0.411621222527827 
2071	 0.411499231400645 
2072	 0.411337690202211 
2073	 0.411224856112654 
2074	 0.411140198021295 
2075	 0.411022908163497 
2076	 0.410904934624599 
2077	 0.410801055439063 
2078	 0.410671587758924 
2079	 0.410559234248803 
2080	 0.410493799232662 
2081	 0.410406659187267 
2082	 0.410287876656523 
2083	 0.410206081716204 
2084	 0.410126171098892 
2085	 0.409991302368588 
2086	 0.409854518830042 
2087	 0.409688800317822 
2088	 0.4095387617994 
2089	 0.409378178326324 
2090	 0.409226783888018 
2091	 0.409073643901273 
2092	 0.40894187177689 
2093	 0.408833531779702 
2094	 0.408698102390379 
2095	 0.408573985576765 
2096	 0.408436888903815 
2097	 0.408289301090104 
2098	 0.408100165760335 
2099	 0.40795796419027 
2100	 0.407806341711544 
2101	 0.407585659184325 
2102	 0.407325454166304 
2103	 0.407064359049428 
2104	 0.406721355579828 
2105	 0.406461835493026 
2106	 0.406253145292705 
2107	 0.406008285510342 
2108	 0.405807860183576 
2109	 0.405528904066064 
2110	 0.405187562350987 
2111	 0.404859778079043 
2112	 0.404464514220356 
2113	 0.404129495489212 
2114	 0.403849216807586 
2115	 0.403527574493223 
2116	 0.403210794224839 
2117	 0.40290796467741 
2118	 0.402543413225095 
2119	 0.402117403247533 
2120	 0.401742750573234 
2121	 0.401344127632259 
2122	 0.400985893510486 
2123	 0.400637083800806 
2124	 0.400339033331533 
2125	 0.400077765918931 
2126	 0.399836087080281 
2127	 0.399635199261651 
2128	 0.399454914634277 
2129	 0.399272449446001 
2130	 0.399143656015285 
2131	 0.399090158994865 
2132	 0.399021239752458 
2133	 0.398974072189917 
2134	 0.398944520182839 
2135	 0.398895837171739 
2136	 0.39887226152701 
2137	 0.398846324773024 
2138	 0.398829920376617 
2139	 0.398820106223008 
2140	 0.398828401347661 
2141	 0.398802148903586 
2142	 0.398759633043753 
2143	 0.398745784513091 
2144	 0.398696675874278 
2145	 0.398709745897142 
2146	 0.398757283353907 
2147	 0.398838929819295 
2148	 0.39897993805422 
2149	 0.399099797270244 
2150	 0.399250399242028 
2151	 0.399397743694257 
2152	 0.399561951444639 
2153	 0.3996767837802 
2154	 0.399806647374269 
2155	 0.399921059165295 
2156	 0.399990804874316 
2157	 0.400017684676975 
2158	 0.40003962837614 
2159	 0.400027878158589 
2160	 0.400027493857939 
2161	 0.40000699217352 
2162	 0.399997882951762 
2163	 0.400017744222765 
2164	 0.399978215859332 
2165	 0.399906510332909 
2166	 0.399842378159421 
2167	 0.399791111039802 
2168	 0.399657161655749 
2169	 0.399442759260362 
2170	 0.399288230195008 
2171	 0.399108538626126 
2172	 0.398915923379878 
2173	 0.398748721014264 
2174	 0.398606357001853 
2175	 0.398410368857074 
2176	 0.398189856307795 
2177	 0.398064575711906 
2178	 0.398018260698706 
2179	 0.397939578942727 
2180	 0.397896810463024 
2181	 0.397823328842509 
2182	 0.397763810198014 
2183	 0.397640200945175 
2184	 0.397460764664386 
2185	 0.397326790421896 
2186	 0.397183203527509 
2187	 0.397011528319962 
2188	 0.39686984578064 
2189	 0.39668660186183 
2190	 0.396436116554544 
2191	 0.396205293072719 
2192	 0.395968270088699 
2193	 0.395742695118538 
2194	 0.395525754048653 
2195	 0.395290060972116 
2196	 0.395080477675928 
2197	 0.394834657572174 
2198	 0.394516480824932 
2199	 0.394143778312899 
2200	 0.393782192928962 
2201	 0.393371726933127 
2202	 0.392984220772817 
2203	 0.392614340340336 
2204	 0.392215693098428 
2205	 0.391784510526875 
2206	 0.391372247538066 
2207	 0.390955687579345 
2208	 0.390547432740175 
2209	 0.390166554832097 
2210	 0.389750796287938 
2211	 0.38934051151894 
2212	 0.388886739573528 
2213	 0.388369424569438 
2214	 0.387884949270384 
2215	 0.387389593396225 
2216	 0.386901837319008 
2217	 0.386456849642827 
2218	 0.385972455700377 
2219	 0.385477970832029 
2220	 0.384954934658875 
2221	 0.384435925249102 
2222	 0.383820006812144 
2223	 0.383207715933755 
2224	 0.382597022410465 
2225	 0.382038007969234 
2226	 0.381505448644033 
2227	 0.38082105242865 
2228	 0.380126339230857 
2229	 0.379298228756331 
2230	 0.378292144881127 
2231	 0.377321087556728 
2232	 0.376345334563364 
2233	 0.375244653296584 
2234	 0.374102198394097 
2235	 0.37281520020536 
2236	 0.371390618744054 
2237	 0.369923550319794 
2238	 0.368333395732529 
2239	 0.366711048366574 
2240	 0.365082025624734 
2241	 0.363276598531051 
2242	 0.361414235373328 
2243	 0.359362186070283 
2244	 0.357067812764573 
2245	 0.354786557749951 
2246	 0.352332626691865 
2247	 0.349894312081601 
2248	 0.347438126442188 
2249	 0.344958269554348 
2250	 0.342473246519424 
2251	 0.339942391952405 
2252	 0.337268182499534 
2253	 0.334549088595799 
2254	 0.331716065453662 
2255	 0.328990980135563 
2256	 0.326556439831746 
2257	 0.324062842525248 
2258	 0.32163666957928 
2259	 0.31936662766749 
2260	 0.316976405557588 
2261	 0.314516513405108 
2262	 0.312178041238616 
2263	 0.309777872692039 
2264	 0.307613908579197 
2265	 0.305637845952241 
2266	 0.303613747599915 
2267	 0.3017864603742 
2268	 0.299804596555172 
2269	 0.297689871549191 
2270	 0.295725992437742 
2271	 0.293778879016554 
2272	 0.291879013134002 
2273	 0.290109727141911 
2274	 0.2882717523768 
2275	 0.2864769343266 
2276	 0.28458268967064 
2277	 0.28264859499836 
2278	 0.280672162602713 
2279	 0.278525951165778 
2280	 0.276492618286526 
2281	 0.274536877554876 
2282	 0.272500028196219 
2283	 0.270534090531026 
2284	 0.268457935753266 
2285	 0.266115805959163 
2286	 0.263863301136576 
2287	 0.261479531695156 
2288	 0.258950723618119 
2289	 0.256592674069935 
2290	 0.254091880204575 
2291	 0.251634920577166 
2292	 0.249300528131638 
2293	 0.246790361595823 
2294	 0.244311045006497 
2295	 0.241714721028969 
2296	 0.239167718125942 
2297	 0.236956175165479 
2298	 0.234863795314517 
2299	 0.233050061809501 
2300	 0.231564782683664 
2301	 0.230254967281522 
2302	 0.229100134949269 
2303	 0.228335891065759 
2304	 0.22787592595672 
2305	 0.227693879063044 
2306	 0.227867407695692 
2307	 0.228278346769625 
2308	 0.228926443654807 
2309	 0.229961210122765 
2310	 0.231392852746048 
2311	 0.232971589227378 
2312	 0.235016791814168 
2313	 0.237006594685529 
2314	 0.239137012333559 
2315	 0.24135593977191 
2316	 0.243773668542564 
2317	 0.246041057475025 
2318	 0.24848431837314 
2319	 0.25055115848252 
2320	 0.252485854481181 
2321	 0.254124445725561 
2322	 0.255528149705952 
2323	 0.256642652173725 
2324	 0.257399466394637 
2325	 0.258032962026748 
2326	 0.258329913410042 
2327	 0.258592726878093 
2328	 0.258801568600657 
2329	 0.258764896695101 
2330	 0.258549317476465 
2331	 0.258165903062546 
2332	 0.257521342711795 
2333	 0.256740349526635 
2334	 0.255855508507017 
2335	 0.254697109328785 
2336	 0.253425720260859 
2337	 0.252086405877236 
2338	 0.250648977016213 
2339	 0.249272987394536 
2340	 0.247904355392766 
2341	 0.246333748228547 
2342	 0.244731333613105 
2343	 0.243290198681266 
2344	 0.241972902028412 
2345	 0.240909922250994 
2346	 0.24026701101877 
2347	 0.239939509473429 
2348	 0.23980683282607 
2349	 0.240153964435435 
2350	 0.240839855041585 
2351	 0.241702683769006 
2352	 0.243059996961054 
2353	 0.244705441598717 
2354	 0.246252252966444 
2355	 0.247895865369365 
2356	 0.249338187398941 
2357	 0.250647877552303 
2358	 0.251930690613096 
2359	 0.252958220904972 
2360	 0.253977418289454 
2361	 0.254631968597471 
2362	 0.25490999179003 
2363	 0.25512372116414 
2364	 0.255139747124717 
2365	 0.255068879185569 
2366	 0.255136229730453 
2367	 0.255026983229204 
2368	 0.254859338542984 
2369	 0.254843499520974 
2370	 0.254684192329166 
2371	 0.254621511778443 
2372	 0.254640409638558 
2373	 0.254412280623244 
2374	 0.254270088035611 
2375	 0.25428041615639 
2376	 0.254184905544638 
2377	 0.254260278689863 
2378	 0.254305295274306 
2379	 0.254279974498017 
2380	 0.254398554156539 
2381	 0.254352099999926 
2382	 0.254355663793378 
2383	 0.254376268852681 
2384	 0.254385461014991 
2385	 0.254383214237402 
2386	 0.254423719142236 
2387	 0.254526258294005 
2388	 0.254616059800167 
2389	 0.254656719544919 
2390	 0.254826497398879 
2391	 0.254988896768769 
2392	 0.255145394115416 
2393	 0.255494873129851 
2394	 0.255641848612501 
2395	 0.255661287001461 
2396	 0.255859135264526 
2397	 0.256072798709962 
2398	 0.256223242212903 
2399	 0.256418191197166 
2400	 0.256611093921333 
2401	 0.256671823365994 
2402	 0.256882478558111 
2403	 0.257146131560017 
2404	 0.257094737029561 
2405	 0.257226413296991 
2406	 0.257346719195243 
2407	 0.257324401899127 
2408	 0.257318559752048 
2409	 0.257213215882866 
2410	 0.257033599725027 
2411	 0.256862634421244 
2412	 0.256915403785279 
2413	 0.257231791759549 
2414	 0.25762914887975 
2415	 0.257990638652537 
2416	 0.258328593396747 
2417	 0.258304170794089 
2418	 0.258078371143703 
2419	 0.258206556137369 
2420	 0.258298093478433 
2421	 0.25816639951978 
2422	 0.257973498438001 
2423	 0.257831416958763 
2424	 0.257624322978611 
2425	 0.257406325489071 
2426	 0.257505946157635 
2427	 0.257622629632061 
2428	 0.257643726774562 
2429	 0.25778516455373 
2430	 0.257984000655256 
2431	 0.257986820671748 
2432	 0.257778857155885 
2433	 0.257822563941257 
2434	 0.257875530392552 
2435	 0.257657968011764 
2436	 0.257541738041802 
2437	 0.257214096169499 
2438	 0.256812610844053 
2439	 0.256811390950035 
2440	 0.257025992442538 
2441	 0.257276046751551 
2442	 0.257543337774748 
2443	 0.257426692637785 
2444	 0.256928280005179 
2445	 0.256813128696812 
2446	 0.256862141633357 
2447	 0.25677635045494 
2448	 0.256823717493323 
2449	 0.256794759846755 
2450	 0.256385478877475 
2451	 0.256003042200764 
2452	 0.255875450340654 
2453	 0.255622861068563 
2454	 0.255594359639471 
2455	 0.255854013111253 
2456	 0.255823106217034 
2457	 0.255661076563333 
2458	 0.255355182881939 
2459	 0.255021972644224 
2460	 0.25503795607453 
2461	 0.255149640340411 
2462	 0.255447891761433 
2463	 0.255541916956861 
2464	 0.255407920879776 
2465	 0.255291358102632 
2466	 0.254840004795717 
2467	 0.254637674934163 
2468	 0.254603724355 
2469	 0.254577227767181 
2470	 0.254780983851601 
2471	 0.25456466192926 
2472	 0.254427608957996 
2473	 0.254565698438746 
2474	 0.254506094098735 
2475	 0.255003753062339 
2476	 0.255352654512247 
2477	 0.255478948832404 
2478	 0.255759460103035 
2479	 0.25580352297899 
2480	 0.256577100502263 
2481	 0.256723553009234 
2482	 0.25658592929769 
2483	 0.256767828787449 
2484	 0.256875968861956 
2485	 0.257798204051064 
2486	 0.259147291511507 
2487	 0.260272768348023 
2488	 0.260958480323528 
2489	 0.260754466811468 
2490	 0.260403124866325 
2491	 0.260088742173945 
2492	 0.259860741879416 
2493	 0.260594041024272 
2494	 0.261586529085297 
2495	 0.262115840445828 
2496	 0.262699516136138 
2497	 0.263163044933998 
2498	 0.263605716053604 
2499	 0.264259826155188 
2500	 0.264978900724623 
