Wavelength	Tablay400068.asd
350	 0.235896152172045 
351	 0.272103753528304 
352	 0.289212319949294 
353	 0.265412544166735 
354	 0.164998685661808 
355	 0.183496784060211 
356	 0.200106802252902 
357	 0.11801743434647 
358	 0.141697391991953 
359	 0.171045081249489 
360	 0.176512998557436 
361	 0.17137218345913 
362	 0.139805096807471 
363	 0.100176145434745 
364	 9.20916234938022E-02 
365	 0.150986890133195 
366	 0.153959285498726 
367	 0.15960374148894 
368	 0.215727530124472 
369	 0.157743017496093 
370	 0.156135478016898 
371	 0.197111975694931 
372	 0.173195840198104 
373	 0.18202341165427 
374	 0.140336751034217 
375	 6.22836827118123E-02 
376	 0.133302128856887 
377	 0.121401938727525 
378	 0.101283778011848 
379	 0.152649143195955 
380	 0.110807224109373 
381	 9.56388568574797E-02 
382	 0.115805376719992 
383	 0.114923747480001 
384	 0.131933520147665 
385	 0.117650185401596 
386	 7.55048685215485E-02 
387	 0.104279329343447 
388	 0.128127997191015 
389	 0.120789126335366 
390	 8.84452270216795E-02 
391	 0.113182579973159 
392	 0.132904956974055 
393	 0.128675244689319 
394	 0.114621152498885 
395	 8.88530946896657E-02 
396	 8.28968094133187E-02 
397	 0.097154915983523 
398	 8.00742604518656E-02 
399	 8.64233438904636E-02 
400	 9.77002469153734E-02 
401	 8.72609533936694E-02 
402	 8.05118830725585E-02 
403	 6.94772690296083E-02 
404	 6.20827170316271E-02 
405	 7.53276571505786E-02 
406	 8.81743896396316E-02 
407	 8.96888417366201E-02 
408	 7.83610614264489E-02 
409	 0.062185890264742 
410	 6.21051788844878E-02 
411	 7.00423904021371E-02 
412	 7.12347056172181E-02 
413	 7.20388703743052E-02 
414	 6.73445295089424E-02 
415	 5.88882328523606E-02 
416	 5.51755162625676E-02 
417	 6.43623602827854E-02 
418	 6.84384155052167E-02 
419	 0.060034476980651 
420	 6.65341872871437E-02 
421	 5.94526133326555E-02 
422	 5.22460447713451E-02 
423	 6.68404139703121E-02 
424	 6.65870452419906E-02 
425	 6.17901753574693E-02 
426	 5.97202055601955E-02 
427	 6.03054276031218E-02 
428	 6.07464378945511E-02 
429	 5.77135150526067E-02 
430	 0.052409411269393 
431	 6.07127430998922E-02 
432	 5.79859427752598E-02 
433	 5.10314665024352E-02 
434	 5.95842705710144E-02 
435	 5.74114775437217E-02 
436	 5.45340198491072E-02 
437	 0.055885059542514 
438	 5.28593632244955E-02 
439	 5.32389350699337E-02 
440	 0.054406805068354 
441	 5.28739684042646E-02 
442	 5.39122051508559E-02 
443	 5.46917647566242E-02 
444	 5.34793393680967E-02 
445	 5.00657612944171E-02 
446	 5.08055701623741E-02 
447	 5.39126852665548E-02 
448	 5.60885133055742E-02 
449	 0.053725425380032 
450	 4.96087233332046E-02 
451	 4.73927296440966E-02 
452	 4.95794020783259E-02 
453	 4.97785573864344E-02 
454	 0.050359557363907 
455	 0.052126291658964 
456	 5.35479316566944E-02 
457	 5.09579480896963E-02 
458	 4.90677631804734E-02 
459	 5.10586347567774E-02 
460	 5.04432978070938E-02 
461	 4.94794329572212E-02 
462	 4.91365390669227E-02 
463	 4.96067877115105E-02 
464	 5.07502566679183E-02 
465	 4.90870778500649E-02 
466	 4.60594578516649E-02 
467	 5.10527613629243E-02 
468	 5.14384129155583E-02 
469	 4.87126817563987E-02 
470	 4.76110444027674E-02 
471	 4.84372593259142E-02 
472	 4.90472485741411E-02 
473	 4.84360433386043E-02 
474	 4.68441678938605E-02 
475	 4.83831656455045E-02 
476	 4.85439747298715E-02 
477	 4.55338861649882E-02 
478	 4.62012719613372E-02 
479	 4.67256954863956E-02 
480	 4.65167259193488E-02 
481	 4.61566291325996E-02 
482	 4.59264797631191E-02 
483	 4.67621034907293E-02 
484	 4.79458861004391E-02 
485	 4.70259807648524E-02 
486	 4.63231159453644E-02 
487	 4.60604374590874E-02 
488	 4.59437497298816E-02 
489	 4.56782120448783E-02 
490	 4.48326650302383E-02 
491	 4.47207911539055E-02 
492	 4.68756573208668E-02 
493	 4.50902551204516E-02 
494	 0.0437953865341 
495	 4.50420107528735E-02 
496	 4.51632079770941E-02 
497	 4.54885467460102E-02 
498	 4.51298987218337E-02 
499	 0.043489397172025 
500	 4.37687399959994E-02 
501	 4.42804712247882E-02 
502	 4.42464554023386E-02 
503	 4.38814074194116E-02 
504	 4.36968079693177E-02 
505	 4.38439199346085E-02 
506	 4.41453383086016E-02 
507	 4.39092787147294E-02 
508	 4.29834773980068E-02 
509	 4.26802488800983E-02 
510	 4.42205470236621E-02 
511	 4.35584279502703E-02 
512	 4.30182249115201E-02 
513	 4.35344185308481E-02 
514	 0.043639266253252 
515	 4.33169926703111E-02 
516	 0.043222929707383 
517	 4.36505110697096E-02 
518	 4.29100866929503E-02 
519	 4.26599734661865E-02 
520	 4.27930519350015E-02 
521	 4.21623792629907E-02 
522	 4.28239887698187E-02 
523	 4.31659058685528E-02 
524	 4.24180668875271E-02 
525	 0.042369581341776 
526	 4.22133117023639E-02 
527	 4.22045865374624E-02 
528	 4.27109998846835E-02 
529	 4.29390799405237E-02 
530	 4.23591751370565E-02 
531	 4.15744821349132E-02 
532	 4.22442647269716E-02 
533	 4.21003595084801E-02 
534	 4.17918795959033E-02 
535	 4.20785257849504E-02 
536	 4.22211936166558E-02 
537	 0.042261227252095 
538	 0.042261341867494 
539	 4.22822444599436E-02 
540	 4.21546571040696E-02 
541	 4.20197673778069E-02 
542	 0.041917860143934 
543	 4.16442083717039E-02 
544	 4.19437905006778E-02 
545	 0.042164913754938 
546	 4.16335752599484E-02 
547	 4.15310587868011E-02 
548	 4.15927250765088E-02 
549	 4.16228792709736E-02 
550	 4.15529723879995E-02 
551	 4.17053869279686E-02 
552	 4.17713733680878E-02 
553	 4.15553851375016E-02 
554	 4.14207741385863E-02 
555	 4.12667850815278E-02 
556	 4.11318496614638E-02 
557	 4.11057484315512E-02 
558	 4.12151909367898E-02 
559	 0.041263889683933 
560	 4.11818490642596E-02 
561	 4.10969113817914E-02 
562	 4.10582859913848E-02 
563	 4.10589411398893E-02 
564	 4.10867304053539E-02 
565	 4.12022215696238E-02 
566	 4.13111632406873E-02 
567	 4.13466272193155E-02 
568	 4.12888150726712E-02 
569	 4.14160363779863E-02 
570	 4.14536675028836E-02 
571	 4.12614644494442E-02 
572	 4.11321161804722E-02 
573	 0.041134430430606 
574	 4.12650612914613E-02 
575	 4.14581231078043E-02 
576	 4.15894712978567E-02 
577	 4.15534338038578E-02 
578	 0.041496838325888 
579	 0.041824158999923 
580	 4.18611546318267E-02 
581	 4.19298023306438E-02 
582	 4.22442622008875E-02 
583	 4.18897997286305E-02 
584	 4.20011526016298E-02 
585	 4.24329005379333E-02 
586	 4.23706640366227E-02 
587	 4.24162695172911E-02 
588	 4.26536986880154E-02 
589	 0.042992659702572 
590	 4.31667762722558E-02 
591	 0.043257191232082 
592	 4.34834965045837E-02 
593	 4.39623655132456E-02 
594	 4.41770667341554E-02 
595	 4.43649726999259E-02 
596	 0.044694153997718 
597	 0.045224771839918 
598	 4.56042824300108E-02 
599	 4.60309870736689E-02 
600	 4.66445964132493E-02 
601	 4.71800308906102E-02 
602	 4.79050274357177E-02 
603	 4.87460222798927E-02 
604	 4.95214763805486E-02 
605	 5.04282578988674E-02 
606	 5.13510019827654E-02 
607	 5.23221864244701E-02 
608	 5.35795236535436E-02 
609	 0.054792589772343 
610	 5.59525749933767E-02 
611	 5.71909762324262E-02 
612	 5.87949267632968E-02 
613	 6.05057793821489E-02 
614	 6.22051865197139E-02 
615	 6.38790472274874E-02 
616	 6.54773180685831E-02 
617	 6.72043552897229E-02 
618	 6.91761799450811E-02 
619	 7.13213124275238E-02 
620	 7.34517105590528E-02 
621	 7.54985304907146E-02 
622	 7.75259237652189E-02 
623	 7.99518526804415E-02 
624	 8.23471584629817E-02 
625	 8.46733605271777E-02 
626	 8.72612837604818E-02 
627	 8.97192179645241E-02 
628	 9.20898127135766E-02 
629	 0.094493332064238 
630	 9.70284819727482E-02 
631	 9.96249279278817E-02 
632	 0.102179816066043 
633	 0.104598275720111 
634	 0.106993271877425 
635	 0.10956778048045 
636	 0.112303380114784 
637	 0.114898329523209 
638	 0.11739434333275 
639	 0.119837112449024 
640	 0.122282309844146 
641	 0.124798329133396 
642	 0.127298778832381 
643	 0.129772023342558 
644	 0.132247284172294 
645	 0.134610291442719 
646	 0.136896911549891 
647	 0.139147154763042 
648	 0.141374554651245 
649	 0.143704887439207 
650	 0.14605280174158 
651	 0.148316038228306 
652	 0.150650778104315 
653	 0.15275448337049 
654	 0.154643722733161 
655	 0.15659912229849 
656	 0.158742659918579 
657	 0.160848634783437 
658	 0.162791619083042 
659	 0.164786405168598 
660	 0.166691014370466 
661	 0.168594203270335 
662	 0.170600520652441 
663	 0.172430923758423 
664	 0.174252277048116 
665	 0.176093139111836 
666	 0.177819338754896 
667	 0.179430151296816 
668	 0.181032238093652 
669	 0.182694697188368 
670	 0.184320985535694 
671	 0.186084134009233 
672	 0.18780734622955 
673	 0.189243612511244 
674	 0.190825602579416 
675	 0.19227737533006 
676	 0.193626287940057 
677	 0.195322402607601 
678	 0.196853626648403 
679	 0.19814981624131 
680	 0.199330522749892 
681	 0.200734770712756 
682	 0.202155709008609 
683	 0.203579723899836 
684	 0.205068033884666 
685	 0.206389844487136 
686	 0.207605845880485 
687	 0.208800352050923 
688	 0.210049629291092 
689	 0.211298058805528 
690	 0.212515079164077 
691	 0.213711593809782 
692	 0.215034000735408 
693	 0.216119175890305 
694	 0.217097644558109 
695	 0.218356847185512 
696	 0.219519347405702 
697	 0.220631526683892 
698	 0.221744026641022 
699	 0.222832526331681 
700	 0.223943296461707 
701	 0.224992175193102 
702	 0.225916640593846 
703	 0.226860998319635 
704	 0.227865676162165 
705	 0.228898559858046 
706	 0.229883704416381 
707	 0.230824965384938 
708	 0.231766433009868 
709	 0.232688880373264 
710	 0.233446106552821 
711	 0.234324055049576 
712	 0.235287979434157 
713	 0.236212044716612 
714	 0.237035095916766 
715	 0.237848217647797 
716	 0.238660968551099 
717	 0.239437098792425 
718	 0.240362199914299 
719	 0.241224984701017 
720	 0.241938373902691 
721	 0.242710543625239 
722	 0.243470638001339 
723	 0.244244183126734 
724	 0.24504571878181 
725	 0.245741165054571 
726	 0.246545907884714 
727	 0.247390896462304 
728	 0.248035002728593 
729	 0.248703812672348 
730	 0.249372431122648 
731	 0.250043163582123 
732	 0.250817308026217 
733	 0.251561483107381 
734	 0.252240807511552 
735	 0.252878379465153 
736	 0.253592460296865 
737	 0.254193363910437 
738	 0.254785467128729 
739	 0.255608891475872 
740	 0.256242850225255 
741	 0.256870361455149 
742	 0.257567538302329 
743	 0.258142929299574 
744	 0.258787553878102 
745	 0.259465368473114 
746	 0.260114123833512 
747	 0.260812225053944 
748	 0.261411647526911 
749	 0.261960283373069 
750	 0.262600510693601 
751	 0.263247090054374 
752	 0.263840086179727 
753	 0.264420285517076 
754	 0.26514807261734 
755	 0.265810618992388 
756	 0.26641908037639 
757	 0.267034942364578 
758	 0.267712563315886 
759	 0.268233590735499 
760	 0.268726226157463 
761	 0.269432455629799 
762	 0.270191201012541 
763	 0.270772917903279 
764	 0.271235325191784 
765	 0.271924563521497 
766	 0.272618078272472 
767	 0.273195298318198 
768	 0.273668245283574 
769	 0.27430136242408 
770	 0.27495396048873 
771	 0.275535163378551 
772	 0.276014467008116 
773	 0.276561337542055 
774	 0.277216210211299 
775	 0.277891519618626 
776	 0.27842671967713 
777	 0.279007876919232 
778	 0.279591936321774 
779	 0.280154906178719 
780	 0.280759219504162 
781	 0.281367059264389 
782	 0.281973617616464 
783	 0.282577247281735 
784	 0.283162503681758 
785	 0.283684513738059 
786	 0.284204530640738 
787	 0.28480802213844 
788	 0.285275870648738 
789	 0.285779623442648 
790	 0.286358208107164 
791	 0.286857320149456 
792	 0.287357613174173 
793	 0.287917848708812 
794	 0.288554321814644 
795	 0.289211505077664 
796	 0.289750723107535 
797	 0.290154331785337 
798	 0.290509366180141 
799	 0.291102447570739 
800	 0.291725254359136 
801	 0.292271295745128 
802	 0.292743417485925 
803	 0.293197987966959 
804	 0.293665291989128 
805	 0.294154252030235 
806	 0.294650434983782 
807	 0.295161298777753 
808	 0.295677896169938 
809	 0.29618724023455 
810	 0.296679828036452 
811	 0.29712035054645 
812	 0.297544237461205 
813	 0.298008075620233 
814	 0.298494416575835 
815	 0.298887059907098 
816	 0.299229510442739 
817	 0.299692217983726 
818	 0.300135409619328 
819	 0.300632257661181 
820	 0.301149411211942 
821	 0.301434323437936 
822	 0.301919828955092 
823	 0.302392109495848 
824	 0.30265369583938 
825	 0.303125568268154 
826	 0.303476629525315 
827	 0.303735621247669 
828	 0.304081378394525 
829	 0.304507034039957 
830	 0.304949262601886 
831	 0.305308466321268 
832	 0.305497198906155 
833	 0.305813641885389 
834	 0.306191651809743 
835	 0.306569238281024 
836	 0.306981201501432 
837	 0.307295536435874 
838	 0.307533510776802 
839	 0.307788594173411 
840	 0.308244971023188 
841	 0.308578198621818 
842	 0.308863697199507 
843	 0.309254502022247 
844	 0.309403382588258 
845	 0.309606040004438 
846	 0.309909811984832 
847	 0.310167649998733 
848	 0.310424153130001 
849	 0.310685202936157 
850	 0.310948402736606 
851	 0.311203633321731 
852	 0.311434808236378 
853	 0.311652910347499 
854	 0.311888205648337 
855	 0.312201474505902 
856	 0.31244010818365 
857	 0.312683048753522 
858	 0.31299679003278 
859	 0.313130893723004 
860	 0.313208219612704 
861	 0.31338758899109 
862	 0.313755795352926 
863	 0.313912413074101 
864	 0.314123656793802 
865	 0.314345958539085 
866	 0.314294820099552 
867	 0.314427062585348 
868	 0.31464450738155 
869	 0.314853367073258 
870	 0.315075321914922 
871	 0.315271518037477 
872	 0.315428327292473 
873	 0.315534372773187 
874	 0.315555278066243 
875	 0.315706081276724 
876	 0.315978100150375 
877	 0.31623477607481 
878	 0.316169664319806 
879	 0.316353146359624 
880	 0.316536680679066 
881	 0.316309156029043 
882	 0.316716282580676 
883	 0.317033252929665 
884	 0.317036557390923 
885	 0.316991760417469 
886	 0.317110144844647 
887	 0.317320830488153 
888	 0.317491764779754 
889	 0.317496698584569 
890	 0.317672328641491 
891	 0.317887290747889 
892	 0.317997701883102 
893	 0.317994878686852 
894	 0.317913620773879 
895	 0.317971553109419 
896	 0.318259587928874 
897	 0.318472719165957 
898	 0.318412545972115 
899	 0.3183330919996 
900	 0.318529152647903 
901	 0.318782499422373 
902	 0.319001132274796 
903	 0.319143994619288 
904	 0.319209729166049 
905	 0.319187800857724 
906	 0.319313572284094 
907	 0.319504781871045 
908	 0.319507408578675 
909	 0.319665833914332 
910	 0.319870976530285 
911	 0.320039919272693 
912	 0.320174333664933 
913	 0.320387754260634 
914	 0.320527967187661 
915	 0.320567962662397 
916	 0.320689168170695 
917	 0.320584709335613 
918	 0.320531722631443 
919	 0.320717994665327 
920	 0.320952374006352 
921	 0.320979524597303 
922	 0.320923575581162 
923	 0.321014184977584 
924	 0.32146815961241 
925	 0.321748553308054 
926	 0.32192711180943 
927	 0.32216032865099 
928	 0.32211949741079 
929	 0.322319208838271 
930	 0.322558277427455 
931	 0.322493592522683 
932	 0.322568785783567 
933	 0.322734008924924 
934	 0.322896184852167 
935	 0.322985259435186 
936	 0.323170127078444 
937	 0.323302695406966 
938	 0.323428993133787 
939	 0.323697105508072 
940	 0.323932354231572 
941	 0.323983823141379 
942	 0.324100869344723 
943	 0.3247147564411 
944	 0.324877828501555 
945	 0.324912015837857 
946	 0.324998315396468 
947	 0.325025971198997 
948	 0.325200244130444 
949	 0.325417952044036 
950	 0.325597534214428 
951	 0.325753285566709 
952	 0.326028024061871 
953	 0.326034543003832 
954	 0.325845847928429 
955	 0.326270999447253 
956	 0.326675666116654 
957	 0.32675061606554 
958	 0.326607448302917 
959	 0.326907825842405 
960	 0.326950869520781 
961	 0.32693797269529 
962	 0.327101264442254 
963	 0.32730460034331 
964	 0.327604515745683 
965	 0.327741521507246 
966	 0.327635046914199 
967	 0.327764366041745 
968	 0.327636454519096 
969	 0.32764856715434 
970	 0.328050783626853 
971	 0.328097368434037 
972	 0.328390575997805 
973	 0.328639278145326 
974	 0.328568114911809 
975	 0.328715063543251 
976	 0.328611742109956 
977	 0.328444197482838 
978	 0.328501522703517 
979	 0.328706894201603 
980	 0.329158450943693 
981	 0.329361087717167 
982	 0.329117075733617 
983	 0.329830603361796 
984	 0.3297056823206 
985	 0.329430254880885 
986	 0.329987320240259 
987	 0.330321793310962 
988	 0.329968207900763 
989	 0.32984551904623 
990	 0.33064338735332 
991	 0.33050412129429 
992	 0.330383583236068 
993	 0.330423826273651 
994	 0.330483715223549 
995	 0.330485786760534 
996	 0.330768214690211 
997	 0.33104417020103 
998	 0.331070840663964 
999	 0.331594618708449 
1000	 0.331399146694017 
1001	 0.336227900905182 
1002	 0.336371745416013 
1003	 0.336535173498701 
1004	 0.336669121812632 
1005	 0.336721021166477 
1006	 0.336801204717119 
1007	 0.336945867570713 
1008	 0.336956986162478 
1009	 0.336820634051894 
1010	 0.336805359431372 
1011	 0.336747781669802 
1012	 0.336808850800273 
1013	 0.337073006046414 
1014	 0.337120545852216 
1015	 0.337115763692304 
1016	 0.337056075235493 
1017	 0.336967526017783 
1018	 0.337059741779542 
1019	 0.337095068341815 
1020	 0.337214713052135 
1021	 0.337342389306872 
1022	 0.3373988633582 
1023	 0.337481395791734 
1024	 0.33771434708051 
1025	 0.337865099091076 
1026	 0.337948900301907 
1027	 0.338050696328171 
1028	 0.338245968561672 
1029	 0.338183518469503 
1030	 0.338198921147796 
1031	 0.338264738930527 
1032	 0.338386243667067 
1033	 0.338608202762677 
1034	 0.338725400556974 
1035	 0.338797698606366 
1036	 0.338946212874297 
1037	 0.339071503258635 
1038	 0.339294724973112 
1039	 0.339744101232453 
1040	 0.339901406558943 
1041	 0.339843076401301 
1042	 0.339952384697407 
1043	 0.339980259715874 
1044	 0.340129379198841 
1045	 0.340356470412371 
1046	 0.340559477619545 
1047	 0.340522948293359 
1048	 0.340431686746211 
1049	 0.340474143422547 
1050	 0.340564783357982 
1051	 0.340536033869949 
1052	 0.340465808995532 
1053	 0.34044469415223 
1054	 0.340262843400895 
1055	 0.340277646302085 
1056	 0.340550850590144 
1057	 0.340666518906689 
1058	 0.340756385412106 
1059	 0.340853747880722 
1060	 0.340897652211394 
1061	 0.340828699880585 
1062	 0.340798578963129 
1063	 0.340841763405434 
1064	 0.340920206247212 
1065	 0.340959715391582 
1066	 0.340990441751134 
1067	 0.341098708492752 
1068	 0.341162781254718 
1069	 0.3411345088343 
1070	 0.341073754952623 
1071	 0.340968226522243 
1072	 0.340799602038597 
1073	 0.340746089679931 
1074	 0.34082484078284 
1075	 0.340945049155262 
1076	 0.341049133520095 
1077	 0.341136835242451 
1078	 0.341263381281008 
1079	 0.341310665175629 
1080	 0.341391869639883 
1081	 0.341344365574444 
1082	 0.341044156928573 
1083	 0.34096792661006 
1084	 0.341106986611752 
1085	 0.341207473717221 
1086	 0.341268058457813 
1087	 0.341425714286315 
1088	 0.341496821543854 
1089	 0.341444267512922 
1090	 0.341473781460027 
1091	 0.341581646961411 
1092	 0.341628555036249 
1093	 0.341753407052227 
1094	 0.342028768564594 
1095	 0.34214869068693 
1096	 0.342195897331283 
1097	 0.342224240166192 
1098	 0.342035692583917 
1099	 0.342040884100367 
1100	 0.342294959442839 
1101	 0.34247596716195 
1102	 0.342637137611251 
1103	 0.342747093288125 
1104	 0.342808249825338 
1105	 0.342786140906486 
1106	 0.342825347114284 
1107	 0.343015380676064 
1108	 0.343218891913461 
1109	 0.343377179258254 
1110	 0.343604251056996 
1111	 0.343700382759984 
1112	 0.343731329940384 
1113	 0.343780800233372 
1114	 0.343806679230964 
1115	 0.343964502306291 
1116	 0.344112887680836 
1117	 0.344192339100968 
1118	 0.3443150321055 
1119	 0.344383643362695 
1120	 0.344529975848844 
1121	 0.344701453414545 
1122	 0.345000379409373 
1123	 0.345222604468566 
1124	 0.345315778575094 
1125	 0.345480976649245 
1126	 0.345678345323136 
1127	 0.34590427580535 
1128	 0.346162982962611 
1129	 0.346278683754377 
1130	 0.346376809150329 
1131	 0.346506194117083 
1132	 0.346611991221983 
1133	 0.346708086021147 
1134	 0.346792004160888 
1135	 0.346900719561133 
1136	 0.346979079887284 
1137	 0.347089507803529 
1138	 0.347301734525161 
1139	 0.347393507084349 
1140	 0.347392450864984 
1141	 0.347473751604306 
1142	 0.347545850246498 
1143	 0.347598857627898 
1144	 0.347718808237593 
1145	 0.347789405692982 
1146	 0.347813021834219 
1147	 0.347877567779218 
1148	 0.34795718983213 
1149	 0.3480546782542 
1150	 0.348163745219679 
1151	 0.348163248305351 
1152	 0.348127269255107 
1153	 0.347980987506161 
1154	 0.347959405012661 
1155	 0.347929496120669 
1156	 0.347920131164121 
1157	 0.348052097362271 
1158	 0.348049544083195 
1159	 0.347953941098445 
1160	 0.347883455281037 
1161	 0.347837952767249 
1162	 0.347744242907186 
1163	 0.34762764943858 
1164	 0.347597217657325 
1165	 0.347573270230084 
1166	 0.347495768942007 
1167	 0.347488572988651 
1168	 0.347488236099923 
1169	 0.347461172826933 
1170	 0.347403371409791 
1171	 0.347372669417503 
1172	 0.347376574324037 
1173	 0.34731824207373 
1174	 0.347254140321331 
1175	 0.347170951525258 
1176	 0.346991377834893 
1177	 0.346874607460348 
1178	 0.346809768530539 
1179	 0.346702443840397 
1180	 0.346557709326021 
1181	 0.346470975869762 
1182	 0.346337849245072 
1183	 0.346243407193918 
1184	 0.346225979784086 
1185	 0.3461951713171 
1186	 0.34615987061709 
1187	 0.346145958892995 
1188	 0.34609662189258 
1189	 0.346018588049451 
1190	 0.345960959694773 
1191	 0.345867928246944 
1192	 0.345843286741912 
1193	 0.345863196472315 
1194	 0.345870283586202 
1195	 0.345901221200968 
1196	 0.345955213872685 
1197	 0.346015710742361 
1198	 0.346087776609566 
1199	 0.346156152436986 
1200	 0.346202080703242 
1201	 0.346281164519789 
1202	 0.34635889809993 
1203	 0.346485587815495 
1204	 0.346654802445693 
1205	 0.346826788558279 
1206	 0.346977820243325 
1207	 0.347218542273859 
1208	 0.347506124815469 
1209	 0.347827871754631 
1210	 0.348206431995463 
1211	 0.348595840061707 
1212	 0.349005411062008 
1213	 0.34945805407021 
1214	 0.349944830508551 
1215	 0.350478136867992 
1216	 0.3510710799406 
1217	 0.351660570875999 
1218	 0.35228826135251 
1219	 0.352896847254955 
1220	 0.35351721651202 
1221	 0.354268200699949 
1222	 0.35511374393284 
1223	 0.355902614988366 
1224	 0.356615756207609 
1225	 0.35733163183369 
1226	 0.357945289907421 
1227	 0.358397359033082 
1228	 0.358968099981572 
1229	 0.359581850575837 
1230	 0.360111779855877 
1231	 0.360577799327792 
1232	 0.361142894659053 
1233	 0.361733536952073 
1234	 0.362266246042576 
1235	 0.362885601601016 
1236	 0.36343264318847 
1237	 0.363862943636084 
1238	 0.364297411849964 
1239	 0.364709882360234 
1240	 0.365159378048402 
1241	 0.36556684779089 
1242	 0.365957956922181 
1243	 0.36636545413174 
1244	 0.366805710448836 
1245	 0.367198319420138 
1246	 0.367564715110853 
1247	 0.36793332972952 
1248	 0.368260015020205 
1249	 0.368653949707083 
1250	 0.369108462424526 
1251	 0.369487209098242 
1252	 0.369849635305517 
1253	 0.370232941547967 
1254	 0.370575892943502 
1255	 0.370938123258534 
1256	 0.37137535944483 
1257	 0.371748102805097 
1258	 0.372050619257823 
1259	 0.37237998810505 
1260	 0.372701407888662 
1261	 0.373025591375328 
1262	 0.37336330287654 
1263	 0.37371551442669 
1264	 0.374003570798694 
1265	 0.374243948135347 
1266	 0.374551757182196 
1267	 0.374828892135846 
1268	 0.37516796354315 
1269	 0.375598861651089 
1270	 0.375955414947056 
1271	 0.376295606207523 
1272	 0.376637917031579 
1273	 0.37698503795552 
1274	 0.37728715182203 
1275	 0.37756786395501 
1276	 0.377843672238094 
1277	 0.378062383478895 
1278	 0.378314405566463 
1279	 0.378595313674214 
1280	 0.378853075248959 
1281	 0.379101825134304 
1282	 0.379353443795889 
1283	 0.379631131382427 
1284	 0.379851427040898 
1285	 0.38004424984919 
1286	 0.380210113422547 
1287	 0.380398924729394 
1288	 0.380557092874579 
1289	 0.380720517587309 
1290	 0.380908977384653 
1291	 0.38107799245669 
1292	 0.381178654910135 
1293	 0.381381787229023 
1294	 0.38166324704453 
1295	 0.381885325845471 
1296	 0.382157314986474 
1297	 0.38235146663428 
1298	 0.382449183983072 
1299	 0.382612964339882 
1300	 0.38274071143792 
1301	 0.382943173560013 
1302	 0.38327166053978 
1303	 0.38348944405149 
1304	 0.383676471456079 
1305	 0.383874193489185 
1306	 0.383968980782766 
1307	 0.38414207475289 
1308	 0.384327591124425 
1309	 0.384642613829806 
1310	 0.384864618190468 
1311	 0.385095814128422 
1312	 0.385310107620388 
1313	 0.385513434126819 
1314	 0.385677818640957 
1315	 0.385799718677751 
1316	 0.385989795666021 
1317	 0.386157946261226 
1318	 0.386370552635371 
1319	 0.386682005114253 
1320	 0.386912017761708 
1321	 0.387111661406365 
1322	 0.38730772162198 
1323	 0.387492843025713 
1324	 0.387653908142372 
1325	 0.387746428636434 
1326	 0.387925095985731 
1327	 0.388142043020449 
1328	 0.38834040192811 
1329	 0.388641768099324 
1330	 0.388834869622864 
1331	 0.388911988758815 
1332	 0.389038331508015 
1333	 0.389124023488118 
1334	 0.389242805804831 
1335	 0.389391186753604 
1336	 0.389605874601722 
1337	 0.389728366532433 
1338	 0.389825306845465 
1339	 0.389935347794017 
1340	 0.390018874745122 
1341	 0.390096128104893 
1342	 0.390192477198088 
1343	 0.390259491060277 
1344	 0.390272670793642 
1345	 0.39032731684304 
1346	 0.390436718165132 
1347	 0.390461246947141 
1348	 0.390461285169785 
1349	 0.390437791933536 
1350	 0.390339630336311 
1351	 0.390277065449011 
1352	 0.390209973002917 
1353	 0.39016045419132 
1354	 0.39013580848456 
1355	 0.390087253445252 
1356	 0.390027447321777 
1357	 0.389988537814714 
1358	 0.389962867135015 
1359	 0.389909373866799 
1360	 0.389869569113135 
1361	 0.389795566915653 
1362	 0.389739531028715 
1363	 0.389668367860651 
1364	 0.38958699784098 
1365	 0.389523151060226 
1366	 0.389433954639363 
1367	 0.389321053972091 
1368	 0.38918402834075 
1369	 0.389047522311003 
1370	 0.388881614295613 
1371	 0.388669075539694 
1372	 0.388468315148477 
1373	 0.388293428339696 
1374	 0.388039159929295 
1375	 0.387710783263233 
1376	 0.387437607582081 
1377	 0.387141813131485 
1378	 0.38685802313092 
1379	 0.386656726566118 
1380	 0.386344155815826 
1381	 0.385938307695448 
1382	 0.38557613772128 
1383	 0.385182930612577 
1384	 0.384801900239594 
1385	 0.384449186692394 
1386	 0.384084365227692 
1387	 0.383701265851984 
1388	 0.383325024922941 
1389	 0.3829334030562 
1390	 0.382588133231626 
1391	 0.382275966182914 
1392	 0.381935703583386 
1393	 0.38167435517703 
1394	 0.381422834542338 
1395	 0.381216646894329 
1396	 0.381087125658149 
1397	 0.380832518847403 
1398	 0.380592188424314 
1399	 0.380251474981716 
1400	 0.379853664235711 
1401	 0.379309501628329 
1402	 0.378705249676667 
1403	 0.377982681077337 
1404	 0.377054581094727 
1405	 0.376195785009331 
1406	 0.375320193127006 
1407	 0.374384242753205 
1408	 0.373411461321767 
1409	 0.372402325105745 
1410	 0.371337578061975 
1411	 0.370250574541084 
1412	 0.369096674045849 
1413	 0.367999540560921 
1414	 0.366898532577088 
1415	 0.365800986196052 
1416	 0.364714934769547 
1417	 0.363656494117578 
1418	 0.362575743969038 
1419	 0.3615405928185 
1420	 0.360569805348556 
1421	 0.359605173652372 
1422	 0.358667833999848 
1423	 0.357731313373955 
1424	 0.356807945349826 
1425	 0.355863131989626 
1426	 0.355048871196444 
1427	 0.354175329431523 
1428	 0.353370354095816 
1429	 0.352671559389971 
1430	 0.351910040568158 
1431	 0.351167519626575 
1432	 0.350346394407616 
1433	 0.349485050955997 
1434	 0.348631659297948 
1435	 0.347733787311534 
1436	 0.346844832975505 
1437	 0.345989631381446 
1438	 0.345071464334779 
1439	 0.344074203237633 
1440	 0.343148423862829 
1441	 0.342160936749636 
1442	 0.341342613341296 
1443	 0.340540389001571 
1444	 0.339949094273875 
1445	 0.339448692204808 
1446	 0.33919628848353 
1447	 0.339116818470435 
1448	 0.339252175539005 
1449	 0.339635127288442 
1450	 0.340147594125939 
1451	 0.340877680933525 
1452	 0.341696337258073 
1453	 0.342781363719777 
1454	 0.343741380800201 
1455	 0.344801391488952 
1456	 0.345763374563605 
1457	 0.346627987486703 
1458	 0.347499722474549 
1459	 0.348339728205858 
1460	 0.349175410008074 
1461	 0.350022871965517 
1462	 0.350812569036175 
1463	 0.351588546106383 
1464	 0.352314844424579 
1465	 0.352964048353848 
1466	 0.35360882249154 
1467	 0.354225890178275 
1468	 0.354827404226839 
1469	 0.355429488529624 
1470	 0.355964422021721 
1471	 0.356501453229388 
1472	 0.357010456702062 
1473	 0.357520536568057 
1474	 0.358013058397787 
1475	 0.358509994140742 
1476	 0.359021755775313 
1477	 0.359471319643455 
1478	 0.359909922398811 
1479	 0.360288931087071 
1480	 0.360610228146789 
1481	 0.360909725386157 
1482	 0.361207987912507 
1483	 0.361397204015531 
1484	 0.361486805061912 
1485	 0.361610709693051 
1486	 0.361627382889271 
1487	 0.361755517133367 
1488	 0.361922940911049 
1489	 0.362148188687708 
1490	 0.36240952096418 
1491	 0.362740315965784 
1492	 0.363130272617478 
1493	 0.363579100026028 
1494	 0.364101746037665 
1495	 0.364647082418323 
1496	 0.365215676249063 
1497	 0.365882299755224 
1498	 0.366648834962853 
1499	 0.367397287322421 
1500	 0.368235531523261 
1501	 0.369033810653547 
1502	 0.369801377226282 
1503	 0.370574202829013 
1504	 0.371423905066452 
1505	 0.372150156077848 
1506	 0.372778390216261 
1507	 0.373431990299212 
1508	 0.374040915026671 
1509	 0.374621331220827 
1510	 0.37524472139617 
1511	 0.375780275370891 
1512	 0.376205377711416 
1513	 0.37664331127254 
1514	 0.377056628434507 
1515	 0.377444582494045 
1516	 0.377817000895171 
1517	 0.378167216402499 
1518	 0.378503966711365 
1519	 0.378791924035821 
1520	 0.37903083306818 
1521	 0.379273674231478 
1522	 0.379462626926897 
1523	 0.3796328900465 
1524	 0.379813210775558 
1525	 0.380011576644323 
1526	 0.380130895844255 
1527	 0.380213667992113 
1528	 0.380298720889012 
1529	 0.380334793985935 
1530	 0.380391798985204 
1531	 0.380462808580666 
1532	 0.380514716539713 
1533	 0.380522893878201 
1534	 0.380607990915681 
1535	 0.380725677392199 
1536	 0.380842319409979 
1537	 0.380984486158959 
1538	 0.381151317090566 
1539	 0.381286529159984 
1540	 0.38155074451007 
1541	 0.381921627472918 
1542	 0.382246252061224 
1543	 0.382604211525052 
1544	 0.383002317617991 
1545	 0.383377727613121 
1546	 0.383841653921137 
1547	 0.384429410968194 
1548	 0.384939433338641 
1549	 0.385432926521549 
1550	 0.385968155209737 
1551	 0.38651137410376 
1552	 0.387051134740406 
1553	 0.38762745842654 
1554	 0.388183490828222 
1555	 0.388715046554462 
1556	 0.389258681037602 
1557	 0.38984001197151 
1558	 0.390359878516217 
1559	 0.390847226408485 
1560	 0.391326341695438 
1561	 0.391765460213337 
1562	 0.392217960107376 
1563	 0.392673415636415 
1564	 0.393114064693699 
1565	 0.393528684899427 
1566	 0.393974745987003 
1567	 0.394440462567906 
1568	 0.394880315794297 
1569	 0.395332658291728 
1570	 0.395765740646601 
1571	 0.396163580911235 
1572	 0.396573522405084 
1573	 0.396992734199143 
1574	 0.397398139447779 
1575	 0.397789242209127 
1576	 0.398186403782561 
1577	 0.398580851552656 
1578	 0.398976450987365 
1579	 0.399372013743723 
1580	 0.39976916379947 
1581	 0.400174188219026 
1582	 0.400565769265567 
1583	 0.400943724918628 
1584	 0.401335920116333 
1585	 0.401756811970794 
1586	 0.40211961496262 
1587	 0.40246485787857 
1588	 0.402797284446386 
1589	 0.403027819384978 
1590	 0.403358534871876 
1591	 0.403777458434154 
1592	 0.404137514997552 
1593	 0.404510536894919 
1594	 0.404881887416799 
1595	 0.405200808043003 
1596	 0.405551137184294 
1597	 0.405947435860597 
1598	 0.406323425898518 
1599	 0.40668097171184 
1600	 0.407051194083737 
1601	 0.407435529172224 
1602	 0.407812892833847 
1603	 0.408201763073804 
1604	 0.408570247591318 
1605	 0.408925822621625 
1606	 0.409268919647222 
1607	 0.409608380273204 
1608	 0.409922191115906 
1609	 0.410193987763677 
1610	 0.410492395087608 
1611	 0.410798842199644 
1612	 0.411077940617169 
1613	 0.411384098545276 
1614	 0.411644353998309 
1615	 0.411846681801016 
1616	 0.412052130555699 
1617	 0.412218519780229 
1618	 0.41241677960689 
1619	 0.412610370075452 
1620	 0.412831846561783 
1621	 0.413119883796889 
1622	 0.413349911304818 
1623	 0.413593037245875 
1624	 0.41377665723251 
1625	 0.413876784229386 
1626	 0.414002011727872 
1627	 0.414088092347543 
1628	 0.414201354488164 
1629	 0.414310803709601 
1630	 0.414474097192422 
1631	 0.414701707359899 
1632	 0.414887665296348 
1633	 0.415092592972741 
1634	 0.415284448855922 
1635	 0.415444534094243 
1636	 0.415606415270015 
1637	 0.41578759859848 
1638	 0.415938308276486 
1639	 0.416077838898013 
1640	 0.41618862532601 
1641	 0.41627274955138 
1642	 0.416349639475914 
1643	 0.416356128356866 
1644	 0.416419111933265 
1645	 0.416549231903181 
1646	 0.416606162745378 
1647	 0.416643980796592 
1648	 0.416694255721714 
1649	 0.416742943201158 
1650	 0.416724093779935 
1651	 0.416730578158523 
1652	 0.416641460996935 
1653	 0.416360409596646 
1654	 0.416194149828281 
1655	 0.416097403786559 
1656	 0.415906043828728 
1657	 0.415746039897628 
1658	 0.41550416083679 
1659	 0.415102409611356 
1660	 0.414788378857129 
1661	 0.414533742362152 
1662	 0.414198976789681 
1663	 0.413870682380127 
1664	 0.41346121541994 
1665	 0.412964952722637 
1666	 0.412433780870006 
1667	 0.411905076639758 
1668	 0.411260169684809 
1669	 0.410521568616849 
1670	 0.409726286326513 
1671	 0.408801611328089 
1672	 0.407890313776668 
1673	 0.407037060781043 
1674	 0.405977710248492 
1675	 0.4048010051786 
1676	 0.403586372146841 
1677	 0.402219900451692 
1678	 0.400835954768281 
1679	 0.399434332399697 
1680	 0.397945345852185 
1681	 0.396357125754186 
1682	 0.394739229252573 
1683	 0.393130469507796 
1684	 0.39140612950814 
1685	 0.389575559982672 
1686	 0.387684895093296 
1687	 0.385664604235333 
1688	 0.383633260997795 
1689	 0.381541103724013 
1690	 0.379487835090778 
1691	 0.377453616782391 
1692	 0.375365044175425 
1693	 0.373283316176137 
1694	 0.371115590872743 
1695	 0.368848416511995 
1696	 0.366601042798059 
1697	 0.364353936314338 
1698	 0.3619855093955 
1699	 0.359546197326193 
1700	 0.357139752269533 
1701	 0.354635337615308 
1702	 0.352273561627221 
1703	 0.349953807053628 
1704	 0.347694922522051 
1705	 0.34546557447427 
1706	 0.343243845359593 
1707	 0.341261097045663 
1708	 0.339430544237295 
1709	 0.337776271565655 
1710	 0.336260848815055 
1711	 0.334798433764479 
1712	 0.333430216260812 
1713	 0.332032396655196 
1714	 0.330710380390357 
1715	 0.329530379263117 
1716	 0.328290781928949 
1717	 0.327147393725816 
1718	 0.326130924523396 
1719	 0.325000024231148 
1720	 0.323958524256815 
1721	 0.323044485622426 
1722	 0.322113251200713 
1723	 0.321370370675446 
1724	 0.320771746016046 
1725	 0.320236367104001 
1726	 0.319879376154474 
1727	 0.319785389210061 
1728	 0.319829838676636 
1729	 0.320002996328298 
1730	 0.320452031662654 
1731	 0.321000521085826 
1732	 0.321759499735699 
1733	 0.322702263686952 
1734	 0.32366280431107 
1735	 0.32466442011287 
1736	 0.325682189506363 
1737	 0.326669538590349 
1738	 0.327496506795428 
1739	 0.328145174310756 
1740	 0.32857188447859 
1741	 0.328917550887662 
1742	 0.329124712094992 
1743	 0.329294557141696 
1744	 0.329409797656481 
1745	 0.329349471994745 
1746	 0.329117391461679 
1747	 0.328960833702686 
1748	 0.328650630028073 
1749	 0.328457522498432 
1750	 0.328335084569243 
1751	 0.328252554459751 
1752	 0.328144534355694 
1753	 0.328229808438399 
1754	 0.328446201235072 
1755	 0.328718185581184 
1756	 0.329086781928625 
1757	 0.329522453443303 
1758	 0.330135061279005 
1759	 0.330782332187064 
1760	 0.331571214647679 
1761	 0.332476037709382 
1762	 0.333427185840175 
1763	 0.334631134221715 
1764	 0.335932776445087 
1765	 0.337311443082129 
1766	 0.33886465412126 
1767	 0.340435814735468 
1768	 0.342042717897539 
1769	 0.34369757056 
1770	 0.345173333460228 
1771	 0.346554569214586 
1772	 0.347984626189251 
1773	 0.349358325103476 
1774	 0.350733015397861 
1775	 0.352080802690272 
1776	 0.353277132534339 
1777	 0.354341382126612 
1778	 0.355365580575895 
1779	 0.356328243592473 
1780	 0.357177815847949 
1781	 0.35799645196309 
1782	 0.358778266736431 
1783	 0.359443717161318 
1784	 0.360143749133828 
1785	 0.360848798492345 
1786	 0.361514780150825 
1787	 0.362256090342348 
1788	 0.362889730688508 
1789	 0.363447372312983 
1790	 0.36401717358339 
1791	 0.364540213832936 
1792	 0.365001757044357 
1793	 0.365388845012661 
1794	 0.365789602486686 
1795	 0.366203787401632 
1796	 0.366703504435796 
1797	 0.367244460494337 
1798	 0.367629008167693 
1799	 0.367956356270373 
1800	 0.368330563410048 
1801	 0.361716721599107 
1802	 0.362183466772932 
1803	 0.362616606926098 
1804	 0.363022833398638 
1805	 0.363421067971808 
1806	 0.363840093328283 
1807	 0.364293281402371 
1808	 0.364690952123748 
1809	 0.365106557034369 
1810	 0.365462908854237 
1811	 0.36572734747127 
1812	 0.366031229850943 
1813	 0.36630250468726 
1814	 0.366638836172142 
1815	 0.366890404577744 
1816	 0.367238908381044 
1817	 0.367628825695554 
1818	 0.368057444752673 
1819	 0.368459537671858 
1820	 0.368951347824351 
1821	 0.369368809539989 
1822	 0.369714347299705 
1823	 0.370082084511832 
1824	 0.370468879107445 
1825	 0.370970756562127 
1826	 0.371397871576854 
1827	 0.371824841087904 
1828	 0.372230510355019 
1829	 0.372627737783254 
1830	 0.372959300354805 
1831	 0.373188687226657 
1832	 0.37361601166348 
1833	 0.373932261259405 
1834	 0.374201345674737 
1835	 0.374587944285191 
1836	 0.374871529963249 
1837	 0.375153223337919 
1838	 0.375418216511915 
1839	 0.375692496465579 
1840	 0.375913464785663 
1841	 0.37619525581247 
1842	 0.37651280279353 
1843	 0.376806112347563 
1844	 0.377142390144057 
1845	 0.377469170362795 
1846	 0.377736013907219 
1847	 0.37790226323805 
1848	 0.378074688896609 
1849	 0.378220213384045 
1850	 0.378316642384617 
1851	 0.378379912532142 
1852	 0.378432497044025 
1853	 0.37840453637731 
1854	 0.378336626392406 
1855	 0.378251962090635 
1856	 0.378153956289742 
1857	 0.378004952087596 
1858	 0.377748345499761 
1859	 0.377454170939724 
1860	 0.377091146547572 
1861	 0.376704790367569 
1862	 0.376258519476392 
1863	 0.375808667278283 
1864	 0.375369221710741 
1865	 0.374816710846066 
1866	 0.374233239027388 
1867	 0.373543076381925 
1868	 0.372681428525799 
1869	 0.371736470633233 
1870	 0.370778324079313 
1871	 0.369763548812672 
1872	 0.368719687801608 
1873	 0.367676587377543 
1874	 0.366570607315503 
1875	 0.365348184507284 
1876	 0.363890197603046 
1877	 0.362416702913075 
1878	 0.36083344495452 
1879	 0.359108076943235 
1880	 0.357446338003351 
1881	 0.355629192783507 
1882	 0.353672735303887 
1883	 0.351660286936211 
1884	 0.349613724352006 
1885	 0.347321160854488 
1886	 0.345021253535749 
1887	 0.342611138012559 
1888	 0.33998803645942 
1889	 0.337410206322599 
1890	 0.334712074934213 
1891	 0.331949750871481 
1892	 0.329183555510104 
1893	 0.32631718308917 
1894	 0.323337538941606 
1895	 0.320419714985314 
1896	 0.317379405910012 
1897	 0.314274275747988 
1898	 0.311386027105596 
1899	 0.308378719705244 
1900	 0.305485732876651 
1901	 0.302729456974663 
1902	 0.299750712261388 
1903	 0.296888726598059 
1904	 0.294131760743609 
1905	 0.291401220681274 
1906	 0.288713834618175 
1907	 0.286315637776191 
1908	 0.283966378559916 
1909	 0.281638074740505 
1910	 0.279406205053007 
1911	 0.277124923235494 
1912	 0.274975378046005 
1913	 0.2728932473102 
1914	 0.270847329221322 
1915	 0.268949153687284 
1916	 0.267230850706998 
1917	 0.265478305674399 
1918	 0.263757351562966 
1919	 0.262081590285372 
1920	 0.260333077553881 
1921	 0.258745178864499 
1922	 0.257190767631057 
1923	 0.255615480638763 
1924	 0.254156669162056 
1925	 0.252608880512834 
1926	 0.251160723849911 
1927	 0.249757820917127 
1928	 0.248433396815949 
1929	 0.247150437592604 
1930	 0.246001013693552 
1931	 0.244853353839517 
1932	 0.243771184761062 
1933	 0.24285512025768 
1934	 0.241942919257468 
1935	 0.241155824003119 
1936	 0.240539827080469 
1937	 0.240034455281645 
1938	 0.239649922371963 
1939	 0.239403167790094 
1940	 0.239315640657949 
1941	 0.239278350251053 
1942	 0.239340830572931 
1943	 0.239469887853606 
1944	 0.239663637807407 
1945	 0.239976046129358 
1946	 0.24042866259817 
1947	 0.240927914661556 
1948	 0.241540852017364 
1949	 0.242274206361558 
1950	 0.243051564309586 
1951	 0.24389124482041 
1952	 0.244838034350967 
1953	 0.245854198296622 
1954	 0.246955744920973 
1955	 0.248250034121384 
1956	 0.249554647210901 
1957	 0.250897890566438 
1958	 0.252347874027769 
1959	 0.253688045145489 
1960	 0.255011799667824 
1961	 0.25621835795844 
1962	 0.257349572976923 
1963	 0.258384268222027 
1964	 0.259295245751388 
1965	 0.26017635060372 
1966	 0.260985860262739 
1967	 0.261790676855387 
1968	 0.262523736287299 
1969	 0.263197767205804 
1970	 0.263810425291419 
1971	 0.26441468801568 
1972	 0.265056402978409 
1973	 0.265733196828552 
1974	 0.26643882657838 
1975	 0.267218585239424 
1976	 0.267960292458068 
1977	 0.26870163262767 
1978	 0.269460191963515 
1979	 0.27020545000714 
1980	 0.270987792206938 
1981	 0.27183793682974 
1982	 0.272671122294927 
1983	 0.273555625327428 
1984	 0.274505336730941 
1985	 0.275472007648743 
1986	 0.276480319393958 
1987	 0.277548782863452 
1988	 0.278628047374537 
1989	 0.279854327770103 
1990	 0.281158108837807 
1991	 0.282553450807078 
1992	 0.284085719793233 
1993	 0.285698195810091 
1994	 0.287216852907736 
1995	 0.28888426133753 
1996	 0.290569566062259 
1997	 0.292291575487792 
1998	 0.29410331145292 
1999	 0.296110489770111 
2000	 0.297888457530175 
2001	 0.299710087226757 
2002	 0.301349058655498 
2003	 0.30281292802929 
2004	 0.304262809257585 
2005	 0.305606404852545 
2006	 0.306921075219827 
2007	 0.308203744695263 
2008	 0.309439148454777 
2009	 0.310522928198353 
2010	 0.311553298163923 
2011	 0.312468651450176 
2012	 0.313244270423271 
2013	 0.313985138456801 
2014	 0.314661360210252 
2015	 0.315279307690659 
2016	 0.315841970520028 
2017	 0.316307700147517 
2018	 0.316685159860528 
2019	 0.317024928181353 
2020	 0.317300616682472 
2021	 0.317476374051771 
2022	 0.317586211894851 
2023	 0.317635974849709 
2024	 0.317601454434176 
2025	 0.317596018983993 
2026	 0.317551796229768 
2027	 0.317513800758243 
2028	 0.317415730064984 
2029	 0.317263328877134 
2030	 0.317075215116034 
2031	 0.316862126202849 
2032	 0.316620122833418 
2033	 0.31634072025056 
2034	 0.316036008320887 
2035	 0.315693461672582 
2036	 0.315305744522067 
2037	 0.31500736944429 
2038	 0.314580003316001 
2039	 0.314212338622635 
2040	 0.313895217537037 
2041	 0.313534199058203 
2042	 0.313116518293647 
2043	 0.312773379864594 
2044	 0.312419734695876 
2045	 0.312117986101082 
2046	 0.311907207461936 
2047	 0.311647307248993 
2048	 0.311389852059686 
2049	 0.311147020076455 
2050	 0.310899361758823 
2051	 0.310632308559794 
2052	 0.31043427602144 
2053	 0.310219239623841 
2054	 0.310006432246041 
2055	 0.309810991320184 
2056	 0.309592399059873 
2057	 0.309370693408574 
2058	 0.309120484164155 
2059	 0.308811413344076 
2060	 0.308573422981852 
2061	 0.308350787902277 
2062	 0.308141684827507 
2063	 0.307974515405706 
2064	 0.307804953130079 
2065	 0.307621388857674 
2066	 0.307470157027036 
2067	 0.307323779529556 
2068	 0.307220223974658 
2069	 0.30709092598135 
2070	 0.306968462016109 
2071	 0.306804684531017 
2072	 0.306625463979448 
2073	 0.306441973867964 
2074	 0.306221350167646 
2075	 0.306023970210317 
2076	 0.305850667949791 
2077	 0.305648621268565 
2078	 0.305430978865978 
2079	 0.305217050281704 
2080	 0.304945199694062 
2081	 0.304738589863121 
2082	 0.304594335476026 
2083	 0.304430109090929 
2084	 0.304246193411693 
2085	 0.30410595547001 
2086	 0.303867393964983 
2087	 0.303526692392623 
2088	 0.303252732893195 
2089	 0.30295904757005 
2090	 0.302681638140274 
2091	 0.302470261888236 
2092	 0.302164500860181 
2093	 0.301787293174501 
2094	 0.301459446141775 
2095	 0.301050964843054 
2096	 0.300749050929094 
2097	 0.300580148965546 
2098	 0.300329510002139 
2099	 0.300121301430957 
2100	 0.299865157205747 
2101	 0.299543259007163 
2102	 0.29912272698965 
2103	 0.298794638183473 
2104	 0.298481516458185 
2105	 0.298116149991244 
2106	 0.297760656928657 
2107	 0.297375546514981 
2108	 0.296919474689266 
2109	 0.296493963673481 
2110	 0.296085413891395 
2111	 0.295687012328347 
2112	 0.295284023360569 
2113	 0.29487087760432 
2114	 0.294457657626287 
2115	 0.294057998001002 
2116	 0.29369482817978 
2117	 0.293274794214868 
2118	 0.292810210832068 
2119	 0.292312001982478 
2120	 0.291887466613122 
2121	 0.291420687231441 
2122	 0.290995263650539 
2123	 0.290658923827482 
2124	 0.290287611766586 
2125	 0.289934068444315 
2126	 0.28948544417079 
2127	 0.288989665817374 
2128	 0.288532698429613 
2129	 0.287978685230506 
2130	 0.287488485858724 
2131	 0.287065931038155 
2132	 0.28666531456208 
2133	 0.286233503724765 
2134	 0.285875186028336 
2135	 0.28563450722808 
2136	 0.285406839533821 
2137	 0.285163081242377 
2138	 0.284946030863756 
2139	 0.284735241799057 
2140	 0.284523024562857 
2141	 0.284307250895229 
2142	 0.284094899001406 
2143	 0.283922615904238 
2144	 0.283738878585597 
2145	 0.283588363072653 
2146	 0.283481350571049 
2147	 0.283406850775283 
2148	 0.283369805476851 
2149	 0.283322399277878 
2150	 0.283357524173346 
2151	 0.283311605547886 
2152	 0.283146015894927 
2153	 0.283100008366456 
2154	 0.283049872815762 
2155	 0.282903099866014 
2156	 0.282819126612328 
2157	 0.282780234381668 
2158	 0.282660003709577 
2159	 0.282497241895609 
2160	 0.282372508520021 
2161	 0.282219308345328 
2162	 0.282109795696742 
2163	 0.28203032644501 
2164	 0.28195674960752 
2165	 0.281936971916514 
2166	 0.281829639797019 
2167	 0.281682356698538 
2168	 0.281566832182138 
2169	 0.281383817772382 
2170	 0.28125303445424 
2171	 0.281212161807617 
2172	 0.281122287505974 
2173	 0.281028711814575 
2174	 0.280894998631588 
2175	 0.28076763437801 
2176	 0.280598632176971 
2177	 0.280578817886291 
2178	 0.280627743822535 
2179	 0.280684326475236 
2180	 0.280895895293999 
2181	 0.280917533971504 
2182	 0.280839317348506 
2183	 0.280816652420105 
2184	 0.280751564011543 
2185	 0.280682171685832 
2186	 0.280650566122659 
2187	 0.280574334436815 
2188	 0.280378164898021 
2189	 0.280320772906833 
2190	 0.28035720435665 
2191	 0.280337585202688 
2192	 0.280405979697019 
2193	 0.280382373784213 
2194	 0.28024801385081 
2195	 0.280154063695043 
2196	 0.280062302454444 
2197	 0.279922807918929 
2198	 0.279909856874999 
2199	 0.279805160130635 
2200	 0.279651642077353 
2201	 0.279498329327206 
2202	 0.279256147768732 
2203	 0.278897128598645 
2204	 0.278598597874218 
2205	 0.278265822497864 
2206	 0.277951242481667 
2207	 0.277661500324961 
2208	 0.277323252387196 
2209	 0.276927878546218 
2210	 0.276617722734383 
2211	 0.27630785191426 
2212	 0.276041604845638 
2213	 0.275871329644922 
2214	 0.275662152650011 
2215	 0.275447891539182 
2216	 0.275221996421197 
2217	 0.275010193763312 
2218	 0.274773141408124 
2219	 0.274451312034086 
2220	 0.274238270464545 
2221	 0.274109487537117 
2222	 0.273913741933733 
2223	 0.273766011488204 
2224	 0.273671612792372 
2225	 0.273515458722347 
2226	 0.273304000523379 
2227	 0.27308703748124 
2228	 0.272933491501029 
2229	 0.272543276724651 
2230	 0.2720432334693 
2231	 0.271480346412581 
2232	 0.270741714300826 
2233	 0.270035013223862 
2234	 0.269363755810983 
2235	 0.268495507101911 
2236	 0.26756071886703 
2237	 0.266453544639902 
2238	 0.265115022651627 
2239	 0.263788280867238 
2240	 0.262431890578672 
2241	 0.260878576790567 
2242	 0.259236356196384 
2243	 0.257465321575358 
2244	 0.255427814298235 
2245	 0.253418569037956 
2246	 0.251383072387668 
2247	 0.24922855635056 
2248	 0.246989478184926 
2249	 0.244676616655954 
2250	 0.242256470023225 
2251	 0.239765008465554 
2252	 0.23717915745844 
2253	 0.234701035180657 
2254	 0.232166680184987 
2255	 0.229571258477603 
2256	 0.227084788397529 
2257	 0.224606982287091 
2258	 0.222227530760037 
2259	 0.219942196451495 
2260	 0.2176477597834 
2261	 0.215419580157998 
2262	 0.21319097925534 
2263	 0.210899451273068 
2264	 0.208829047708099 
2265	 0.206895713394698 
2266	 0.204937172717752 
2267	 0.203133746540149 
2268	 0.201251112040463 
2269	 0.199269108226093 
2270	 0.197472867944687 
2271	 0.195792463468339 
2272	 0.194097195962226 
2273	 0.192435002394508 
2274	 0.190859914920772 
2275	 0.189458079203981 
2276	 0.187845713912166 
2277	 0.186241561180727 
2278	 0.18457166127971 
2279	 0.182572343068709 
2280	 0.180817375202262 
2281	 0.179315193076168 
2282	 0.177625514112697 
2283	 0.175984755988837 
2284	 0.174196799730762 
2285	 0.172210729010654 
2286	 0.170311132773166 
2287	 0.168252103268257 
2288	 0.166162323387279 
2289	 0.164291772553369 
2290	 0.162312599940434 
2291	 0.160442522782168 
2292	 0.158626174721865 
2293	 0.156530311957341 
2294	 0.154395363717333 
2295	 0.152431347029349 
2296	 0.150667238696411 
2297	 0.149039518661664 
2298	 0.147590578980453 
2299	 0.146367140598432 
2300	 0.145260096124657 
2301	 0.144413003991201 
2302	 0.143881941418834 
2303	 0.143510220513586 
2304	 0.143259468612323 
2305	 0.143430582353772 
2306	 0.143988072329838 
2307	 0.144606876689854 
2308	 0.145458006483922 
2309	 0.146590435195475 
2310	 0.147976106451109 
2311	 0.149435740746071 
2312	 0.151320773181233 
2313	 0.153037068457846 
2314	 0.154756316691051 
2315	 0.156439309596267 
2316	 0.15811091920255 
2317	 0.15980685404401 
2318	 0.161548986908666 
2319	 0.163125629106031 
2320	 0.164765830028757 
2321	 0.166108435848531 
2322	 0.167324320067557 
2323	 0.168218223719951 
2324	 0.168872556531231 
2325	 0.169328664534052 
2326	 0.169313123518733 
2327	 0.169353623350553 
2328	 0.169318585132371 
2329	 0.169128361581982 
2330	 0.168858134486799 
2331	 0.168456670493069 
2332	 0.167872503385887 
2333	 0.166957980273709 
2334	 0.16583748980554 
2335	 0.164770837151712 
2336	 0.163647598070375 
2337	 0.162353170699974 
2338	 0.160973765537252 
2339	 0.1596399499068 
2340	 0.158384655217276 
2341	 0.157064551949096 
2342	 0.155750685573153 
2343	 0.154599740716319 
2344	 0.153510151261344 
2345	 0.152734951397334 
2346	 0.152412944113076 
2347	 0.152316502691877 
2348	 0.15233493128176 
2349	 0.152758731308788 
2350	 0.153582691351783 
2351	 0.154527865083207 
2352	 0.155666066180761 
2353	 0.156986528613377 
2354	 0.158277690630276 
2355	 0.159648841456562 
2356	 0.160876079635363 
2357	 0.161864281468487 
2358	 0.162681320817966 
2359	 0.163206062877327 
2360	 0.16374015043463 
2361	 0.1641207490373 
2362	 0.16435346433523 
2363	 0.164464690856302 
2364	 0.164522780368639 
2365	 0.164506035363264 
2366	 0.164260681590278 
2367	 0.16410397813625 
2368	 0.163924466905332 
2369	 0.163790993754708 
2370	 0.16378009559686 
2371	 0.163652915910214 
2372	 0.163333124758372 
2373	 0.163084275343971 
2374	 0.162947652121927 
2375	 0.16260288510919 
2376	 0.162589844567895 
2377	 0.162609465943737 
2378	 0.162341385175962 
2379	 0.162550697709159 
2380	 0.162698837252012 
2381	 0.16252427216843 
2382	 0.16249568260246 
2383	 0.162584502896361 
2384	 0.162485184481552 
2385	 0.162178400136483 
2386	 0.162277883139834 
2387	 0.162493491449164 
2388	 0.162582167052357 
2389	 0.162954050186952 
2390	 0.163099684216049 
2391	 0.163078705606896 
2392	 0.162797199919638 
2393	 0.1623546248409 
2394	 0.162047375492751 
2395	 0.161289452132912 
2396	 0.16123080570721 
2397	 0.161794658880415 
2398	 0.161939893005828 
2399	 0.16218690265613 
2400	 0.162331244771113 
2401	 0.162294664687232 
2402	 0.162247878279843 
2403	 0.162183201863712 
2404	 0.161824488585994 
2405	 0.161546053127482 
2406	 0.161361930133051 
2407	 0.161222155040132 
2408	 0.161137443420408 
2409	 0.161059749685697 
2410	 0.160981626266053 
2411	 0.160917558561373 
2412	 0.161012154778861 
2413	 0.161194852007129 
2414	 0.161299251335012 
2415	 0.161300623666838 
2416	 0.161053350536855 
2417	 0.160915477006977 
2418	 0.16121078998438 
2419	 0.161120786924835 
2420	 0.161100794179061 
2421	 0.161438093476528 
2422	 0.161139076612352 
2423	 0.160966495174394 
2424	 0.160947883299619 
2425	 0.160395560045206 
2426	 0.160045904429002 
2427	 0.160017840254533 
2428	 0.160065372839343 
2429	 0.160161018112693 
2430	 0.160456781800464 
2431	 0.160460142877633 
2432	 0.15976122603072 
2433	 0.159405445353117 
2434	 0.15916540683092 
2435	 0.158635801425911 
2436	 0.158514421089325 
2437	 0.15868317603752 
2438	 0.158552383826036 
2439	 0.15820733619405 
2440	 0.158095894188423 
2441	 0.158102940401654 
2442	 0.157863347663717 
2443	 0.15773814596593 
2444	 0.157886407222514 
2445	 0.157729368320961 
2446	 0.157367255452225 
2447	 0.156962168676616 
2448	 0.15663108657176 
2449	 0.155918481312339 
2450	 0.155071857326847 
2451	 0.154624262001467 
2452	 0.154095732253865 
2453	 0.153785265710684 
2454	 0.154032231423901 
2455	 0.154492463159109 
2456	 0.154052400757046 
2457	 0.152963248240479 
2458	 0.151928110964786 
2459	 0.151059529767392 
2460	 0.151135463503761 
2461	 0.151499376290642 
2462	 0.151183293243108 
2463	 0.150483815133529 
2464	 0.149674495563669 
2465	 0.149284489384516 
2466	 0.149696613731983 
2467	 0.149903515199512 
2468	 0.149898340326812 
2469	 0.150372256702784 
2470	 0.150740394604127 
2471	 0.150571150797432 
2472	 0.149351107627374 
2473	 0.147779354149882 
2474	 0.146178758230896 
2475	 0.144944015202158 
2476	 0.145467477601691 
2477	 0.14654020133909 
2478	 0.147284485781415 
2479	 0.147574665231054 
2480	 0.14847791515551 
2481	 0.14830978961842 
2482	 0.147428356213042 
2483	 0.147486253896061 
2484	 0.146237928454187 
2485	 0.146240210163044 
2486	 0.146986398325967 
2487	 0.147255736182026 
2488	 0.147643903364491 
2489	 0.147917065535553 
2490	 0.148460080401194 
2491	 0.149165244968912 
2492	 0.148845210257802 
2493	 0.149023027528839 
2494	 0.14960699392376 
2495	 0.14929966795095 
2496	 0.150117831981502 
2497	 0.150978863255578 
2498	 0.150132213056904 
2499	 0.149263788141669 
2500	 0.149717955301224 
