Wavelength	Tablay400021.asd
350	 0.348821840240922 
351	 0.265176664635894 
352	 0.233491084511264 
353	 0.29199515706372 
354	 0.28849867874127 
355	 0.250662057086542 
356	 0.244517884781433 
357	 0.292408937913191 
358	 0.255955001802792 
359	 0.202003207236435 
360	 0.200817985791074 
361	 0.278613869426173 
362	 0.244508404973838 
363	 0.209977314285892 
364	 0.222568971603558 
365	 0.192946261257373 
366	 0.182608953560542 
367	 0.197891242500383 
368	 0.220390096326283 
369	 0.212444803344131 
370	 0.171481176053633 
371	 0.146668136520972 
372	 0.202058588108577 
373	 0.179302044298863 
374	 0.183473560540005 
375	 0.22704485538573 
376	 0.153998925023926 
377	 0.136033998963297 
378	 0.163709130853303 
379	 0.18251678876594 
380	 0.159470717586411 
381	 0.130138203066754 
382	 0.124565588649883 
383	 0.154803022471743 
384	 0.155351338340677 
385	 0.146635953344368 
386	 0.146359503333122 
387	 0.154067445943294 
388	 0.15736853352812 
389	 0.153790867684372 
390	 0.143965971040892 
391	 0.122704121605166 
392	 0.128655233940178 
393	 0.146071521180646 
394	 0.129350058036947 
395	 0.113422763608301 
396	 0.108733940798023 
397	 0.111734729449434 
398	 0.102336608055207 
399	 0.112319401837503 
400	 0.123632310210496 
401	 0.115238631264111 
402	 0.111285942619463 
403	 0.105194573363905 
404	 0.095845169280698 
405	 8.82994900081776E-02 
406	 0.104603560034752 
407	 0.110528936136831 
408	 9.29745764342763E-02 
409	 9.24127865669526E-02 
410	 8.80013944493647E-02 
411	 8.77322747030405E-02 
412	 0.100224506497734 
413	 9.57272906278975E-02 
414	 8.86207830721667E-02 
415	 0.087374699472567 
416	 9.22831221981053E-02 
417	 0.092025278963933 
418	 9.05049473123661E-02 
419	 9.00288648058533E-02 
420	 8.23569717751797E-02 
421	 7.78404539006472E-02 
422	 7.76745447549039E-02 
423	 7.90151507086351E-02 
424	 7.93416587058569E-02 
425	 7.76209435921326E-02 
426	 7.42344591382546E-02 
427	 7.07549387943858E-02 
428	 7.19464929487593E-02 
429	 7.47144259911909E-02 
430	 7.52151967089811E-02 
431	 7.22877875237326E-02 
432	 7.05613417762485E-02 
433	 7.16598456786313E-02 
434	 7.46760840039569E-02 
435	 7.29899999122354E-02 
436	 7.18143614774694E-02 
437	 7.34744972062262E-02 
438	 0.074325494666135 
439	 7.15970539304297E-02 
440	 6.85705815498043E-02 
441	 6.87930368223764E-02 
442	 6.91393606441245E-02 
443	 6.98046732749034E-02 
444	 6.97749867072303E-02 
445	 6.74203458273014E-02 
446	 6.63278948628855E-02 
447	 6.69742822153219E-02 
448	 6.86273527707283E-02 
449	 6.93518012106369E-02 
450	 0.069054022936986 
451	 6.84776318423421E-02 
452	 0.068595096554675 
453	 6.93626412656903E-02 
454	 6.90053835090298E-02 
455	 6.77046187924083E-02 
456	 6.77565779971175E-02 
457	 6.73555194010312E-02 
458	 6.68606458933331E-02 
459	 6.69332486535711E-02 
460	 6.79273599260318E-02 
461	 6.83355808955514E-02 
462	 0.067503549644958 
463	 6.58143364551241E-02 
464	 6.77718199198615E-02 
465	 6.91235745376111E-02 
466	 6.83112173646192E-02 
467	 6.91605708142877E-02 
468	 6.96394197930459E-02 
469	 6.96529328451331E-02 
470	 6.97553610464169E-02 
471	 7.10241082422077E-02 
472	 7.19053833007714E-02 
473	 7.19619731545903E-02 
474	 7.17998588101336E-02 
475	 7.33155078786315E-02 
476	 7.46792956223375E-02 
477	 0.074966020705584 
478	 7.65649194115474E-02 
479	 7.71095067232993E-02 
480	 7.74696911041488E-02 
481	 7.91933189138534E-02 
482	 0.080074745429598 
483	 0.081055592884339 
484	 8.27292942675116E-02 
485	 8.50260224041697E-02 
486	 8.52680620754172E-02 
487	 8.55211187410172E-02 
488	 8.76443875684018E-02 
489	 8.96939737455946E-02 
490	 9.13983020058147E-02 
491	 9.29886669357887E-02 
492	 9.48834745738393E-02 
493	 9.60676352253347E-02 
494	 9.78551909032686E-02 
495	 0.100662858016166 
496	 0.1031388395428 
497	 0.10509382381877 
498	 0.106682918383369 
499	 0.108261728605496 
500	 0.11024026219837 
501	 0.112563448189156 
502	 0.115120090965615 
503	 0.117750535698078 
504	 0.119590027742365 
505	 0.121357089011576 
506	 0.123655874245809 
507	 0.12619316346262 
508	 0.128605846265203 
509	 0.130966513549479 
510	 0.133454748206487 
511	 0.135539291798055 
512	 0.1375871165779 
513	 0.139953270672057 
514	 0.142899122800643 
515	 0.145108014774582 
516	 0.147182912645108 
517	 0.149757274025457 
518	 0.151741769583949 
519	 0.154086986130554 
520	 0.156812222104352 
521	 0.159296283370222 
522	 0.161677138437607 
523	 0.163873532776306 
524	 0.165966717248434 
525	 0.168431643252428 
526	 0.170834382644138 
527	 0.17306160598346 
528	 0.175188377285179 
529	 0.177670909862339 
530	 0.179879814301361 
531	 0.181892244584817 
532	 0.184531559936969 
533	 0.186677394499813 
534	 0.188609470044126 
535	 0.190743114600064 
536	 0.193015557821135 
537	 0.195127280511877 
538	 0.197067344971925 
539	 0.199013014995665 
540	 0.201218055543017 
541	 0.203344658855526 
542	 0.205211648368948 
543	 0.206958396136793 
544	 0.208959132945156 
545	 0.211023972451565 
546	 0.212869759877851 
547	 0.21465022488386 
548	 0.216514308199252 
549	 0.218420822132519 
550	 0.220179434998467 
551	 0.222097528478499 
552	 0.22400741396037 
553	 0.225786968334478 
554	 0.227630093448934 
555	 0.229573147940513 
556	 0.231429265282658 
557	 0.232998762699957 
558	 0.2349030907987 
559	 0.236664861411696 
560	 0.238129488697621 
561	 0.239726578976327 
562	 0.241333339145604 
563	 0.242977152570939 
564	 0.244605063049957 
565	 0.245713619835875 
566	 0.247029406157707 
567	 0.248559805687485 
568	 0.249796798548015 
569	 0.25102445483978 
570	 0.252258619419782 
571	 0.253498933938879 
572	 0.254792587993404 
573	 0.256136128789455 
574	 0.257360210033399 
575	 0.258331537955893 
576	 0.259509091171178 
577	 0.260645612879131 
578	 0.261633624630812 
579	 0.262579291881215 
580	 0.263480041175705 
581	 0.264466537352275 
582	 0.265591234753052 
583	 0.266554977231187 
584	 0.267778898554743 
585	 0.26911415009588 
586	 0.270131523967896 
587	 0.271189929057141 
588	 0.272201268798916 
589	 0.27311245392113 
590	 0.273987232897365 
591	 0.275151342972612 
592	 0.276366150154265 
593	 0.277345376977606 
594	 0.278430052408673 
595	 0.279581979026301 
596	 0.280666795218998 
597	 0.281502450424386 
598	 0.28239460702875 
599	 0.283333327041348 
600	 0.284271153228587 
601	 0.285238213025305 
602	 0.285957266191736 
603	 0.286620897670101 
604	 0.287561663222526 
605	 0.288541796749245 
606	 0.289328569425327 
607	 0.289980232496637 
608	 0.290899834619392 
609	 0.291703773650126 
610	 0.292385633990258 
611	 0.293025761388363 
612	 0.293637803630695 
613	 0.294366685950699 
614	 0.295168521204988 
615	 0.295881615008312 
616	 0.296483522723334 
617	 0.2971291804495 
618	 0.297862470402454 
619	 0.298497528552433 
620	 0.299040171157413 
621	 0.299675560206654 
622	 0.300511888382247 
623	 0.300975447473951 
624	 0.301493624334143 
625	 0.302191431653513 
626	 0.302867911976931 
627	 0.303364533006787 
628	 0.303794498307702 
629	 0.304302357027805 
630	 0.304993174669069 
631	 0.305526985840036 
632	 0.305917979038946 
633	 0.306346119354778 
634	 0.306877734296478 
635	 0.307473449665474 
636	 0.308057532771492 
637	 0.308526396998032 
638	 0.308954072463122 
639	 0.309386721925042 
640	 0.309830720438257 
641	 0.310183225871822 
642	 0.310527632214499 
643	 0.310971610538629 
644	 0.311580219779941 
645	 0.31189729461476 
646	 0.31226833952078 
647	 0.312797531499904 
648	 0.31302580695666 
649	 0.313417490720571 
650	 0.313865727185637 
651	 0.314169944774506 
652	 0.314508207182335 
653	 0.314862102024464 
654	 0.315207693218897 
655	 0.31552447835667 
656	 0.315858996946155 
657	 0.31618087125815 
658	 0.316467809024692 
659	 0.316727405442403 
660	 0.31709956929309 
661	 0.317464466320956 
662	 0.317665921327335 
663	 0.31793327642504 
664	 0.318193107122328 
665	 0.318479429641361 
666	 0.31893056678976 
667	 0.319131721935156 
668	 0.319266342573868 
669	 0.319536384043099 
670	 0.319885549292698 
671	 0.320164590638677 
672	 0.32034495165678 
673	 0.320469920764936 
674	 0.320579792229784 
675	 0.32081084568179 
676	 0.321119992519154 
677	 0.321252052557289 
678	 0.321460300043675 
679	 0.321679465019973 
680	 0.321833951284615 
681	 0.322043793935482 
682	 0.322272494686105 
683	 0.322491457342294 
684	 0.322669944335447 
685	 0.32270847868921 
686	 0.322869639662211 
687	 0.323187194747283 
688	 0.323332129184313 
689	 0.323487677182651 
690	 0.323596404619604 
691	 0.323628339862919 
692	 0.32385514071072 
693	 0.324044889132589 
694	 0.32417546417311 
695	 0.324349660539584 
696	 0.324480059601129 
697	 0.324571941352363 
698	 0.324650820851346 
699	 0.324751528677563 
700	 0.324969712224796 
701	 0.325164542614551 
702	 0.325198104269594 
703	 0.325188852539268 
704	 0.325350090346663 
705	 0.325624675351772 
706	 0.325774807137078 
707	 0.32580154820323 
708	 0.325845300927607 
709	 0.325981745881871 
710	 0.326150848847205 
711	 0.326261521220025 
712	 0.326332909441156 
713	 0.326415363382297 
714	 0.326518499522675 
715	 0.326633409019989 
716	 0.32676668795584 
717	 0.326926406070785 
718	 0.327013224168268 
719	 0.327075331022571 
720	 0.327154155594112 
721	 0.327239682857295 
722	 0.327412063980008 
723	 0.327587669248209 
724	 0.327675888950213 
725	 0.327759199015031 
726	 0.327911416979301 
727	 0.328096671018008 
728	 0.32821344050054 
729	 0.328347922595752 
730	 0.328473048694191 
731	 0.328569230403993 
732	 0.328650003553786 
733	 0.328762781242856 
734	 0.328903159198518 
735	 0.329046774535192 
736	 0.32916079859832 
737	 0.329299259430394 
738	 0.329468719818638 
739	 0.329640179122024 
740	 0.329785722710367 
741	 0.329968127187538 
742	 0.330176855073267 
743	 0.330277736600657 
744	 0.330400465917088 
745	 0.330580248064197 
746	 0.330790049931107 
747	 0.330881686193436 
748	 0.331044508465663 
749	 0.331276912420413 
750	 0.33147580018495 
751	 0.331716204857612 
752	 0.33188161102731 
753	 0.332008496967168 
754	 0.332342466603202 
755	 0.332578720223294 
756	 0.332726514759963 
757	 0.332882705760122 
758	 0.333170745363606 
759	 0.3334463298712 
760	 0.33367036924688 
761	 0.333869910338447 
762	 0.334135627992301 
763	 0.334371753233773 
764	 0.334578638378 
765	 0.334867723940781 
766	 0.335171127123322 
767	 0.335478358889073 
768	 0.335768045706162 
769	 0.33595774473449 
770	 0.336202610293147 
771	 0.336522041686979 
772	 0.336868684313318 
773	 0.337162390712551 
774	 0.33741769015475 
775	 0.33766017059836 
776	 0.337922141344485 
777	 0.338252289840215 
778	 0.338551395803786 
779	 0.338783922541519 
780	 0.339052026811019 
781	 0.339445129220342 
782	 0.339820060811112 
783	 0.34005883680999 
784	 0.340381766135726 
785	 0.340719050506328 
786	 0.341016664095629 
787	 0.341249279852778 
788	 0.341519800284478 
789	 0.3418283209351 
790	 0.342150265503637 
791	 0.342447646333576 
792	 0.342722471617211 
793	 0.343028525934972 
794	 0.34339971593921 
795	 0.343812771288002 
796	 0.344104105908442 
797	 0.34431075483725 
798	 0.344542792162767 
799	 0.344823767471223 
800	 0.345146378219018 
801	 0.345459790261272 
802	 0.345703388282241 
803	 0.346045735187113 
804	 0.346382355440783 
805	 0.346648596501764 
806	 0.346894847752838 
807	 0.347169268938184 
808	 0.347432913136709 
809	 0.347667354687604 
810	 0.347993715413251 
811	 0.34826391686043 
812	 0.348478694103881 
813	 0.348706625195249 
814	 0.348969651747974 
815	 0.349219080529485 
816	 0.349464226402201 
817	 0.349758878249119 
818	 0.350017723167457 
819	 0.350171882908907 
820	 0.35028553429824 
821	 0.350624641674026 
822	 0.350913317563866 
823	 0.351107790946334 
824	 0.351253658069763 
825	 0.351456991225359 
826	 0.351685467163404 
827	 0.351887101043568 
828	 0.352016363405418 
829	 0.352108704260608 
830	 0.352316600309136 
831	 0.352577728614183 
832	 0.352664288426087 
833	 0.352744556037847 
834	 0.352874324976748 
835	 0.353036478690496 
836	 0.353130531456877 
837	 0.353324990575233 
838	 0.353535345390119 
839	 0.353661956815212 
840	 0.353739532269676 
841	 0.3538610398515 
842	 0.353977452294454 
843	 0.354027350570644 
844	 0.354213739290316 
845	 0.354307269864097 
846	 0.35433091300408 
847	 0.354472039200632 
848	 0.354516177763225 
849	 0.354540604502042 
850	 0.35461528668747 
851	 0.354752622161164 
852	 0.354878869067599 
853	 0.354952734632044 
854	 0.354973584489968 
855	 0.355001743178314 
856	 0.355062176730034 
857	 0.355136419655334 
858	 0.355192327487502 
859	 0.355207740633285 
860	 0.355273546475372 
861	 0.355378634664271 
862	 0.355447285681351 
863	 0.355373296282197 
864	 0.355408172172008 
865	 0.355509351479165 
866	 0.35540189982459 
867	 0.35535050302522 
868	 0.355368433051324 
869	 0.355432283665049 
870	 0.35551594309988 
871	 0.35556355232163 
872	 0.35560530126661 
873	 0.35564543999433 
874	 0.355582986706504 
875	 0.355531754363453 
876	 0.355526529920824 
877	 0.355547264373862 
878	 0.355479222656925 
879	 0.355486196872709 
880	 0.355480151368032 
881	 0.355335364167855 
882	 0.35543504929105 
883	 0.355471211184135 
884	 0.355383210831367 
885	 0.355330886288 
886	 0.355364832513623 
887	 0.355377105165131 
888	 0.355362774026176 
889	 0.355438322149352 
890	 0.355327777616762 
891	 0.355217647940439 
892	 0.35520732265953 
893	 0.35510498530232 
894	 0.355228727089318 
895	 0.35533427743041 
896	 0.3552153414653 
897	 0.355129219798879 
898	 0.355074966258436 
899	 0.355087637196175 
900	 0.355166465261094 
901	 0.355178202775169 
902	 0.355184543469664 
903	 0.355191264677385 
904	 0.355177254479099 
905	 0.355142671207987 
906	 0.355081815057573 
907	 0.355057637298442 
908	 0.355146317304078 
909	 0.355159165778852 
910	 0.355162036992699 
911	 0.355179103667673 
912	 0.355173583583848 
913	 0.355219370960268 
914	 0.355235617889164 
915	 0.355224118659882 
916	 0.355317918503204 
917	 0.355361831668489 
918	 0.355301231184519 
919	 0.355198058856492 
920	 0.355274162800613 
921	 0.35527936997512 
922	 0.355322030095024 
923	 0.355486383881562 
924	 0.355568541129944 
925	 0.355562231913417 
926	 0.355543570441707 
927	 0.35558758146263 
928	 0.355643696428857 
929	 0.355783271533559 
930	 0.355870045716837 
931	 0.355779466964076 
932	 0.355803886464326 
933	 0.355895222833938 
934	 0.356027159141403 
935	 0.356165037206212 
936	 0.356158099541765 
937	 0.356200211740464 
938	 0.356286529991919 
939	 0.356298258168127 
940	 0.356431173194318 
941	 0.356646885800308 
942	 0.356804705711397 
943	 0.356734929049232 
944	 0.356556252086268 
945	 0.356563867028693 
946	 0.356749067077242 
947	 0.356794307861018 
948	 0.356824715102488 
949	 0.357023591862729 
950	 0.357302093810615 
951	 0.357269257432166 
952	 0.357310562824752 
953	 0.357333809795954 
954	 0.357324252644155 
955	 0.35748692321361 
956	 0.357720052163935 
957	 0.357758831577014 
958	 0.357604247039322 
959	 0.357735996624564 
960	 0.357844565002605 
961	 0.357869992552682 
962	 0.357855928557381 
963	 0.357930297290386 
964	 0.357905890957021 
965	 0.357953952497068 
966	 0.358154192003509 
967	 0.358187485195634 
968	 0.358069296247021 
969	 0.358115355694319 
970	 0.358437051028066 
971	 0.358431151584296 
972	 0.358393707200145 
973	 0.358533583894051 
974	 0.358877251966346 
975	 0.359048463198718 
976	 0.359070715964654 
977	 0.358857997765113 
978	 0.358532333543829 
979	 0.358904724360719 
980	 0.358880381521814 
981	 0.35876729673998 
982	 0.359071120842812 
983	 0.359327544827401 
984	 0.359441053718186 
985	 0.359432495188611 
986	 0.359422006876066 
987	 0.359641658973299 
988	 0.359808925742161 
989	 0.359663546926644 
990	 0.359298359631244 
991	 0.359874740523011 
992	 0.36022672537022 
993	 0.360022209494994 
994	 0.359547625024517 
995	 0.359925612636376 
996	 0.360000077274367 
997	 0.359772563231097 
998	 0.359719594562398 
999	 0.36038032067648 
1000	 0.360436833422826 
1001	 0.352664362807605 
1002	 0.352674078769126 
1003	 0.352696752289401 
1004	 0.352765816719006 
1005	 0.352884976272837 
1006	 0.352924557944518 
1007	 0.352990601882892 
1008	 0.352969215805652 
1009	 0.352746247727708 
1010	 0.352794067618876 
1011	 0.353040934577687 
1012	 0.353103614053001 
1013	 0.353209575889147 
1014	 0.353302661369262 
1015	 0.353292055323486 
1016	 0.353189087360897 
1017	 0.35328627063556 
1018	 0.353437654272534 
1019	 0.353462218378759 
1020	 0.353480981029848 
1021	 0.353496969301142 
1022	 0.35349175583703 
1023	 0.353502603394797 
1024	 0.353480510655367 
1025	 0.353481277740141 
1026	 0.353490586902747 
1027	 0.353512819759086 
1028	 0.353487763015627 
1029	 0.353673754696685 
1030	 0.353742111474304 
1031	 0.353767948539304 
1032	 0.353833887464668 
1033	 0.353832775631134 
1034	 0.354021829549278 
1035	 0.354186366203536 
1036	 0.354274422055041 
1037	 0.354370761868749 
1038	 0.354430223857072 
1039	 0.354372257498609 
1040	 0.354417341895701 
1041	 0.354495330889779 
1042	 0.354588350134526 
1043	 0.354743581942651 
1044	 0.354813704998936 
1045	 0.354915961149061 
1046	 0.35504469030692 
1047	 0.355002021858014 
1048	 0.355016247498548 
1049	 0.355034328552444 
1050	 0.355094208537142 
1051	 0.355298198858637 
1052	 0.35542207822765 
1053	 0.355541518497518 
1054	 0.355648500530392 
1055	 0.355748254690648 
1056	 0.355885700065701 
1057	 0.355889652791304 
1058	 0.355782352099392 
1059	 0.355808892793395 
1060	 0.355726808524023 
1061	 0.35573131607239 
1062	 0.355964027104635 
1063	 0.356092010785484 
1064	 0.356187398876283 
1065	 0.356252176121465 
1066	 0.356201911007224 
1067	 0.356061504900055 
1068	 0.355887191977495 
1069	 0.355828996520237 
1070	 0.355844719136574 
1071	 0.355957082944106 
1072	 0.356088472796778 
1073	 0.356208832626249 
1074	 0.356243176080264 
1075	 0.356175402811662 
1076	 0.356035346393949 
1077	 0.356016326302499 
1078	 0.356066221075077 
1079	 0.356041966447839 
1080	 0.356128484754781 
1081	 0.35622398485473 
1082	 0.356232595171149 
1083	 0.356221148506462 
1084	 0.356205865462135 
1085	 0.356194455934164 
1086	 0.35614502156918 
1087	 0.356028857236716 
1088	 0.356005317296327 
1089	 0.356070541957125 
1090	 0.356024410826902 
1091	 0.35603872748697 
1092	 0.356184946129242 
1093	 0.356264479185703 
1094	 0.356346517698564 
1095	 0.356389923005294 
1096	 0.356314836058121 
1097	 0.356311419881095 
1098	 0.356303031564576 
1099	 0.356307652262181 
1100	 0.356438707296172 
1101	 0.356476552931094 
1102	 0.356495167214919 
1103	 0.356577598543447 
1104	 0.356713186895058 
1105	 0.35682742256237 
1106	 0.356976838250676 
1107	 0.357151863762365 
1108	 0.357287747893836 
1109	 0.357337451777471 
1110	 0.35741188803523 
1111	 0.357485274922514 
1112	 0.357546959619461 
1113	 0.357759138604622 
1114	 0.35797916842776 
1115	 0.358156435133994 
1116	 0.358384555682797 
1117	 0.358560680816168 
1118	 0.358719179058999 
1119	 0.35883978532261 
1120	 0.3589850927537 
1121	 0.3591247176877 
1122	 0.359266526898197 
1123	 0.359413428343587 
1124	 0.359551578160351 
1125	 0.359722108350079 
1126	 0.359946877275723 
1127	 0.36010665959279 
1128	 0.360267766158496 
1129	 0.36046309076253 
1130	 0.360619267905542 
1131	 0.360802700941335 
1132	 0.360979991370089 
1133	 0.361114398584233 
1134	 0.361232964492914 
1135	 0.361374216026145 
1136	 0.36155071117752 
1137	 0.361705466946444 
1138	 0.361836968403969 
1139	 0.361974526398438 
1140	 0.36213102276881 
1141	 0.362219802072087 
1142	 0.362307548770297 
1143	 0.362466802290743 
1144	 0.362511017626907 
1145	 0.362565582230872 
1146	 0.362669900673519 
1147	 0.362726714647832 
1148	 0.362787971299799 
1149	 0.362848212238979 
1150	 0.362883484755522 
1151	 0.362914074297733 
1152	 0.362919598185644 
1153	 0.362901048563502 
1154	 0.362904973128513 
1155	 0.362901036596529 
1156	 0.362883463138978 
1157	 0.36289774990311 
1158	 0.362877504470757 
1159	 0.362795403828775 
1160	 0.362756368263279 
1161	 0.362778932615343 
1162	 0.36277492698804 
1163	 0.362751877079046 
1164	 0.362704515821783 
1165	 0.362577300079124 
1166	 0.362413606746362 
1167	 0.362372718637163 
1168	 0.362368443164558 
1169	 0.362305041445949 
1170	 0.362271145694046 
1171	 0.362189727529266 
1172	 0.362016769297939 
1173	 0.361908239925724 
1174	 0.361820458249523 
1175	 0.361746286552173 
1176	 0.361689942626505 
1177	 0.361620625830468 
1178	 0.361564259451847 
1179	 0.361492507909262 
1180	 0.361399105061473 
1181	 0.361393975098602 
1182	 0.361344280377395 
1183	 0.361266046053349 
1184	 0.36121435797164 
1185	 0.361096239025137 
1186	 0.36103274961954 
1187	 0.360991028252936 
1188	 0.360955348406369 
1189	 0.360933268810068 
1190	 0.360915603947613 
1191	 0.360903914179644 
1192	 0.360903696098004 
1193	 0.360926720276127 
1194	 0.36094263405637 
1195	 0.360928397599058 
1196	 0.360955303271071 
1197	 0.361000907005545 
1198	 0.361062356751591 
1199	 0.361127519191477 
1200	 0.361249294838846 
1201	 0.361377034277729 
1202	 0.361498006245692 
1203	 0.361617826084972 
1204	 0.361789010530286 
1205	 0.361992351458721 
1206	 0.362205250718249 
1207	 0.362462796876301 
1208	 0.362768612313603 
1209	 0.363101577504112 
1210	 0.363451724587648 
1211	 0.363845965850158 
1212	 0.364283412240724 
1213	 0.36477256422241 
1214	 0.365277384766778 
1215	 0.36586645690804 
1216	 0.366577281316447 
1217	 0.367236937534219 
1218	 0.367947987335731 
1219	 0.368630065748149 
1220	 0.369238497999077 
1221	 0.369917065994434 
1222	 0.370589206423098 
1223	 0.371308659111988 
1224	 0.372006061263215 
1225	 0.372720534253476 
1226	 0.373414799235763 
1227	 0.374116991180085 
1228	 0.374765377453795 
1229	 0.375395992986313 
1230	 0.376016445042491 
1231	 0.376584819786899 
1232	 0.377165433902179 
1233	 0.377766460517363 
1234	 0.37832331559162 
1235	 0.378845724682875 
1236	 0.37937245962274 
1237	 0.379901416273891 
1238	 0.380392217791309 
1239	 0.380847524721506 
1240	 0.381308218400123 
1241	 0.381786381651189 
1242	 0.382188837195804 
1243	 0.382643904432539 
1244	 0.383134224092349 
1245	 0.383585199400659 
1246	 0.384050554475768 
1247	 0.384447101003257 
1248	 0.384782636888299 
1249	 0.38516241040924 
1250	 0.385516261537961 
1251	 0.385875152547292 
1252	 0.386267754517858 
1253	 0.386635594313092 
1254	 0.386970779485584 
1255	 0.387317255008237 
1256	 0.387683327801941 
1257	 0.388026965233879 
1258	 0.388343656631313 
1259	 0.38867398101111 
1260	 0.388980366008067 
1261	 0.389321985811142 
1262	 0.389668487007169 
1263	 0.39006582291922 
1264	 0.390455808063814 
1265	 0.390868374746091 
1266	 0.391286525315698 
1267	 0.391723441994947 
1268	 0.392130659436322 
1269	 0.39255439385718 
1270	 0.392940369595371 
1271	 0.393280036414444 
1272	 0.393649794680587 
1273	 0.394030506850843 
1274	 0.394384209051514 
1275	 0.394725437602302 
1276	 0.395073405147992 
1277	 0.395399036656444 
1278	 0.39573551151616 
1279	 0.396089480605769 
1280	 0.396438705173878 
1281	 0.396790994032109 
1282	 0.397127250657583 
1283	 0.397498057713038 
1284	 0.397801357014543 
1285	 0.39806543892711 
1286	 0.3982819213566 
1287	 0.398515954774347 
1288	 0.39869817706894 
1289	 0.398929270326913 
1290	 0.399190988459115 
1291	 0.399431682380433 
1292	 0.399678457591566 
1293	 0.399902706398569 
1294	 0.400125645323078 
1295	 0.40032058430491 
1296	 0.400504881381763 
1297	 0.400653099907422 
1298	 0.400733031369684 
1299	 0.400875684289034 
1300	 0.401033395900124 
1301	 0.401172340805903 
1302	 0.401342447397636 
1303	 0.401493995469522 
1304	 0.401583953717917 
1305	 0.401724362969668 
1306	 0.401886341135777 
1307	 0.402069958903129 
1308	 0.40229434685999 
1309	 0.40251784204597 
1310	 0.402715024098532 
1311	 0.402916751429738 
1312	 0.403106325812777 
1313	 0.403268636629597 
1314	 0.403442470086845 
1315	 0.403631664065737 
1316	 0.40379360756413 
1317	 0.403927237257762 
1318	 0.404085308775906 
1319	 0.40421063206842 
1320	 0.404413488403232 
1321	 0.404703654469221 
1322	 0.404906025518211 
1323	 0.405117075971189 
1324	 0.405304049867473 
1325	 0.405379203331008 
1326	 0.405555949096588 
1327	 0.405811893911781 
1328	 0.406028924000942 
1329	 0.406266167350719 
1330	 0.406493061606454 
1331	 0.406707086188 
1332	 0.406905613389848 
1333	 0.407105873144814 
1334	 0.407309294628617 
1335	 0.407445024225335 
1336	 0.407518157689151 
1337	 0.407658807981468 
1338	 0.407792745879959 
1339	 0.407922196931855 
1340	 0.408088591126663 
1341	 0.408216914466905 
1342	 0.408317936811534 
1343	 0.408402889443932 
1344	 0.408474220506813 
1345	 0.408559110137997 
1346	 0.40862778855539 
1347	 0.408689316551349 
1348	 0.408767131229655 
1349	 0.408829855540779 
1350	 0.408867208921687 
1351	 0.408905999465771 
1352	 0.408964018279498 
1353	 0.408987956565661 
1354	 0.409000973751643 
1355	 0.408980417483236 
1356	 0.408902057855852 
1357	 0.408862053641508 
1358	 0.408803186936217 
1359	 0.408762918084552 
1360	 0.408739687176918 
1361	 0.408762110872697 
1362	 0.408736778943794 
1363	 0.408718017473683 
1364	 0.408656984816174 
1365	 0.408576228978853 
1366	 0.408474647047132 
1367	 0.408367706578065 
1368	 0.408181936860946 
1369	 0.407953004063644 
1370	 0.407705069649913 
1371	 0.407399292219241 
1372	 0.407086812394984 
1373	 0.4067652114141 
1374	 0.406417745478596 
1375	 0.406033728122665 
1376	 0.405633330261963 
1377	 0.405230583379541 
1378	 0.404784617159581 
1379	 0.404286410523692 
1380	 0.403791416855462 
1381	 0.403291571822509 
1382	 0.402748252620239 
1383	 0.402181849328511 
1384	 0.401592469416069 
1385	 0.400971758707021 
1386	 0.400324624001427 
1387	 0.399625000833392 
1388	 0.398971884093554 
1389	 0.398325568578419 
1390	 0.397663493322794 
1391	 0.397028443775126 
1392	 0.396360523375449 
1393	 0.395721183258955 
1394	 0.395108421809004 
1395	 0.394501599573027 
1396	 0.393980842671026 
1397	 0.393320644050708 
1398	 0.392634533486314 
1399	 0.391846835910189 
1400	 0.390968958722351 
1401	 0.39006573315023 
1402	 0.389135570880528 
1403	 0.388063655300666 
1404	 0.386913952265132 
1405	 0.385707387792318 
1406	 0.384349938609509 
1407	 0.383030141294791 
1408	 0.381671690484537 
1409	 0.380325767382617 
1410	 0.378939639406335 
1411	 0.377599906303012 
1412	 0.37627388801156 
1413	 0.374990378160154 
1414	 0.373747571328549 
1415	 0.372499551883737 
1416	 0.371240212492514 
1417	 0.370042135468567 
1418	 0.368860928787844 
1419	 0.367721747770204 
1420	 0.366631218696878 
1421	 0.36559612742799 
1422	 0.364593962405987 
1423	 0.36363420503284 
1424	 0.362754858166502 
1425	 0.361870996478842 
1426	 0.361044983380481 
1427	 0.360231314041423 
1428	 0.359402233897195 
1429	 0.358648298874458 
1430	 0.357899612180281 
1431	 0.357165585500098 
1432	 0.356441784548869 
1433	 0.355787533271201 
1434	 0.355021332156553 
1435	 0.35421990352616 
1436	 0.353385160896918 
1437	 0.352476520073633 
1438	 0.351608214009009 
1439	 0.350709465100853 
1440	 0.349872029542395 
1441	 0.349003945142372 
1442	 0.348270720939201 
1443	 0.347536267319756 
1444	 0.347034642696684 
1445	 0.346634692546099 
1446	 0.346458314083399 
1447	 0.346477780575179 
1448	 0.346658044068317 
1449	 0.347042543211874 
1450	 0.347547499453961 
1451	 0.34823757659361 
1452	 0.349017860576034 
1453	 0.349990434505627 
1454	 0.350947116953366 
1455	 0.352057136221536 
1456	 0.353076532868344 
1457	 0.354093424815674 
1458	 0.355075352489925 
1459	 0.356014675499242 
1460	 0.35693707840409 
1461	 0.357870637882746 
1462	 0.358722233924016 
1463	 0.359502557995118 
1464	 0.360277250198017 
1465	 0.360979926772493 
1466	 0.361702966856396 
1467	 0.36240039433478 
1468	 0.36308221183579 
1469	 0.363762454539049 
1470	 0.364351768043584 
1471	 0.36496472981706 
1472	 0.36556546339878 
1473	 0.366158603740063 
1474	 0.366740978289145 
1475	 0.367307050562869 
1476	 0.367871803360692 
1477	 0.368400034647955 
1478	 0.368905210074751 
1479	 0.369372456747899 
1480	 0.369819495291642 
1481	 0.370217880273668 
1482	 0.370580405413384 
1483	 0.370903833332569 
1484	 0.371174511584067 
1485	 0.371437119400113 
1486	 0.371639506928062 
1487	 0.371885304797324 
1488	 0.372098513195803 
1489	 0.372396003450108 
1490	 0.3727348531164 
1491	 0.373109514409321 
1492	 0.373508669576355 
1493	 0.373998933430806 
1494	 0.374528110603131 
1495	 0.375140114910261 
1496	 0.375860405915254 
1497	 0.376607322867579 
1498	 0.377442102211085 
1499	 0.378259308716771 
1500	 0.379145997289016 
1501	 0.37997337274431 
1502	 0.380775247003745 
1503	 0.381561010544674 
1504	 0.382319276663976 
1505	 0.383068348792477 
1506	 0.383828185190098 
1507	 0.384537262707813 
1508	 0.385228620898996 
1509	 0.38586771741461 
1510	 0.386463518304094 
1511	 0.387007964611384 
1512	 0.387478244389459 
1513	 0.387951558573895 
1514	 0.388397669615527 
1515	 0.388811549765831 
1516	 0.389220214835183 
1517	 0.389589825302784 
1518	 0.389901483322648 
1519	 0.390204602279903 
1520	 0.390498482641394 
1521	 0.390743713390417 
1522	 0.39102103290018 
1523	 0.391268808283336 
1524	 0.391448473183965 
1525	 0.391586080585138 
1526	 0.391740520478141 
1527	 0.391846157457065 
1528	 0.39195190208216 
1529	 0.392071949189447 
1530	 0.392182330608925 
1531	 0.392246101102668 
1532	 0.392347017984047 
1533	 0.392480283834681 
1534	 0.392607140796716 
1535	 0.392714922267048 
1536	 0.392860810048223 
1537	 0.393027525365306 
1538	 0.393222171523986 
1539	 0.393412763388842 
1540	 0.393690570530283 
1541	 0.394034830043192 
1542	 0.394379355595604 
1543	 0.39476122955431 
1544	 0.395186165716251 
1545	 0.395620782984423 
1546	 0.396119833000724 
1547	 0.396706267631076 
1548	 0.397267970320629 
1549	 0.397874139144215 
1550	 0.398431088352482 
1551	 0.398975772444075 
1552	 0.399515970112193 
1553	 0.400028965633445 
1554	 0.400552182671679 
1555	 0.40109184693148 
1556	 0.401601513696874 
1557	 0.402089310830082 
1558	 0.402582250639994 
1559	 0.403060817141583 
1560	 0.403544962424176 
1561	 0.404021598025934 
1562	 0.40452027313065 
1563	 0.405047498308964 
1564	 0.405533254580789 
1565	 0.406015119521859 
1566	 0.406490110725715 
1567	 0.406939904190314 
1568	 0.407379225946969 
1569	 0.40782147200134 
1570	 0.408250584520904 
1571	 0.408655028350035 
1572	 0.409052124019474 
1573	 0.409435061302738 
1574	 0.409833543289679 
1575	 0.410234033812064 
1576	 0.41061587119202 
1577	 0.411001351525303 
1578	 0.411384168766525 
1579	 0.411748464633414 
1580	 0.412106098297238 
1581	 0.412439931981924 
1582	 0.41282719658076 
1583	 0.413260789406828 
1584	 0.413634124540925 
1585	 0.41402913956395 
1586	 0.414391119660642 
1587	 0.414643103528885 
1588	 0.414980735159582 
1589	 0.415380679728864 
1590	 0.415754519395 
1591	 0.416154998219509 
1592	 0.416530170182816 
1593	 0.416880605489352 
1594	 0.417234977995487 
1595	 0.417568359589953 
1596	 0.417929351390365 
1597	 0.418318305619237 
1598	 0.418677539450639 
1599	 0.419061974860765 
1600	 0.419400095269154 
1601	 0.419670564190774 
1602	 0.419978802172217 
1603	 0.420271114210214 
1604	 0.42058406316605 
1605	 0.420911448379699 
1606	 0.421264164638074 
1607	 0.421683727694213 
1608	 0.422031562300958 
1609	 0.422392982988036 
1610	 0.42269047910358 
1611	 0.422871486159534 
1612	 0.423097798138152 
1613	 0.423313820530551 
1614	 0.423542825965792 
1615	 0.423813069874074 
1616	 0.424040416395762 
1617	 0.42423411790987 
1618	 0.424446290783169 
1619	 0.424650948852511 
1620	 0.424845470136514 
1621	 0.425054853013189 
1622	 0.425245756618563 
1623	 0.425432865902434 
1624	 0.425579201624675 
1625	 0.425706429949681 
1626	 0.425812430756632 
1627	 0.425829654771841 
1628	 0.425918159036546 
1629	 0.426050814904478 
1630	 0.426159490417627 
1631	 0.426293005402392 
1632	 0.426413090653988 
1633	 0.426523515586129 
1634	 0.426614988269661 
1635	 0.42668613333576 
1636	 0.426775288467002 
1637	 0.426828076447619 
1638	 0.426922935674562 
1639	 0.427126742782595 
1640	 0.427211585208934 
1641	 0.427234839327516 
1642	 0.427266569096613 
1643	 0.4271828228873 
1644	 0.427195809101857 
1645	 0.427341603177826 
1646	 0.427362330662098 
1647	 0.42735590702649 
1648	 0.427325988888238 
1649	 0.427188234068441 
1650	 0.427100818871409 
1651	 0.427062886137758 
1652	 0.426972756439175 
1653	 0.426872402584391 
1654	 0.426730139682044 
1655	 0.426554372314222 
1656	 0.426348256493769 
1657	 0.426081600240871 
1658	 0.425833095828422 
1659	 0.425618425095155 
1660	 0.425301022227247 
1661	 0.424971427168638 
1662	 0.4245601180217 
1663	 0.424004981631774 
1664	 0.423481560257062 
1665	 0.422946951394511 
1666	 0.422345575083854 
1667	 0.421741733809118 
1668	 0.421065393008339 
1669	 0.420363018085315 
1670	 0.419525853690355 
1671	 0.418567794081716 
1672	 0.417575273292221 
1673	 0.416483701345968 
1674	 0.415325621955226 
1675	 0.414132719028158 
1676	 0.412887659780534 
1677	 0.411548496410511 
1678	 0.410170394337991 
1679	 0.4087671765731 
1680	 0.407276056807492 
1681	 0.405698636621401 
1682	 0.404059329578662 
1683	 0.402357136222177 
1684	 0.400621970387869 
1685	 0.398833377833776 
1686	 0.396980290712872 
1687	 0.39506287748778 
1688	 0.393095206099575 
1689	 0.391059181738011 
1690	 0.388958701211973 
1691	 0.386814954486176 
1692	 0.384650330341769 
1693	 0.382409710190826 
1694	 0.380167259762397 
1695	 0.377906855417648 
1696	 0.375598030596556 
1697	 0.373259701232498 
1698	 0.3708525181607 
1699	 0.368399019427427 
1700	 0.365949028002301 
1701	 0.36342587113378 
1702	 0.360969736274872 
1703	 0.358470069682455 
1704	 0.356124959499149 
1705	 0.35381055567322 
1706	 0.351660032329965 
1707	 0.349709937207393 
1708	 0.347857658966802 
1709	 0.346106352880387 
1710	 0.344448769662638 
1711	 0.34287620922238 
1712	 0.341403841310156 
1713	 0.339966369086735 
1714	 0.338632627642828 
1715	 0.337433568006021 
1716	 0.336269338146571 
1717	 0.335161422997389 
1718	 0.334071598015972 
1719	 0.332962457447552 
1720	 0.331909047158658 
1721	 0.330911337781589 
1722	 0.329958768255291 
1723	 0.329158555255883 
1724	 0.328483795731806 
1725	 0.3279172366646 
1726	 0.327540504485093 
1727	 0.327280562842404 
1728	 0.3271672409467 
1729	 0.327327220601137 
1730	 0.327737891176915 
1731	 0.328336379373686 
1732	 0.329117526838572 
1733	 0.329990248272478 
1734	 0.330958884890666 
1735	 0.331998419378637 
1736	 0.333028911475435 
1737	 0.333959897263676 
1738	 0.334742392052555 
1739	 0.335385889030806 
1740	 0.33595834818473 
1741	 0.336305889359572 
1742	 0.336420884242079 
1743	 0.336489147075316 
1744	 0.336329783098778 
1745	 0.336202328522333 
1746	 0.336057215724404 
1747	 0.335868927424893 
1748	 0.335567648949857 
1749	 0.335363055610023 
1750	 0.33515696794792 
1751	 0.335031626686237 
1752	 0.334940966656614 
1753	 0.334981517277963 
1754	 0.335079298532527 
1755	 0.335305338138791 
1756	 0.335654108673532 
1757	 0.336089907165441 
1758	 0.336664170075676 
1759	 0.337301196571188 
1760	 0.33816856659301 
1761	 0.339177175727653 
1762	 0.340144039431549 
1763	 0.34128933406552 
1764	 0.342491343447491 
1765	 0.343727842112625 
1766	 0.345222224997947 
1767	 0.346755210438969 
1768	 0.348303470461778 
1769	 0.349889500054503 
1770	 0.351317937545257 
1771	 0.35274693210315 
1772	 0.354193725193771 
1773	 0.355539145126952 
1774	 0.356930034940071 
1775	 0.358210295379649 
1776	 0.359288770984511 
1777	 0.360348978641801 
1778	 0.36127818709721 
1779	 0.362108607470767 
1780	 0.362983335180483 
1781	 0.36377944422212 
1782	 0.364554867993544 
1783	 0.365336081168646 
1784	 0.366059705791368 
1785	 0.366737058013985 
1786	 0.367335268958032 
1787	 0.36781336183415 
1788	 0.368351403581135 
1789	 0.368884095608108 
1790	 0.369359676147009 
1791	 0.369869754282114 
1792	 0.370327619011946 
1793	 0.370676456214302 
1794	 0.371139887771397 
1795	 0.371479588567887 
1796	 0.37183991567462 
1797	 0.372316797621417 
1798	 0.372742773836083 
1799	 0.373214022291317 
1800	 0.373689675697708 
1801	 0.382139527728871 
1802	 0.382570086952369 
1803	 0.382924229860243 
1804	 0.383234832661551 
1805	 0.383547791130005 
1806	 0.383873368942748 
1807	 0.384164329483234 
1808	 0.384473023779542 
1809	 0.384775463597934 
1810	 0.385145635326143 
1811	 0.385559696776572 
1812	 0.385928422330173 
1813	 0.386324647555881 
1814	 0.386744029866431 
1815	 0.387078654665519 
1816	 0.387471555433406 
1817	 0.387868701835495 
1818	 0.38831394252329 
1819	 0.38872722114343 
1820	 0.38911916266079 
1821	 0.389525060227678 
1822	 0.389949047500808 
1823	 0.390370906613126 
1824	 0.390718746494907 
1825	 0.391122380236696 
1826	 0.391503164581409 
1827	 0.3918387675904 
1828	 0.392209958261505 
1829	 0.392626239469943 
1830	 0.392995325578271 
1831	 0.393347289420549 
1832	 0.393704950346651 
1833	 0.394001230208864 
1834	 0.394314263871962 
1835	 0.394587867332774 
1836	 0.394855564477211 
1837	 0.395171289719053 
1838	 0.395518275869917 
1839	 0.395831702021756 
1840	 0.39617053501609 
1841	 0.396493824455949 
1842	 0.396801197167 
1843	 0.397125309953593 
1844	 0.397383680216413 
1845	 0.397587828262446 
1846	 0.397812722441658 
1847	 0.397961993464207 
1848	 0.398071373267656 
1849	 0.398174406128272 
1850	 0.398250999957939 
1851	 0.398284139290143 
1852	 0.398238081204284 
1853	 0.398210069243512 
1854	 0.398138526977099 
1855	 0.397960298318187 
1856	 0.397775517138714 
1857	 0.397545893141729 
1858	 0.397206896587829 
1859	 0.396840944779523 
1860	 0.396444692814244 
1861	 0.395939985444776 
1862	 0.395357163579658 
1863	 0.39474534260375 
1864	 0.39405356530158 
1865	 0.393275501065746 
1866	 0.392419674741269 
1867	 0.391493153454094 
1868	 0.390552567192232 
1869	 0.389515753977374 
1870	 0.38839893827479 
1871	 0.387284430933351 
1872	 0.386043918340385 
1873	 0.384676898092752 
1874	 0.383259867115649 
1875	 0.381815643552928 
1876	 0.38016337553911 
1877	 0.378499702802057 
1878	 0.376697203924796 
1879	 0.37469853424954 
1880	 0.372776619073024 
1881	 0.370680161694612 
1882	 0.368433962505895 
1883	 0.366099639715639 
1884	 0.363695062245152 
1885	 0.36098916655018 
1886	 0.35831196914993 
1887	 0.355484054430917 
1888	 0.352456780024135 
1889	 0.349568027909015 
1890	 0.346420378516058 
1891	 0.343205151861502 
1892	 0.34001094864627 
1893	 0.336627217069098 
1894	 0.333014707554881 
1895	 0.329527944143781 
1896	 0.325952864594214 
1897	 0.322265126318356 
1898	 0.318894766079321 
1899	 0.315401371258746 
1900	 0.311910371929553 
1901	 0.308578429581535 
1902	 0.305027507441647 
1903	 0.301574336411022 
1904	 0.298233915363177 
1905	 0.294938465037384 
1906	 0.291715122801852 
1907	 0.288762635523684 
1908	 0.285826476816608 
1909	 0.283050368908887 
1910	 0.280374291473667 
1911	 0.277615724213728 
1912	 0.275099925416599 
1913	 0.272609606027623 
1914	 0.27013379842414 
1915	 0.267866626455017 
1916	 0.265815704983542 
1917	 0.263750401140508 
1918	 0.261813851396331 
1919	 0.259988235381547 
1920	 0.258037878295586 
1921	 0.256188170525382 
1922	 0.254398942522243 
1923	 0.252648600054626 
1924	 0.251075591138781 
1925	 0.249514748144371 
1926	 0.248002132112047 
1927	 0.246528489794901 
1928	 0.245093976441094 
1929	 0.243665143833969 
1930	 0.242393289649674 
1931	 0.241151492870828 
1932	 0.240011982075557 
1933	 0.239066913885248 
1934	 0.238170066217252 
1935	 0.237384948273396 
1936	 0.236682682604074 
1937	 0.236080136753542 
1938	 0.235538668857779 
1939	 0.235176893009296 
1940	 0.234935673005145 
1941	 0.234839419276234 
1942	 0.234859970000495 
1943	 0.234944224014717 
1944	 0.235098947367317 
1945	 0.235330224515419 
1946	 0.235705850028917 
1947	 0.236132420887772 
1948	 0.236674008517002 
1949	 0.237352093540322 
1950	 0.238048076287015 
1951	 0.238790656181207 
1952	 0.239649056243178 
1953	 0.240564850799511 
1954	 0.241570831536085 
1955	 0.24276267211614 
1956	 0.244003507938319 
1957	 0.24531965452347 
1958	 0.246647141091475 
1959	 0.247860477303541 
1960	 0.249086326376292 
1961	 0.250223456041256 
1962	 0.25129230382736 
1963	 0.252280693080676 
1964	 0.253210179334677 
1965	 0.254057100776721 
1966	 0.25480118661837 
1967	 0.255546533823908 
1968	 0.256194914166069 
1969	 0.256795004044636 
1970	 0.257420679567239 
1971	 0.258053224357657 
1972	 0.258724297967315 
1973	 0.259435031157092 
1974	 0.260136769567901 
1975	 0.260837658911106 
1976	 0.26155453459437 
1977	 0.26226972291977 
1978	 0.263028480923566 
1979	 0.263793308789286 
1980	 0.264606059175134 
1981	 0.265525012013759 
1982	 0.266395847036909 
1983	 0.267333494626611 
1984	 0.268323384761155 
1985	 0.269222905338337 
1986	 0.270229824506676 
1987	 0.271265979341608 
1988	 0.272259347660651 
1989	 0.273434831242619 
1990	 0.274707301056004 
1991	 0.276058094620735 
1992	 0.277534879315476 
1993	 0.279127531345038 
1994	 0.280658745883344 
1995	 0.282299513768304 
1996	 0.283906945891532 
1997	 0.285526973430483 
1998	 0.287242778922327 
1999	 0.289063682927303 
2000	 0.290782279810298 
2001	 0.292615437247274 
2002	 0.294251395743565 
2003	 0.295765313567567 
2004	 0.297256189473147 
2005	 0.298649631273733 
2006	 0.300004111927833 
2007	 0.301355105406222 
2008	 0.302571915685943 
2009	 0.303712242571606 
2010	 0.304818792659034 
2011	 0.305758438112987 
2012	 0.306635960446603 
2013	 0.307459252309216 
2014	 0.308154297630991 
2015	 0.308887441930305 
2016	 0.309622388096201 
2017	 0.310279554992999 
2018	 0.310957958674514 
2019	 0.311501126210365 
2020	 0.311937929943539 
2021	 0.312295899857716 
2022	 0.312653026787192 
2023	 0.312887440725527 
2024	 0.313097014595854 
2025	 0.313304894391005 
2026	 0.313463461127595 
2027	 0.313542040253599 
2028	 0.313651599627249 
2029	 0.313784269198187 
2030	 0.31383432564612 
2031	 0.313807981390773 
2032	 0.313815672277291 
2033	 0.313802917183554 
2034	 0.313775124691638 
2035	 0.313762429670053 
2036	 0.313716599106724 
2037	 0.313686756502295 
2038	 0.313619188550793 
2039	 0.313544906377356 
2040	 0.313488337550332 
2041	 0.313421011212196 
2042	 0.313270487335523 
2043	 0.313225515362334 
2044	 0.31326457276002 
2045	 0.313243171497991 
2046	 0.313236896704493 
2047	 0.313235378823254 
2048	 0.313222849556613 
2049	 0.313188529046053 
2050	 0.313146746033223 
2051	 0.31312642198789 
2052	 0.313059434630764 
2053	 0.313019916522285 
2054	 0.313021167603728 
2055	 0.313091893176348 
2056	 0.313088884083897 
2057	 0.31308432775256 
2058	 0.313067152840839 
2059	 0.313001252962652 
2060	 0.312968300790619 
2061	 0.312987359583329 
2062	 0.312937205036639 
2063	 0.312811036790067 
2064	 0.312752587566192 
2065	 0.312682281158658 
2066	 0.31262427772996 
2067	 0.312641513478788 
2068	 0.312764398547264 
2069	 0.312806618054354 
2070	 0.31285455092912 
2071	 0.312878330122756 
2072	 0.312873159275256 
2073	 0.312853749643299 
2074	 0.312851574074541 
2075	 0.312800280084525 
2076	 0.312662226654953 
2077	 0.312600960709317 
2078	 0.312593808800317 
2079	 0.312497573419806 
2080	 0.312376537095427 
2081	 0.312282369759032 
2082	 0.312128963877327 
2083	 0.311996465583782 
2084	 0.31190432078519 
2085	 0.311807564952884 
2086	 0.311672171478589 
2087	 0.311472362721965 
2088	 0.311322421168371 
2089	 0.311195905337629 
2090	 0.311038481954197 
2091	 0.310904058223729 
2092	 0.310706446760197 
2093	 0.310459957610302 
2094	 0.31021200457283 
2095	 0.309903741812671 
2096	 0.309639577048464 
2097	 0.309430690973271 
2098	 0.309138216588529 
2099	 0.308841224827407 
2100	 0.308587140220743 
2101	 0.308282502171492 
2102	 0.307944785237263 
2103	 0.30759307764575 
2104	 0.307225645934901 
2105	 0.306839402428185 
2106	 0.306428911896524 
2107	 0.305998554113649 
2108	 0.305565441510386 
2109	 0.305096196613932 
2110	 0.304577079909541 
2111	 0.304060950073665 
2112	 0.303519847718475 
2113	 0.302979013453463 
2114	 0.302443339947464 
2115	 0.301883230035364 
2116	 0.30130692548344 
2117	 0.300727453233587 
2118	 0.300123443370941 
2119	 0.29949056845652 
2120	 0.298866897056236 
2121	 0.298230863921192 
2122	 0.297598004599538 
2123	 0.296938890359292 
2124	 0.296325646908321 
2125	 0.295737099625586 
2126	 0.295140377685582 
2127	 0.294581921706357 
2128	 0.294004783347757 
2129	 0.29340006638717 
2130	 0.29281480632136 
2131	 0.292229380778436 
2132	 0.291659063028372 
2133	 0.291078378175282 
2134	 0.290544452252003 
2135	 0.290051186043405 
2136	 0.289548623519108 
2137	 0.289075549013042 
2138	 0.288644372838919 
2139	 0.288191014942689 
2140	 0.287746046219542 
2141	 0.287288517459976 
2142	 0.286813487110254 
2143	 0.286361857369707 
2144	 0.28589103256016 
2145	 0.285488733869478 
2146	 0.285131606204942 
2147	 0.284782219848107 
2148	 0.284456519859853 
2149	 0.284158757526554 
2150	 0.283905774932838 
2151	 0.283638011445174 
2152	 0.283379440062031 
2153	 0.283155289199737 
2154	 0.282904619163292 
2155	 0.282643937091813 
2156	 0.282468596787921 
2157	 0.282349276779956 
2158	 0.282233875038842 
2159	 0.282206469280688 
2160	 0.282064410462797 
2161	 0.281895794039069 
2162	 0.281702445880082 
2163	 0.281410863691138 
2164	 0.281205331283297 
2165	 0.281028871312847 
2166	 0.280850964561323 
2167	 0.280702932069405 
2168	 0.280551529004165 
2169	 0.280399610974908 
2170	 0.280244972394273 
2171	 0.280124619391525 
2172	 0.279961013360527 
2173	 0.27974429291281 
2174	 0.27955099446471 
2175	 0.279415275323316 
2176	 0.279293207306249 
2177	 0.279196827713824 
2178	 0.279176314041199 
2179	 0.279110368381755 
2180	 0.279006834727878 
2181	 0.278976434088466 
2182	 0.279009573594793 
2183	 0.278984608333711 
2184	 0.278985617823737 
2185	 0.278930699187582 
2186	 0.278811550280972 
2187	 0.278731639126509 
2188	 0.27865715368454 
2189	 0.278556732019733 
2190	 0.278416331720679 
2191	 0.278324230210512 
2192	 0.278263552138512 
2193	 0.278176850831068 
2194	 0.278136060418794 
2195	 0.278051996634991 
2196	 0.277921081874941 
2197	 0.27774090213094 
2198	 0.277685740336485 
2199	 0.277641981150509 
2200	 0.277462426255496 
2201	 0.277251145089878 
2202	 0.277028250879887 
2203	 0.276656150700294 
2204	 0.276425141305643 
2205	 0.276316639516645 
2206	 0.276108711973439 
2207	 0.27584976333994 
2208	 0.27563195566793 
2209	 0.27540113266826 
2210	 0.275191710220723 
2211	 0.275049339077417 
2212	 0.27484092185505 
2213	 0.274562855036041 
2214	 0.274348680272375 
2215	 0.274140162813467 
2216	 0.273946888478166 
2217	 0.273789400568639 
2218	 0.27364884640474 
2219	 0.273490609180627 
2220	 0.273384761989466 
2221	 0.273347029601073 
2222	 0.273303329532231 
2223	 0.273273401379772 
2224	 0.273212019041896 
2225	 0.273162228208607 
2226	 0.27311079537373 
2227	 0.27297687155871 
2228	 0.272851786184622 
2229	 0.272577030936617 
2230	 0.272172005832733 
2231	 0.271764419281859 
2232	 0.271319383102198 
2233	 0.270751179061738 
2234	 0.270138718370953 
2235	 0.269399466229714 
2236	 0.268525983579224 
2237	 0.267561601276579 
2238	 0.26651929493882 
2239	 0.265343351319932 
2240	 0.264012513864992 
2241	 0.262628008765717 
2242	 0.261181683470998 
2243	 0.259585389459087 
2244	 0.257841477343382 
2245	 0.256049506884039 
2246	 0.254064316427219 
2247	 0.252103975808732 
2248	 0.250172946760316 
2249	 0.248127824168325 
2250	 0.246008894290207 
2251	 0.243858128334889 
2252	 0.241538399954269 
2253	 0.239218167320168 
2254	 0.236858966636614 
2255	 0.234496472349287 
2256	 0.232274763197828 
2257	 0.229955805591242 
2258	 0.227734841926601 
2259	 0.225605667455715 
2260	 0.22343719239645 
2261	 0.221248101835573 
2262	 0.219162501490235 
2263	 0.217097880950851 
2264	 0.215080700949896 
2265	 0.21313667211513 
2266	 0.211245538828761 
2267	 0.209422508695216 
2268	 0.207601182418612 
2269	 0.205829334197679 
2270	 0.204107404794371 
2271	 0.202379308563317 
2272	 0.200729191042278 
2273	 0.199210222585168 
2274	 0.197631562734412 
2275	 0.196110193372409 
2276	 0.194510877000549 
2277	 0.192880802670442 
2278	 0.191223962358549 
2279	 0.189486994214215 
2280	 0.187744521454114 
2281	 0.18595006012947 
2282	 0.184196539619696 
2283	 0.182490345855353 
2284	 0.180761541344915 
2285	 0.178831206545459 
2286	 0.176896901149487 
2287	 0.17484093006599 
2288	 0.172756313960933 
2289	 0.170860179202001 
2290	 0.168925246201914 
2291	 0.166929652159741 
2292	 0.164972278194874 
2293	 0.162833926982781 
2294	 0.160717566867814 
2295	 0.158763154406892 
2296	 0.156777637629966 
2297	 0.155114410826088 
2298	 0.153725730606611 
2299	 0.152415074153331 
2300	 0.151242284704007 
2301	 0.150366437527737 
2302	 0.149623219599754 
2303	 0.149267278642705 
2304	 0.149300949927912 
2305	 0.149434759449235 
2306	 0.149871934744682 
2307	 0.150413066732323 
2308	 0.151077056853765 
2309	 0.152039110414137 
2310	 0.153285860053738 
2311	 0.154610455872022 
2312	 0.156292233883502 
2313	 0.157800084277517 
2314	 0.159306683101586 
2315	 0.160893795379886 
2316	 0.162575074389326 
2317	 0.164119847179159 
2318	 0.165728133129862 
2319	 0.167147237328072 
2320	 0.168465103830247 
2321	 0.169533355712968 
2322	 0.170475432721775 
2323	 0.171248972495346 
2324	 0.171761421161748 
2325	 0.172149739706608 
2326	 0.172428887492773 
2327	 0.172475934712601 
2328	 0.172272401835129 
2329	 0.171962244707604 
2330	 0.171494437658019 
2331	 0.17079319240585 
2332	 0.170068400778529 
2333	 0.169276025822147 
2334	 0.168352349333867 
2335	 0.167352019608767 
2336	 0.166177633352226 
2337	 0.164805434691781 
2338	 0.163451192777343 
2339	 0.161998204707277 
2340	 0.160504530978437 
2341	 0.159252141458831 
2342	 0.157989516195005 
2343	 0.156784077734443 
2344	 0.155800694251513 
2345	 0.154988386314788 
2346	 0.154578368942736 
2347	 0.154588865311003 
2348	 0.154775516149631 
2349	 0.155135241428127 
2350	 0.155623774221913 
2351	 0.15630967928136 
2352	 0.157256334604552 
2353	 0.158419145165999 
2354	 0.159472728453475 
2355	 0.160441727983993 
2356	 0.161535920873212 
2357	 0.16242432908024 
2358	 0.163309881189151 
2359	 0.164051368692878 
2360	 0.164311286074357 
2361	 0.164457113256123 
2362	 0.164489033561826 
2363	 0.164370708678343 
2364	 0.164340423674992 
2365	 0.164235501836628 
2366	 0.164066527792694 
2367	 0.164006397974011 
2368	 0.163826273081485 
2369	 0.163694708418273 
2370	 0.163649757501092 
2371	 0.163362140273526 
2372	 0.163001523007548 
2373	 0.162753297878317 
2374	 0.162594920506018 
2375	 0.162404438563918 
2376	 0.162239963734557 
2377	 0.162117331829348 
2378	 0.161818258520762 
2379	 0.16159861077205 
2380	 0.161660401906745 
2381	 0.161541302929923 
2382	 0.161396519739705 
2383	 0.161200086867318 
2384	 0.161143706287065 
2385	 0.161101786251986 
2386	 0.161064941823302 
2387	 0.161163348043713 
2388	 0.161199309536406 
2389	 0.161084302905226 
2390	 0.161018635936024 
2391	 0.161129507926623 
2392	 0.160910924585139 
2393	 0.160455162150702 
2394	 0.160361644465765 
2395	 0.16021582862527 
2396	 0.160091842036947 
2397	 0.160214347441537 
2398	 0.16012861941698 
2399	 0.159895689579751 
2400	 0.159850120599587 
2401	 0.159962284650459 
2402	 0.159959578040345 
2403	 0.159626373775482 
2404	 0.159385565371492 
2405	 0.159125903557347 
2406	 0.158866351356867 
2407	 0.158893654988026 
2408	 0.158382888185608 
2409	 0.157731894642166 
2410	 0.157492408380522 
2411	 0.157253272787514 
2412	 0.15726841934221 
2413	 0.157452859273157 
2414	 0.157483709672466 
2415	 0.157223692399776 
2416	 0.156877232753208 
2417	 0.156804389965344 
2418	 0.156462060979597 
2419	 0.15598886032734 
2420	 0.155995484351533 
2421	 0.155894173610478 
2422	 0.155812134021891 
2423	 0.155944335439816 
2424	 0.155588398702816 
2425	 0.155194145286703 
2426	 0.155136112373466 
2427	 0.154905010253228 
2428	 0.154812633704615 
2429	 0.154736879930767 
2430	 0.154343794771369 
2431	 0.154194190705446 
2432	 0.153991022784218 
2433	 0.153655436137762 
2434	 0.153468553679913 
2435	 0.153258978550501 
2436	 0.153300945044181 
2437	 0.153257247190476 
2438	 0.152877817173102 
2439	 0.152463925668359 
2440	 0.151886422152338 
2441	 0.151161108190453 
2442	 0.150830154967787 
2443	 0.150824772963116 
2444	 0.150608649244708 
2445	 0.150616830733578 
2446	 0.150613246482925 
2447	 0.150079240481826 
2448	 0.149745293211268 
2449	 0.14958598466301 
2450	 0.149223766078801 
2451	 0.148758536647267 
2452	 0.148043925970256 
2453	 0.147348648174945 
2454	 0.146634351106005 
2455	 0.145639662363634 
2456	 0.145116320485018 
2457	 0.145143435817903 
2458	 0.145071443631976 
2459	 0.145448889932347 
2460	 0.14567551437905 
2461	 0.144725680529653 
2462	 0.143849468510209 
2463	 0.14327667257872 
2464	 0.142738297728401 
2465	 0.142550358669658 
2466	 0.142414432471213 
2467	 0.142078413655486 
2468	 0.141497343618961 
2469	 0.141156750311892 
2470	 0.140567580937547 
2471	 0.140045511293781 
2472	 0.140230418528436 
2473	 0.139717900007755 
2474	 0.139227303828836 
2475	 0.139275209245174 
2476	 0.138689537947447 
2477	 0.138509180558222 
2478	 0.138849167318392 
2479	 0.138810203708155 
2480	 0.138824402255392 
2481	 0.138908961330454 
2482	 0.139092836469016 
2483	 0.138867546535899 
2484	 0.138764240806323 
2485	 0.138771622688537 
2486	 0.138117343887936 
2487	 0.137798492006987 
2488	 0.138128582797585 
2489	 0.138046237549895 
2490	 0.138626770084681 
2491	 0.138950165377718 
2492	 0.138976160265727 
2493	 0.139802562131926 
2494	 0.140020011464801 
2495	 0.140597235902407 
2496	 0.141539482723909 
2497	 0.141155287746133 
2498	 0.140665546159259 
2499	 0.140818581157373 
2500	 0.140660429613711 
