Wavelength	Tablay400043.asd
350	 0.143118221793909 
351	 0.181056678802448 
352	 0.184923548034162 
353	 0.103320309247039 
354	 0.134261509426772 
355	 0.21679908792214 
356	 0.230425744565262 
357	 0.129188412377441 
358	 0.154239611382375 
359	 0.168745999151522 
360	 0.161361143016063 
361	 0.173649135035549 
362	 0.153019889171645 
363	 0.143165911674412 
364	 0.16369436279035 
365	 0.180992421060057 
366	 0.180050311321505 
367	 0.163228030420913 
368	 0.144119819512436 
369	 0.149493753353352 
370	 0.143664521922327 
371	 0.129415874394078 
372	 0.129891351563491 
373	 0.125265453943152 
374	 0.102950496452628 
375	 7.66147238870332E-02 
376	 9.77183865444308E-02 
377	 0.125361038721303 
378	 0.123018400908165 
379	 8.92107643158312E-02 
380	 0.106050153983044 
381	 0.109354489514372 
382	 0.101482982324131 
383	 0.121384849759573 
384	 0.108838945431139 
385	 0.109099334244475 
386	 0.129626799728972 
387	 0.103715905730906 
388	 9.07459809638323E-02 
389	 8.99815468358442E-02 
390	 9.11771304619891E-02 
391	 9.94951353277291E-02 
392	 0.111465225763246 
393	 0.115170270619576 
394	 9.82476804407981E-02 
395	 9.29928670105928E-02 
396	 8.67061356304506E-02 
397	 7.42381780713921E-02 
398	 7.06170737162329E-02 
399	 9.18452560808834E-02 
400	 0.112487215994298 
401	 0.106134093944996 
402	 0.091698993895069 
403	 7.65244562049847E-02 
404	 7.63436222470482E-02 
405	 0.106914404172673 
406	 9.42150604377229E-02 
407	 7.28816457487024E-02 
408	 7.13509688845652E-02 
409	 8.19370409130263E-02 
410	 8.67103912067174E-02 
411	 8.62575098521504E-02 
412	 8.57428443039425E-02 
413	 7.59572846484489E-02 
414	 0.065084727106549 
415	 0.061975672139562 
416	 0.073732018575018 
417	 8.02867419954671E-02 
418	 7.51874480935691E-02 
419	 6.40157534362905E-02 
420	 7.42366403885485E-02 
421	 7.47987161858757E-02 
422	 6.94997557784271E-02 
423	 7.26883328849532E-02 
424	 6.71120345214005E-02 
425	 0.064914485408266 
426	 6.89363765314722E-02 
427	 6.99020655737319E-02 
428	 6.97898745577267E-02 
429	 6.76912362117418E-02 
430	 6.43786350390895E-02 
431	 6.72515114060218E-02 
432	 6.61089385961615E-02 
433	 6.27607466318478E-02 
434	 6.44358717413637E-02 
435	 6.41415025667396E-02 
436	 6.69703807275177E-02 
437	 7.14124826342323E-02 
438	 6.41079440965181E-02 
439	 6.24316305294685E-02 
440	 6.48317247756015E-02 
441	 6.55169264405452E-02 
442	 6.48896739233527E-02 
443	 6.63608033103355E-02 
444	 0.067825373882238 
445	 0.063650621452743 
446	 6.18916064127014E-02 
447	 6.21036796122062E-02 
448	 6.32735173354042E-02 
449	 6.67314055822833E-02 
450	 6.72230404237488E-02 
451	 6.48063651810733E-02 
452	 6.22199450816651E-02 
453	 6.41063430349537E-02 
454	 6.37283398809997E-02 
455	 6.09066963392712E-02 
456	 6.29887588114509E-02 
457	 6.14538889968884E-02 
458	 6.03691077966608E-02 
459	 6.31945402029643E-02 
460	 6.41187694180724E-02 
461	 6.38576744839192E-02 
462	 6.26662371860124E-02 
463	 6.10449045076336E-02 
464	 6.31025183769488E-02 
465	 6.32842435288868E-02 
466	 6.05278785463328E-02 
467	 6.19074536225608E-02 
468	 6.22379243144058E-02 
469	 6.15331036175797E-02 
470	 6.10795996794392E-02 
471	 0.061240724181752 
472	 6.13446395533788E-02 
473	 6.06152157956749E-02 
474	 5.85597489698769E-02 
475	 5.96645136072739E-02 
476	 6.05272464963138E-02 
477	 5.93034840402468E-02 
478	 6.01837428162569E-02 
479	 6.04137863940309E-02 
480	 5.99279093677677E-02 
481	 5.96027372425629E-02 
482	 5.97965284012165E-02 
483	 0.058756987151832 
484	 5.76193511659877E-02 
485	 6.06479299430812E-02 
486	 6.04348348980768E-02 
487	 5.88480148790784E-02 
488	 5.86341256113145E-02 
489	 5.86075529216095E-02 
490	 0.058343721000918 
491	 5.85451141851445E-02 
492	 6.00541935123452E-02 
493	 5.83901845591693E-02 
494	 5.81093009388935E-02 
495	 6.03339037801737E-02 
496	 5.90541323624002E-02 
497	 5.82872528605793E-02 
498	 0.058386745521321 
499	 5.86661200568872E-02 
500	 5.89324526099722E-02 
501	 5.85870411603416E-02 
502	 5.78294784435212E-02 
503	 5.74986278197715E-02 
504	 5.72476573697208E-02 
505	 5.73780012023854E-02 
506	 5.79328426967215E-02 
507	 5.81763620969649E-02 
508	 5.81685504515698E-02 
509	 5.81536479706745E-02 
510	 0.058368623923758 
511	 5.83693881484233E-02 
512	 5.76879860939718E-02 
513	 0.056898995447637 
514	 5.78549268305818E-02 
515	 5.77310103290047E-02 
516	 5.74916897696643E-02 
517	 5.81814799827257E-02 
518	 5.76560126044958E-02 
519	 5.73132721973629E-02 
520	 5.73129046477309E-02 
521	 5.70061965841391E-02 
522	 5.70641345885677E-02 
523	 5.74039356731436E-02 
524	 5.78253825270481E-02 
525	 5.81663002558987E-02 
526	 5.80121324589585E-02 
527	 5.75933963502726E-02 
528	 5.73945250495038E-02 
529	 5.78651217372659E-02 
530	 5.79125608551147E-02 
531	 5.75739537595877E-02 
532	 5.81042260687148E-02 
533	 0.058642873344184 
534	 5.85952783893043E-02 
535	 5.80127925769349E-02 
536	 5.86396392375838E-02 
537	 5.88075762288024E-02 
538	 5.85428493228174E-02 
539	 5.87382952500668E-02 
540	 0.059039934962761 
541	 0.058992047299965 
542	 0.058706277112283 
543	 5.92195899376635E-02 
544	 5.94513027357891E-02 
545	 5.96666782048897E-02 
546	 6.02569492906587E-02 
547	 6.02778228528786E-02 
548	 6.05221563730968E-02 
549	 6.09419836158898E-02 
550	 6.07716078878114E-02 
551	 0.061158931153366 
552	 6.16196359309694E-02 
553	 0.061748771476707 
554	 6.20828833750301E-02 
555	 6.24870940848341E-02 
556	 6.29148074986439E-02 
557	 6.33362089509561E-02 
558	 6.36030196827048E-02 
559	 6.39684719616203E-02 
560	 0.06460745985121 
561	 6.55458249673696E-02 
562	 6.59617726146964E-02 
563	 6.63814085980475E-02 
564	 6.72529646358392E-02 
565	 6.71696338326071E-02 
566	 6.74674732351716E-02 
567	 6.82147401413093E-02 
568	 6.85715879303813E-02 
569	 6.93083346694172E-02 
570	 6.98073941836698E-02 
571	 6.98931242639437E-02 
572	 7.07234623263312E-02 
573	 0.071578294490612 
574	 7.23709507617435E-02 
575	 7.31711343683793E-02 
576	 7.35776180493693E-02 
577	 7.41396833621951E-02 
578	 7.49726840692388E-02 
579	 7.56407490764926E-02 
580	 0.076270005930733 
581	 7.68453496259551E-02 
582	 7.74338769561694E-02 
583	 7.84414421293983E-02 
584	 7.93478833195649E-02 
585	 8.01942420882211E-02 
586	 8.12856064666868E-02 
587	 8.20732302211297E-02 
588	 0.082738576045793 
589	 8.34619196422911E-02 
590	 8.42629689346489E-02 
591	 8.52609101270597E-02 
592	 8.62869914194117E-02 
593	 8.71404558791492E-02 
594	 8.79019968595312E-02 
595	 8.85971606525977E-02 
596	 8.93149150506773E-02 
597	 9.01907207789086E-02 
598	 9.12756058294499E-02 
599	 9.21929499389679E-02 
600	 9.27787125044142E-02 
601	 0.093513408012303 
602	 9.43766318598429E-02 
603	 9.52977099332493E-02 
604	 9.61770158828932E-02 
605	 9.70192225998553E-02 
606	 9.79418825215358E-02 
607	 0.0989128082295 
608	 9.97061646854013E-02 
609	 0.100470828204509 
610	 0.101207686911628 
611	 0.101917778346924 
612	 0.102697080103797 
613	 0.103592712331919 
614	 0.104445344436566 
615	 0.105019902308163 
616	 0.105723594077273 
617	 0.106440339950362 
618	 0.107090702172787 
619	 0.107789752795161 
620	 0.108428431879144 
621	 0.109087033327344 
622	 0.109856709212321 
623	 0.110566390634494 
624	 0.111294501109214 
625	 0.112026223012815 
626	 0.112657290756909 
627	 0.113191109009081 
628	 0.113702973975687 
629	 0.11428168010666 
630	 0.115033098709655 
631	 0.115713706886788 
632	 0.116226205649358 
633	 0.116596283249384 
634	 0.117143388664863 
635	 0.117763679872814 
636	 0.11836083275291 
637	 0.118895560655318 
638	 0.119503827009071 
639	 0.120095501623453 
640	 0.12061346555665 
641	 0.12131859275863 
642	 0.121865177686284 
643	 0.122307591781173 
644	 0.122913952052348 
645	 0.123409402104206 
646	 0.123920995992583 
647	 0.124492168636682 
648	 0.124947726449877 
649	 0.125564908068437 
650	 0.126130176903858 
651	 0.126453774455728 
652	 0.127091200326769 
653	 0.127795327383014 
654	 0.128427052952613 
655	 0.128964536717552 
656	 0.129436223996979 
657	 0.130089169629655 
658	 0.130904142634107 
659	 0.131221805077803 
660	 0.131603559490825 
661	 0.132154160414308 
662	 0.132781976941847 
663	 0.133283818168082 
664	 0.133916131184575 
665	 0.134656605950634 
666	 0.135191408819366 
667	 0.13565574230324 
668	 0.136194839191284 
669	 0.13687705797313 
670	 0.137593370071042 
671	 0.1381576058462 
672	 0.138690748492835 
673	 0.139397891629708 
674	 0.139943076714377 
675	 0.140619960662434 
676	 0.141471714821418 
677	 0.142185852920467 
678	 0.142698089635238 
679	 0.143177957340078 
680	 0.143790496439213 
681	 0.1444976075317 
682	 0.145227072061596 
683	 0.145929480214445 
684	 0.146593373412008 
685	 0.14737362434278 
686	 0.148130176025055 
687	 0.148806065152459 
688	 0.149503659427926 
689	 0.150271983307222 
690	 0.151019828318653 
691	 0.151678038152648 
692	 0.152382341258024 
693	 0.153122637122527 
694	 0.153881609704427 
695	 0.15463040218829 
696	 0.155294379382186 
697	 0.156006949055858 
698	 0.156793116514336 
699	 0.15747015171771 
700	 0.158240708175092 
701	 0.159071957815162 
702	 0.159864350049002 
703	 0.160534918873379 
704	 0.161193940559575 
705	 0.161881275973455 
706	 0.162584976751946 
707	 0.163355218423173 
708	 0.164063538713254 
709	 0.164691833564089 
710	 0.165440516487763 
711	 0.166172580814479 
712	 0.166862900740871 
713	 0.167525390249001 
714	 0.168180998579111 
715	 0.168908024677139 
716	 0.169618432087514 
717	 0.170139829138529 
718	 0.17073443914436 
719	 0.171396232109479 
720	 0.172056939296848 
721	 0.172604420987872 
722	 0.17326505981722 
723	 0.173904490376617 
724	 0.174376032153961 
725	 0.174937685921614 
726	 0.175521350255225 
727	 0.176043053395975 
728	 0.176444549860181 
729	 0.177017296385784 
730	 0.177486600738072 
731	 0.177770800709697 
732	 0.17822399476124 
733	 0.178551290708649 
734	 0.17889373017919 
735	 0.179383730126323 
736	 0.179644893070139 
737	 0.179904912199648 
738	 0.18022870912468 
739	 0.180552111128102 
740	 0.180757253256376 
741	 0.180971633353711 
742	 0.181223268813943 
743	 0.181346202655326 
744	 0.181588750339163 
745	 0.181805930184614 
746	 0.181846888001032 
747	 0.181902774699089 
748	 0.181979615061875 
749	 0.182034596805252 
750	 0.182020166483985 
751	 0.182106186218311 
752	 0.182153753681719 
753	 0.182106283379146 
754	 0.18205291878819 
755	 0.181979519429287 
756	 0.181890688782194 
757	 0.181782856070032 
758	 0.181614385459719 
759	 0.181491702079211 
760	 0.181399654313625 
761	 0.181268104334466 
762	 0.181096234935256 
763	 0.180885557863968 
764	 0.180607406998448 
765	 0.180216795637649 
766	 0.180089008105513 
767	 0.179949397603527 
768	 0.179609485160401 
769	 0.179383996583402 
770	 0.17907503551931 
771	 0.178721262692504 
772	 0.178422053213653 
773	 0.178142681883372 
774	 0.177838744660002 
775	 0.177507975308004 
776	 0.17717510358159 
777	 0.176723036201369 
778	 0.1763455216467 
779	 0.176081304206456 
780	 0.175638137100533 
781	 0.17523776579948 
782	 0.174872884747207 
783	 0.174486148627657 
784	 0.174084931619682 
785	 0.173671366281879 
786	 0.173212434193406 
787	 0.172693328860024 
788	 0.172371086018989 
789	 0.172039782423579 
790	 0.171601085329976 
791	 0.171138541929089 
792	 0.170698831214871 
793	 0.170290315334598 
794	 0.169887538410597 
795	 0.169411356234032 
796	 0.168926607108322 
797	 0.168507247837949 
798	 0.168182474089894 
799	 0.167765782907225 
800	 0.16733407084453 
801	 0.166898796211263 
802	 0.166428877787077 
803	 0.166088318247457 
804	 0.165713803844746 
805	 0.165249597949142 
806	 0.16486205280918 
807	 0.164445902022718 
808	 0.164021389311113 
809	 0.163626610263172 
810	 0.163264438168105 
811	 0.162891987328734 
812	 0.162460351029369 
813	 0.161968316110616 
814	 0.161670885230027 
815	 0.161334986275008 
816	 0.160934827926266 
817	 0.160638863163099 
818	 0.160320669112327 
819	 0.159954236943001 
820	 0.159587963131725 
821	 0.159362549393137 
822	 0.159080162169693 
823	 0.158748164436918 
824	 0.158415665029635 
825	 0.158069772639777 
826	 0.157758483595007 
827	 0.157460861831286 
828	 0.157143616689958 
829	 0.156905814821757 
830	 0.156672784923468 
831	 0.156413811228052 
832	 0.156150124596862 
833	 0.155917927795097 
834	 0.155683717258362 
835	 0.155439360530024 
836	 0.155229853308751 
837	 0.155159395889561 
838	 0.154993815551976 
839	 0.154609308260223 
840	 0.154412553931001 
841	 0.154300023254371 
842	 0.154197766780338 
843	 0.154056570940428 
844	 0.153936447889194 
845	 0.153794876828277 
846	 0.153654462786976 
847	 0.153576622050644 
848	 0.153510411866261 
849	 0.15337752457424 
850	 0.15320512806224 
851	 0.15314231231993 
852	 0.153008994063449 
853	 0.152881279963382 
854	 0.152848426423374 
855	 0.152924264382892 
856	 0.152900591376823 
857	 0.15279505864921 
858	 0.152705404198567 
859	 0.152716861360181 
860	 0.152667908395199 
861	 0.152584098539532 
862	 0.152576195178538 
863	 0.152611827891939 
864	 0.15267073423277 
865	 0.152724526474846 
866	 0.15274720298342 
867	 0.152800033163755 
868	 0.152814380721098 
869	 0.152786890439286 
870	 0.152825168749021 
871	 0.153081607099736 
872	 0.153342390459552 
873	 0.153417157085653 
874	 0.153343275766162 
875	 0.15337373755879 
876	 0.153569801400687 
877	 0.153847877876283 
878	 0.153880853387594 
879	 0.154168759771289 
880	 0.154456150094791 
881	 0.154322167600259 
882	 0.154595671091086 
883	 0.154766481926426 
884	 0.154808523092312 
885	 0.155081312110308 
886	 0.155433430324064 
887	 0.155696696292263 
888	 0.155858597362118 
889	 0.156086167895507 
890	 0.156446219523821 
891	 0.156739750971772 
892	 0.156892989073548 
893	 0.15712431545877 
894	 0.157336276194732 
895	 0.157609452402474 
896	 0.157986284703996 
897	 0.158309265705673 
898	 0.158666204374795 
899	 0.15902190845334 
900	 0.159330509115354 
901	 0.159666752319127 
902	 0.159937409542655 
903	 0.160216319739701 
904	 0.160629520961065 
905	 0.161105405328684 
906	 0.161587858965584 
907	 0.162003040626225 
908	 0.162319942591227 
909	 0.162872807528269 
910	 0.163430139121099 
911	 0.163896173639159 
912	 0.164360271105433 
913	 0.164638725210668 
914	 0.165125910411783 
915	 0.165849744174465 
916	 0.166264200192074 
917	 0.166731121243728 
918	 0.16724292557224 
919	 0.167731198368176 
920	 0.168148978877685 
921	 0.168823471435157 
922	 0.169529921592387 
923	 0.170046716422947 
924	 0.170536622933 
925	 0.171145507596416 
926	 0.171819208972279 
927	 0.172461519961341 
928	 0.173098368577526 
929	 0.173788971767963 
930	 0.174449291671076 
931	 0.175002249832041 
932	 0.17566645577795 
933	 0.176335167339463 
934	 0.176968235632762 
935	 0.177606295758151 
936	 0.178480787178134 
937	 0.179177052623708 
938	 0.179804024041334 
939	 0.180764848748753 
940	 0.181713943711214 
941	 0.182512429753462 
942	 0.183061298187099 
943	 0.183393806557442 
944	 0.184360107259853 
945	 0.185442476065447 
946	 0.18627758719556 
947	 0.186909026666858 
948	 0.187893069030849 
949	 0.188789278893318 
950	 0.189507272599742 
951	 0.190527963787261 
952	 0.191318262076414 
953	 0.191968235402767 
954	 0.192682843419984 
955	 0.193642930836026 
956	 0.194726782120718 
957	 0.195654668912363 
958	 0.19641267196059 
959	 0.197464129815068 
960	 0.198381069025619 
961	 0.1991194528019 
962	 0.199862653366184 
963	 0.20103249234307 
964	 0.202100582655603 
965	 0.202918890597624 
966	 0.203602562021796 
967	 0.204572999314286 
968	 0.205674428033403 
969	 0.206663898200532 
970	 0.207414400095927 
971	 0.208126308685997 
972	 0.209165992118355 
973	 0.21031065628288 
974	 0.211306560195936 
975	 0.212386596327075 
976	 0.213420753562742 
977	 0.21424910088332 
978	 0.21494588791056 
979	 0.216305329478356 
980	 0.217338939286198 
981	 0.218190757061205 
982	 0.219246585226676 
983	 0.220365514305313 
984	 0.221204216209178 
985	 0.222010810285134 
986	 0.223055960071226 
987	 0.223905231626136 
988	 0.225067143319083 
989	 0.226282766291067 
990	 0.227227097827227 
991	 0.228343098700403 
992	 0.229399081741515 
993	 0.230144745355645 
994	 0.230562294120248 
995	 0.231327753369052 
996	 0.232480361368185 
997	 0.233672663453085 
998	 0.234654425737805 
999	 0.236072574114348 
1000	 0.237058702291832 
1001	 0.239607357930346 
1002	 0.240667598716549 
1003	 0.241738195652061 
1004	 0.2427061447392 
1005	 0.243658600377179 
1006	 0.244577952646906 
1007	 0.245333144297721 
1008	 0.246205100880627 
1009	 0.24708048456227 
1010	 0.248104474828099 
1011	 0.24938900017803 
1012	 0.250383901349127 
1013	 0.251258328249027 
1014	 0.252161656348547 
1015	 0.252929166912905 
1016	 0.25363067145868 
1017	 0.25459828054602 
1018	 0.255733757327419 
1019	 0.256482804229414 
1020	 0.257577364732329 
1021	 0.258590591134104 
1022	 0.259592811391992 
1023	 0.260540860791051 
1024	 0.261545290018918 
1025	 0.26242651969272 
1026	 0.263144563022157 
1027	 0.263988142050318 
1028	 0.264883051732872 
1029	 0.265763397561417 
1030	 0.266566198552261 
1031	 0.267463195842973 
1032	 0.268103994647753 
1033	 0.268817013018862 
1034	 0.269696645913651 
1035	 0.270301308330123 
1036	 0.270986755952454 
1037	 0.271640274012388 
1038	 0.272448890864809 
1039	 0.273342123019241 
1040	 0.274160672661088 
1041	 0.275182275136469 
1042	 0.275978961938547 
1043	 0.27656873640692 
1044	 0.277179729615459 
1045	 0.277794497775823 
1046	 0.278357353220202 
1047	 0.279120723952926 
1048	 0.279852538273372 
1049	 0.28059735178987 
1050	 0.281410103064066 
1051	 0.28209577436745 
1052	 0.282828683390361 
1053	 0.283555027570246 
1054	 0.28433820834271 
1055	 0.284976159971626 
1056	 0.285464758144445 
1057	 0.28613359844379 
1058	 0.286766083923338 
1059	 0.28755128570739 
1060	 0.288578405454476 
1061	 0.289449940787805 
1062	 0.290082850128936 
1063	 0.290772002278597 
1064	 0.291598603284914 
1065	 0.292385425853333 
1066	 0.2932314255966 
1067	 0.29406447820563 
1068	 0.294603663722644 
1069	 0.295112083875663 
1070	 0.295766390311129 
1071	 0.296504573789013 
1072	 0.297257429180364 
1073	 0.298023512092898 
1074	 0.298760975716662 
1075	 0.299393711860245 
1076	 0.300118471253552 
1077	 0.300994495969106 
1078	 0.301818374096706 
1079	 0.302543687773838 
1080	 0.303242675480583 
1081	 0.303902114083342 
1082	 0.304606250739278 
1083	 0.305470159157774 
1084	 0.306333527609838 
1085	 0.30701988586035 
1086	 0.307724193674461 
1087	 0.308386533143448 
1088	 0.309086838037921 
1089	 0.309711453903645 
1090	 0.310393266795427 
1091	 0.311071760434728 
1092	 0.311695812891521 
1093	 0.312403516754302 
1094	 0.313066190099285 
1095	 0.313627560181637 
1096	 0.314183529001156 
1097	 0.314764743280178 
1098	 0.315412440734912 
1099	 0.316143945231807 
1100	 0.316913844567434 
1101	 0.317631685373598 
1102	 0.318193530322329 
1103	 0.318794745038655 
1104	 0.319382183092336 
1105	 0.319994577039302 
1106	 0.320465819773763 
1107	 0.321077207183823 
1108	 0.321729210877986 
1109	 0.322228283773249 
1110	 0.322825264459439 
1111	 0.323323399642296 
1112	 0.323734296871087 
1113	 0.324302126967012 
1114	 0.324808063374706 
1115	 0.325307591852634 
1116	 0.325895254579506 
1117	 0.32633559380727 
1118	 0.326823375995806 
1119	 0.327371632987936 
1120	 0.327902579353637 
1121	 0.328409055754009 
1122	 0.328911530367988 
1123	 0.329484194529048 
1124	 0.329918176262922 
1125	 0.330409702929237 
1126	 0.330886931300133 
1127	 0.331231333129838 
1128	 0.331785651927978 
1129	 0.332304600127543 
1130	 0.332709322497776 
1131	 0.333161005900258 
1132	 0.333461240354973 
1133	 0.333809080076866 
1134	 0.334257250918143 
1135	 0.334664444121515 
1136	 0.335140208328729 
1137	 0.335575617041348 
1138	 0.335933594579444 
1139	 0.336343260544539 
1140	 0.336808815463602 
1141	 0.337211461288571 
1142	 0.337615338141809 
1143	 0.33806145434161 
1144	 0.338471080163355 
1145	 0.338912360798764 
1146	 0.339283260416473 
1147	 0.339594448211755 
1148	 0.33998553748776 
1149	 0.340358763966824 
1150	 0.34080705102501 
1151	 0.341241344881436 
1152	 0.341605239083287 
1153	 0.341889325412576 
1154	 0.342241770031518 
1155	 0.34256729635265 
1156	 0.342928664439469 
1157	 0.343354547230639 
1158	 0.343712036792603 
1159	 0.344021696061427 
1160	 0.344370107541514 
1161	 0.344750461480722 
1162	 0.345126637101089 
1163	 0.345533110598866 
1164	 0.345897979879921 
1165	 0.34615810753917 
1166	 0.346437290270721 
1167	 0.346785036511625 
1168	 0.347103930587916 
1169	 0.347420141425298 
1170	 0.347781148368169 
1171	 0.348116277239927 
1172	 0.348392472525628 
1173	 0.348707362683578 
1174	 0.349085036220424 
1175	 0.349383181107052 
1176	 0.349622962713981 
1177	 0.349909409910968 
1178	 0.350168931721553 
1179	 0.350463055750154 
1180	 0.350800459450454 
1181	 0.351137680771144 
1182	 0.351536634450443 
1183	 0.351821632142737 
1184	 0.351990691246365 
1185	 0.352240301854155 
1186	 0.352504476532935 
1187	 0.352705386266564 
1188	 0.352991246712786 
1189	 0.353398882441753 
1190	 0.35373495755097 
1191	 0.354076912202447 
1192	 0.354378395684349 
1193	 0.354606921585219 
1194	 0.35490706233367 
1195	 0.355211199503515 
1196	 0.35553233664138 
1197	 0.355899313165659 
1198	 0.356305535810406 
1199	 0.356666760582295 
1200	 0.356958385027409 
1201	 0.357354236768913 
1202	 0.357748882799422 
1203	 0.358046215654053 
1204	 0.358439110750694 
1205	 0.358800281073294 
1206	 0.359085753148003 
1207	 0.359483944629882 
1208	 0.359979473641707 
1209	 0.360404229042577 
1210	 0.360828928724908 
1211	 0.361275304978813 
1212	 0.361669976942535 
1213	 0.362146401337256 
1214	 0.362697564002554 
1215	 0.363242700385664 
1216	 0.363822121641378 
1217	 0.364415491782351 
1218	 0.365044620890567 
1219	 0.365633037151851 
1220	 0.366259733261472 
1221	 0.366878364545327 
1222	 0.367456601906187 
1223	 0.368081455805709 
1224	 0.368717899618418 
1225	 0.369374964473371 
1226	 0.370001707979544 
1227	 0.370674007740956 
1228	 0.371257769491008 
1229	 0.371767456413636 
1230	 0.37231290014342 
1231	 0.372825958698968 
1232	 0.37336065120419 
1233	 0.373921128549659 
1234	 0.374458414917145 
1235	 0.374988427691609 
1236	 0.375508784134514 
1237	 0.37602927673195 
1238	 0.376530597795346 
1239	 0.377018691073855 
1240	 0.377495547357631 
1241	 0.377966150294814 
1242	 0.378387210455036 
1243	 0.378809185341092 
1244	 0.379189924573162 
1245	 0.37963562629733 
1246	 0.380114340759084 
1247	 0.380544817005193 
1248	 0.381000174903119 
1249	 0.381428464881808 
1250	 0.381770807895628 
1251	 0.382191342376999 
1252	 0.38270056759124 
1253	 0.383108381101596 
1254	 0.383499739186468 
1255	 0.383877354782556 
1256	 0.384188828880238 
1257	 0.384511473209145 
1258	 0.384847488104741 
1259	 0.385155826058706 
1260	 0.385419791470312 
1261	 0.385703400537247 
1262	 0.38598424431003 
1263	 0.386252603545061 
1264	 0.386588269389051 
1265	 0.386972274874736 
1266	 0.387317540680171 
1267	 0.387731388754756 
1268	 0.388015508612394 
1269	 0.388181769256547 
1270	 0.388448353240447 
1271	 0.388665421676389 
1272	 0.388976516434206 
1273	 0.389413869482966 
1274	 0.389767542551461 
1275	 0.39012636183525 
1276	 0.390460695846251 
1277	 0.390739475638877 
1278	 0.391054262377146 
1279	 0.391358939214335 
1280	 0.391698612538649 
1281	 0.392034741073847 
1282	 0.392433020905566 
1283	 0.392940408783073 
1284	 0.393373636252918 
1285	 0.393794995226226 
1286	 0.394232755353299 
1287	 0.394657232859379 
1288	 0.395026909408909 
1289	 0.395436536650842 
1290	 0.395884476762511 
1291	 0.396308957295429 
1292	 0.396706647466598 
1293	 0.397130690137888 
1294	 0.397569586604005 
1295	 0.398013948672179 
1296	 0.39845826252936 
1297	 0.398918564656949 
1298	 0.399418977663719 
1299	 0.399874425559886 
1300	 0.400299815024253 
1301	 0.400753494358961 
1302	 0.401222978413461 
1303	 0.401650515269975 
1304	 0.402060587375006 
1305	 0.402489986364532 
1306	 0.402884560741888 
1307	 0.403292228021489 
1308	 0.40368723511215 
1309	 0.404181994864437 
1310	 0.404593571169049 
1311	 0.40497848049111 
1312	 0.405366356366901 
1313	 0.405750368505474 
1314	 0.40610819325338 
1315	 0.406432863014641 
1316	 0.406795764806398 
1317	 0.407165434948967 
1318	 0.407514615768028 
1319	 0.407886789171575 
1320	 0.408223056005353 
1321	 0.40850574954688 
1322	 0.408826781934924 
1323	 0.409211857503874 
1324	 0.409484123315886 
1325	 0.409692014644939 
1326	 0.409921655201402 
1327	 0.410077098650745 
1328	 0.410268892171357 
1329	 0.410521541501354 
1330	 0.41073145267595 
1331	 0.410909396912695 
1332	 0.411087073575779 
1333	 0.411257504449491 
1334	 0.411422410703402 
1335	 0.411567094001747 
1336	 0.411703386786897 
1337	 0.411819455583404 
1338	 0.411899432215095 
1339	 0.412027495852878 
1340	 0.412160331317006 
1341	 0.412295362130718 
1342	 0.412495418040997 
1343	 0.412581659419742 
1344	 0.412591456989128 
1345	 0.412654879607009 
1346	 0.412709089651041 
1347	 0.412724709748445 
1348	 0.412749341090876 
1349	 0.412758425515501 
1350	 0.412693957252725 
1351	 0.412679108483221 
1352	 0.412709304458199 
1353	 0.412721749112967 
1354	 0.412751912879719 
1355	 0.41273766833919 
1356	 0.412686565788695 
1357	 0.412655760211382 
1358	 0.412552668634102 
1359	 0.412539671597815 
1360	 0.412625126762269 
1361	 0.412684721287867 
1362	 0.412677624805635 
1363	 0.412689869050076 
1364	 0.412673577388219 
1365	 0.412586282838066 
1366	 0.412529638636784 
1367	 0.412515369995959 
1368	 0.412440079608928 
1369	 0.412308614729183 
1370	 0.412199932121039 
1371	 0.412119243759138 
1372	 0.411961749135931 
1373	 0.411749565016211 
1374	 0.411569393501621 
1375	 0.411362493845757 
1376	 0.411151220683945 
1377	 0.410936012668151 
1378	 0.410751046666264 
1379	 0.41056865695237 
1380	 0.410367317762322 
1381	 0.410223495491466 
1382	 0.410010244644219 
1383	 0.40968166097267 
1384	 0.409445256719587 
1385	 0.409246704043215 
1386	 0.409027835580249 
1387	 0.408867700639078 
1388	 0.408668029798002 
1389	 0.408408029102523 
1390	 0.408179713157821 
1391	 0.407952959742814 
1392	 0.407708196412056 
1393	 0.407596407534578 
1394	 0.407498505246507 
1395	 0.407385421082828 
1396	 0.407358870173748 
1397	 0.407200590470004 
1398	 0.40696228679776 
1399	 0.406741272609168 
1400	 0.40651070865413 
1401	 0.40621674253638 
1402	 0.405888093605806 
1403	 0.405534461513368 
1404	 0.405134056029616 
1405	 0.40470121418747 
1406	 0.404261076482033 
1407	 0.403770869370916 
1408	 0.403201174007323 
1409	 0.402647436659817 
1410	 0.402060654907965 
1411	 0.401497806664414 
1412	 0.400903029124997 
1413	 0.400379306081707 
1414	 0.399890927036115 
1415	 0.399427477397901 
1416	 0.399021406641565 
1417	 0.398607694948418 
1418	 0.398187968946351 
1419	 0.397806013852819 
1420	 0.39746087213342 
1421	 0.397116328897746 
1422	 0.396793980881556 
1423	 0.396484319896064 
1424	 0.39618759239525 
1425	 0.395874127655253 
1426	 0.395623499892909 
1427	 0.395329484304736 
1428	 0.395067475608436 
1429	 0.394842945117149 
1430	 0.394573024691499 
1431	 0.394318754705904 
1432	 0.394015709980692 
1433	 0.393641280424061 
1434	 0.393345346600557 
1435	 0.393061019949153 
1436	 0.392782116767939 
1437	 0.392570652773106 
1438	 0.392274002676949 
1439	 0.391914112479709 
1440	 0.391604204956356 
1441	 0.391262338972184 
1442	 0.390977863904949 
1443	 0.39069935304257 
1444	 0.390518058747982 
1445	 0.390351773396974 
1446	 0.390313399261969 
1447	 0.390366061726189 
1448	 0.390522163431023 
1449	 0.390782239308782 
1450	 0.391120821314076 
1451	 0.391559521462647 
1452	 0.392075524949979 
1453	 0.392697735800978 
1454	 0.393352014331965 
1455	 0.394158781419647 
1456	 0.394875842679949 
1457	 0.395616160496464 
1458	 0.396298233188119 
1459	 0.396881761436329 
1460	 0.397515515214716 
1461	 0.398193348275404 
1462	 0.398796074550533 
1463	 0.399365577574131 
1464	 0.399934561012786 
1465	 0.40044511456707 
1466	 0.400947674277912 
1467	 0.401488535448034 
1468	 0.402111784458592 
1469	 0.402621763487079 
1470	 0.403062089282261 
1471	 0.403532802492316 
1472	 0.403937912081346 
1473	 0.404404228938022 
1474	 0.404929780885436 
1475	 0.405392993361528 
1476	 0.405836198490716 
1477	 0.406271092856981 
1478	 0.406695198846132 
1479	 0.407090219384344 
1480	 0.407475047519454 
1481	 0.407826329791089 
1482	 0.408142719438334 
1483	 0.408444070075678 
1484	 0.40872665670822 
1485	 0.408988452186467 
1486	 0.409190908236909 
1487	 0.409460557262733 
1488	 0.409737901499948 
1489	 0.410025063303035 
1490	 0.410338312350996 
1491	 0.410682331723126 
1492	 0.411033186813654 
1493	 0.411408395447242 
1494	 0.411827492240365 
1495	 0.412251720580378 
1496	 0.412644769050116 
1497	 0.41312939711985 
1498	 0.413705329190259 
1499	 0.414248667692611 
1500	 0.414831644965923 
1501	 0.415409661727151 
1502	 0.415998782768682 
1503	 0.41654122875472 
1504	 0.417103067377113 
1505	 0.417604766634419 
1506	 0.418022307727225 
1507	 0.418457113995053 
1508	 0.418878745829667 
1509	 0.419288049044623 
1510	 0.41971691449973 
1511	 0.420080911547329 
1512	 0.420374240335959 
1513	 0.420691080429539 
1514	 0.420984473094722 
1515	 0.421268730691905 
1516	 0.421588303696518 
1517	 0.421862340767179 
1518	 0.422074662180908 
1519	 0.422299424583054 
1520	 0.422539170128346 
1521	 0.42272262063886 
1522	 0.422890843629381 
1523	 0.423084645840674 
1524	 0.423238490142728 
1525	 0.423348300514597 
1526	 0.423501399036357 
1527	 0.423672941142173 
1528	 0.423798292310856 
1529	 0.423911377754534 
1530	 0.424044015026895 
1531	 0.424149196862791 
1532	 0.424280680785069 
1533	 0.424452717129604 
1534	 0.424590854954047 
1535	 0.424710104355923 
1536	 0.424833347802595 
1537	 0.424952006708123 
1538	 0.425079102972345 
1539	 0.425176734519267 
1540	 0.425356109592551 
1541	 0.425581488583197 
1542	 0.425800875692557 
1543	 0.426060612698003 
1544	 0.426320616868755 
1545	 0.426548467201711 
1546	 0.426869465514714 
1547	 0.427262041695697 
1548	 0.427635397079202 
1549	 0.428061850084226 
1550	 0.428451095033612 
1551	 0.428817488543469 
1552	 0.429202492941489 
1553	 0.429609686802216 
1554	 0.429976685492183 
1555	 0.430341152760474 
1556	 0.430674643242713 
1557	 0.430950944545515 
1558	 0.43127011319817 
1559	 0.431596980764041 
1560	 0.431917458311046 
1561	 0.432242365586204 
1562	 0.432580858214414 
1563	 0.432917477869747 
1564	 0.433259422367299 
1565	 0.433638910873865 
1566	 0.433976348510365 
1567	 0.43428202297546 
1568	 0.434603198055778 
1569	 0.434933924572049 
1570	 0.435227282973916 
1571	 0.4355033842751 
1572	 0.435780743033459 
1573	 0.435997054230545 
1574	 0.436282847414849 
1575	 0.436628741059444 
1576	 0.436940617058485 
1577	 0.437246375957843 
1578	 0.437586132024133 
1579	 0.437969221470464 
1580	 0.438275547722755 
1581	 0.438594135426545 
1582	 0.438861807885294 
1583	 0.439004047840745 
1584	 0.439224234728163 
1585	 0.439473920170532 
1586	 0.439719807031708 
1587	 0.439981655164146 
1588	 0.440245114158765 
1589	 0.44047610127238 
1590	 0.440777865143433 
1591	 0.441163444809301 
1592	 0.441484150503847 
1593	 0.441820419056838 
1594	 0.442135242652065 
1595	 0.442394097774395 
1596	 0.442664592714847 
1597	 0.442963018983591 
1598	 0.443224782797006 
1599	 0.443442755426849 
1600	 0.443676889471344 
1601	 0.443911634654341 
1602	 0.444132080877989 
1603	 0.444328734260744 
1604	 0.44455822372961 
1605	 0.444799503483805 
1606	 0.445032799559327 
1607	 0.445293806043072 
1608	 0.445538651402474 
1609	 0.445759797292421 
1610	 0.445985442271379 
1611	 0.446221947114076 
1612	 0.446445210286478 
1613	 0.446658624337468 
1614	 0.446864763674809 
1615	 0.447090580487248 
1616	 0.447258606234567 
1617	 0.447377542814135 
1618	 0.447509228541436 
1619	 0.447592129179213 
1620	 0.447705355181162 
1621	 0.447855748259739 
1622	 0.447981989617995 
1623	 0.448121353670683 
1624	 0.448221354674801 
1625	 0.448289173353229 
1626	 0.44835178764611 
1627	 0.448349186729977 
1628	 0.448407903477114 
1629	 0.448528626186348 
1630	 0.448596902286107 
1631	 0.448666832321735 
1632	 0.448738615101179 
1633	 0.448754679729019 
1634	 0.448808265011237 
1635	 0.448892076737197 
1636	 0.44898326454685 
1637	 0.449086533785796 
1638	 0.449196654481748 
1639	 0.449339144774046 
1640	 0.449450330549034 
1641	 0.449538076959643 
1642	 0.4496428865497 
1643	 0.449767236061896 
1644	 0.449856241322316 
1645	 0.449947763570195 
1646	 0.450006131768488 
1647	 0.449997377514547 
1648	 0.450027289934538 
1649	 0.450088845589657 
1650	 0.450104492376033 
1651	 0.450124740034569 
1652	 0.450092867589747 
1653	 0.450015854008686 
1654	 0.449910366064639 
1655	 0.449788318845876 
1656	 0.44960996337615 
1657	 0.449362636534343 
1658	 0.449118199052617 
1659	 0.448821606241875 
1660	 0.448537226177665 
1661	 0.448303051987963 
1662	 0.447976452920446 
1663	 0.447586442806093 
1664	 0.447190534206036 
1665	 0.44677469343754 
1666	 0.446255519157991 
1667	 0.445728366341204 
1668	 0.445108758277662 
1669	 0.444364424415206 
1670	 0.443578248366799 
1671	 0.442720365553375 
1672	 0.441827347818609 
1673	 0.440892079458759 
1674	 0.439863064903483 
1675	 0.438781036048883 
1676	 0.43765883452295 
1677	 0.436421761340573 
1678	 0.435200782209832 
1679	 0.433946633507716 
1680	 0.432671446717611 
1681	 0.431419491021914 
1682	 0.430057500976039 
1683	 0.428695151363661 
1684	 0.427203539966865 
1685	 0.425545756228932 
1686	 0.423901774906073 
1687	 0.422199119599098 
1688	 0.420424773784221 
1689	 0.418624685838384 
1690	 0.416736437557239 
1691	 0.414716499430336 
1692	 0.412766051177687 
1693	 0.410839203650982 
1694	 0.408824519708475 
1695	 0.406792196315108 
1696	 0.404692968067795 
1697	 0.402475971785039 
1698	 0.400257441699534 
1699	 0.398026152707016 
1700	 0.395809003645989 
1701	 0.393524092233555 
1702	 0.391375868715292 
1703	 0.389232503597655 
1704	 0.387232851124092 
1705	 0.385320752670853 
1706	 0.383431272296868 
1707	 0.38180099960932 
1708	 0.380157774578976 
1709	 0.378679376257821 
1710	 0.377304197271048 
1711	 0.375854472392251 
1712	 0.374603957961425 
1713	 0.373430392787142 
1714	 0.372314088423936 
1715	 0.371334951136772 
1716	 0.370313987730406 
1717	 0.369387089605829 
1718	 0.368559612711112 
1719	 0.367713177216353 
1720	 0.366961990424979 
1721	 0.366229083674242 
1722	 0.36552815076969 
1723	 0.364994152451212 
1724	 0.364539889726649 
1725	 0.364130871472961 
1726	 0.363821388933126 
1727	 0.363682296519529 
1728	 0.363747112106593 
1729	 0.364058864851575 
1730	 0.364560953877342 
1731	 0.365180578589572 
1732	 0.365957240921872 
1733	 0.366719964008267 
1734	 0.367648532150945 
1735	 0.368731290324113 
1736	 0.369726427131976 
1737	 0.37071178829624 
1738	 0.3715500617041 
1739	 0.372189024723258 
1740	 0.372661201032978 
1741	 0.373025788699787 
1742	 0.37323329927208 
1743	 0.373312283357446 
1744	 0.373227024399158 
1745	 0.373115654115872 
1746	 0.372824361435002 
1747	 0.372659343841537 
1748	 0.372521787921297 
1749	 0.372360372045919 
1750	 0.372160663454387 
1751	 0.372092979184753 
1752	 0.372060592543785 
1753	 0.372076109409533 
1754	 0.372227343560159 
1755	 0.372366094595732 
1756	 0.372419306059728 
1757	 0.372728302631196 
1758	 0.373147755477595 
1759	 0.373735939937268 
1760	 0.374468067129969 
1761	 0.375262336530987 
1762	 0.376147071228443 
1763	 0.377175256868834 
1764	 0.378278891129707 
1765	 0.379460607746953 
1766	 0.380803420632084 
1767	 0.382136405175973 
1768	 0.383583007430319 
1769	 0.385251450681893 
1770	 0.386776659452211 
1771	 0.38816473603324 
1772	 0.389488460935549 
1773	 0.390636745693533 
1774	 0.39176284018057 
1775	 0.392931896552553 
1776	 0.394099918346639 
1777	 0.395088791147637 
1778	 0.39589297332937 
1779	 0.39664931779751 
1780	 0.39730565511535 
1781	 0.397951544574696 
1782	 0.398672210150333 
1783	 0.399394371974456 
1784	 0.400078770478724 
1785	 0.400625383184987 
1786	 0.40110596020125 
1787	 0.401449492442745 
1788	 0.40185093481763 
1789	 0.402264482217286 
1790	 0.402684060036412 
1791	 0.403101196110597 
1792	 0.40348572861824 
1793	 0.403827614136391 
1794	 0.404218655509184 
1795	 0.404611493156201 
1796	 0.404999289599929 
1797	 0.405323045162206 
1798	 0.405503386808715 
1799	 0.40575095646649 
1800	 0.406037749402865 
1801	 0.404945460755128 
1802	 0.405123420095327 
1803	 0.405431543157499 
1804	 0.405810231198885 
1805	 0.406194141497187 
1806	 0.406551953148872 
1807	 0.406975656235211 
1808	 0.407325312985323 
1809	 0.407582361628189 
1810	 0.407909418221354 
1811	 0.408281523507089 
1812	 0.408620162615503 
1813	 0.408977732026725 
1814	 0.409309797314871 
1815	 0.409585672242357 
1816	 0.409837213356441 
1817	 0.410142806834966 
1818	 0.410479702388359 
1819	 0.410788213201325 
1820	 0.411097316698576 
1821	 0.411419371323376 
1822	 0.411734991855907 
1823	 0.412009199197842 
1824	 0.412374294239867 
1825	 0.412854519400621 
1826	 0.413224884983979 
1827	 0.413595832128637 
1828	 0.413927231885257 
1829	 0.414188321740883 
1830	 0.414466313505457 
1831	 0.414689759290109 
1832	 0.415016098069783 
1833	 0.415406295374442 
1834	 0.415792190209021 
1835	 0.416190124243377 
1836	 0.416495440232187 
1837	 0.416729264435557 
1838	 0.416763193507481 
1839	 0.417020543636122 
1840	 0.417337404940083 
1841	 0.417629693874793 
1842	 0.418056888858137 
1843	 0.418351500233854 
1844	 0.41851407678176 
1845	 0.418761316901894 
1846	 0.419024998309989 
1847	 0.419257216859266 
1848	 0.419452677578582 
1849	 0.419642746642206 
1850	 0.419803773212847 
1851	 0.419931011440471 
1852	 0.420008982043036 
1853	 0.420095105519213 
1854	 0.420169138052355 
1855	 0.420146579832285 
1856	 0.420108554517696 
1857	 0.42007566980087 
1858	 0.4199374179967 
1859	 0.419807194262065 
1860	 0.419657247023238 
1861	 0.419503182265562 
1862	 0.41932080294362 
1863	 0.41916824029168 
1864	 0.418979352913639 
1865	 0.418697677740076 
1866	 0.418336006721481 
1867	 0.417844943818678 
1868	 0.417336611862299 
1869	 0.416727549817236 
1870	 0.416086008969411 
1871	 0.415442089689946 
1872	 0.4147352502428 
1873	 0.413970263773082 
1874	 0.41313061413259 
1875	 0.412282467016436 
1876	 0.411251931822048 
1877	 0.410156261705534 
1878	 0.409004830720407 
1879	 0.40772645802757 
1880	 0.40652401434228 
1881	 0.405214208105585 
1882	 0.403827023871943 
1883	 0.402391138547695 
1884	 0.400896570152819 
1885	 0.399117427729701 
1886	 0.397382369300483 
1887	 0.395525505928713 
1888	 0.393410703355808 
1889	 0.39140284207571 
1890	 0.389214830834325 
1891	 0.386979373432609 
1892	 0.384762524972159 
1893	 0.382382768930727 
1894	 0.379824030064404 
1895	 0.377321933057926 
1896	 0.374829559510602 
1897	 0.372384733848872 
1898	 0.370185039727466 
1899	 0.367928981927491 
1900	 0.365623623598856 
1901	 0.363340208551276 
1902	 0.361055322171671 
1903	 0.3589152947417 
1904	 0.356794821014515 
1905	 0.354698891813595 
1906	 0.352703392448791 
1907	 0.350890486086166 
1908	 0.349076720918931 
1909	 0.347436409322801 
1910	 0.345942516613896 
1911	 0.344339251603926 
1912	 0.342850029759607 
1913	 0.341451064559852 
1914	 0.340064029545168 
1915	 0.33878195112334 
1916	 0.337643058877547 
1917	 0.33649224311868 
1918	 0.335361646317932 
1919	 0.334279241216515 
1920	 0.333224631230812 
1921	 0.332268815870571 
1922	 0.331287855552472 
1923	 0.330368351555108 
1924	 0.329540467445905 
1925	 0.328681766275932 
1926	 0.327882933899394 
1927	 0.327155430487659 
1928	 0.326436595839208 
1929	 0.325709949033654 
1930	 0.325084032951881 
1931	 0.324505241003942 
1932	 0.324021896125947 
1933	 0.323583083355869 
1934	 0.323167721541857 
1935	 0.322822361022659 
1936	 0.322485982842386 
1937	 0.322274601504044 
1938	 0.322141505308027 
1939	 0.322116813752145 
1940	 0.322195610455383 
1941	 0.322380457016094 
1942	 0.322551615704224 
1943	 0.322776364982484 
1944	 0.323053804004727 
1945	 0.323407988857275 
1946	 0.323864382203433 
1947	 0.324281888188353 
1948	 0.324784996630989 
1949	 0.325313798455857 
1950	 0.325900321912975 
1951	 0.326586607017062 
1952	 0.327316575880655 
1953	 0.328063028160655 
1954	 0.328882590873117 
1955	 0.329856618155696 
1956	 0.33074345470746 
1957	 0.331726121683436 
1958	 0.33274120189407 
1959	 0.333619523747689 
1960	 0.334485441369993 
1961	 0.335301165603994 
1962	 0.336062501109713 
1963	 0.336743890247336 
1964	 0.337372869481308 
1965	 0.337975972671968 
1966	 0.338479538491247 
1967	 0.339020958465293 
1968	 0.339611344841862 
1969	 0.340132632702725 
1970	 0.340627998699581 
1971	 0.341128944544999 
1972	 0.341611658756517 
1973	 0.342137312071283 
1974	 0.342713666245896 
1975	 0.343407854068935 
1976	 0.343984704532984 
1977	 0.344544796351635 
1978	 0.345111601646169 
1979	 0.345590164265755 
1980	 0.346126205761498 
1981	 0.346882600928058 
1982	 0.347583884768309 
1983	 0.3482501002131 
1984	 0.349032813429996 
1985	 0.349671780860276 
1986	 0.350261990001423 
1987	 0.350989764299299 
1988	 0.351775849311577 
1989	 0.352609734682706 
1990	 0.353523064747233 
1991	 0.354478302583023 
1992	 0.355459737315467 
1993	 0.356573750110433 
1994	 0.35765774014032 
1995	 0.358802066422121 
1996	 0.359981041751862 
1997	 0.361158728592329 
1998	 0.362350198183658 
1999	 0.363594128042524 
2000	 0.364755703662652 
2001	 0.365973516086691 
2002	 0.367012064151825 
2003	 0.367913303394349 
2004	 0.368852827719263 
2005	 0.369659847330023 
2006	 0.370522653915954 
2007	 0.371475216893312 
2008	 0.372335016968799 
2009	 0.373125574491874 
2010	 0.373878283721269 
2011	 0.37439258637891 
2012	 0.374861270948568 
2013	 0.375319033356183 
2014	 0.375642894674321 
2015	 0.376063813106002 
2016	 0.376576593393168 
2017	 0.376961002077812 
2018	 0.377341326389188 
2019	 0.377641560279657 
2020	 0.377846372624281 
2021	 0.378012379790261 
2022	 0.378108715902186 
2023	 0.37814453235527 
2024	 0.378203203106938 
2025	 0.378222526337837 
2026	 0.378201475556615 
2027	 0.378207042610586 
2028	 0.378130393841999 
2029	 0.377940718690374 
2030	 0.37777630055488 
2031	 0.377590491806856 
2032	 0.377400644149699 
2033	 0.377172444496267 
2034	 0.37697655830123 
2035	 0.376789638719655 
2036	 0.376599201711577 
2037	 0.376486363519684 
2038	 0.376327860506482 
2039	 0.376137217775996 
2040	 0.375951607172291 
2041	 0.375739501906032 
2042	 0.375439466083069 
2043	 0.3752288539333 
2044	 0.375036158968833 
2045	 0.374871054448547 
2046	 0.374774142800591 
2047	 0.374632880955439 
2048	 0.374522796211894 
2049	 0.374357388339355 
2050	 0.374115797515285 
2051	 0.373906495596699 
2052	 0.373720643986496 
2053	 0.373617183814682 
2054	 0.373514598559611 
2055	 0.373520470893608 
2056	 0.37340271585457 
2057	 0.373243400541837 
2058	 0.373063348035194 
2059	 0.372759481493613 
2060	 0.372603752301203 
2061	 0.372507298556228 
2062	 0.372417999915885 
2063	 0.37244292621096 
2064	 0.372410472812163 
2065	 0.37236257648736 
2066	 0.372283227198241 
2067	 0.372213325369765 
2068	 0.372103208932364 
2069	 0.371972561505333 
2070	 0.371782694565825 
2071	 0.371660596162939 
2072	 0.371528069893593 
2073	 0.371438696793941 
2074	 0.371433140328501 
2075	 0.371366761796082 
2076	 0.37127491765432 
2077	 0.371192831284705 
2078	 0.371106556182697 
2079	 0.371007082207988 
2080	 0.370930315217313 
2081	 0.370826700370544 
2082	 0.370692543788691 
2083	 0.370541375526559 
2084	 0.370412117055212 
2085	 0.370251847497235 
2086	 0.370106956697065 
2087	 0.369969136998662 
2088	 0.369829537564913 
2089	 0.369702999916048 
2090	 0.369540315839283 
2091	 0.369337142601237 
2092	 0.36918962699136 
2093	 0.369097014093574 
2094	 0.368919351239509 
2095	 0.368738623631229 
2096	 0.368532025784584 
2097	 0.36830186809165 
2098	 0.367932785488784 
2099	 0.367597173087544 
2100	 0.367395015454024 
2101	 0.367147940562349 
2102	 0.366905205587535 
2103	 0.366633070802576 
2104	 0.366359640261145 
2105	 0.366099958150378 
2106	 0.365850815320996 
2107	 0.365525221182317 
2108	 0.365208927974955 
2109	 0.364849560844809 
2110	 0.364383024694113 
2111	 0.363949944834659 
2112	 0.363496125584894 
2113	 0.363086773442613 
2114	 0.362725146813672 
2115	 0.362299443858042 
2116	 0.361921771509035 
2117	 0.361467426371122 
2118	 0.360955736484324 
2119	 0.360293414214859 
2120	 0.359836967775734 
2121	 0.359444580367758 
2122	 0.359003796500149 
2123	 0.358631827160217 
2124	 0.358227917848169 
2125	 0.357744338422232 
2126	 0.357332052454625 
2127	 0.35698318137959 
2128	 0.356630463014642 
2129	 0.356252449043401 
2130	 0.35594490539129 
2131	 0.355712966111868 
2132	 0.355460758244214 
2133	 0.355243053203831 
2134	 0.355037202841249 
2135	 0.35474729538202 
2136	 0.35441511230957 
2137	 0.354155422297831 
2138	 0.353872924439156 
2139	 0.353644088588503 
2140	 0.353496691470706 
2141	 0.353328532763278 
2142	 0.353124878225548 
2143	 0.353019537477907 
2144	 0.353018406297238 
2145	 0.352920002363054 
2146	 0.352797532856856 
2147	 0.352734339574561 
2148	 0.352626683737882 
2149	 0.352586456410529 
2150	 0.352673820750616 
2151	 0.352710086605195 
2152	 0.352746777867543 
2153	 0.352758604344746 
2154	 0.352721132966208 
2155	 0.352721980327739 
2156	 0.352701388126545 
2157	 0.352637770675625 
2158	 0.352611673053646 
2159	 0.352645218716094 
2160	 0.352574381032773 
2161	 0.352479885189094 
2162	 0.352362423573591 
2163	 0.352161785112083 
2164	 0.351989024296738 
2165	 0.351835579695069 
2166	 0.351631228013154 
2167	 0.351364719301875 
2168	 0.351157140269253 
2169	 0.350962458899304 
2170	 0.350749595729823 
2171	 0.350532559792758 
2172	 0.350349382397752 
2173	 0.350146023482156 
2174	 0.35000260632809 
2175	 0.349789332121438 
2176	 0.349653638229017 
2177	 0.349530160821005 
2178	 0.349385749652915 
2179	 0.349258867749977 
2180	 0.349187114110071 
2181	 0.349127205938579 
2182	 0.349099005084646 
2183	 0.348978476292211 
2184	 0.348889343399218 
2185	 0.348717665871819 
2186	 0.348373673638701 
2187	 0.348141516704338 
2188	 0.347985302100472 
2189	 0.34774761822161 
2190	 0.347487758217229 
2191	 0.347228846032976 
2192	 0.346933624044013 
2193	 0.346630924660095 
2194	 0.346359154133971 
2195	 0.346028675342478 
2196	 0.345653623032427 
2197	 0.345216143446036 
2198	 0.344872757932542 
2199	 0.344451887097808 
2200	 0.344097647060662 
2201	 0.34381940820932 
2202	 0.343452088385241 
2203	 0.343060553417238 
2204	 0.342665270799195 
2205	 0.342242433298285 
2206	 0.341768165706075 
2207	 0.341226914922363 
2208	 0.340792557213222 
2209	 0.340373504991801 
2210	 0.339949194386737 
2211	 0.339590976320704 
2212	 0.339206380415118 
2213	 0.338792328696813 
2214	 0.338365534947531 
2215	 0.337960007647595 
2216	 0.337566060359057 
2217	 0.337119849323336 
2218	 0.336704429534229 
2219	 0.336328679182208 
2220	 0.335951560900793 
2221	 0.335577053217019 
2222	 0.33520689442336 
2223	 0.334819002226 
2224	 0.334507402252702 
2225	 0.33419835172194 
2226	 0.333747439761407 
2227	 0.333187783534634 
2228	 0.332539629553421 
2229	 0.331878591618791 
2230	 0.331072164752625 
2231	 0.330315628337345 
2232	 0.329640025042536 
2233	 0.328746041630558 
2234	 0.327826966479726 
2235	 0.326645300327636 
2236	 0.325280451039658 
2237	 0.323790720639023 
2238	 0.321991628984403 
2239	 0.320275298506278 
2240	 0.318481789644299 
2241	 0.316659166935236 
2242	 0.314909907968361 
2243	 0.312957778221868 
2244	 0.310942715622267 
2245	 0.308730855682462 
2246	 0.306188410832882 
2247	 0.303733540519568 
2248	 0.301129490869282 
2249	 0.298606641932516 
2250	 0.296181481247397 
2251	 0.293779341639869 
2252	 0.291046707730269 
2253	 0.288366407748929 
2254	 0.285591972510557 
2255	 0.282735473427684 
2256	 0.280221854805986 
2257	 0.277800882960783 
2258	 0.275359059217231 
2259	 0.273011750318614 
2260	 0.270618807442214 
2261	 0.268171184150967 
2262	 0.265873905787412 
2263	 0.263581244428711 
2264	 0.261466162782752 
2265	 0.259556677245284 
2266	 0.257567867710698 
2267	 0.255737940618249 
2268	 0.253741461054451 
2269	 0.251600461024616 
2270	 0.249604781271212 
2271	 0.247466285359162 
2272	 0.245629049103335 
2273	 0.244115802981857 
2274	 0.242442746001162 
2275	 0.240934062191883 
2276	 0.239275837797077 
2277	 0.23743369719543 
2278	 0.235669575942008 
2279	 0.233898976065116 
2280	 0.232136654524791 
2281	 0.230515230940848 
2282	 0.228663054987479 
2283	 0.226676902460804 
2284	 0.224645600319652 
2285	 0.222510709544649 
2286	 0.220372004676574 
2287	 0.218374964838278 
2288	 0.216358822487908 
2289	 0.214349399880559 
2290	 0.212235005053706 
2291	 0.210030232696607 
2292	 0.207754509449291 
2293	 0.205332578381532 
2294	 0.203134510269469 
2295	 0.2011578217282 
2296	 0.199241137757799 
2297	 0.197547587833494 
2298	 0.196022650158416 
2299	 0.194815830764381 
2300	 0.193827080123222 
2301	 0.193078368262886 
2302	 0.192712048097226 
2303	 0.192420321680592 
2304	 0.192227748451432 
2305	 0.192396744328183 
2306	 0.192835625388706 
2307	 0.193520428973494 
2308	 0.194529926449582 
2309	 0.195692056899393 
2310	 0.197154728321422 
2311	 0.198655668096947 
2312	 0.20040101343702 
2313	 0.202143411380659 
2314	 0.204020777738823 
2315	 0.205828386869577 
2316	 0.207701286436718 
2317	 0.209470072101856 
2318	 0.211307787222176 
2319	 0.212830667666835 
2320	 0.214192341748195 
2321	 0.21541722446791 
2322	 0.216419639239929 
2323	 0.217262190235688 
2324	 0.218059433173584 
2325	 0.218528103873171 
2326	 0.218636348814429 
2327	 0.218680841880944 
2328	 0.218504016990588 
2329	 0.21818677580626 
2330	 0.217639469009897 
2331	 0.217148470206076 
2332	 0.216574772748319 
2333	 0.215917353174938 
2334	 0.215111604518637 
2335	 0.213861462390077 
2336	 0.212342467570296 
2337	 0.210887075434877 
2338	 0.209552811407659 
2339	 0.208170445546305 
2340	 0.206873474389322 
2341	 0.205747946382478 
2342	 0.204476976048854 
2343	 0.203409684037113 
2344	 0.20264782582638 
2345	 0.201849248787041 
2346	 0.201422171918795 
2347	 0.201477594922147 
2348	 0.201719121490802 
2349	 0.202372332506898 
2350	 0.203431194446691 
2351	 0.204597344215035 
2352	 0.205779752599232 
2353	 0.20690015485094 
2354	 0.20802729588435 
2355	 0.209244978368493 
2356	 0.210413350723574 
2357	 0.211747080990323 
2358	 0.212617414075207 
2359	 0.213083707617985 
2360	 0.213739834302928 
2361	 0.213890280677285 
2362	 0.213954436385295 
2363	 0.21425759376322 
2364	 0.214241480718843 
2365	 0.214055944278328 
2366	 0.214068883329667 
2367	 0.21396661212577 
2368	 0.213876024223088 
2369	 0.21386678963128 
2370	 0.21369166693338 
2371	 0.213694071417817 
2372	 0.213593279700053 
2373	 0.213454252415154 
2374	 0.213352009412552 
2375	 0.213159836062465 
2376	 0.213275061410854 
2377	 0.213389454353056 
2378	 0.213445611686698 
2379	 0.213670855846463 
2380	 0.213609453077211 
2381	 0.213477756535248 
2382	 0.213424166638288 
2383	 0.213299577436801 
2384	 0.213316820639928 
2385	 0.213463260559754 
2386	 0.213622728517681 
2387	 0.214055909592577 
2388	 0.214148277669891 
2389	 0.214093680962816 
2390	 0.213909568630735 
2391	 0.213228038184864 
2392	 0.213202516800696 
2393	 0.213588507538071 
2394	 0.213529790313338 
2395	 0.213664563432168 
2396	 0.213591562173107 
2397	 0.212968676745755 
2398	 0.2128701087219 
2399	 0.213172272297435 
2400	 0.213086082179306 
2401	 0.212914934522606 
2402	 0.212504054707046 
2403	 0.212158107690615 
2404	 0.212155893139034 
2405	 0.212374607196114 
2406	 0.212430785930164 
2407	 0.212573160058509 
2408	 0.212824027804935 
2409	 0.212519092601215 
2410	 0.212262849374713 
2411	 0.212465248590058 
2412	 0.212203497684341 
2413	 0.212160996068466 
2414	 0.212443006600503 
2415	 0.212332248608204 
2416	 0.212435912235892 
2417	 0.212554797960844 
2418	 0.212610522389095 
2419	 0.21270041956421 
2420	 0.21240917924204 
2421	 0.212155379691072 
2422	 0.211993035980265 
2423	 0.211682637041509 
2424	 0.211706381906237 
2425	 0.211867816435321 
2426	 0.211826178594233 
2427	 0.212052391264122 
2428	 0.212420381589672 
2429	 0.212538020272609 
2430	 0.212665874640228 
2431	 0.212615806651261 
2432	 0.212126132143993 
2433	 0.21193775880632 
2434	 0.211886068290482 
2435	 0.211596740243184 
2436	 0.211399788215187 
2437	 0.210789001721451 
2438	 0.210452435736812 
2439	 0.210343146446181 
2440	 0.209866935612607 
2441	 0.209905971344854 
2442	 0.209493909845166 
2443	 0.208900440713193 
2444	 0.208838206838901 
2445	 0.208399275992399 
2446	 0.208174403512647 
2447	 0.207644683021525 
2448	 0.206799159244777 
2449	 0.20684834803002 
2450	 0.207083419295096 
2451	 0.207438935807342 
2452	 0.207659995119971 
2453	 0.207400092959319 
2454	 0.206882428798103 
2455	 0.206119530944056 
2456	 0.205571597836331 
2457	 0.204931676466125 
2458	 0.20442624864726 
2459	 0.204154886691817 
2460	 0.204160295726441 
2461	 0.20430040515879 
2462	 0.203561986104562 
2463	 0.202477951158623 
2464	 0.201550162213628 
2465	 0.200655503561046 
2466	 0.199983073978037 
2467	 0.200218804020432 
2468	 0.20094135474338 
2469	 0.201054486349543 
2470	 0.201643242669256 
2471	 0.202007420168853 
2472	 0.201630848930914 
2473	 0.202160356943772 
2474	 0.202280420091371 
2475	 0.201591031324601 
2476	 0.201216932452342 
2477	 0.200517597077013 
2478	 0.200330780227855 
2479	 0.200664197657547 
2480	 0.200799603307771 
2481	 0.200848534814514 
2482	 0.200118939532361 
2483	 0.200329013651063 
2484	 0.200711069590869 
2485	 0.201203659706348 
2486	 0.20207719673612 
2487	 0.202289981712974 
2488	 0.202027083952815 
2489	 0.201501736164233 
2490	 0.201350765506679 
2491	 0.202389692573248 
2492	 0.203154241991652 
2493	 0.203083699239301 
2494	 0.203881994422972 
2495	 0.204266894268721 
2496	 0.204350529369747 
2497	 0.205722528253501 
2498	 0.20611993812379 
2499	 0.206018988214644 
2500	 0.20694221139393 
