Wavelength	Tablay400119.asd
350	 9.72269362121932E-02 
351	 0.112706642794993 
352	 7.73009509740843E-02 
353	 1.56103840003461E-02 
354	 6.01955727476368E-02 
355	 0.111927097450767 
356	 0.113953536621312 
357	 5.39689929883466E-02 
358	 5.81000188113926E-02 
359	 5.75268211333315E-02 
360	 0.05882112662426 
361	 9.06055431341113E-02 
362	 3.28930293372415E-03 
363	-1.54878434662889E-02 
364	 7.65470267041609E-02 
365	 8.09170058613948E-02 
366	 6.05837088995996E-02 
367	 4.61750723768688E-02 
368	 5.31145800874733E-02 
369	 0.099674989566054 
370	 8.66391061438821E-02 
371	 4.78403909294782E-02 
372	 7.57108685912189E-02 
373	 0.061959401670709 
374	 0.027171464614874 
375	 8.16008262600328E-03 
376	 3.28918455202778E-02 
377	 4.77645611081914E-02 
378	 5.82854578707401E-02 
379	 7.25440556588866E-02 
380	 0.047507176291372 
381	 6.11111351362836E-02 
382	 0.101172642047926 
383	 0.108076442552938 
384	 7.32334225690672E-02 
385	 5.43031744702699E-02 
386	 6.69989028885002E-02 
387	 5.02025387080896E-02 
388	 7.82024664693056E-02 
389	 8.86192557982476E-02 
390	 3.37870979665838E-02 
391	 4.68664936763582E-02 
392	 6.16258745982015E-02 
393	 6.31964856157852E-02 
394	 7.09253307692531E-02 
395	 0.058771744879599 
396	 5.32596963098391E-02 
397	 6.00583230866812E-02 
398	 4.11745004064784E-02 
399	 5.24042207476454E-02 
400	 8.21620429637451E-02 
401	 9.95881563956339E-02 
402	 7.45470035163949E-02 
403	 4.41167815706768E-02 
404	 0.033412031772463 
405	 5.25037141216435E-02 
406	 6.42842809593418E-02 
407	 6.90765676246478E-02 
408	 6.79983152460492E-02 
409	 5.09048106544074E-02 
410	 4.86362216147343E-02 
411	 5.65185363037359E-02 
412	 6.02221805986372E-02 
413	 5.91815393658743E-02 
414	 5.47390454636521E-02 
415	 5.28752293106844E-02 
416	 6.17509847642449E-02 
417	 5.71057730009087E-02 
418	 4.73704268518082E-02 
419	 4.56134931711082E-02 
420	 0.066012760817165 
421	 6.62051709182176E-02 
422	 0.051897339018482 
423	 4.64633574587248E-02 
424	 4.87091931162437E-02 
425	 5.06168314856353E-02 
426	 4.93926959400819E-02 
427	 4.86165896497102E-02 
428	 4.95806933599848E-02 
429	 5.11689488806618E-02 
430	 5.16493169372269E-02 
431	 4.88742674917998E-02 
432	 4.68742814511413E-02 
433	 0.047735850367159 
434	 5.14822788914372E-02 
435	 5.11453512320586E-02 
436	 4.94861291727151E-02 
437	 0.048577605008667 
438	 4.77512350154963E-02 
439	 4.60913612981892E-02 
440	 4.53420689262038E-02 
441	 4.72631283826419E-02 
442	 5.16180103641051E-02 
443	 4.95011716358501E-02 
444	 4.53261367218322E-02 
445	 5.21419438629077E-02 
446	 0.051073450113714 
447	 4.87490574791195E-02 
448	 5.06125792515957E-02 
449	 5.14885302813244E-02 
450	 5.04793890339092E-02 
451	 4.89435127886975E-02 
452	 4.85891985170305E-02 
453	 4.61048635091696E-02 
454	 0.045749729186116 
455	 0.048198966548005 
456	 0.049797917237318 
457	 4.76170440239691E-02 
458	 4.58186326238308E-02 
459	 4.73291787824621E-02 
460	 4.68843140766684E-02 
461	 0.04732620981778 
462	 4.76775868914864E-02 
463	 0.045667104195883 
464	 4.62459537446356E-02 
465	 0.04584989906407 
466	 4.39945715018292E-02 
467	 4.61218889698995E-02 
468	 4.83740292297426E-02 
469	 4.88196734018985E-02 
470	 4.72019664304264E-02 
471	 4.72111017236344E-02 
472	 4.82502721079774E-02 
473	 4.89387511514976E-02 
474	 4.76488786605656E-02 
475	 4.65742870867379E-02 
476	 4.58991563860135E-02 
477	 4.55337940662882E-02 
478	 4.56216936074424E-02 
479	 4.56966154049965E-02 
480	 4.54018573120857E-02 
481	 4.47250014631032E-02 
482	 4.53997941838354E-02 
483	 4.48159327421192E-02 
484	 4.33676144975599E-02 
485	 4.49244688709978E-02 
486	 4.42174522645215E-02 
487	 4.33825906672039E-02 
488	 0.044609242243366 
489	 4.54023272204557E-02 
490	 4.48537341290003E-02 
491	 4.38297828218463E-02 
492	 4.39784115977725E-02 
493	 4.36060915675009E-02 
494	 4.33999693641314E-02 
495	 0.043694229272663 
496	 4.37722083486441E-02 
497	 0.045325010844054 
498	 4.60802407243101E-02 
499	 4.40254467497362E-02 
500	 4.35105121977413E-02 
501	 4.35485918429815E-02 
502	 4.36930258633025E-02 
503	 4.40737054065748E-02 
504	 4.30518345731667E-02 
505	 0.042582355703144 
506	 4.38209671933276E-02 
507	 4.48696734572357E-02 
508	 4.41994299274677E-02 
509	 4.30333557639357E-02 
510	 4.33774793658548E-02 
511	 4.30263617637625E-02 
512	 4.28954591414647E-02 
513	 4.31320857955766E-02 
514	 4.26105500516319E-02 
515	 4.21579624004063E-02 
516	 4.24802679043133E-02 
517	 4.34865097838471E-02 
518	 0.042446523820717 
519	 4.21472781767246E-02 
520	 4.27129436728875E-02 
521	 0.042505987749546 
522	 4.24019905667289E-02 
523	 4.25548763168928E-02 
524	 0.042814045996802 
525	 4.26219312406708E-02 
526	 4.23502492131819E-02 
527	 4.21754633108342E-02 
528	 4.21929796391823E-02 
529	 4.24967596032442E-02 
530	 0.042296723164907 
531	 4.17388333121665E-02 
532	 4.19466584296057E-02 
533	 0.04242823135532 
534	 4.25174954678754E-02 
535	 4.19848419120024E-02 
536	 4.18768763916484E-02 
537	 4.20179292847065E-02 
538	 4.20543920596407E-02 
539	 4.16629854057894E-02 
540	 4.17906186355384E-02 
541	 0.041952906420167 
542	 4.17853830525328E-02 
543	 4.13435854274919E-02 
544	 4.10315442498147E-02 
545	 4.10506762119613E-02 
546	 4.13916700211937E-02 
547	 4.15677067788303E-02 
548	 4.14803017993861E-02 
549	 4.12315777523504E-02 
550	 4.10816440101055E-02 
551	 4.11503615042796E-02 
552	 4.12613075991307E-02 
553	 4.12581766103634E-02 
554	 4.11877498151397E-02 
555	 4.10101439007082E-02 
556	 4.09700301543717E-02 
557	 4.12974998503493E-02 
558	 4.11305971041496E-02 
559	 4.05484441027297E-02 
560	 4.00615813672898E-02 
561	 4.06391952130375E-02 
562	 0.040701053579996 
563	 4.05051665954959E-02 
564	 4.06026050641495E-02 
565	 4.06062139076348E-02 
566	 0.040700716998011 
567	 4.07806200884691E-02 
568	 4.05683979836271E-02 
569	 4.05266429284632E-02 
570	 4.04492890207594E-02 
571	 4.02477735664072E-02 
572	 4.03233031134199E-02 
573	 4.01710918930159E-02 
574	 3.99840181338726E-02 
575	 4.01396002281804E-02 
576	 4.04739009593149E-02 
577	 4.05109835035518E-02 
578	 4.02116758340644E-02 
579	 4.00422879849096E-02 
580	 4.01081800408667E-02 
581	 4.01495752921293E-02 
582	 4.00159125393954E-02 
583	 4.02132887373948E-02 
584	 4.02845989861239E-02 
585	 4.02815637211573E-02 
586	 4.04951446087095E-02 
587	 4.04944353685433E-02 
588	 4.01297608392573E-02 
589	 3.96924907274158E-02 
590	 0.040144593411021 
591	 0.040254009193765 
592	 4.01953152816145E-02 
593	 0.04036965768898 
594	 4.01601450403481E-02 
595	 3.99239219352578E-02 
596	 3.98157564878026E-02 
597	 3.97832522106974E-02 
598	 0.039809788850767 
599	 3.98161852856134E-02 
600	 3.97685860568378E-02 
601	 3.97352439131456E-02 
602	 3.99496453319924E-02 
603	 4.00773811168298E-02 
604	 3.97047881728567E-02 
605	 0.039694523070623 
606	 3.97863263104528E-02 
607	 3.98346475665543E-02 
608	 3.99541689323829E-02 
609	 3.98802809698583E-02 
610	 3.97421136165627E-02 
611	 3.96810571824688E-02 
612	 0.039516060746847 
613	 3.94325097797421E-02 
614	 3.94641312999118E-02 
615	 3.95268775886695E-02 
616	 3.94361731833237E-02 
617	 3.94112654163029E-02 
618	 0.039495629946867 
619	 3.93143276536482E-02 
620	 3.92786838921331E-02 
621	 3.93269302685039E-02 
622	 3.92688886435879E-02 
623	 3.90702416997165E-02 
624	 3.91318549413224E-02 
625	 3.93948124181645E-02 
626	 3.93797802010957E-02 
627	 3.92565616620932E-02 
628	 0.039238366393953 
629	 3.93646272492896E-02 
630	 3.92059569047964E-02 
631	 3.91070726173964E-02 
632	 3.91460392987379E-02 
633	 3.92390813673917E-02 
634	 3.90557812426994E-02 
635	 3.90183122935384E-02 
636	 0.039173412936095 
637	 3.90359016979157E-02 
638	 3.87827949182892E-02 
639	 3.87665523313874E-02 
640	 3.91097054721735E-02 
641	 3.90619205942032E-02 
642	 3.90438612319242E-02 
643	 3.90510911360725E-02 
644	 3.88579299950821E-02 
645	 3.87481041922986E-02 
646	 3.87805572157372E-02 
647	 3.88509834497635E-02 
648	 3.86237249744421E-02 
649	 3.87438026057057E-02 
650	 0.038882960324097 
651	 3.86453233190571E-02 
652	 3.86891644805265E-02 
653	 3.87322924656991E-02 
654	 3.86966023244177E-02 
655	 3.86824703044405E-02 
656	 3.85709922395037E-02 
657	 0.038551530511481 
658	 0.038691527846817 
659	 3.87230578384799E-02 
660	 3.86113497668579E-02 
661	 3.84471647844853E-02 
662	 3.83723848519616E-02 
663	 3.84470576244212E-02 
664	 3.85761287541556E-02 
665	 3.86704340201688E-02 
666	 3.86637951946992E-02 
667	 3.85630555972794E-02 
668	 3.84901694449059E-02 
669	 3.85038694782658E-02 
670	 3.84447479440792E-02 
671	 3.84004518015372E-02 
672	 3.83686507147856E-02 
673	 3.83313265422119E-02 
674	 3.84689522928666E-02 
675	 3.84203109632462E-02 
676	 3.82427763173334E-02 
677	 3.85251319292335E-02 
678	 3.84004855639576E-02 
679	 3.81877543819944E-02 
680	 3.82462954430454E-02 
681	 3.81821134073282E-02 
682	 3.81420252085109E-02 
683	 3.81531183384592E-02 
684	 3.81749913823482E-02 
685	 3.81792095799141E-02 
686	 3.81447207095924E-02 
687	 3.81023133071541E-02 
688	 0.038149475167202 
689	 3.82263358244321E-02 
690	 0.038224057205743 
691	 3.80890090097631E-02 
692	 0.037983898065614 
693	 0.037891594815856 
694	 0.037893055841378 
695	 3.80859388954023E-02 
696	 3.81676886164974E-02 
697	 3.81528929070899E-02 
698	 3.80743903106974E-02 
699	 3.79169528665421E-02 
700	 3.79136792964372E-02 
701	 3.80612392185418E-02 
702	 3.82196863840857E-02 
703	 3.80443969061953E-02 
704	 3.78842703752709E-02 
705	 3.78547592751277E-02 
706	 3.78872285013966E-02 
707	 3.79235236355747E-02 
708	 3.79306790826542E-02 
709	 3.79209747372061E-02 
710	 3.79736198353623E-02 
711	 3.79688404056557E-02 
712	 3.79155033067231E-02 
713	 3.78640862487626E-02 
714	 3.78521010643335E-02 
715	 3.78938512598132E-02 
716	 3.79489213430031E-02 
717	 3.79465119354451E-02 
718	 3.79201026865307E-02 
719	 3.79357837838463E-02 
720	 0.037982929180993 
721	 3.79125246332483E-02 
722	 0.037906571982596 
723	 0.037924072482645 
724	 3.79068301600441E-02 
725	 3.80216404067645E-02 
726	 3.80687229776768E-02 
727	 0.037990154971588 
728	 3.78570544965862E-02 
729	 3.78791453009101E-02 
730	 3.79027006478765E-02 
731	 3.78532229117716E-02 
732	 3.78655526245064E-02 
733	 0.037956172888863 
734	 3.80057245990613E-02 
735	 3.79250429936311E-02 
736	 3.78899860158425E-02 
737	 3.78755080337453E-02 
738	 0.037930039844163 
739	 3.81088709206899E-02 
740	 3.80817976738645E-02 
741	 0.038014087956519 
742	 3.80075923539601E-02 
743	 3.79737505050148E-02 
744	 0.038029867396789 
745	 3.81181419905492E-02 
746	 3.81492977708957E-02 
747	 3.80986166614535E-02 
748	 3.80003698829138E-02 
749	 3.79559165220619E-02 
750	 3.80658915480824E-02 
751	 3.81407774453523E-02 
752	 3.81676269564003E-02 
753	 3.81379639588407E-02 
754	 0.038027038447227 
755	 3.81152435990436E-02 
756	 3.82274886138979E-02 
757	 3.81900466676405E-02 
758	 3.81569792835564E-02 
759	 3.80948985102359E-02 
760	 3.80558663338001E-02 
761	 3.81085751384911E-02 
762	 3.81874062402317E-02 
763	 0.03822137534885 
764	 3.82037124863335E-02 
765	 3.81952427058133E-02 
766	 3.82132381505695E-02 
767	 3.82028267386159E-02 
768	 3.81574257317516E-02 
769	 3.82212128723492E-02 
770	 3.82468513171352E-02 
771	 3.82517630149809E-02 
772	 0.038280115264125 
773	 0.038184740194748 
774	 3.81765693901905E-02 
775	 3.82318872521014E-02 
776	 3.81589480434911E-02 
777	 3.83058310853856E-02 
778	 3.83913096307269E-02 
779	 3.82997137056976E-02 
780	 3.83446367798769E-02 
781	 3.82826651412409E-02 
782	 3.82154212088341E-02 
783	 3.82712977727733E-02 
784	 3.83345087937204E-02 
785	 0.038354498982171 
786	 3.83393440780162E-02 
787	 3.83319077363613E-02 
788	 3.83320243067525E-02 
789	 3.83654951583261E-02 
790	 3.83868886652414E-02 
791	 3.82782717928713E-02 
792	 3.82589351368362E-02 
793	 3.83110068496224E-02 
794	 3.83582399752892E-02 
795	 3.83089257344782E-02 
796	 3.82818569399037E-02 
797	 3.82764156839693E-02 
798	 3.82631622211652E-02 
799	 3.83016696400268E-02 
800	 3.83701666597429E-02 
801	 3.83946715156505E-02 
802	 3.82993567279847E-02 
803	 3.83723564342369E-02 
804	 3.84247011414595E-02 
805	 3.83780711115025E-02 
806	 3.84129313971303E-02 
807	 3.83917890178624E-02 
808	 3.83599101925605E-02 
809	 3.83826462661873E-02 
810	 3.84672773252834E-02 
811	 3.83992424355665E-02 
812	 0.038296672032814 
813	 3.83735080661095E-02 
814	 3.84549492061263E-02 
815	 3.84001377064983E-02 
816	 3.83112893440429E-02 
817	 3.84597700753795E-02 
818	 3.84922855483243E-02 
819	 3.84420286393368E-02 
820	 3.83880070585135E-02 
821	 3.83799739791888E-02 
822	 3.84391249487882E-02 
823	 3.84815348447912E-02 
824	 3.84628602816825E-02 
825	 3.85632679165702E-02 
826	 3.85600306457181E-02 
827	 3.84929527980981E-02 
828	 3.84981709065445E-02 
829	 3.84878450148107E-02 
830	 3.84921588060464E-02 
831	 3.85400896898989E-02 
832	 3.86322151976081E-02 
833	 3.85221921540092E-02 
834	 3.84583368473255E-02 
835	 3.85193499584493E-02 
836	 3.84155792105233E-02 
837	 3.86294475807031E-02 
838	 3.87649688121829E-02 
839	 3.85518122637969E-02 
840	 3.86924586190705E-02 
841	 3.87928362678525E-02 
842	 3.87814011534052E-02 
843	 3.87237390358166E-02 
844	 3.86877236326841E-02 
845	 3.86452222144593E-02 
846	 3.86542582061725E-02 
847	 3.87986044433492E-02 
848	 3.88180912797944E-02 
849	 3.87792513158223E-02 
850	 3.87547223692425E-02 
851	 3.87716555566201E-02 
852	 3.88900029435408E-02 
853	 3.89098973074827E-02 
854	 0.038782194344639 
855	 3.88905753422626E-02 
856	 3.88346385837706E-02 
857	 0.038757269224695 
858	 3.88565812933073E-02 
859	 3.88950971293011E-02 
860	 3.88727132586567E-02 
861	 3.88792908505051E-02 
862	 3.89987506544339E-02 
863	 3.89964371314161E-02 
864	 3.89228850801807E-02 
865	 3.88904757521343E-02 
866	 3.90118882344435E-02 
867	 3.90554970413215E-02 
868	 3.90332676672263E-02 
869	 3.89780354061844E-02 
870	 3.89054975316391E-02 
871	 3.90576768027669E-02 
872	 3.91540062902158E-02 
873	 3.90269076526915E-02 
874	 3.90062115569726E-02 
875	 3.90511785936142E-02 
876	 3.91089038071647E-02 
877	 3.91225221440597E-02 
878	 3.90590795802613E-02 
879	 3.90848676413305E-02 
880	 3.91343952915715E-02 
881	 3.90843374891509E-02 
882	 3.91886020967205E-02 
883	 3.91323393559111E-02 
884	 3.90099082278127E-02 
885	 3.91852928238215E-02 
886	 3.93515282467287E-02 
887	 3.93902525851839E-02 
888	 3.92813251405142E-02 
889	 3.91107533348856E-02 
890	 3.92349752901629E-02 
891	 3.93240355510854E-02 
892	 3.92084860177222E-02 
893	 3.92066583047556E-02 
894	 0.039180861667419 
895	 3.92149594239446E-02 
896	 3.93493567272695E-02 
897	 3.93998919482459E-02 
898	 3.92945683983269E-02 
899	 3.92028834831831E-02 
900	 3.93010588076086E-02 
901	 3.94582291817396E-02 
902	 3.94701087265836E-02 
903	 3.93089190699773E-02 
904	 3.91059565219006E-02 
905	 3.92116338057413E-02 
906	 3.94600109146308E-02 
907	 3.95277043205094E-02 
908	 3.91659087654677E-02 
909	 3.92750503386902E-02 
910	 3.94505784557149E-02 
911	 3.94595310588706E-02 
912	 3.94064897677925E-02 
913	 3.95848614389098E-02 
914	 3.97074168477404E-02 
915	 3.96116758868453E-02 
916	 3.94382293776573E-02 
917	 3.93339599576654E-02 
918	 3.93656155021552E-02 
919	 3.94619614033118E-02 
920	 3.93588330383665E-02 
921	 3.94026132505218E-02 
922	 3.95911703772064E-02 
923	 3.97698770705173E-02 
924	 3.96497802809612E-02 
925	 3.96409295802932E-02 
926	 3.96800370956732E-02 
927	 3.96421487566571E-02 
928	 3.97596474801509E-02 
929	 3.98159854630417E-02 
930	 3.97461518007916E-02 
931	 3.96291268588338E-02 
932	 3.98365826799887E-02 
933	 3.98698528564143E-02 
934	 3.96776998063891E-02 
935	 3.95145780277262E-02 
936	 3.97128577606345E-02 
937	 3.97824721435732E-02 
938	 3.96873579245183E-02 
939	 3.97363901070868E-02 
940	 4.00379322625612E-02 
941	 4.01544048823518E-02 
942	 4.00710107124186E-02 
943	 4.01110711406154E-02 
944	 3.97812843679049E-02 
945	 3.96297996610759E-02 
946	 3.97965502419209E-02 
947	 3.98839292616633E-02 
948	 3.98914312593997E-02 
949	 4.00307261203762E-02 
950	 4.02337457844735E-02 
951	 4.00953875831124E-02 
952	 4.01290460578306E-02 
953	 4.00528025616483E-02 
954	 3.98481334988973E-02 
955	 4.00437752151969E-02 
956	 4.02169379574402E-02 
957	 4.02596482860528E-02 
958	 0.040253649775022 
959	 4.04684747786784E-02 
960	 4.03389993879272E-02 
961	 4.02353230992156E-02 
962	 4.04309051229248E-02 
963	 0.040574435356421 
964	 4.03254030092091E-02 
965	 4.01348463174123E-02 
966	 4.02174354622351E-02 
967	 3.97553590061727E-02 
968	 3.99659275860551E-02 
969	 4.03930238550518E-02 
970	 4.03825409369995E-02 
971	 4.00372086234358E-02 
972	 0.040141313986753 
973	 4.03550047942654E-02 
974	 4.02478807281302E-02 
975	 4.01857113330235E-02 
976	 0.040297989358659 
977	 0.040422494251595 
978	 4.04016841390292E-02 
979	 4.04187975928571E-02 
980	 0.040518632887428 
981	 4.04582901906539E-02 
982	 4.01663761923658E-02 
983	 4.04411756947579E-02 
984	 4.03961753408441E-02 
985	 4.01660691445662E-02 
986	 4.02296045793035E-02 
987	 4.09736229632343E-02 
988	 0.040837949531825 
989	 4.04945738057354E-02 
990	 4.08185815422294E-02 
991	 4.03546794761272E-02 
992	 4.03896433289691E-02 
993	 4.07578284634283E-02 
994	 4.08832034235587E-02 
995	 4.07594052398444E-02 
996	 4.07010718185955E-02 
997	 0.040747315385735 
998	 4.07675863951421E-02 
999	 4.04774444498422E-02 
1000	 4.02134557987261E-02 
1001	 4.21372783088859E-02 
1002	 4.23675623832864E-02 
1003	 4.24035692983163E-02 
1004	 4.22958220527093E-02 
1005	 4.19573152491225E-02 
1006	 4.18981374302144E-02 
1007	 4.17080228723381E-02 
1008	 4.18091883512244E-02 
1009	 4.23536895235737E-02 
1010	 4.24396630814704E-02 
1011	 4.24509803150166E-02 
1012	 4.24782872470228E-02 
1013	 0.042284715807647 
1014	 4.21554103836762E-02 
1015	 4.20917624169852E-02 
1016	 0.041890343191044 
1017	 4.18831779034895E-02 
1018	 4.20411592728109E-02 
1019	 0.042361686864192 
1020	 4.26956848097162E-02 
1021	 4.27838751976495E-02 
1022	 0.042698367144686 
1023	 4.26137103146454E-02 
1024	 4.22528241496879E-02 
1025	 4.22066013722964E-02 
1026	 4.23653577178653E-02 
1027	 4.24309613141841E-02 
1028	 4.25534485181269E-02 
1029	 4.27366201254454E-02 
1030	 4.27577236265426E-02 
1031	 0.042560961134995 
1032	 4.25069651864111E-02 
1033	 4.24519500661811E-02 
1034	 4.23733541244548E-02 
1035	 4.24666831674219E-02 
1036	 4.24171451150253E-02 
1037	 4.22627590101667E-02 
1038	 4.21799936242787E-02 
1039	 4.19751730928588E-02 
1040	 4.19556836455535E-02 
1041	 4.21719128112665E-02 
1042	 4.22587771674096E-02 
1043	 4.23561992662304E-02 
1044	 4.24709358638134E-02 
1045	 4.25215825814777E-02 
1046	 4.25586467581942E-02 
1047	 4.27505113809843E-02 
1048	 4.28444981935032E-02 
1049	 4.28180653791574E-02 
1050	 4.26238555478266E-02 
1051	 0.042404188807994 
1052	 0.042492993024054 
1053	 4.25149889845087E-02 
1054	 4.27069020268534E-02 
1055	 4.26805177413159E-02 
1056	 0.042471379497346 
1057	 4.24014742166373E-02 
1058	 0.042313628596226 
1059	 0.042225110741899 
1060	 4.23322555117508E-02 
1061	 4.24991733085194E-02 
1062	 4.24933763899445E-02 
1063	 4.24977230840288E-02 
1064	 4.24982936951722E-02 
1065	 4.24157924164531E-02 
1066	 4.23554936958235E-02 
1067	 4.24343439904319E-02 
1068	 4.25746452012056E-02 
1069	 4.26184709527957E-02 
1070	 4.26752053586262E-02 
1071	 4.27295348712036E-02 
1072	 4.27944581981619E-02 
1073	 4.27239478318004E-02 
1074	 4.26738619640094E-02 
1075	 4.27873538000535E-02 
1076	 4.28215136175914E-02 
1077	 4.28290127473069E-02 
1078	 4.29724215064844E-02 
1079	 4.29089730898282E-02 
1080	 4.27040719123918E-02 
1081	 4.26568177289256E-02 
1082	 4.27057118392778E-02 
1083	 4.27064897096077E-02 
1084	 4.27872807915799E-02 
1085	 0.042949217479388 
1086	 4.29862247286326E-02 
1087	 4.29026119001219E-02 
1088	 4.28702537738741E-02 
1089	 4.29230840878654E-02 
1090	 4.28642315492333E-02 
1091	 4.28507867955782E-02 
1092	 4.28317529787081E-02 
1093	 4.28055444195653E-02 
1094	 4.28892897872259E-02 
1095	 4.29742127193044E-02 
1096	 4.31493958008321E-02 
1097	 4.32702763203887E-02 
1098	 4.32930905183192E-02 
1099	 4.33823183157065E-02 
1100	 4.33398344628046E-02 
1101	 4.32191000134903E-02 
1102	 4.31672477550704E-02 
1103	 4.31579655832296E-02 
1104	 4.31645714022708E-02 
1105	 4.31869008286625E-02 
1106	 0.043183790446797 
1107	 4.31707598344519E-02 
1108	 4.31174415678596E-02 
1109	 4.30205995109779E-02 
1110	 4.30211917770122E-02 
1111	 4.30720967597939E-02 
1112	 4.30601667494017E-02 
1113	 4.31541087920455E-02 
1114	 0.043246351934093 
1115	 4.32586745006224E-02 
1116	 4.32455380630397E-02 
1117	 4.31711294882867E-02 
1118	 4.31623269110477E-02 
1119	 0.043210191713548 
1120	 4.32030170047714E-02 
1121	 0.04318483472717 
1122	 4.31890603797865E-02 
1123	 4.32487997585125E-02 
1124	 4.32139686806863E-02 
1125	 4.31980827036516E-02 
1126	 0.043205028876757 
1127	 4.30684806653231E-02 
1128	 4.29806307835766E-02 
1129	 0.042927911012714 
1130	 4.29608465928139E-02 
1131	 4.30936219882409E-02 
1132	 4.30885786869226E-02 
1133	 4.30592190609905E-02 
1134	 4.30468382371144E-02 
1135	 0.043011676817292 
1136	 4.29133527776439E-02 
1137	 4.28840968353984E-02 
1138	 4.28711962359221E-02 
1139	 4.28451925464276E-02 
1140	 4.28280301922966E-02 
1141	 4.28060360738752E-02 
1142	 4.27651699685204E-02 
1143	 4.27722468868057E-02 
1144	 4.27447047195087E-02 
1145	 4.27075083928614E-02 
1146	 4.27222581309622E-02 
1147	 4.27847404077315E-02 
1148	 4.28743512776814E-02 
1149	 4.29173619877726E-02 
1150	 4.29527435360976E-02 
1151	 4.30019365178853E-02 
1152	 4.29858388076018E-02 
1153	 4.28992459440648E-02 
1154	 4.28947629294804E-02 
1155	 4.28623800813276E-02 
1156	 4.28433022895333E-02 
1157	 4.29296199650588E-02 
1158	 0.042923735770188 
1159	 4.28360404033542E-02 
1160	 4.27941011887916E-02 
1161	 4.28130707152029E-02 
1162	 4.27973497396365E-02 
1163	 4.27672375902058E-02 
1164	 4.28466477929413E-02 
1165	 4.28821469579803E-02 
1166	 4.28465369996696E-02 
1167	 4.28905643188554E-02 
1168	 4.28954608687953E-02 
1169	 4.28795170689474E-02 
1170	 4.27957943750235E-02 
1171	 4.27795761380514E-02 
1172	 4.28056463340307E-02 
1173	 4.28161663943202E-02 
1174	 0.042868007733503 
1175	 4.28897114486769E-02 
1176	 0.04284548623122 
1177	 0.042821096566601 
1178	 4.27801258086986E-02 
1179	 4.27968722517809E-02 
1180	 4.28208806778675E-02 
1181	 4.28822262753812E-02 
1182	 4.29041992723678E-02 
1183	 4.29179709239343E-02 
1184	 4.28952696782681E-02 
1185	 4.28449274974142E-02 
1186	 4.28370565982514E-02 
1187	 4.28408296820916E-02 
1188	 4.28487155969513E-02 
1189	 4.28836089107058E-02 
1190	 0.042890655206867 
1191	 4.28834092953133E-02 
1192	 4.28913432816966E-02 
1193	 4.29209111100149E-02 
1194	 4.29211192221612E-02 
1195	 4.28731325710304E-02 
1196	 4.28872457748901E-02 
1197	 4.29431355355918E-02 
1198	 4.29378697912644E-02 
1199	 4.29561400382119E-02 
1200	 4.30089411930219E-02 
1201	 0.04298396468216 
1202	 4.30266515240706E-02 
1203	 4.31097596194663E-02 
1204	 4.31315648264793E-02 
1205	 4.31512399535814E-02 
1206	 4.31418079866309E-02 
1207	 4.31401648950064E-02 
1208	 4.31271387638872E-02 
1209	 4.31240081394702E-02 
1210	 4.31206626746797E-02 
1211	 4.31289077344712E-02 
1212	 4.31531652279111E-02 
1213	 4.31625030744811E-02 
1214	 4.31653326343974E-02 
1215	 4.31644720630077E-02 
1216	 4.31412345932353E-02 
1217	 4.31426990549309E-02 
1218	 4.31385974530328E-02 
1219	 4.31888095243554E-02 
1220	 4.32463887103462E-02 
1221	 4.32776955775307E-02 
1222	 4.32906770101598E-02 
1223	 4.33126439082263E-02 
1224	 4.32902475756564E-02 
1225	 4.32001499902588E-02 
1226	 0.043186485333603 
1227	 4.31876716590341E-02 
1228	 4.31822820000623E-02 
1229	 4.32189190944042E-02 
1230	 4.32258372354888E-02 
1231	 4.31874003584875E-02 
1232	 4.32004452786183E-02 
1233	 4.32696897425033E-02 
1234	 4.32813575070319E-02 
1235	 4.32834978608739E-02 
1236	 4.32711848242066E-02 
1237	 4.31560559767056E-02 
1238	 4.31552204823462E-02 
1239	 4.32108601357293E-02 
1240	 4.33129245202298E-02 
1241	 4.34287772600791E-02 
1242	 0.043484878168448 
1243	 4.34732073236652E-02 
1244	 4.33441588031566E-02 
1245	 0.043331084936647 
1246	 4.33178367292887E-02 
1247	 4.33158381313581E-02 
1248	 0.04340124120953 
1249	 4.33836387268117E-02 
1250	 4.32771376476004E-02 
1251	 4.32524476247094E-02 
1252	 4.32030024214109E-02 
1253	 4.32107893867755E-02 
1254	 4.33469447335074E-02 
1255	 4.33550918783356E-02 
1256	 4.33169237455324E-02 
1257	 4.32901977382712E-02 
1258	 4.31443334052936E-02 
1259	 4.31074500820706E-02 
1260	 4.31680701541073E-02 
1261	 4.31878890760676E-02 
1262	 4.32206384570228E-02 
1263	 4.32923563037823E-02 
1264	 4.33078747554143E-02 
1265	 4.33002841298533E-02 
1266	 4.32631454324504E-02 
1267	 4.31743352463097E-02 
1268	 4.31535000043779E-02 
1269	 0.04312527859219 
1270	 4.31125753532718E-02 
1271	 4.31757031416565E-02 
1272	 4.31667154318487E-02 
1273	 4.30704820296588E-02 
1274	 4.30764472936821E-02 
1275	 4.31250635629525E-02 
1276	 4.31531232186829E-02 
1277	 4.32525418918988E-02 
1278	 4.32926354168271E-02 
1279	 4.32749051003361E-02 
1280	 4.32746623895446E-02 
1281	 4.32786819711208E-02 
1282	 4.32636070993152E-02 
1283	 4.32117320773524E-02 
1284	 4.31957974021254E-02 
1285	 4.31898096401236E-02 
1286	 4.31681174385278E-02 
1287	 4.32042562733503E-02 
1288	 4.33079403282445E-02 
1289	 4.33354026760107E-02 
1290	 4.33489726947841E-02 
1291	 4.33833979100051E-02 
1292	 4.33967154677557E-02 
1293	 4.34137428182508E-02 
1294	 4.34696354486924E-02 
1295	 4.34827801988441E-02 
1296	 4.34308191613862E-02 
1297	 4.34406322626249E-02 
1298	 4.34656853700148E-02 
1299	 4.35065402088359E-02 
1300	 4.36058382424352E-02 
1301	 4.36539979626615E-02 
1302	 4.37081551736064E-02 
1303	 4.37206434507566E-02 
1304	 4.36464059279295E-02 
1305	 4.36388060864649E-02 
1306	 4.36363634801416E-02 
1307	 4.36498452328415E-02 
1308	 4.36847270663626E-02 
1309	 4.37702676811993E-02 
1310	 4.38389799414147E-02 
1311	 4.39226846877082E-02 
1312	 4.39599394861795E-02 
1313	 4.40062577398926E-02 
1314	 4.40069381656325E-02 
1315	 4.39490725068568E-02 
1316	 4.39171578749899E-02 
1317	 4.38521886809431E-02 
1318	 4.38527001806702E-02 
1319	 4.38725345857145E-02 
1320	 4.39100125840342E-02 
1321	 4.40529541632509E-02 
1322	 4.40659158481212E-02 
1323	 4.40078966362711E-02 
1324	 4.39778535108588E-02 
1325	 4.38507688330075E-02 
1326	 4.38231736702659E-02 
1327	 4.38831433764902E-02 
1328	 4.39084627796287E-02 
1329	 4.39812092824505E-02 
1330	 4.40046376845455E-02 
1331	 4.39939892556303E-02 
1332	 4.39769220323283E-02 
1333	 4.39078853762625E-02 
1334	 4.38742756359291E-02 
1335	 4.38659157244583E-02 
1336	 4.38739858126004E-02 
1337	 0.043860104439038 
1338	 4.38664053966884E-02 
1339	 4.38621969449804E-02 
1340	 4.38307735003098E-02 
1341	 4.38274225993084E-02 
1342	 4.38654566874121E-02 
1343	 4.38484885157205E-02 
1344	 4.38002440691656E-02 
1345	 4.37701875393569E-02 
1346	 0.043716481331023 
1347	 4.36886449699304E-02 
1348	 4.36889192048032E-02 
1349	 4.36725096331388E-02 
1350	 4.36578171160739E-02 
1351	 4.36365185846011E-02 
1352	 4.35996614237162E-02 
1353	 4.35780815626643E-02 
1354	 4.35541213610565E-02 
1355	 4.35423827870817E-02 
1356	 4.35434001171946E-02 
1357	 4.35483155807155E-02 
1358	 4.35875329835237E-02 
1359	 4.35872762845299E-02 
1360	 4.35704252846067E-02 
1361	 0.043551371542013 
1362	 4.35098786551909E-02 
1363	 4.34290648667681E-02 
1364	 4.33797601167397E-02 
1365	 4.33291193386033E-02 
1366	 4.33023571519216E-02 
1367	 4.32884247178646E-02 
1368	 0.043280761156198 
1369	 4.33036924162742E-02 
1370	 4.32854153581788E-02 
1371	 4.32506526623743E-02 
1372	 4.32236931865322E-02 
1373	 4.31818718001156E-02 
1374	 4.31463479779556E-02 
1375	 4.31245911250447E-02 
1376	 4.30879247370802E-02 
1377	 4.30357553819554E-02 
1378	 4.29908389641622E-02 
1379	 4.29461919012198E-02 
1380	 4.28986336968203E-02 
1381	 4.28323424710636E-02 
1382	 4.27994788286777E-02 
1383	 4.27967457093339E-02 
1384	 4.27735503890018E-02 
1385	 0.042746118842683 
1386	 4.27408176423466E-02 
1387	 4.27399988006942E-02 
1388	 4.27277071321239E-02 
1389	 4.27741788214246E-02 
1390	 4.27554118394227E-02 
1391	 4.26731834601712E-02 
1392	 4.25859961194864E-02 
1393	 4.25294684579926E-02 
1394	 4.24464101012536E-02 
1395	 4.24143508390934E-02 
1396	 4.24396010010058E-02 
1397	 4.24211796753042E-02 
1398	 4.24011666768976E-02 
1399	 0.042365515935386 
1400	 4.23037697724288E-02 
1401	 0.042282211997559 
1402	 4.22640043527536E-02 
1403	 4.22648777718754E-02 
1404	 4.23090819652774E-02 
1405	 4.23061967470627E-02 
1406	 4.22966652242488E-02 
1407	 0.042270634960314 
1408	 4.22257717261391E-02 
1409	 4.21747958407571E-02 
1410	 4.20797547491526E-02 
1411	 4.20444671638598E-02 
1412	 4.20406141773749E-02 
1413	 4.20136452649374E-02 
1414	 4.19893755626211E-02 
1415	 0.042001532048203 
1416	 0.042019726735816 
1417	 4.20328975537875E-02 
1418	 4.21102448983981E-02 
1419	 4.21365793749321E-02 
1420	 4.20941841655852E-02 
1421	 4.20927623297654E-02 
1422	 0.04211320914958 
1423	 4.21129930077538E-02 
1424	 4.21160175269056E-02 
1425	 4.21109923684762E-02 
1426	 4.21153606077074E-02 
1427	 4.21230006391672E-02 
1428	 4.21663078926317E-02 
1429	 4.22455008684234E-02 
1430	 0.042261219851442 
1431	 4.22459791050137E-02 
1432	 0.042262516359726 
1433	 4.22653901392516E-02 
1434	 0.042261631575559 
1435	 4.22738464949992E-02 
1436	 4.22851280737819E-02 
1437	 4.22746534168912E-02 
1438	 4.22773246844255E-02 
1439	 4.23108791323632E-02 
1440	 4.23156368059586E-02 
1441	 4.23032618728881E-02 
1442	 4.22799741284588E-02 
1443	 4.22300594642705E-02 
1444	 4.22203317693995E-02 
1445	 4.21974326531251E-02 
1446	 4.22159151544964E-02 
1447	 4.23228938061412E-02 
1448	 4.23411033059166E-02 
1449	 4.23199939718992E-02 
1450	 4.23200323156787E-02 
1451	 0.042267828955404 
1452	 4.22597560736918E-02 
1453	 4.23169456973974E-02 
1454	 0.042328149895358 
1455	 4.23126487819212E-02 
1456	 0.042317552220211 
1457	 4.23167023152002E-02 
1458	 4.23141589409837E-02 
1459	 4.23175025346991E-02 
1460	 4.23331979452198E-02 
1461	 4.23679833599598E-02 
1462	 4.23728419284712E-02 
1463	 4.23619113779831E-02 
1464	 4.23668197731693E-02 
1465	 4.23552257640052E-02 
1466	 4.23531013826594E-02 
1467	 4.23452336542152E-02 
1468	 4.23352583976896E-02 
1469	 4.23087053902239E-02 
1470	 4.22838014932922E-02 
1471	 0.042290805164197 
1472	 4.23289742555307E-02 
1473	 4.23569067916935E-02 
1474	 4.24093771671419E-02 
1475	 4.24131636643411E-02 
1476	 4.24013745632034E-02 
1477	 4.23939674530646E-02 
1478	 4.23435175270378E-02 
1479	 4.23468528156502E-02 
1480	 4.23833805604372E-02 
1481	 4.24028637721749E-02 
1482	 4.24404661137264E-02 
1483	 4.24555036734437E-02 
1484	 0.0424481110327 
1485	 4.24668622089095E-02 
1486	 4.25009623832309E-02 
1487	 4.25158458231411E-02 
1488	 4.25465099495892E-02 
1489	 4.25379336670532E-02 
1490	 4.24768351671644E-02 
1491	 4.24634400485932E-02 
1492	 4.24535669544679E-02 
1493	 4.24516110632153E-02 
1494	 4.24728159805707E-02 
1495	 4.24907632463272E-02 
1496	 4.25078295382331E-02 
1497	 4.25304292995435E-02 
1498	 4.25708885136135E-02 
1499	 4.25980868851096E-02 
1500	 4.26420523699494E-02 
1501	 4.26356821794861E-02 
1502	 0.042582729423053 
1503	 4.25610032638507E-02 
1504	 4.25048019472272E-02 
1505	 0.042481502939844 
1506	 4.25035834666154E-02 
1507	 4.25097566676914E-02 
1508	 4.24989419939742E-02 
1509	 4.25195290752406E-02 
1510	 4.25743870905826E-02 
1511	 4.26084851468278E-02 
1512	 4.26898349762053E-02 
1513	 4.27018993780598E-02 
1514	 4.26267268109014E-02 
1515	 4.25958948587783E-02 
1516	 4.25380469609257E-02 
1517	 4.25069902255033E-02 
1518	 0.042522345329441 
1519	 4.25355595397487E-02 
1520	 4.25692776696819E-02 
1521	 4.25720760779663E-02 
1522	 4.25973377969414E-02 
1523	 4.26151407781659E-02 
1524	 4.26119190312129E-02 
1525	 4.25838952815274E-02 
1526	 4.25863439380486E-02 
1527	 4.25844955006861E-02 
1528	 4.25979810077042E-02 
1529	 4.26374318962563E-02 
1530	 4.26536784837643E-02 
1531	 4.26639378223788E-02 
1532	 4.26698962499615E-02 
1533	 4.26812155876631E-02 
1534	 4.26602203573562E-02 
1535	 4.25958604848918E-02 
1536	 4.26063608361742E-02 
1537	 4.26276907619144E-02 
1538	 4.26571320337704E-02 
1539	 4.27692104701116E-02 
1540	 4.27715664573938E-02 
1541	 0.042688582581979 
1542	 4.26928237554837E-02 
1543	 4.26992762752891E-02 
1544	 4.27039017865499E-02 
1545	 4.27641945529147E-02 
1546	 4.27733055568027E-02 
1547	 4.27456388361786E-02 
1548	 4.27128335174863E-02 
1549	 4.26529401198204E-02 
1550	 4.26414949405751E-02 
1551	 4.26223009992373E-02 
1552	 4.26299079054568E-02 
1553	 4.27113014417341E-02 
1554	 4.27243567463532E-02 
1555	 4.27030082884513E-02 
1556	 4.26942109455109E-02 
1557	 4.26604769047633E-02 
1558	 4.26524810933216E-02 
1559	 4.26731778278121E-02 
1560	 4.26607711702874E-02 
1561	 4.26235779322504E-02 
1562	 4.26223439459975E-02 
1563	 4.26172591201198E-02 
1564	 4.26266936521157E-02 
1565	 4.26862822620557E-02 
1566	 4.27047005272225E-02 
1567	 4.27056216429949E-02 
1568	 4.26994425841855E-02 
1569	 4.26800117308009E-02 
1570	 4.26561321601224E-02 
1571	 4.26021387784735E-02 
1572	 4.25868482240837E-02 
1573	 4.25801908648716E-02 
1574	 4.25874820083947E-02 
1575	 4.26415818414376E-02 
1576	 4.26575937071283E-02 
1577	 4.26621371860476E-02 
1578	 4.26623042243626E-02 
1579	 4.26420307434418E-02 
1580	 4.26301530097683E-02 
1581	 4.26227607464626E-02 
1582	 4.26090305240442E-02 
1583	 4.25675542739016E-02 
1584	 4.25720826288412E-02 
1585	 4.26131570183365E-02 
1586	 4.26287599097369E-02 
1587	 4.26626690784789E-02 
1588	 4.26878697284654E-02 
1589	 4.27098297082539E-02 
1590	 4.26963491732144E-02 
1591	 4.26529373014212E-02 
1592	 0.04263714019391 
1593	 4.25755845035345E-02 
1594	 0.042566390674801 
1595	 4.26432358117171E-02 
1596	 4.26655844666081E-02 
1597	 4.26822136265533E-02 
1598	 4.26841239280869E-02 
1599	 4.26152345236852E-02 
1600	 4.26177276317714E-02 
1601	 4.26812201315003E-02 
1602	 4.27003940100142E-02 
1603	 4.27657400461416E-02 
1604	 4.27670283405608E-02 
1605	 4.26539599643517E-02 
1606	 4.26261204681817E-02 
1607	 4.26365154731003E-02 
1608	 4.26222422929851E-02 
1609	 4.26279639003322E-02 
1610	 4.26397102533724E-02 
1611	 4.26434944332501E-02 
1612	 4.26279845583058E-02 
1613	 4.26100920048133E-02 
1614	 4.26185821050226E-02 
1615	 4.26250763063944E-02 
1616	 4.26189606969077E-02 
1617	 4.26520877570336E-02 
1618	 4.26476599680368E-02 
1619	 4.25676851284752E-02 
1620	 0.042539302512206 
1621	 0.04253895064018 
1622	 4.25398323891354E-02 
1623	 0.042572185729906 
1624	 4.25821465097684E-02 
1625	 4.25654138988092E-02 
1626	 4.25699199808595E-02 
1627	 4.25880891849608E-02 
1628	 4.25940573220188E-02 
1629	 4.26361002801756E-02 
1630	 4.26230415691297E-02 
1631	 4.25271893289336E-02 
1632	 4.25018191032341E-02 
1633	 4.24898811273773E-02 
1634	 4.24756557220096E-02 
1635	 4.25045504146816E-02 
1636	 4.25240057200347E-02 
1637	 4.25186395319229E-02 
1638	 4.25342660696843E-02 
1639	 4.25993382954973E-02 
1640	 4.26135940525726E-02 
1641	 4.25942761848025E-02 
1642	 4.25861370648303E-02 
1643	 4.25474715346029E-02 
1644	 4.25390932234187E-02 
1645	 4.25350541816003E-02 
1646	 4.25593670024451E-02 
1647	 4.26389765797127E-02 
1648	 4.26667440267394E-02 
1649	 4.27120524303562E-02 
1650	 4.27195003000286E-02 
1651	 4.26346172913056E-02 
1652	 4.26112535784151E-02 
1653	 4.26356055281468E-02 
1654	 4.26212192842032E-02 
1655	 4.25803357317267E-02 
1656	 4.25873509688693E-02 
1657	 0.042598706789169 
1658	 4.25928537210418E-02 
1659	 4.26449286606197E-02 
1660	 4.26519824914834E-02 
1661	 4.25744537466049E-02 
1662	 4.25743637086382E-02 
1663	 4.26299491244132E-02 
1664	 4.26378584003585E-02 
1665	 4.26686597605272E-02 
1666	 4.26631034248517E-02 
1667	 0.042587171663731 
1668	 4.25593197299319E-02 
1669	 4.25450218141809E-02 
1670	 4.25375374314062E-02 
1671	 4.25579281482094E-02 
1672	 4.25575474957842E-02 
1673	 4.25436944376674E-02 
1674	 4.25486180900461E-02 
1675	 4.25550808698847E-02 
1676	 4.25580377931628E-02 
1677	 4.25802185815694E-02 
1678	 4.25804344383977E-02 
1679	 4.25550921452161E-02 
1680	 0.042547396098591 
1681	 4.25599048581598E-02 
1682	 4.25436706434124E-02 
1683	 4.25116800136201E-02 
1684	 4.24913152763416E-02 
1685	 4.24423100411108E-02 
1686	 4.24311725449971E-02 
1687	 4.24687361431379E-02 
1688	 4.24446046324498E-02 
1689	 4.23892775952789E-02 
1690	 4.23769634717663E-02 
1691	 4.23343248204461E-02 
1692	 0.042359212048904 
1693	 4.24880611753503E-02 
1694	 4.25149858382848E-02 
1695	 4.24998041858989E-02 
1696	 4.25034884957721E-02 
1697	 4.24555048517389E-02 
1698	 4.24655740368089E-02 
1699	 4.25727331087942E-02 
1700	 4.25661704910111E-02 
1701	 4.24845226091028E-02 
1702	 4.24728487515336E-02 
1703	 4.24084608704992E-02 
1704	 4.24203905004552E-02 
1705	 4.25506067588322E-02 
1706	 4.25659835375395E-02 
1707	 4.26085380578744E-02 
1708	 4.25696351528405E-02 
1709	 4.24773699444946E-02 
1710	 4.24312915655412E-02 
1711	 4.23567654580828E-02 
1712	 4.23299797005031E-02 
1713	 4.23602019436146E-02 
1714	 4.23693287815208E-02 
1715	 4.23584632072225E-02 
1716	 4.23198759949308E-02 
1717	 4.23316505010375E-02 
1718	 4.23441080422179E-02 
1719	 4.22969164050525E-02 
1720	 0.042373084636685 
1721	 4.24344147657871E-02 
1722	 4.24204887712192E-02 
1723	 0.042531354232761 
1724	 0.042553888203013 
1725	 4.24882664987114E-02 
1726	 4.24762038127175E-02 
1727	 0.042394003944367 
1728	 4.23334697624836E-02 
1729	 4.23244879689505E-02 
1730	 4.23073802559196E-02 
1731	 4.23471642575829E-02 
1732	 4.23784341347015E-02 
1733	 4.23609892144395E-02 
1734	 4.23344712949881E-02 
1735	 4.22866672625069E-02 
1736	 4.22777012067787E-02 
1737	 4.22889719504308E-02 
1738	 4.22753523368669E-02 
1739	 4.22796876185188E-02 
1740	 4.22349710009669E-02 
1741	 4.22297578651228E-02 
1742	 4.23424297942984E-02 
1743	 4.23364493358019E-02 
1744	 4.22159913350935E-02 
1745	 4.21776245322809E-02 
1746	 0.042105970849825 
1747	 4.20634851490345E-02 
1748	 4.21263641866022E-02 
1749	 4.21559427282836E-02 
1750	 4.21660142394616E-02 
1751	 4.21576708116973E-02 
1752	 0.042124122067793 
1753	 4.21265447854211E-02 
1754	 4.21370699350378E-02 
1755	 0.042110519665757 
1756	 4.21037758217749E-02 
1757	 4.21233974041661E-02 
1758	 4.20651897766895E-02 
1759	 4.20422680346495E-02 
1760	 4.20198125154984E-02 
1761	 4.19764241490246E-02 
1762	 4.20325070663246E-02 
1763	 4.20938451781388E-02 
1764	 4.20862667158575E-02 
1765	 4.20958250746549E-02 
1766	 4.20954088811872E-02 
1767	 4.21095039515145E-02 
1768	 4.21305359393921E-02 
1769	 4.21392261064106E-02 
1770	 4.21729601868103E-02 
1771	 4.21401903054978E-02 
1772	 4.21332859782335E-02 
1773	 4.21712446664582E-02 
1774	 4.21348929659675E-02 
1775	 4.21526878709933E-02 
1776	 4.22614115290735E-02 
1777	 4.23132523527887E-02 
1778	 4.22657081505759E-02 
1779	 4.22445937315986E-02 
1780	 0.042240530674296 
1781	 0.04215892472449 
1782	 4.21217571147719E-02 
1783	 4.21017182887584E-02 
1784	 4.20351394228543E-02 
1785	 4.21754379762191E-02 
1786	 4.22142349698273E-02 
1787	 4.22600218097543E-02 
1788	 4.22516306271196E-02 
1789	 4.21179621774149E-02 
1790	 4.20480060944048E-02 
1791	 4.19777946980612E-02 
1792	 4.20089888438691E-02 
1793	 4.21236631788227E-02 
1794	 4.22186950695201E-02 
1795	 4.22256642634712E-02 
1796	 4.21402942001083E-02 
1797	 4.21428149524707E-02 
1798	 4.21555999301093E-02 
1799	 4.21497215361849E-02 
1800	 4.22519332359718E-02 
1801	 0.041320748081415 
1802	 4.12165387918806E-02 
1803	 4.11754323038534E-02 
1804	 4.11154816214955E-02 
1805	 4.11865314184056E-02 
1806	 4.12352089980105E-02 
1807	 4.13699160657576E-02 
1808	 4.13877028899902E-02 
1809	 0.041355257325836 
1810	 4.13579680153262E-02 
1811	 0.041291156999758 
1812	 4.12890193770507E-02 
1813	 4.13539366201507E-02 
1814	 4.14382994284146E-02 
1815	 4.14146319123849E-02 
1816	 4.14204367809211E-02 
1817	 4.14455760981416E-02 
1818	 4.14508356787515E-02 
1819	 4.14722368571719E-02 
1820	 4.15815713970162E-02 
1821	 4.16025720276306E-02 
1822	 4.16019516203482E-02 
1823	 4.15205284441402E-02 
1824	 4.14564265772708E-02 
1825	 4.14495769225643E-02 
1826	 4.14332353839814E-02 
1827	 4.14224432863701E-02 
1828	 0.041467418160349 
1829	 4.15679388852974E-02 
1830	 4.15793166879421E-02 
1831	 4.15734336894698E-02 
1832	 4.16157244626433E-02 
1833	 4.15578758055293E-02 
1834	 4.15146313648115E-02 
1835	 4.15766441303197E-02 
1836	 4.16279530671963E-02 
1837	 4.16267567681864E-02 
1838	 4.16085618154863E-02 
1839	 4.16088090505986E-02 
1840	 4.15329037216405E-02 
1841	 4.15359433554894E-02 
1842	 4.16376289899786E-02 
1843	 4.16593075472795E-02 
1844	 4.16115792104836E-02 
1845	 4.16245945396903E-02 
1846	 4.15500848302871E-02 
1847	 0.041505493037532 
1848	 4.15235239196708E-02 
1849	 4.16599012795817E-02 
1850	 4.16611442801634E-02 
1851	 4.16395892207138E-02 
1852	 4.15973627950869E-02 
1853	 4.15394568059545E-02 
1854	 0.041477903391426 
1855	 4.15021706102315E-02 
1856	 4.15808888323359E-02 
1857	 4.15306899961422E-02 
1858	 4.14686968508645E-02 
1859	 4.14857324952182E-02 
1860	 4.15252444043641E-02 
1861	 4.15411533055023E-02 
1862	 4.16110816779385E-02 
1863	 4.16837393218778E-02 
1864	 4.16555675072481E-02 
1865	 4.16224712821846E-02 
1866	 4.16159115360041E-02 
1867	 4.16725542932673E-02 
1868	 4.17032777663209E-02 
1869	 4.16244559982825E-02 
1870	 4.15765312385318E-02 
1871	 4.14683739990229E-02 
1872	 4.14192741244779E-02 
1873	 4.13447622413182E-02 
1874	 4.14474739545976E-02 
1875	 0.041553493971546 
1876	 4.15667332625652E-02 
1877	 4.15957124077022E-02 
1878	 4.15868923159813E-02 
1879	 4.14962626148214E-02 
1880	 4.14313305708689E-02 
1881	 4.13896281805291E-02 
1882	 4.13722018829093E-02 
1883	 4.12801864740443E-02 
1884	 4.12099758884148E-02 
1885	 4.12273102567964E-02 
1886	 4.12022283247511E-02 
1887	 0.041156858409662 
1888	 4.11777015880461E-02 
1889	 4.11885629434628E-02 
1890	 4.11423865074649E-02 
1891	 4.11283794757694E-02 
1892	 4.10708997538333E-02 
1893	 4.10165007579696E-02 
1894	 4.09187571310764E-02 
1895	 4.08850374226084E-02 
1896	 0.04085434752609 
1897	 4.08606295309253E-02 
1898	 4.08701958697059E-02 
1899	 4.08608595670617E-02 
1900	 4.08229842059635E-02 
1901	 4.07621654998826E-02 
1902	 4.07329239015969E-02 
1903	 4.06976990060332E-02 
1904	 4.06544349398844E-02 
1905	 0.040636748233878 
1906	 4.05653392387562E-02 
1907	 4.04593982400424E-02 
1908	 4.04075156770504E-02 
1909	 4.03168324000576E-02 
1910	 4.02823683408209E-02 
1911	 4.02954635418229E-02 
1912	 0.040234547709133 
1913	 4.01511025922095E-02 
1914	 4.01153094146537E-02 
1915	 4.01014480030746E-02 
1916	 4.01095828453691E-02 
1917	 4.00878559364948E-02 
1918	 4.01121678697373E-02 
1919	 4.01420877013988E-02 
1920	 4.00431874631953E-02 
1921	 3.99731473295292E-02 
1922	 0.039964729483964 
1923	 3.99487430692623E-02 
1924	 3.99725784018251E-02 
1925	 4.00048709192817E-02 
1926	 4.00091501168304E-02 
1927	 3.99625709528695E-02 
1928	 3.99248888058572E-02 
1929	 3.98653761784878E-02 
1930	 3.98770871345739E-02 
1931	 3.98618508330614E-02 
1932	 3.98600084735674E-02 
1933	 0.039876161259815 
1934	 3.98455104542547E-02 
1935	 3.97928736102185E-02 
1936	 3.97477080267293E-02 
1937	 3.97470681301357E-02 
1938	 3.97880377382264E-02 
1939	 3.97967628684348E-02 
1940	 3.98267011457766E-02 
1941	 3.98428518971409E-02 
1942	 3.98083349421335E-02 
1943	 3.98098543725133E-02 
1944	 3.98445387367999E-02 
1945	 3.99625236764104E-02 
1946	 4.00289446835751E-02 
1947	 4.00102813794101E-02 
1948	 0.039989490805994 
1949	 3.98906959478466E-02 
1950	 3.98851794236585E-02 
1951	 0.039970225191538 
1952	 3.99982446780187E-02 
1953	 4.00275290990209E-02 
1954	 4.00972008075202E-02 
1955	 4.01022527503321E-02 
1956	 4.00178045636866E-02 
1957	 3.99552335400368E-02 
1958	 3.99417985390435E-02 
1959	 3.99588533363352E-02 
1960	 4.00420738693403E-02 
1961	 4.00750372651736E-02 
1962	 4.01308486478993E-02 
1963	 4.01663189187389E-02 
1964	 0.040132587218369 
1965	 4.01484253985485E-02 
1966	 4.02145729236582E-02 
1967	 4.02609526344467E-02 
1968	 4.02923306079039E-02 
1969	 4.03633248811788E-02 
1970	 4.03673928532153E-02 
1971	 4.03400531499738E-02 
1972	 4.03085297214629E-02 
1973	 4.02516009484517E-02 
1974	 4.02681690696264E-02 
1975	 4.03820328846629E-02 
1976	 4.04248568464281E-02 
1977	 4.04820356036369E-02 
1978	 4.05100794331948E-02 
1979	 4.04992239776579E-02 
1980	 4.04477285903106E-02 
1981	 4.04567677244321E-02 
1982	 4.05306925102157E-02 
1983	 0.040644372926901 
1984	 4.07170293907619E-02 
1985	 4.07623534585983E-02 
1986	 4.07623603450216E-02 
1987	 4.07662786566011E-02 
1988	 4.07185970099338E-02 
1989	 4.07295265671381E-02 
1990	 4.07763694448398E-02 
1991	 4.07994023458447E-02 
1992	 4.08426079947706E-02 
1993	 4.08398096717278E-02 
1994	 4.08169393457949E-02 
1995	 4.08066739794979E-02 
1996	 4.08200650522568E-02 
1997	 4.08615105200911E-02 
1998	 4.08955759927339E-02 
1999	 4.09489262784728E-02 
2000	 4.09939339713943E-02 
2001	 0.041048188798328 
2002	 4.10794431196685E-02 
2003	 4.10999420645583E-02 
2004	 4.11353514214078E-02 
2005	 4.11602652652771E-02 
2006	 4.11781683495961E-02 
2007	 4.12018854515575E-02 
2008	 4.12259738964386E-02 
2009	 4.12752402942757E-02 
2010	 0.041292389956944 
2011	 0.041280560728319 
2012	 0.041331644984466 
2013	 4.13974942112368E-02 
2014	 4.14844211586975E-02 
2015	 4.15465759845666E-02 
2016	 4.16580457693182E-02 
2017	 4.17087310842087E-02 
2018	 4.16848574018084E-02 
2019	 4.16958249585925E-02 
2020	 4.16948502393051E-02 
2021	 0.041733168275383 
2022	 0.04177090669439 
2023	 4.17707157273544E-02 
2024	 4.17736298834058E-02 
2025	 4.17787804130855E-02 
2026	 4.17760129501207E-02 
2027	 4.17565817860063E-02 
2028	 4.17526909666238E-02 
2029	 4.17420648573061E-02 
2030	 4.17513967563705E-02 
2031	 4.18055977114528E-02 
2032	 0.041825839747907 
2033	 4.18129313458285E-02 
2034	 0.041825918272937 
2035	 4.18419615365756E-02 
2036	 4.18456408666352E-02 
2037	 4.18775335793477E-02 
2038	 4.19229160696753E-02 
2039	 4.19288623371001E-02 
2040	 4.18871074506261E-02 
2041	 4.19137348528409E-02 
2042	 4.19628541414332E-02 
2043	 4.19911153964614E-02 
2044	 4.20432517552944E-02 
2045	 4.20890091164301E-02 
2046	 4.21299818501399E-02 
2047	 4.21514732343677E-02 
2048	 4.21796655456867E-02 
2049	 4.21960983914881E-02 
2050	 4.21684721955896E-02 
2051	 4.21225185120992E-02 
2052	 4.21969441953359E-02 
2053	 4.23068298024464E-02 
2054	 4.23533901371339E-02 
2055	 4.24461085685201E-02 
2056	 4.24372528293689E-02 
2057	 4.22985625739904E-02 
2058	 4.22764546902453E-02 
2059	 4.22829339106223E-02 
2060	 4.22599451272291E-02 
2061	 4.22422948773421E-02 
2062	 4.22533671821912E-02 
2063	 4.22517062855177E-02 
2064	 4.22709380173951E-02 
2065	 4.23705092474297E-02 
2066	 4.24111485096611E-02 
2067	 0.042448809998045 
2068	 4.24554251262829E-02 
2069	 4.24703053976131E-02 
2070	 4.24970176841324E-02 
2071	 4.25042245346437E-02 
2072	 4.24574656344125E-02 
2073	 4.24868786152096E-02 
2074	 4.25725507464862E-02 
2075	 4.25968091735127E-02 
2076	 4.26309382244284E-02 
2077	 4.26622807857402E-02 
2078	 0.042604906357492 
2079	 4.26307389164511E-02 
2080	 4.27759548993263E-02 
2081	 4.28381908226604E-02 
2082	 4.29104098238879E-02 
2083	 0.042929225105407 
2084	 4.28840582528862E-02 
2085	 4.28290339718377E-02 
2086	 4.27952510020916E-02 
2087	 4.27655846242968E-02 
2088	 0.042737618841758 
2089	 4.26916673180186E-02 
2090	 4.26961983304016E-02 
2091	 4.27184599022208E-02 
2092	 4.27485282790063E-02 
2093	 4.28354429466467E-02 
2094	 4.28947955936092E-02 
2095	 4.29500409207512E-02 
2096	 4.29917790746572E-02 
2097	 4.30465919672593E-02 
2098	 4.30630550478383E-02 
2099	 4.30310056000908E-02 
2100	 0.043027685113953 
2101	 4.29863051428817E-02 
2102	 4.28845853913578E-02 
2103	 4.28778550123356E-02 
2104	 4.29093443086441E-02 
2105	 4.29032137664907E-02 
2106	 4.29082572729019E-02 
2107	 4.29485325849818E-02 
2108	 4.29800724627925E-02 
2109	 4.30180815388664E-02 
2110	 0.043146665322258 
2111	 4.31922233874956E-02 
2112	 4.31600852936705E-02 
2113	 4.31626791476399E-02 
2114	 4.31738666847072E-02 
2115	 4.31585586180181E-02 
2116	 4.31256171183325E-02 
2117	 4.30965344216585E-02 
2118	 4.30727123569198E-02 
2119	 4.29984129493303E-02 
2120	 4.30277579868297E-02 
2121	 4.31337864465074E-02 
2122	 4.31795323552606E-02 
2123	 4.32998373533112E-02 
2124	 4.32999003473851E-02 
2125	 4.31712598621578E-02 
2126	 4.31408401129427E-02 
2127	 4.30508102316761E-02 
2128	 4.30658657221118E-02 
2129	 4.32762962118856E-02 
2130	 4.33184910433282E-02 
2131	 4.33106808545507E-02 
2132	 4.33042419811292E-02 
2133	 4.32011414609517E-02 
2134	 4.30961138170713E-02 
2135	 4.30978982605825E-02 
2136	 4.31054005989837E-02 
2137	 4.30731341074541E-02 
2138	 4.30199564628592E-02 
2139	 4.29961447546611E-02 
2140	 4.29470854421624E-02 
2141	 4.29510503829185E-02 
2142	 4.30204293530174E-02 
2143	 4.30429921533292E-02 
2144	 4.30936322078428E-02 
2145	 4.30785607749266E-02 
2146	 4.30098541312182E-02 
2147	 4.29563805406678E-02 
2148	 4.28321433658999E-02 
2149	 4.27763376086474E-02 
2150	 0.042782732027712 
2151	 0.042755235911373 
2152	 0.042715716742647 
2153	 4.27306108205653E-02 
2154	 4.27145205831881E-02 
2155	 4.26524729760873E-02 
2156	 4.26193067911322E-02 
2157	 0.042593693180465 
2158	 4.25771136945307E-02 
2159	 4.25914337248021E-02 
2160	 4.25331285036548E-02 
2161	 4.24360383049591E-02 
2162	 4.23829907119415E-02 
2163	 4.22704051693843E-02 
2164	 4.22377126608191E-02 
2165	 4.23182905210776E-02 
2166	 4.23103160062957E-02 
2167	 4.22843893098722E-02 
2168	 4.22475409402768E-02 
2169	 4.21688977673054E-02 
2170	 4.21049127520432E-02 
2171	 4.20504254721171E-02 
2172	 4.19801277828318E-02 
2173	 4.18578470858199E-02 
2174	 4.18005201553764E-02 
2175	 4.17990525171126E-02 
2176	 4.18008225872359E-02 
2177	 4.17847500377981E-02 
2178	 4.18132822269707E-02 
2179	 4.18084723426437E-02 
2180	 4.17723573800768E-02 
2181	 4.17210775739941E-02 
2182	 4.16640133506032E-02 
2183	 4.16165758067577E-02 
2184	 4.15073701942005E-02 
2185	 4.14847406174901E-02 
2186	 4.15696296005776E-02 
2187	 4.15571172107475E-02 
2188	 4.15373824771171E-02 
2189	 4.14871485827848E-02 
2190	 4.13678706701901E-02 
2191	 4.12695963607612E-02 
2192	 4.11255162012867E-02 
2193	 0.041058283502125 
2194	 4.10342853919009E-02 
2195	 0.041007805677212 
2196	 4.09915261702195E-02 
2197	 4.10634336949232E-02 
2198	 4.11681013773938E-02 
2199	 4.11684902320128E-02 
2200	 4.11933644392383E-02 
2201	 4.12635342356053E-02 
2202	 4.12378464533375E-02 
2203	 4.11207307310935E-02 
2204	 4.10894965198867E-02 
2205	 0.041066472626171 
2206	 4.10414156259851E-02 
2207	 4.10429615005587E-02 
2208	 4.10244660986429E-02 
2209	 4.09947748626394E-02 
2210	 4.09560931668802E-02 
2211	 4.08951291775247E-02 
2212	 4.08782684507378E-02 
2213	 4.08722632346604E-02 
2214	 4.08597859514969E-02 
2215	 4.08712424362655E-02 
2216	 4.08877809533733E-02 
2217	 4.09261464510939E-02 
2218	 4.09172862982966E-02 
2219	 4.08886262458482E-02 
2220	 4.08759957445921E-02 
2221	 4.08376474654847E-02 
2222	 0.040759301416629 
2223	 4.07830421194664E-02 
2224	 4.09090399761743E-02 
2225	 4.09189437423592E-02 
2226	 4.09282864304268E-02 
2227	 4.09761939611182E-02 
2228	 0.041030750118626 
2229	 4.10014668583876E-02 
2230	 4.09501514303728E-02 
2231	 4.09617326636707E-02 
2232	 4.09214635422408E-02 
2233	 4.08909779371003E-02 
2234	 4.09637853834424E-02 
2235	 4.09715012621905E-02 
2236	 4.08915165927042E-02 
2237	 4.08505210802785E-02 
2238	 4.08073196973926E-02 
2239	 0.040828636445684 
2240	 4.09162317703827E-02 
2241	 4.08920860507208E-02 
2242	 4.09082392860756E-02 
2243	 4.08576705254885E-02 
2244	 4.05690996237078E-02 
2245	 4.04966603401577E-02 
2246	 4.05301522436153E-02 
2247	 4.05666774603682E-02 
2248	 4.07798676978356E-02 
2249	 4.08690624382463E-02 
2250	 4.09045555793038E-02 
2251	 4.09404449087094E-02 
2252	 4.08169602807113E-02 
2253	 4.07319742541456E-02 
2254	 4.07268838936415E-02 
2255	 4.06386473971409E-02 
2256	 4.06654873463577E-02 
2257	 4.07210054493511E-02 
2258	 4.07358794595345E-02 
2259	 4.07361548289559E-02 
2260	 4.07370300224252E-02 
2261	 0.040711999847781 
2262	 4.07360951176205E-02 
2263	 4.07961480666683E-02 
2264	 4.07840653641956E-02 
2265	 4.07486425032906E-02 
2266	 4.07635184091687E-02 
2267	 4.07577310245945E-02 
2268	 4.07697813131012E-02 
2269	 4.08516310011518E-02 
2270	 4.08736954945399E-02 
2271	 4.08378447016753E-02 
2272	 0.040816319213093 
2273	 4.07844824338007E-02 
2274	 4.07955095926989E-02 
2275	 4.08021301823735E-02 
2276	 4.08504872643799E-02 
2277	 4.10188820684613E-02 
2278	 4.10710983148853E-02 
2279	 4.10492392766149E-02 
2280	 4.10464846489258E-02 
2281	 4.09377771874631E-02 
2282	 4.09226075691232E-02 
2283	 4.09580369055519E-02 
2284	 0.041100641559666 
2285	 4.11182716555593E-02 
2286	 4.11607272425171E-02 
2287	 4.11249077822599E-02 
2288	 4.10350727801114E-02 
2289	 4.10190882591307E-02 
2290	 4.09098018320031E-02 
2291	 4.07644933762074E-02 
2292	 4.07181851176372E-02 
2293	 4.07681215633305E-02 
2294	 4.08869402436014E-02 
2295	 0.041012259328964 
2296	 4.09849026633707E-02 
2297	 4.09724532863638E-02 
2298	 4.07990145642766E-02 
2299	 0.040836208161239 
2300	 4.10487231068315E-02 
2301	 4.10595148967022E-02 
2302	 4.09872973301045E-02 
2303	 4.10370316485849E-02 
2304	 4.10476511033325E-02 
2305	 4.10506161216918E-02 
2306	 4.11917832629822E-02 
2307	 4.12367926735734E-02 
2308	 4.11464622345385E-02 
2309	 4.11134394281535E-02 
2310	 4.11422103723391E-02 
2311	 4.11357388185579E-02 
2312	 4.10190829333611E-02 
2313	 4.10509781463657E-02 
2314	 4.12886436648033E-02 
2315	 4.12835478825059E-02 
2316	 0.04109770569047 
2317	 4.10991084818474E-02 
2318	 4.10466451187484E-02 
2319	 4.10537550643169E-02 
2320	 4.13628927095525E-02 
2321	 4.14622931056991E-02 
2322	 4.13806856124164E-02 
2323	 4.13785344078281E-02 
2324	 4.12839993148211E-02 
2325	 0.041294950656097 
2326	 4.14048097788344E-02 
2327	 4.14785085591442E-02 
2328	 4.16474663377508E-02 
2329	 4.17386193005688E-02 
2330	 4.17652504145936E-02 
2331	 4.17932229918762E-02 
2332	 4.19306434359125E-02 
2333	 4.18727606702892E-02 
2334	 4.17809503632356E-02 
2335	 4.16644460313607E-02 
2336	 4.13580773405337E-02 
2337	 0.041296055092244 
2338	 4.13556744778256E-02 
2339	 4.12978123534449E-02 
2340	 4.13552179882306E-02 
2341	 4.14155151636555E-02 
2342	 4.13744501222031E-02 
2343	 4.13796682212807E-02 
2344	 4.14519761277398E-02 
2345	 4.14446624115501E-02 
2346	 4.14399938601254E-02 
2347	 4.14710333715178E-02 
2348	 4.15208453068952E-02 
2349	 4.15061616810228E-02 
2350	 4.14868366967836E-02 
2351	 4.17699224049459E-02 
2352	 4.17495491899188E-02 
2353	 4.14635400973548E-02 
2354	 4.14136104566699E-02 
2355	 4.13242935233881E-02 
2356	 4.15636981060541E-02 
2357	 0.041926099833126 
2358	 4.20115231333677E-02 
2359	 4.19726391836966E-02 
2360	 4.18523853988866E-02 
2361	 4.19178816545286E-02 
2362	 4.19723612983208E-02 
2363	 4.19394576411943E-02 
2364	 4.19235052866869E-02 
2365	 0.041827608914606 
2366	 4.18611138149395E-02 
2367	 0.041999613185727 
2368	 4.18794737446285E-02 
2369	 4.16723323115566E-02 
2370	 4.14996902775065E-02 
2371	 4.14190863685032E-02 
2372	 4.17001941326572E-02 
2373	 4.16631977221647E-02 
2374	 4.15219344054679E-02 
2375	 4.18321241902487E-02 
2376	 4.20569206770203E-02 
2377	 0.042166211398712 
2378	 4.23024073304201E-02 
2379	 4.21828310064105E-02 
2380	 4.16030368917833E-02 
2381	 4.14794781996107E-02 
2382	 4.15520454552541E-02 
2383	 4.18989059471845E-02 
2384	 4.20113687087815E-02 
2385	 4.22330697094745E-02 
2386	 4.23511823327268E-02 
2387	 4.23565182944034E-02 
2388	 4.23189801609416E-02 
2389	 4.24446590079635E-02 
2390	 4.23837230103124E-02 
2391	 4.20347908935128E-02 
2392	 0.041856639646565 
2393	 4.15885668847602E-02 
2394	 4.15641342817116E-02 
2395	 4.18154123731339E-02 
2396	 4.15704960215699E-02 
2397	 4.12122353325227E-02 
2398	 4.09499817727927E-02 
2399	 4.02599076436483E-02 
2400	 4.01602015609581E-02 
2401	 4.05222277632134E-02 
2402	 0.04104522402211 
2403	 0.041361943367987 
2404	 4.14972838045742E-02 
2405	 4.18126545070024E-02 
2406	 4.14969238601272E-02 
2407	 4.11074007737914E-02 
2408	 4.13404171401696E-02 
2409	 4.13390748558579E-02 
2410	 4.14992331479506E-02 
2411	 4.17695867211733E-02 
2412	 4.17050897196629E-02 
2413	 0.041726132633447 
2414	 4.16115078288821E-02 
2415	 4.18304797704481E-02 
2416	 4.20181812818522E-02 
2417	 0.041471013314729 
2418	 4.12207386372948E-02 
2419	 4.09604449906633E-02 
2420	 4.06023179053304E-02 
2421	 4.10028881310482E-02 
2422	 4.11845358399894E-02 
2423	 0.041123463913353 
2424	 4.14331066730369E-02 
2425	 4.14603418373154E-02 
2426	 4.13434769298152E-02 
2427	 4.15191817277006E-02 
2428	 4.13946772837138E-02 
2429	 0.041129415754479 
2430	 4.13657912975782E-02 
2431	 4.12301578157355E-02 
2432	 4.07131897731152E-02 
2433	 4.07025301975325E-02 
2434	 4.07404663659047E-02 
2435	 0.040577043221333 
2436	 4.10688158878956E-02 
2437	 4.14160481280595E-02 
2438	 4.09333715510185E-02 
2439	 4.10265557990665E-02 
2440	 4.09254898030654E-02 
2441	 4.03353620855072E-02 
2442	 4.04903316324052E-02 
2443	 4.07164120357097E-02 
2444	 4.09463697368857E-02 
2445	 0.041508653693137 
2446	 4.15948505535604E-02 
2447	 4.14706888466114E-02 
2448	 4.18369459375117E-02 
2449	 4.15951697737184E-02 
2450	 4.11649129644027E-02 
2451	 4.12076548469938E-02 
2452	 4.06978639334979E-02 
2453	 4.03999539175374E-02 
2454	 4.09387862016577E-02 
2455	 4.12872913004492E-02 
2456	 0.04130582411102 
2457	 4.19943305350248E-02 
2458	 4.20350463423016E-02 
2459	 4.18412799899075E-02 
2460	 4.23023786058698E-02 
2461	 4.14729736813645E-02 
2462	 4.12078130905106E-02 
2463	 4.12027656026367E-02 
2464	 0.040324970764654 
2465	 4.06087304440927E-02 
2466	 4.06129597737614E-02 
2467	 0.039817320712753 
2468	 3.96641491101594E-02 
2469	 3.96938931255043E-02 
2470	 3.94364915892173E-02 
2471	 3.95210960337184E-02 
2472	 4.00130028295706E-02 
2473	 4.02294721863481E-02 
2474	 4.03928088054048E-02 
2475	 4.10108889664012E-02 
2476	 4.13132324726938E-02 
2477	 4.05990593770172E-02 
2478	 0.039651875365037 
2479	 3.93331558282248E-02 
2480	 3.90526956625972E-02 
2481	 3.92335801855542E-02 
2482	 4.11237609404836E-02 
2483	 4.09292879559136E-02 
2484	 4.04047199485181E-02 
2485	 3.98413342628452E-02 
2486	 3.90724621520248E-02 
2487	 3.90737583559162E-02 
2488	 3.95817105972406E-02 
2489	 4.05204561263253E-02 
2490	 0.040014067613397 
2491	 3.82500324312341E-02 
2492	 3.79853874179814E-02 
2493	 3.78474691781205E-02 
2494	 3.73298093854637E-02 
2495	 3.86115656622094E-02 
2496	 4.03544858779239E-02 
2497	 0.040047054177947 
2498	 4.00720569104594E-02 
2499	 4.18286914190318E-02 
2500	 4.23010286489375E-02 
