Wavelength	Tablay400116.asd
350	 0.165673871737782 
351	 7.61033941593759E-02 
352	-2.49746892731357E-02 
353	-4.37317632092014E-02 
354	 0.101220903920723 
355	 0.094326855034102 
356	 3.72832145410654E-02 
357	 5.28382475847347E-02 
358	 0.105327870505821 
359	 0.13255297678791 
360	 0.130442818557071 
361	 0.116843220152745 
362	 6.76456261595377E-02 
363	 6.36138909215895E-02 
364	 9.30789733178252E-02 
365	 1.72463674998729E-03 
366	 0.034356612983866 
367	 8.89184311055407E-02 
368	 6.06277790421126E-02 
369	 5.83468973307875E-02 
370	 6.72035107963704E-02 
371	 7.14516549527823E-02 
372	 5.90874130456377E-02 
373	 6.35387794530509E-02 
374	 3.24246154496773E-02 
375	-2.17050784375872E-02 
376	 9.90272052741886E-03 
377	 9.62676671097159E-03 
378	 1.75144459979007E-02 
379	 6.36198129104502E-02 
380	 9.34048017631765E-03 
381	 2.53647499693607E-02 
382	 7.84953297599362E-02 
383	 3.73565699018902E-02 
384	 4.24344348655608E-02 
385	 5.45733473549994E-02 
386	 4.20395749569471E-02 
387	 1.86376734395438E-02 
388	 3.56855654380141E-02 
389	 0.060711795605622 
390	 5.55755172112542E-02 
391	 5.10140499943748E-02 
392	 0.048535599734443 
393	 0.046804638513034 
394	 4.40712656453758E-02 
395	 5.62192753880087E-02 
396	 6.93671222954186E-02 
397	 7.10895897496363E-02 
398	 5.36243245559981E-02 
399	 5.13476294952188E-02 
400	 6.67795868284136E-02 
401	 8.61572804147237E-02 
402	 7.45233005219584E-02 
403	 5.43431209463051E-02 
404	 4.69215346858452E-02 
405	 6.61171181910344E-02 
406	 6.68280427866796E-02 
407	 5.50421137047169E-02 
408	 4.41042879786671E-02 
409	 4.76685569699633E-02 
410	 5.68452124038937E-02 
411	 5.90551237547989E-02 
412	 4.76270850127032E-02 
413	 5.22681916589198E-02 
414	 4.98081898271094E-02 
415	 4.17490111861435E-02 
416	 5.13022154074304E-02 
417	 4.71201316256194E-02 
418	 4.22058526553383E-02 
419	 4.71509644677793E-02 
420	 5.05053958518983E-02 
421	 5.03188903520806E-02 
422	 4.97310626885059E-02 
423	 5.26920872721608E-02 
424	 5.38076365974585E-02 
425	 0.0519115742327 
426	 4.95774424796911E-02 
427	 5.27428287579276E-02 
428	 5.00768816480277E-02 
429	 4.68052848376131E-02 
430	 4.82432044961151E-02 
431	 5.00273042892377E-02 
432	 4.97064624661856E-02 
433	 0.049645392417167 
434	 5.36417895525295E-02 
435	 5.36641033252756E-02 
436	 5.28946956428603E-02 
437	 5.30228932112845E-02 
438	 5.17426527766317E-02 
439	 4.75861652615468E-02 
440	 4.63242059441987E-02 
441	 5.17655047709041E-02 
442	 5.25276864020538E-02 
443	 4.97592875415036E-02 
444	 4.65218841929134E-02 
445	 4.66611435006719E-02 
446	 4.65862101487361E-02 
447	 4.71931296546976E-02 
448	 4.88118407162976E-02 
449	 4.91329987864994E-02 
450	 4.95865162573549E-02 
451	 4.93075290718162E-02 
452	 4.75446681158731E-02 
453	 0.049160509032799 
454	 4.90399301806264E-02 
455	 4.71567924789412E-02 
456	 4.93632640376502E-02 
457	 4.83033867930527E-02 
458	 4.73608566010156E-02 
459	 4.91842888756991E-02 
460	 4.74669017731684E-02 
461	 4.72490333581884E-02 
462	 4.78021213000842E-02 
463	 4.60002856457781E-02 
464	 4.66186334961023E-02 
465	 4.68135096160873E-02 
466	 4.56749039148535E-02 
467	 4.63655186332479E-02 
468	 4.65998499934146E-02 
469	 4.73100866188919E-02 
470	 4.88355744994624E-02 
471	 4.49915488387877E-02 
472	 4.54582918466343E-02 
473	 4.81304581923039E-02 
474	 4.28437401500355E-02 
475	 4.45431286779198E-02 
476	 4.73460680082768E-02 
477	 4.64596813932921E-02 
478	 4.64065193192073E-02 
479	 4.51244790143983E-02 
480	 4.42791925264233E-02 
481	 4.58789086580445E-02 
482	 4.56048709193321E-02 
483	 0.045526079345312 
484	 4.63493611210466E-02 
485	 4.68061946393853E-02 
486	 4.60019585391721E-02 
487	 4.54319551907057E-02 
488	 0.046137832280952 
489	 4.62168384202949E-02 
490	 4.58640361497714E-02 
491	 4.52960478783394E-02 
492	 4.47382363734349E-02 
493	 4.39351183183233E-02 
494	 4.41990181232325E-02 
495	 4.54739481102691E-02 
496	 4.53074114660768E-02 
497	 4.48946217863805E-02 
498	 4.45728723362432E-02 
499	 4.44545344590952E-02 
500	 0.044681552790444 
501	 4.51518944207156E-02 
502	 4.52767686192123E-02 
503	 4.42013367487426E-02 
504	 4.35658381968753E-02 
505	 4.32972489864009E-02 
506	 4.32407853239228E-02 
507	 4.39701693889629E-02 
508	 4.40379709926557E-02 
509	 4.39402889132532E-02 
510	 4.46901071837195E-02 
511	 4.46158323186378E-02 
512	 4.35681065681518E-02 
513	 4.25314867877948E-02 
514	 4.37134773340663E-02 
515	 0.043742093408693 
516	 4.32603895163549E-02 
517	 4.33890930875477E-02 
518	 4.31394980351598E-02 
519	 4.32582570577466E-02 
520	 4.34764651728381E-02 
521	 4.29789772304487E-02 
522	 0.043294358242345 
523	 4.34925056021621E-02 
524	 4.31415826388501E-02 
525	 4.34478937606375E-02 
526	 4.36536692172074E-02 
527	 4.33652293748143E-02 
528	 4.26190334811165E-02 
529	 4.31043604495638E-02 
530	 0.043157900313168 
531	 4.25385240403909E-02 
532	 4.26519135332698E-02 
533	 0.043249952511494 
534	 4.33218532073785E-02 
535	 4.25337777639123E-02 
536	 4.29713075169559E-02 
537	 4.30820235472237E-02 
538	 4.28438363545055E-02 
539	 4.29971192299952E-02 
540	 4.30845999071674E-02 
541	 4.28190756182531E-02 
542	 4.23056495078163E-02 
543	 4.22097655418037E-02 
544	 4.24077085852876E-02 
545	 0.042611684597728 
546	 4.25349514440422E-02 
547	 4.21606480020655E-02 
548	 4.19902028104288E-02 
549	 4.21154960757304E-02 
550	 4.22519793621926E-02 
551	 0.042378377717504 
552	 4.23336590095648E-02 
553	 4.20964248506973E-02 
554	 4.20204538426592E-02 
555	 4.19603301009537E-02 
556	 4.18632376385877E-02 
557	 4.17363073953027E-02 
558	 0.041748977373483 
559	 0.041648498826458 
560	 4.14719105302033E-02 
561	 4.17100808158258E-02 
562	 4.16084006597366E-02 
563	 4.14306835311778E-02 
564	 4.15352730230898E-02 
565	 4.15367037141338E-02 
566	 4.15992177574509E-02 
567	 4.14965058577505E-02 
568	 4.08517462938083E-02 
569	 4.13236979167125E-02 
570	 4.16668990325601E-02 
571	 0.04118365777644 
572	 4.12463896404913E-02 
573	 4.12951481944178E-02 
574	 4.12872172980931E-02 
575	 4.13238398570165E-02 
576	 4.13709925800043E-02 
577	 4.11149418943262E-02 
578	 4.07646365406561E-02 
579	 4.10962812552658E-02 
580	 4.11260448786041E-02 
581	 4.11052703731416E-02 
582	 4.12895291664094E-02 
583	 4.10128503117828E-02 
584	 0.040868470208627 
585	 4.10611321866821E-02 
586	 4.14623688319021E-02 
587	 4.12711326701537E-02 
588	 4.09991125451811E-02 
589	 0.040964214882866 
590	 4.09108360359521E-02 
591	 4.07693553495298E-02 
592	 4.08387485655555E-02 
593	 4.12837309504166E-02 
594	 4.11817057167897E-02 
595	 4.10954763861644E-02 
596	 4.10988338627462E-02 
597	 4.08402184366246E-02 
598	 0.040933130318166 
599	 4.09437768083505E-02 
600	 0.040656462134348 
601	 4.08645547980028E-02 
602	 4.07357948737106E-02 
603	 4.05285876559641E-02 
604	 4.07949157617946E-02 
605	 0.040646657367932 
606	 4.04661157219447E-02 
607	 4.05384466227495E-02 
608	 4.08960449178664E-02 
609	 4.08590273451087E-02 
610	 4.05845532817129E-02 
611	 4.04009190231915E-02 
612	 4.04073477820095E-02 
613	 4.05367400823204E-02 
614	 4.06245043566606E-02 
615	 4.04883485811923E-02 
616	 4.04029102091267E-02 
617	 4.04017782508467E-02 
618	 4.04363306396073E-02 
619	 4.03796164503824E-02 
620	 4.02231458670393E-02 
621	 4.01083668111928E-02 
622	 4.01741854145133E-02 
623	 4.02965407391148E-02 
624	 4.03345558635835E-02 
625	 4.03070220437061E-02 
626	 4.03686574491029E-02 
627	 4.03298865594039E-02 
628	 4.02115833126841E-02 
629	 4.01042187403001E-02 
630	 0.040187940764506 
631	 0.040157284266626 
632	 4.00740284759041E-02 
633	 4.01211283857264E-02 
634	 4.00756553024176E-02 
635	 4.00482407829421E-02 
636	 4.00585961083396E-02 
637	 3.99833118973637E-02 
638	 3.99729215187631E-02 
639	 4.00475446558944E-02 
640	 4.01351117079128E-02 
641	 3.99612360562028E-02 
642	 3.99447280553336E-02 
643	 4.00228005192915E-02 
644	 3.98757678543141E-02 
645	 3.97963468233274E-02 
646	 3.98120540798504E-02 
647	 3.98603757210897E-02 
648	 3.97824652849181E-02 
649	 3.98134069080791E-02 
650	 3.98358554097408E-02 
651	 3.97043222482282E-02 
652	 3.96294707003798E-02 
653	 0.039541717743948 
654	 3.95096164114834E-02 
655	 3.96796470034593E-02 
656	 3.95884900532552E-02 
657	 3.95727044011148E-02 
658	 3.97682278020356E-02 
659	 3.95903836008241E-02 
660	 3.96347803280173E-02 
661	 3.97288389164391E-02 
662	 3.95417683456377E-02 
663	 3.95074473405046E-02 
664	 3.95313217552539E-02 
665	 3.95642682606879E-02 
666	 3.96265955874764E-02 
667	 3.95291209312434E-02 
668	 3.94438550992562E-02 
669	 3.94869956183362E-02 
670	 3.94455810313774E-02 
671	 3.93876938150758E-02 
672	 3.93492001089142E-02 
673	 0.039338792876105 
674	 3.92455299000761E-02 
675	 3.92834004426928E-02 
676	 3.94402456939983E-02 
677	 0.039410821090295 
678	 3.92850907269829E-02 
679	 3.91925236193439E-02 
680	 0.039188365777026 
681	 3.90518632463775E-02 
682	 3.90243763218707E-02 
683	 3.91391763864507E-02 
684	 3.92877337782477E-02 
685	 3.92643120301249E-02 
686	 3.91820022434488E-02 
687	 0.039134166178674 
688	 3.91324141596647E-02 
689	 3.91700555448709E-02 
690	 0.039152605773732 
691	 3.90351575790842E-02 
692	 0.039017382087118 
693	 3.89597723586166E-02 
694	 3.89368677805602E-02 
695	 3.91080798849215E-02 
696	 3.90947992004263E-02 
697	 3.90248786331797E-02 
698	 3.89828720319871E-02 
699	 3.88770152975556E-02 
700	 3.90153026664867E-02 
701	 3.91277559500199E-02 
702	 3.89556391387303E-02 
703	 0.038941551970803 
704	 0.03889825332951 
705	 3.88254224257469E-02 
706	 3.88468721896245E-02 
707	 3.89036544407285E-02 
708	 0.038965517150571 
709	 3.89966514534213E-02 
710	 3.89472004070451E-02 
711	 3.88229958257493E-02 
712	 3.87923532176715E-02 
713	 3.89475251560552E-02 
714	 3.88913477543921E-02 
715	 3.89119438853244E-02 
716	 3.90062568061474E-02 
717	 3.89701192183977E-02 
718	 3.89178302344097E-02 
719	 3.89166311615522E-02 
720	 3.89383194290172E-02 
721	 3.87924265691967E-02 
722	 0.038927616985743 
723	 3.90513068333874E-02 
724	 3.88575781514955E-02 
725	 3.89278918457207E-02 
726	 3.89544234543709E-02 
727	 3.88805593351197E-02 
728	 3.88542136315807E-02 
729	 3.90895327458632E-02 
730	 3.91169334319365E-02 
731	 3.88440441630644E-02 
732	 3.89304375246931E-02 
733	 3.89946184176586E-02 
734	 3.89929486549782E-02 
735	 3.89703849070499E-02 
736	 3.89389984108073E-02 
737	 3.89534431655171E-02 
738	 3.89632300129654E-02 
739	 3.88750973758668E-02 
740	 3.88698494523361E-02 
741	 3.89893761247417E-02 
742	 3.91404001386589E-02 
743	 3.90640019014143E-02 
744	 3.90227458285349E-02 
745	 3.90399640702037E-02 
746	 3.90811123357819E-02 
747	 3.91601886996793E-02 
748	 3.91522774252987E-02 
749	 3.91025978201455E-02 
750	 3.91387429801508E-02 
751	 3.91841846303284E-02 
752	 3.92057237645153E-02 
753	 3.91947910565192E-02 
754	 3.91696282174323E-02 
755	 3.91947089468813E-02 
756	 3.92272001444756E-02 
757	 3.92090058534996E-02 
758	 3.90979442174397E-02 
759	 3.91216925841699E-02 
760	 3.92194673432317E-02 
761	 3.92176586309765E-02 
762	 3.92003295019566E-02 
763	 3.92267521132179E-02 
764	 3.92542431787985E-02 
765	 3.91508856464783E-02 
766	 3.92042649278154E-02 
767	 0.039279311263343 
768	 3.92618996090952E-02 
769	 3.92823847488074E-02 
770	 3.92546263178063E-02 
771	 3.92615657867757E-02 
772	 0.03938610703782 
773	 3.94231038386139E-02 
774	 3.93714854751108E-02 
775	 3.92928833859238E-02 
776	 3.92833018585647E-02 
777	 3.93014863480958E-02 
778	 3.93203204067895E-02 
779	 3.93242301000332E-02 
780	 3.93161030137829E-02 
781	 3.92610523084678E-02 
782	 3.92633431673394E-02 
783	 3.93792477208766E-02 
784	 3.93676871067556E-02 
785	 3.93220986921613E-02 
786	 0.039308445295614 
787	 3.93561276595919E-02 
788	 0.039362119519676 
789	 3.93683130407438E-02 
790	 0.039376094881055 
791	 3.93270624886866E-02 
792	 3.92768109205511E-02 
793	 3.93118319195717E-02 
794	 3.94324866960967E-02 
795	 3.94226536906139E-02 
796	 3.94343495908663E-02 
797	 0.039404839179363 
798	 3.92720980217038E-02 
799	 3.93534852901401E-02 
800	 3.94010824170889E-02 
801	 3.93864950195795E-02 
802	 3.94515092240897E-02 
803	 3.94587259078916E-02 
804	 3.94504430194196E-02 
805	 3.94461068732315E-02 
806	 0.039396804244027 
807	 3.93695560788041E-02 
808	 3.93755397680073E-02 
809	 3.94064902875775E-02 
810	 3.94565349236764E-02 
811	 0.039413275903689 
812	 3.93561551974422E-02 
813	 3.94153034646711E-02 
814	 3.94720307402575E-02 
815	 0.03946326784802 
816	 0.039408826825982 
817	 3.93956432253867E-02 
818	 3.94174959459282E-02 
819	 3.94532453594128E-02 
820	 3.94789935747127E-02 
821	 0.039473281500894 
822	 3.95062850142168E-02 
823	 3.95414809087763E-02 
824	 3.95448058553307E-02 
825	 3.95889346238425E-02 
826	 0.03957918766048 
827	 3.95598184410449E-02 
828	 3.96020603278215E-02 
829	 3.95172035454451E-02 
830	 3.95953222781867E-02 
831	 3.97574439703625E-02 
832	 3.96323867535694E-02 
833	 3.95988914986252E-02 
834	 3.96156912074239E-02 
835	 3.96344775378602E-02 
836	 0.039690134023601 
837	 3.97894728712876E-02 
838	 3.98094571655893E-02 
839	 3.97065200829158E-02 
840	 0.039741051796067 
841	 3.97641815822813E-02 
842	 3.97578864577717E-02 
843	 3.97560779492095E-02 
844	 3.97776219213887E-02 
845	 3.98110817856606E-02 
846	 3.98454475763986E-02 
847	 0.039863589077869 
848	 3.97743749709573E-02 
849	 3.97189980173712E-02 
850	 0.0397438695264 
851	 3.97503123549722E-02 
852	 3.99421561199329E-02 
853	 4.00203872036644E-02 
854	 3.98643091286228E-02 
855	 3.99351463790682E-02 
856	 4.00508173749953E-02 
857	 4.00628290070492E-02 
858	 3.99348866949911E-02 
859	 0.040005653733203 
860	 4.00245665716834E-02 
861	 4.00018977437944E-02 
862	 0.040042052517607 
863	 3.99079539978369E-02 
864	 3.99588024720301E-02 
865	 0.040155526441337 
866	 4.01292154149811E-02 
867	 4.01557868686262E-02 
868	 4.02064959138165E-02 
869	 0.04020090010712 
870	 4.00567351940455E-02 
871	 4.01389445444685E-02 
872	 4.02432618852448E-02 
873	 4.02084272116794E-02 
874	 4.02565743931307E-02 
875	 4.02738606587019E-02 
876	 4.02525055496573E-02 
877	 4.02132836734181E-02 
878	 0.040138204821753 
879	 4.02671859286505E-02 
880	 4.03814286535149E-02 
881	 4.01857149324321E-02 
882	 4.02498674730678E-02 
883	 4.04150718974244E-02 
884	 4.04762635510686E-02 
885	 4.03028194980773E-02 
886	 4.03796212715062E-02 
887	 4.05194240263991E-02 
888	 4.05534540915308E-02 
889	 4.04459998837343E-02 
890	 4.03604950901122E-02 
891	 4.03358779078714E-02 
892	 4.03804354163877E-02 
893	 4.04969842395939E-02 
894	 4.03933174953256E-02 
895	 4.03043523929489E-02 
896	 4.04266876999573E-02 
897	 4.05038575957843E-02 
898	 0.04052928904944 
899	 4.05656056735456E-02 
900	 4.06502152419661E-02 
901	 4.06077842543899E-02 
902	 4.05590972422917E-02 
903	 0.040492143798573 
904	 4.03817061557049E-02 
905	 4.05059014767044E-02 
906	 4.06460039525039E-02 
907	 4.06212027106724E-02 
908	 4.03925283441646E-02 
909	 0.04051942498944 
910	 4.06652831952828E-02 
911	 4.06675488208914E-02 
912	 4.06417472671023E-02 
913	 4.06528407347331E-02 
914	 4.07088987898861E-02 
915	 4.07635675374486E-02 
916	 4.07250217827897E-02 
917	 0.04072903727214 
918	 4.07523317307679E-02 
919	 4.07648445084541E-02 
920	 4.07850303202453E-02 
921	 4.09123775570953E-02 
922	 4.09581091039253E-02 
923	 4.08438908361825E-02 
924	 4.09576678110003E-02 
925	 4.09957962834181E-02 
926	 4.10196886445928E-02 
927	 4.11107048225397E-02 
928	 4.10062284312857E-02 
929	 4.09762169792389E-02 
930	 4.09211722012351E-02 
931	 4.07423008337323E-02 
932	 4.10579956076125E-02 
933	 4.11863872781227E-02 
934	 0.04113012234151 
935	 4.12040370156686E-02 
936	 4.10691839925981E-02 
937	 4.10140749340717E-02 
938	 4.10543368335632E-02 
939	 4.10183459758051E-02 
940	 4.10012790584742E-02 
941	 4.10732952263556E-02 
942	 4.10899112508527E-02 
943	 4.08363561971595E-02 
944	 4.10907696798667E-02 
945	 4.11923178437773E-02 
946	 4.10536817659768E-02 
947	 4.12916791742112E-02 
948	 4.14519660714295E-02 
949	 0.041485341319555 
950	 0.041464570078513 
951	 4.15182629248226E-02 
952	 4.13871427356287E-02 
953	 4.12280233302299E-02 
954	 4.12810677378901E-02 
955	 4.17414136829879E-02 
956	 4.17475860352115E-02 
957	 0.041461255890591 
958	 4.12923400854079E-02 
959	 4.16230092021382E-02 
960	 4.15452303059405E-02 
961	 4.13965258559354E-02 
962	 4.15080168529086E-02 
963	 4.15929237627553E-02 
964	 4.14857826159608E-02 
965	 4.14858838750009E-02 
966	 4.16764704257103E-02 
967	 4.13723620824602E-02 
968	 4.15401347065212E-02 
969	 4.18238454359859E-02 
970	 4.18295717612351E-02 
971	 4.20853244400437E-02 
972	 4.18435819522062E-02 
973	 4.15952186957487E-02 
974	 4.18478365888105E-02 
975	 4.21126714482244E-02 
976	 4.18168834339222E-02 
977	 4.14403896859341E-02 
978	 4.15299591793461E-02 
979	 4.16758176357064E-02 
980	 4.19327628022138E-02 
981	 4.19751830937787E-02 
982	 4.16719805943962E-02 
983	 4.18457074185868E-02 
984	 4.18824661539776E-02 
985	 4.20523754044212E-02 
986	 4.25454189242878E-02 
987	 4.22600622232538E-02 
988	 0.042232899563998 
989	 4.23520364417902E-02 
990	 4.22043287303896E-02 
991	 0.041854750905138 
992	 4.17298754669466E-02 
993	 4.17377692550959E-02 
994	 4.16810487495149E-02 
995	 4.17564714623745E-02 
996	 4.17144777243472E-02 
997	 4.18119850189951E-02 
998	 4.21696411929117E-02 
999	 4.18509156957618E-02 
1000	 4.17211232085664E-02 
1001	 4.38050926182739E-02 
1002	 4.37342718236157E-02 
1003	 4.38062475412012E-02 
1004	 4.38535484727104E-02 
1005	 4.37394819721723E-02 
1006	 4.36102990962892E-02 
1007	 4.35490262726518E-02 
1008	 4.35284467907274E-02 
1009	 4.33878591065034E-02 
1010	 4.33675573976744E-02 
1011	 4.35370949919725E-02 
1012	 4.35942539929982E-02 
1013	 4.34657349574333E-02 
1014	 4.35272124164551E-02 
1015	 4.37862792036377E-02 
1016	 4.39306941115444E-02 
1017	 4.39542649566902E-02 
1018	 4.42502190937235E-02 
1019	 4.41627319674606E-02 
1020	 4.39931588532142E-02 
1021	 4.40702762831336E-02 
1022	 4.42837093962636E-02 
1023	 4.42527617874971E-02 
1024	 4.43128612995691E-02 
1025	 4.43441540547655E-02 
1026	 4.41487662552013E-02 
1027	 4.41160426127193E-02 
1028	 4.42087504900553E-02 
1029	 4.42157399046381E-02 
1030	 4.43712876403725E-02 
1031	 4.44095676284231E-02 
1032	 4.43600422409897E-02 
1033	 4.44901505484221E-02 
1034	 4.44007504612596E-02 
1035	 4.42435674409292E-02 
1036	 4.42048873464926E-02 
1037	 4.41797812152619E-02 
1038	 4.42218230705205E-02 
1039	 4.44390181042857E-02 
1040	 4.44319817415593E-02 
1041	 4.43844263208969E-02 
1042	 4.43307576759389E-02 
1043	 4.41196770277366E-02 
1044	 4.39297232224747E-02 
1045	 0.044000453408135 
1046	 4.40755299272267E-02 
1047	 4.41617795744641E-02 
1048	 0.044245455279573 
1049	 4.41731225856092E-02 
1050	 4.40652906764941E-02 
1051	 4.40055019777308E-02 
1052	 4.39739650404446E-02 
1053	 4.39898303555277E-02 
1054	 4.41887921637278E-02 
1055	 4.42202246393972E-02 
1056	 4.41353109803882E-02 
1057	 4.41308440847839E-02 
1058	 4.41777111483373E-02 
1059	 4.40571628078612E-02 
1060	 4.39672457581102E-02 
1061	 4.40095133679996E-02 
1062	 4.40418968743223E-02 
1063	 4.41143636053649E-02 
1064	 0.044126972192169 
1065	 4.42268456416459E-02 
1066	 4.42628314352733E-02 
1067	 4.42222528969268E-02 
1068	 4.44004251914442E-02 
1069	 4.45129920287225E-02 
1070	 4.44950366392956E-02 
1071	 4.43674755535259E-02 
1072	 4.43097582543518E-02 
1073	 4.43345211231226E-02 
1074	 4.43811758451031E-02 
1075	 4.44684305227361E-02 
1076	 4.45807354250543E-02 
1077	 4.45860115298067E-02 
1078	 0.044514397733958 
1079	 4.44689559623071E-02 
1080	 4.45395584527401E-02 
1081	 4.46058724014822E-02 
1082	 4.45630203087493E-02 
1083	 4.47088592706317E-02 
1084	 4.48564863103468E-02 
1085	 4.47494675322127E-02 
1086	 4.47144636925643E-02 
1087	 4.46767475949605E-02 
1088	 4.46756100529926E-02 
1089	 4.46876648310199E-02 
1090	 4.47519734166231E-02 
1091	 4.48887112031252E-02 
1092	 4.49930866706172E-02 
1093	 4.48809752427594E-02 
1094	 4.48677581016874E-02 
1095	 4.49666048878074E-02 
1096	 4.49136570125484E-02 
1097	 0.044918847090542 
1098	 4.50094023393612E-02 
1099	 4.50367330167606E-02 
1100	 4.50206967979048E-02 
1101	 4.51596100446702E-02 
1102	 4.53746916157828E-02 
1103	 4.54292258505452E-02 
1104	 4.54226895343637E-02 
1105	 0.045408350216269 
1106	 4.53081241667397E-02 
1107	 4.51300484419375E-02 
1108	 4.50271994909208E-02 
1109	 4.50347028200103E-02 
1110	 4.51166920322388E-02 
1111	 4.50698165463899E-02 
1112	 4.50169955368403E-02 
1113	 4.50091859907393E-02 
1114	 4.49149593333456E-02 
1115	 4.49809243207307E-02 
1116	 4.51299634443712E-02 
1117	 4.51838807476079E-02 
1118	 4.51966484378619E-02 
1119	 4.51215252844832E-02 
1120	 4.50918482230807E-02 
1121	 4.50461367991174E-02 
1122	 4.50117027814787E-02 
1123	 4.49701749936751E-02 
1124	 4.49391384689654E-02 
1125	 4.48725606405356E-02 
1126	 4.48550281275487E-02 
1127	 4.48896726266079E-02 
1128	 0.044947504282745 
1129	 4.49407836952666E-02 
1130	 4.49181764919706E-02 
1131	 0.044939587325236 
1132	 4.49453530762301E-02 
1133	 4.49561762421826E-02 
1134	 0.044954856206961 
1135	 0.044970115986487 
1136	 0.044994784308255 
1137	 4.49799596605141E-02 
1138	 4.49540437707171E-02 
1139	 4.49411342841906E-02 
1140	 4.48939244294385E-02 
1141	 4.48448151857949E-02 
1142	 4.49085447367735E-02 
1143	 4.49936867080733E-02 
1144	 4.50305783708467E-02 
1145	 4.50635793722938E-02 
1146	 4.49918123076162E-02 
1147	 4.49382425129569E-02 
1148	 0.044963638956729 
1149	 4.49525855873854E-02 
1150	 4.49736865715425E-02 
1151	 4.49502492372767E-02 
1152	 0.044934344563367 
1153	 4.48985994665254E-02 
1154	 4.48805478303319E-02 
1155	 4.48750192674712E-02 
1156	 0.044850461254333 
1157	 4.48090057949382E-02 
1158	 4.47801365674183E-02 
1159	 4.47276661626176E-02 
1160	 4.47194819136137E-02 
1161	 4.47668989861202E-02 
1162	 4.47459840335577E-02 
1163	 4.47837052852855E-02 
1164	 4.48478055354256E-02 
1165	 4.48605555891899E-02 
1166	 4.49139944298469E-02 
1167	 4.49484233968795E-02 
1168	 4.49494172490729E-02 
1169	 4.49441668812022E-02 
1170	 4.49208079443131E-02 
1171	 4.49192918330964E-02 
1172	 4.49214942927916E-02 
1173	 0.044902999067034 
1174	 4.48862329642263E-02 
1175	 0.04487935568438 
1176	 4.48175527250907E-02 
1177	 4.48304357281514E-02 
1178	 4.49273552451077E-02 
1179	 4.49886799380749E-02 
1180	 4.49693490614841E-02 
1181	 0.044953355810019 
1182	 4.49916731411338E-02 
1183	 4.49973117369277E-02 
1184	 4.50586687870904E-02 
1185	 4.51437397291437E-02 
1186	 4.51512004742964E-02 
1187	 4.50605319927561E-02 
1188	 0.045034533224452 
1189	 4.50112137671518E-02 
1190	 0.044999009976927 
1191	 0.044981840633961 
1192	 4.49990616396376E-02 
1193	 0.045029006524771 
1194	 4.50837560102745E-02 
1195	 4.52197671295279E-02 
1196	 4.52705948564164E-02 
1197	 4.53215536544901E-02 
1198	 0.045317951925506 
1199	 4.52005381294268E-02 
1200	 4.51467223347117E-02 
1201	 4.51691058225086E-02 
1202	 4.52209886056494E-02 
1203	 4.53029937251546E-02 
1204	 0.045329160929005 
1205	 4.53220490113444E-02 
1206	 4.52098649522158E-02 
1207	 4.52040822802013E-02 
1208	 4.52224556488421E-02 
1209	 4.52545208202158E-02 
1210	 4.53688431076026E-02 
1211	 4.54015074777432E-02 
1212	 4.54168296409443E-02 
1213	 4.53894412240662E-02 
1214	 4.52434981798451E-02 
1215	 4.52183755723575E-02 
1216	 4.52318465215221E-02 
1217	 4.52523522784307E-02 
1218	 4.53733032853751E-02 
1219	 4.54416741941288E-02 
1220	 4.54483138327215E-02 
1221	 4.54466891253324E-02 
1222	 4.54310296326802E-02 
1223	 4.54227825854777E-02 
1224	 0.045430797821303 
1225	 4.54594133423071E-02 
1226	 4.54534056465368E-02 
1227	 4.54205015121368E-02 
1228	 4.54459427159327E-02 
1229	 0.045487239639627 
1230	 4.55132596262834E-02 
1231	 0.045579663487744 
1232	 4.56259933117304E-02 
1233	 4.56682219052941E-02 
1234	 4.56685954889903E-02 
1235	 4.56367740555988E-02 
1236	 4.56318252925964E-02 
1237	 4.55828945570212E-02 
1238	 4.55576114997338E-02 
1239	 4.55507808107942E-02 
1240	 4.56104494912837E-02 
1241	 4.55832864166112E-02 
1242	 4.55361577053428E-02 
1243	 4.55717065021408E-02 
1244	 4.56544506228585E-02 
1245	 4.56730204443085E-02 
1246	 4.57287365793008E-02 
1247	 4.57370129993679E-02 
1248	 4.56503661254467E-02 
1249	 4.56507310706892E-02 
1250	 4.57180008358015E-02 
1251	 4.57228846004887E-02 
1252	 4.57154357406665E-02 
1253	 4.57077899546235E-02 
1254	 4.56285824874193E-02 
1255	 4.56415535317357E-02 
1256	 0.045739234093386 
1257	 4.57809709624328E-02 
1258	 4.58842177650878E-02 
1259	 4.59094174132094E-02 
1260	 4.57977531855357E-02 
1261	 4.57787272955961E-02 
1262	 4.58304375001989E-02 
1263	 4.57974108912202E-02 
1264	 4.57651222221446E-02 
1265	 4.57697548444032E-02 
1266	 4.57376894518372E-02 
1267	 4.55921721026784E-02 
1268	 0.045600688026974 
1269	 4.57330164408941E-02 
1270	 4.57499226564889E-02 
1271	 0.04579109040737 
1272	 4.57751300682169E-02 
1273	 4.56324383180789E-02 
1274	 4.55982712905868E-02 
1275	 0.045588188792157 
1276	 4.56090184643947E-02 
1277	 4.57153276954667E-02 
1278	 4.57604566991109E-02 
1279	 4.57901527125856E-02 
1280	 4.58315646108876E-02 
1281	 4.58478045188736E-02 
1282	 4.58740836451798E-02 
1283	 4.59518260694378E-02 
1284	 4.59765158514623E-02 
1285	 4.59757745882065E-02 
1286	 4.59363040523881E-02 
1287	 4.59378117964519E-02 
1288	 4.59156940750873E-02 
1289	 4.59303180405194E-02 
1290	 4.59889156260414E-02 
1291	 4.60216338372359E-02 
1292	 4.60482058701148E-02 
1293	 4.60812480135778E-02 
1294	 4.61058148617865E-02 
1295	 4.61566876693721E-02 
1296	 4.62517593871157E-02 
1297	 4.62822924798285E-02 
1298	 4.62846406413193E-02 
1299	 4.63111318096737E-02 
1300	 4.62640409782809E-02 
1301	 4.63094936811864E-02 
1302	 0.046499367289026 
1303	 4.65606771128605E-02 
1304	 4.65514855584919E-02 
1305	 4.66020212613001E-02 
1306	 4.66238912108445E-02 
1307	 4.66403306745837E-02 
1308	 0.046686740783026 
1309	 4.67861606300911E-02 
1310	 4.67934645910645E-02 
1311	 4.67192051243759E-02 
1312	 4.67110259133027E-02 
1313	 4.66845771951876E-02 
1314	 4.67311413495096E-02 
1315	 4.68487143086343E-02 
1316	 4.68904842455293E-02 
1317	 0.046958497124245 
1318	 4.69741558392011E-02 
1319	 4.69110546066921E-02 
1320	 4.68903090906839E-02 
1321	 4.68703873994481E-02 
1322	 4.68632309994411E-02 
1323	 4.68818536589724E-02 
1324	 4.68640338016768E-02 
1325	 4.68195640056327E-02 
1326	 0.046807801981609 
1327	 4.67700977719032E-02 
1328	 4.67712262635999E-02 
1329	 4.68495656775961E-02 
1330	 4.68786873724632E-02 
1331	 4.69023993616307E-02 
1332	 4.69067747669446E-02 
1333	 0.046898816972219 
1334	 4.68471187539494E-02 
1335	 4.68181526807002E-02 
1336	 4.67729117335064E-02 
1337	 4.67691854167816E-02 
1338	 4.67891121902521E-02 
1339	 4.67835201991793E-02 
1340	 4.67915471711267E-02 
1341	 4.67871693568735E-02 
1342	 4.67575490699708E-02 
1343	 4.67437381804996E-02 
1344	 4.67568219495718E-02 
1345	 0.046732509521301 
1346	 4.66620037592638E-02 
1347	 4.66510088377499E-02 
1348	 4.66707360845507E-02 
1349	 4.66521589074678E-02 
1350	 4.66448802798268E-02 
1351	 4.66389426018415E-02 
1352	 4.66031748437825E-02 
1353	 4.65736455287663E-02 
1354	 4.65513144731294E-02 
1355	 4.65484387675014E-02 
1356	 4.65688958663541E-02 
1357	 4.65482478998733E-02 
1358	 4.65194727205906E-02 
1359	 4.65046873217653E-02 
1360	 4.64702968927273E-02 
1361	 4.64139154387155E-02 
1362	 4.63941856086165E-02 
1363	 4.63800503962766E-02 
1364	 4.63966073273663E-02 
1365	 4.64293013954754E-02 
1366	 4.64262704037483E-02 
1367	 4.64483375534239E-02 
1368	 4.64386914748901E-02 
1369	 4.63712447732666E-02 
1370	 4.63458887751383E-02 
1371	 4.63489880121502E-02 
1372	 4.63337522192391E-02 
1373	 4.63260038993408E-02 
1374	 4.62857278055238E-02 
1375	 4.62052741131307E-02 
1376	 4.61708605278098E-02 
1377	 4.61397684147857E-02 
1378	 4.61079061423195E-02 
1379	 4.61125714793218E-02 
1380	 4.60962836792344E-02 
1381	 4.60580468364186E-02 
1382	 4.60208325991748E-02 
1383	 4.60051233009457E-02 
1384	 4.59584379760745E-02 
1385	 4.58352719077273E-02 
1386	 4.57954703720544E-02 
1387	 4.58026855830001E-02 
1388	 4.57897718328399E-02 
1389	 4.58509165737156E-02 
1390	 4.58552909920522E-02 
1391	 4.58062630643668E-02 
1392	 4.57471987455937E-02 
1393	 4.56660900657858E-02 
1394	 0.045611020069943 
1395	 4.55820655029111E-02 
1396	 4.55724095630024E-02 
1397	 4.55541224888722E-02 
1398	 4.55710721077882E-02 
1399	 4.55426440089637E-02 
1400	 4.54801877453067E-02 
1401	 4.54464159795707E-02 
1402	 4.54020811004846E-02 
1403	 4.53790990166085E-02 
1404	 4.53840409785498E-02 
1405	 0.045368509329865 
1406	 4.53440235837056E-02 
1407	 4.53424881490923E-02 
1408	 4.53531045959781E-02 
1409	 4.53459457920852E-02 
1410	 0.045349995413234 
1411	 4.53416233163911E-02 
1412	 0.045300971610725 
1413	 4.52866828493543E-02 
1414	 4.52858253455367E-02 
1415	 4.52857266161075E-02 
1416	 4.53047006306609E-02 
1417	 4.53056595904627E-02 
1418	 4.52975594301637E-02 
1419	 4.52914357398693E-02 
1420	 4.52658527470383E-02 
1421	 4.52576388889566E-02 
1422	 4.52542377331382E-02 
1423	 4.52672783026508E-02 
1424	 4.53101111576946E-02 
1425	 4.53357035202063E-02 
1426	 4.53503778024146E-02 
1427	 4.53766697317013E-02 
1428	 0.045368534209142 
1429	 0.045357597461329 
1430	 0.045353308281794 
1431	 4.53517759598774E-02 
1432	 4.53451652723903E-02 
1433	 4.53310569827394E-02 
1434	 4.53396472647737E-02 
1435	 4.53515620702065E-02 
1436	 4.53752554022088E-02 
1437	 4.54269265897793E-02 
1438	 4.54486594029296E-02 
1439	 4.54655328151866E-02 
1440	 4.54773491908771E-02 
1441	 4.54752175554373E-02 
1442	 4.54767760539069E-02 
1443	 4.54671080377568E-02 
1444	 4.54778633781135E-02 
1445	 4.55015089221732E-02 
1446	 4.55150848630549E-02 
1447	 4.55495603524893E-02 
1448	 4.55557584669238E-02 
1449	 4.55174011857102E-02 
1450	 4.55257572451744E-02 
1451	 4.55455655509899E-02 
1452	 4.55689437861007E-02 
1453	 4.56305400741817E-02 
1454	 4.56652654089742E-02 
1455	 4.56890209037274E-02 
1456	 4.57092165521175E-02 
1457	 4.57168092435174E-02 
1458	 4.57289003084972E-02 
1459	 4.57348837072717E-02 
1460	 4.57444100244466E-02 
1461	 4.57624693188503E-02 
1462	 4.57750551889879E-02 
1463	 4.57810271911838E-02 
1464	 4.57905865237929E-02 
1465	 4.58022357770235E-02 
1466	 4.58128451081393E-02 
1467	 4.58061320704216E-02 
1468	 0.045811328005387 
1469	 4.57968138234105E-02 
1470	 4.57987748595543E-02 
1471	 4.58155933569079E-02 
1472	 4.58523098501632E-02 
1473	 0.04587398756621 
1474	 4.58987950426656E-02 
1475	 4.59275318032557E-02 
1476	 4.59536161418502E-02 
1477	 4.59896806562172E-02 
1478	 4.60535557840236E-02 
1479	 4.60664847718874E-02 
1480	 4.60551073202119E-02 
1481	 4.60481355526613E-02 
1482	 4.60017288080597E-02 
1483	 4.60029419747047E-02 
1484	 4.60278735399095E-02 
1485	 4.60518108390089E-02 
1486	 4.61078333335313E-02 
1487	 4.61212679945893E-02 
1488	 4.61177339847212E-02 
1489	 4.61212679524646E-02 
1490	 4.60989900505491E-02 
1491	 4.60994944876065E-02 
1492	 4.61205056078812E-02 
1493	 4.61261556426876E-02 
1494	 4.61183042795098E-02 
1495	 4.61321370583645E-02 
1496	 4.61578851078987E-02 
1497	 4.61798047789227E-02 
1498	 4.62226332121003E-02 
1499	 4.62449202972586E-02 
1500	 4.62458871782018E-02 
1501	 4.62556716772956E-02 
1502	 4.62489865475222E-02 
1503	 4.62703353975365E-02 
1504	 4.63397120676856E-02 
1505	 4.63576388889669E-02 
1506	 4.63644825699935E-02 
1507	 4.63639199286941E-02 
1508	 4.62921529623001E-02 
1509	 4.62785030425749E-02 
1510	 4.63097897388705E-02 
1511	 4.63295748971682E-02 
1512	 4.63844342614964E-02 
1513	 4.64099818036227E-02 
1514	 4.64030484471334E-02 
1515	 4.64140428650675E-02 
1516	 4.64214056653072E-02 
1517	 4.64327481453902E-02 
1518	 4.64804220393218E-02 
1519	 0.046488904720721 
1520	 4.64529554076516E-02 
1521	 0.046435876925579 
1522	 0.046462291997621 
1523	 4.64631629212913E-02 
1524	 0.04647542327717 
1525	 4.65288746627583E-02 
1526	 4.65428050554106E-02 
1527	 4.65193471799114E-02 
1528	 4.65228834324019E-02 
1529	 4.65397873992162E-02 
1530	 4.65508415782179E-02 
1531	 4.65571788465201E-02 
1532	 4.65661985469573E-02 
1533	 4.65820923935346E-02 
1534	 4.65904091072072E-02 
1535	 4.65917551859502E-02 
1536	 4.65999568568773E-02 
1537	 4.66131743805928E-02 
1538	 4.66169488256789E-02 
1539	 4.66130427199548E-02 
1540	 4.66231575694239E-02 
1541	 4.66416800941919E-02 
1542	 4.66400405542619E-02 
1543	 0.046632031921621 
1544	 4.66397260744452E-02 
1545	 4.66335440644616E-02 
1546	 4.66464767783435E-02 
1547	 4.67021320806075E-02 
1548	 4.67080763080086E-02 
1549	 4.66582579011939E-02 
1550	 4.66933599735982E-02 
1551	 0.046764063533321 
1552	 4.68046632327091E-02 
1553	 4.68987226361517E-02 
1554	 4.69386056399162E-02 
1555	 4.69243170955228E-02 
1556	 4.69178506826511E-02 
1557	 4.69060097121693E-02 
1558	 4.68968967725849E-02 
1559	 4.68632598236613E-02 
1560	 4.68503938373288E-02 
1561	 4.68525615178052E-02 
1562	 4.68585888805574E-02 
1563	 0.046868336440764 
1564	 4.68813580317359E-02 
1565	 4.69204543943083E-02 
1566	 4.69258530066369E-02 
1567	 4.69153789357088E-02 
1568	 4.69021584485648E-02 
1569	 4.68507383746937E-02 
1570	 0.046843507522329 
1571	 4.68417492450408E-02 
1572	 4.68722678594374E-02 
1573	 4.69705741301322E-02 
1574	 0.047007491194229 
1575	 4.70398925497159E-02 
1576	 4.70556175462954E-02 
1577	 4.70221094633119E-02 
1578	 4.70114874526763E-02 
1579	 4.69957519856201E-02 
1580	 4.70058866721924E-02 
1581	 4.70560681337423E-02 
1582	 4.70541219852176E-02 
1583	 4.70150516998215E-02 
1584	 4.70275057266427E-02 
1585	 0.047050701793582 
1586	 4.70460234699422E-02 
1587	 4.70752349334783E-02 
1588	 4.70874895090719E-02 
1589	 4.70034401091813E-02 
1590	 4.70193625540574E-02 
1591	 4.71486796146742E-02 
1592	 4.71949487693508E-02 
1593	 4.72747429332148E-02 
1594	 4.72797829749957E-02 
1595	 4.71585179942808E-02 
1596	 4.71128554096064E-02 
1597	 4.70580955861111E-02 
1598	 4.70346019009065E-02 
1599	 4.70644697544692E-02 
1600	 4.70849499182944E-02 
1601	 4.71092979342061E-02 
1602	 4.71439670179949E-02 
1603	 4.72125937224932E-02 
1604	 4.72424215694816E-02 
1605	 0.047251101981414 
1606	 4.72681277759976E-02 
1607	 4.72630866078723E-02 
1608	 4.72652322227038E-02 
1609	 4.72771622043362E-02 
1610	 4.72944902844936E-02 
1611	 4.73087443158096E-02 
1612	 4.73258930717934E-02 
1613	 4.73693724996119E-02 
1614	 4.73808534714803E-02 
1615	 4.73606249895908E-02 
1616	 4.73659941846211E-02 
1617	 0.047394640302459 
1618	 4.73757446387544E-02 
1619	 4.73187669756069E-02 
1620	 4.73033860071262E-02 
1621	 4.72733704962339E-02 
1622	 4.72553963839894E-02 
1623	 4.72713679161267E-02 
1624	 4.72950657921127E-02 
1625	 4.73272621591745E-02 
1626	 4.73374388404962E-02 
1627	 4.73650294037063E-02 
1628	 4.73843076208259E-02 
1629	 0.047363987527033 
1630	 4.73646028075345E-02 
1631	 4.73949319010111E-02 
1632	 4.74044208848484E-02 
1633	 4.73905435136789E-02 
1634	 4.73919108796535E-02 
1635	 4.73874339084523E-02 
1636	 4.74019041952159E-02 
1637	 4.74462640999849E-02 
1638	 4.74774154594993E-02 
1639	 4.75229837928728E-02 
1640	 4.75449000490024E-02 
1641	 4.75569766288729E-02 
1642	 4.75445495890293E-02 
1643	 4.74817448865287E-02 
1644	 4.74642875023048E-02 
1645	 4.74388439259935E-02 
1646	 4.74417516293897E-02 
1647	 4.75324289822665E-02 
1648	 0.047544489370922 
1649	 4.75100971118297E-02 
1650	 4.74988838403142E-02 
1651	 4.74390877300749E-02 
1652	 4.74114989584138E-02 
1653	 4.74224729584313E-02 
1654	 4.74270260357562E-02 
1655	 4.74334343008703E-02 
1656	 4.74565408964462E-02 
1657	 4.74952368734156E-02 
1658	 4.75339621350265E-02 
1659	 4.76034634178369E-02 
1660	 4.76234070954841E-02 
1661	 4.76214472618704E-02 
1662	 4.76049525912605E-02 
1663	 0.047519537962468 
1664	 0.047507944801766 
1665	 4.75450655743201E-02 
1666	 4.75441700065586E-02 
1667	 4.75717909869208E-02 
1668	 0.047573200430064 
1669	 4.75012781514533E-02 
1670	 4.75052195896645E-02 
1671	 4.75862620741976E-02 
1672	 4.75873307540405E-02 
1673	 4.75623951700935E-02 
1674	 4.75602371631674E-02 
1675	 4.75174297750885E-02 
1676	 4.74971981332489E-02 
1677	 4.75272587961765E-02 
1678	 4.75318450008775E-02 
1679	 4.75108430659825E-02 
1680	 4.75049206989076E-02 
1681	 4.74918176568025E-02 
1682	 4.74935487497775E-02 
1683	 4.75222661484892E-02 
1684	 4.75187924470792E-02 
1685	 4.74974349845596E-02 
1686	 4.75247060914481E-02 
1687	 4.75785143184829E-02 
1688	 4.75723716011642E-02 
1689	 4.75722093670042E-02 
1690	 0.047551735145833 
1691	 4.74552389759429E-02 
1692	 4.74168671837542E-02 
1693	 4.74326869558159E-02 
1694	 4.74218699351432E-02 
1695	 4.73792896641096E-02 
1696	 4.73686285838833E-02 
1697	 4.73740148069844E-02 
1698	 4.73773979717167E-02 
1699	 4.74317258334045E-02 
1700	 4.74230225241685E-02 
1701	 0.047362789864622 
1702	 4.73275165113607E-02 
1703	 4.72654446099523E-02 
1704	 4.72348575665755E-02 
1705	 0.047243666625583 
1706	 4.72360843489443E-02 
1707	 4.71566308690537E-02 
1708	 4.71645558741836E-02 
1709	 4.72401910840877E-02 
1710	 4.71874351191294E-02 
1711	 4.71756757632744E-02 
1712	 4.71685574355352E-02 
1713	 4.70672669389706E-02 
1714	 4.70559192458832E-02 
1715	 0.04708499417306 
1716	 4.70584349505476E-02 
1717	 4.70182052631709E-02 
1718	 4.69466040882969E-02 
1719	 4.69588242520714E-02 
1720	 4.70306541259649E-02 
1721	 4.70135738349596E-02 
1722	 4.70421675856524E-02 
1723	 4.70429561366675E-02 
1724	 4.69939851137473E-02 
1725	 4.70439360416264E-02 
1726	 0.047107778886941 
1727	 4.71336066431107E-02 
1728	 4.71084592828646E-02 
1729	 4.71149687532794E-02 
1730	 4.71665032088431E-02 
1731	 4.71721203156617E-02 
1732	 0.047210065388874 
1733	 4.72447600816658E-02 
1734	 0.047189556795468 
1735	 4.71507486121143E-02 
1736	 4.71516222764319E-02 
1737	 4.71395450597173E-02 
1738	 4.71074721517382E-02 
1739	 4.70991342774918E-02 
1740	 4.70771801423276E-02 
1741	 4.70498608606169E-02 
1742	 4.70671858143829E-02 
1743	 4.70880215673583E-02 
1744	 4.71146019795529E-02 
1745	 4.71192366693828E-02 
1746	 4.70693965892178E-02 
1747	 4.70768433417433E-02 
1748	 4.71226549996883E-02 
1749	 4.71189356805921E-02 
1750	 0.04714022405957 
1751	 4.71450536371529E-02 
1752	 4.71002116868125E-02 
1753	 4.70654477842388E-02 
1754	 4.70322345229439E-02 
1755	 4.70290414022073E-02 
1756	 4.70316350845069E-02 
1757	 4.70059939761375E-02 
1758	 4.70001413595447E-02 
1759	 4.69890563480304E-02 
1760	 4.69842959722875E-02 
1761	 4.70671640854592E-02 
1762	 4.71819428462753E-02 
1763	 0.047208047009238 
1764	 4.71882389620704E-02 
1765	 4.71970777541372E-02 
1766	 4.72068389902268E-02 
1767	 4.72587207352336E-02 
1768	 4.73505033142247E-02 
1769	 4.73071575200481E-02 
1770	 4.73022211524343E-02 
1771	 0.047392659380702 
1772	 4.74072048857261E-02 
1773	 4.74766838162422E-02 
1774	 4.74831939911483E-02 
1775	 4.74232087961189E-02 
1776	 4.73899519617554E-02 
1777	 4.73892963601899E-02 
1778	 4.74710555713666E-02 
1779	 4.74321064430799E-02 
1780	 4.74513973244724E-02 
1781	 0.047568036919188 
1782	 4.75398833194932E-02 
1783	 4.76010732552377E-02 
1784	 4.76525294656796E-02 
1785	 4.75984619049143E-02 
1786	 4.76036577869152E-02 
1787	 4.75863320205117E-02 
1788	 4.75920351006147E-02 
1789	 4.75972827145644E-02 
1790	 4.76147207434607E-02 
1791	 4.76905192559871E-02 
1792	 4.77394062988568E-02 
1793	 4.78046165214592E-02 
1794	 4.78101337713617E-02 
1795	 4.77942877925971E-02 
1796	 4.78424559611907E-02 
1797	 4.78757219580505E-02 
1798	 4.78615550198281E-02 
1799	 0.047841918138224 
1800	 4.77839261663985E-02 
1801	 4.70351731909236E-02 
1802	 4.69666418354158E-02 
1803	 4.69419688078017E-02 
1804	 4.69664490429269E-02 
1805	 4.69020920115416E-02 
1806	 4.69070090009633E-02 
1807	 4.69435094539396E-02 
1808	 4.70050104862422E-02 
1809	 4.70987017432167E-02 
1810	 4.71704222738947E-02 
1811	 4.72976887385659E-02 
1812	 4.73513850677115E-02 
1813	 0.047337040657442 
1814	 0.047363911722646 
1815	 4.73733580526142E-02 
1816	 4.73490941973663E-02 
1817	 4.73116298265614E-02 
1818	 4.72153723569729E-02 
1819	 4.72135376250588E-02 
1820	 4.72133857191712E-02 
1821	 4.72402217090798E-02 
1822	 0.047330533257937 
1823	 4.74653534744463E-02 
1824	 4.74876799193754E-02 
1825	 4.75356760191708E-02 
1826	 4.75415455520364E-02 
1827	 4.74954009566341E-02 
1828	 4.74653063505462E-02 
1829	 4.73711097226871E-02 
1830	 4.73663295690113E-02 
1831	 0.047402477049948 
1832	 4.74711786093597E-02 
1833	 4.74554578621748E-02 
1834	 4.75150919310877E-02 
1835	 4.75906832923974E-02 
1836	 4.75858242987823E-02 
1837	 4.76030804062762E-02 
1838	 4.76750997025559E-02 
1839	 4.77125705772796E-02 
1840	 4.76838009582274E-02 
1841	 4.77011606325823E-02 
1842	 4.77652974852045E-02 
1843	 4.78108260975138E-02 
1844	 4.77865522540186E-02 
1845	 4.77667955155342E-02 
1846	 4.77664424717503E-02 
1847	 4.77553465282974E-02 
1848	 4.77549804149006E-02 
1849	 4.77769986556022E-02 
1850	 4.77919211851553E-02 
1851	 0.047784837669939 
1852	 4.78368826737828E-02 
1853	 4.78512299516797E-02 
1854	 4.78628988500331E-02 
1855	 4.79053408128308E-02 
1856	 4.78714283294693E-02 
1857	 4.78814689864143E-02 
1858	 4.79273520474384E-02 
1859	 0.047934894263235 
1860	 4.79140626960053E-02 
1861	 4.79192620956157E-02 
1862	 4.79215903785592E-02 
1863	 4.79224174038785E-02 
1864	 4.79300325880659E-02 
1865	 4.79612781585754E-02 
1866	 4.79431194658415E-02 
1867	 4.78812954459023E-02 
1868	 4.78652121844155E-02 
1869	 4.78369673545696E-02 
1870	 4.78347044655802E-02 
1871	 4.79156208803699E-02 
1872	 0.047911885946702 
1873	 4.78649995633015E-02 
1874	 4.78249570559263E-02 
1875	 4.78292932176226E-02 
1876	 4.77700098774757E-02 
1877	 4.77826666328603E-02 
1878	 4.78497298824693E-02 
1879	 4.78032749134642E-02 
1880	 4.77072564716056E-02 
1881	 4.76566894155198E-02 
1882	 4.76190196535576E-02 
1883	 4.75570761611109E-02 
1884	 4.74822392627584E-02 
1885	 4.74954511754889E-02 
1886	 4.74774485511699E-02 
1887	 4.73536946952865E-02 
1888	 4.73092681642823E-02 
1889	 4.72855251773315E-02 
1890	 4.71932519531656E-02 
1891	 4.71395707132937E-02 
1892	 4.71209263004781E-02 
1893	 4.70593971263323E-02 
1894	 0.046959704172336 
1895	 0.046850800096045 
1896	 4.67797430085279E-02 
1897	 4.66832198044935E-02 
1898	 4.65951239393823E-02 
1899	 4.66041595179572E-02 
1900	 4.66048003264221E-02 
1901	 4.65674838187836E-02 
1902	 4.65110831906075E-02 
1903	 4.64079399806123E-02 
1904	 0.046333688558021 
1905	 4.62611058866145E-02 
1906	 4.61888930600807E-02 
1907	 0.046100819892589 
1908	 4.60636281834298E-02 
1909	 4.60313648072303E-02 
1910	 4.59888733562877E-02 
1911	 4.59630280849054E-02 
1912	 4.59386293859966E-02 
1913	 4.59077812769709E-02 
1914	 4.58397972697112E-02 
1915	 0.045781653554348 
1916	 4.57287806593412E-02 
1917	 4.56832504195653E-02 
1918	 0.045634948085954 
1919	 4.56146636241248E-02 
1920	 4.55667798406314E-02 
1921	 4.55323033585575E-02 
1922	 4.54762703799425E-02 
1923	 4.54026203214919E-02 
1924	 4.54032279975662E-02 
1925	 4.53767142927148E-02 
1926	 4.53310997774962E-02 
1927	 4.52635403197316E-02 
1928	 4.52198820242554E-02 
1929	 4.51498476267786E-02 
1930	 4.51201109943398E-02 
1931	 4.51659360013671E-02 
1932	 4.52179052809231E-02 
1933	 4.52141469164918E-02 
1934	 4.52547666392473E-02 
1935	 4.52141060259477E-02 
1936	 4.51345578592261E-02 
1937	 4.51534630292183E-02 
1938	 4.52511459582342E-02 
1939	 4.52609763154885E-02 
1940	 4.52895625872326E-02 
1941	 4.53224566423894E-02 
1942	 4.51961618838995E-02 
1943	 4.51707928391353E-02 
1944	 0.045210309773706 
1945	 4.52213265100241E-02 
1946	 4.53444070682201E-02 
1947	 4.54586512811276E-02 
1948	 4.54734449095945E-02 
1949	 4.54957413996662E-02 
1950	 0.04549075897892 
1951	 4.53726096465396E-02 
1952	 4.53785055603224E-02 
1953	 0.04542428185454 
1954	 4.55001382489942E-02 
1955	 4.56439345036919E-02 
1956	 4.57319648662756E-02 
1957	 4.57043518643946E-02 
1958	 4.57142048163536E-02 
1959	 4.56904180072372E-02 
1960	 4.56399283911362E-02 
1961	 4.56781128858955E-02 
1962	 4.58171257599685E-02 
1963	 4.58660124339249E-02 
1964	 4.59083780199283E-02 
1965	 4.59752240828901E-02 
1966	 4.60242778988743E-02 
1967	 4.60606233704711E-02 
1968	 4.61256300720726E-02 
1969	 4.62326156573757E-02 
1970	 4.63007337736068E-02 
1971	 4.62868640895894E-02 
1972	 0.04628270068134 
1973	 4.62855925784565E-02 
1974	 4.62888099876607E-02 
1975	 4.62619253372901E-02 
1976	 4.62840626312737E-02 
1977	 4.63392105640893E-02 
1978	 4.63811550737142E-02 
1979	 4.64245440480459E-02 
1980	 4.65268530784214E-02 
1981	 4.65480055543225E-02 
1982	 4.65698659844789E-02 
1983	 4.66161463329313E-02 
1984	 4.66386670434414E-02 
1985	 4.67297008749923E-02 
1986	 4.68715103399892E-02 
1987	 4.69507229682079E-02 
1988	 4.70294023692909E-02 
1989	 4.70509057672561E-02 
1990	 4.69811654704197E-02 
1991	 4.69792693435246E-02 
1992	 4.69358757892414E-02 
1993	 4.70091140496359E-02 
1994	 4.71228622293787E-02 
1995	 4.71852038393553E-02 
1996	 4.72624776189597E-02 
1997	 0.047313649127773 
1998	 4.73884874598831E-02 
1999	 4.74776141074003E-02 
2000	 4.75679248749207E-02 
2001	 0.047681004213196 
2002	 4.77644565648536E-02 
2003	 0.047819556876571 
2004	 4.78709229868283E-02 
2005	 4.78834914546055E-02 
2006	 4.79496439812456E-02 
2007	 4.80387224717599E-02 
2008	 4.81648936564891E-02 
2009	 4.82500115940123E-02 
2010	 4.83280032899368E-02 
2011	 4.83502035713885E-02 
2012	 4.83237206945624E-02 
2013	 4.83358872381245E-02 
2014	 4.83573994448208E-02 
2015	 4.83893494940723E-02 
2016	 4.84302388705234E-02 
2017	 4.84755817208132E-02 
2018	 4.85372132320639E-02 
2019	 4.85717891510597E-02 
2020	 4.85734984138139E-02 
2021	 4.86202374228856E-02 
2022	 4.87078367405016E-02 
2023	 0.048819160127846 
2024	 4.89157631461288E-02 
2025	 4.89570246309958E-02 
2026	 4.89741750155392E-02 
2027	 4.88952631782864E-02 
2028	 4.88997050869499E-02 
2029	 0.048915676678122 
2030	 4.89541271276858E-02 
2031	 4.90309941198198E-02 
2032	 4.90729850407499E-02 
2033	 0.049117178348919 
2034	 4.91628774396981E-02 
2035	 4.91929324629208E-02 
2036	 4.92371867056187E-02 
2037	 4.92845584391738E-02 
2038	 4.93551952551547E-02 
2039	 4.93552734402233E-02 
2040	 4.92874254037198E-02 
2041	 4.93056186836064E-02 
2042	 4.93307825511669E-02 
2043	 4.93414812164746E-02 
2044	 4.94070719353746E-02 
2045	 4.94371185013913E-02 
2046	 4.93963751705832E-02 
2047	 4.94053584415249E-02 
2048	 4.94519983276609E-02 
2049	 4.94933156880946E-02 
2050	 0.049564971531272 
2051	 4.95950360301902E-02 
2052	 4.96045272257959E-02 
2053	 4.96420097103479E-02 
2054	 4.96540867679393E-02 
2055	 4.96196014501201E-02 
2056	 4.96462685381298E-02 
2057	 4.97134208327504E-02 
2058	 4.97470955918555E-02 
2059	 4.97912315286457E-02 
2060	 0.049829720658717 
2061	 4.98492791825143E-02 
2062	 4.98623798974106E-02 
2063	 4.98512726660682E-02 
2064	 4.98859046268621E-02 
2065	 4.99244448265307E-02 
2066	 4.99965829203842E-02 
2067	 5.00873901079278E-02 
2068	 5.01395222444823E-02 
2069	 5.01728682744477E-02 
2070	 5.01628484161431E-02 
2071	 5.01745171146903E-02 
2072	 0.050185585282359 
2073	 5.01942960065398E-02 
2074	 5.01952532608006E-02 
2075	 5.01898781868676E-02 
2076	 5.01911983438515E-02 
2077	 5.01718145464442E-02 
2078	 5.00894244120621E-02 
2079	 5.00989958028748E-02 
2080	 5.01419189978782E-02 
2081	 5.01905710914858E-02 
2082	 5.03174189651462E-02 
2083	 5.04463927768119E-02 
2084	 5.04829739967428E-02 
2085	 5.04452135842182E-02 
2086	 5.04566388752639E-02 
2087	 5.04632534582463E-02 
2088	 5.04227777839394E-02 
2089	 5.03359102873998E-02 
2090	 5.03498488871101E-02 
2091	 5.03477301138483E-02 
2092	 5.03770732217442E-02 
2093	 5.05435666874379E-02 
2094	 0.050619102216332 
2095	 5.06582659614668E-02 
2096	 5.06692030773341E-02 
2097	 5.06518840145345E-02 
2098	 5.06141589038988E-02 
2099	 5.05647765704259E-02 
2100	 5.05250165957825E-02 
2101	 5.05618099139081E-02 
2102	 0.050693013600406 
2103	 5.07204283974728E-02 
2104	 5.07379550427011E-02 
2105	 5.07766578902439E-02 
2106	 5.07782524546203E-02 
2107	 5.07887774069896E-02 
2108	 5.08496284461348E-02 
2109	 0.05087686468648 
2110	 5.08383444180785E-02 
2111	 5.08435605444593E-02 
2112	 5.09134969116939E-02 
2113	 5.09153906058231E-02 
2114	 5.08500634170624E-02 
2115	 5.08419397589108E-02 
2116	 0.050843274167982 
2117	 5.08259924441216E-02 
2118	 5.08365815580971E-02 
2119	 5.09137565458899E-02 
2120	 5.09214581284177E-02 
2121	 5.08718227891585E-02 
2122	 0.050897765805528 
2123	 5.09561256864359E-02 
2124	 5.09776543687681E-02 
2125	 5.10485927526881E-02 
2126	 5.10408214521678E-02 
2127	 5.09136140191907E-02 
2128	 5.08983495129076E-02 
2129	 0.050916834598403 
2130	 5.09307956620491E-02 
2131	 5.10364611379087E-02 
2132	 5.10658767692479E-02 
2133	 5.10428945778172E-02 
2134	 5.09995315704434E-02 
2135	 5.09913468185546E-02 
2136	 0.050982347683471 
2137	 5.09782029269665E-02 
2138	 5.10123499948567E-02 
2139	 5.10039846322912E-02 
2140	 0.050965781441812 
2141	 5.09403377507355E-02 
2142	 5.08961986490304E-02 
2143	 0.050881732650422 
2144	 5.08840922971661E-02 
2145	 5.08845915047938E-02 
2146	 5.09144917140623E-02 
2147	 5.09159844926804E-02 
2148	 0.050894073970103 
2149	 5.08817554015717E-02 
2150	 5.08842061832414E-02 
2151	 0.050853634938403 
2152	 5.08240878680777E-02 
2153	 5.07651880926704E-02 
2154	 5.06250186637271E-02 
2155	 5.05191623265134E-02 
2156	 5.04641117156514E-02 
2157	 5.04211921264013E-02 
2158	 5.04058049645798E-02 
2159	 5.04664959074265E-02 
2160	 5.04582314268177E-02 
2161	 5.04203175738472E-02 
2162	 5.03963986241439E-02 
2163	 5.03878601531839E-02 
2164	 5.03465404273832E-02 
2165	 5.02528080340822E-02 
2166	 5.02347440093837E-02 
2167	 5.02489647039693E-02 
2168	 5.02241575631818E-02 
2169	 5.02645153976539E-02 
2170	 5.02398062015859E-02 
2171	 5.01167104769331E-02 
2172	 5.00299995625082E-02 
2173	 4.99195331338171E-02 
2174	 0.049873821118026 
2175	 4.97753076071234E-02 
2176	 4.96701658068486E-02 
2177	 4.96445936903189E-02 
2178	 4.96484032657937E-02 
2179	 4.96517501208691E-02 
2180	 4.97695135853335E-02 
2181	 4.97277778562742E-02 
2182	 4.95519545326183E-02 
2183	 4.95065860102777E-02 
2184	 4.94695418159832E-02 
2185	 4.94193285674267E-02 
2186	 4.94278985271139E-02 
2187	 4.94201018391137E-02 
2188	 4.93489162743076E-02 
2189	 4.93279458999447E-02 
2190	 4.94048498924831E-02 
2191	 4.94086869473195E-02 
2192	 4.93493073535985E-02 
2193	 4.93273293605137E-02 
2194	 4.93323853842728E-02 
2195	 0.04929166958153 
2196	 4.92505135849935E-02 
2197	 4.91685040345793E-02 
2198	 4.91519825273034E-02 
2199	 4.90822785677483E-02 
2200	 4.90644922817752E-02 
2201	 4.91583517232132E-02 
2202	 0.049099542386435 
2203	 4.89163740960811E-02 
2204	 4.88767950695031E-02 
2205	 4.88516100788629E-02 
2206	 4.88048555772871E-02 
2207	 4.88242500357756E-02 
2208	 4.88411826544027E-02 
2209	 4.88315602857729E-02 
2210	 4.88069404340971E-02 
2211	 4.87862563999915E-02 
2212	 4.88147975158858E-02 
2213	 4.88477589136989E-02 
2214	 4.88447825920518E-02 
2215	 4.89247146377465E-02 
2216	 4.89221244876097E-02 
2217	 4.87420795902901E-02 
2218	 4.87050156154957E-02 
2219	 4.87766000824463E-02 
2220	 4.87920429880898E-02 
2221	 4.88651451956775E-02 
2222	 4.88548338892699E-02 
2223	 4.88676927609096E-02 
2224	 4.88972393171582E-02 
2225	 4.89401607342518E-02 
2226	 4.90460678332435E-02 
2227	 4.91224546383608E-02 
2228	 0.049200232569899 
2229	 4.91988769526321E-02 
2230	 4.92010448998318E-02 
2231	 4.91358536180745E-02 
2232	 4.89411284629596E-02 
2233	 4.88528269479735E-02 
2234	 4.87617751039993E-02 
2235	 4.87305660319409E-02 
2236	 4.87594909274207E-02 
2237	 4.87650332067206E-02 
2238	 4.88186520318222E-02 
2239	 4.88432792902566E-02 
2240	 4.88753810622787E-02 
2241	 0.048859664049569 
2242	 4.88109238439222E-02 
2243	 0.048752606073619 
2244	 4.86163547978596E-02 
2245	 4.85359683417952E-02 
2246	 4.84658287654994E-02 
2247	 4.84261391437857E-02 
2248	 0.048472607377824 
2249	 4.84670995667274E-02 
2250	 4.84321549485874E-02 
2251	 4.84400323824501E-02 
2252	 4.84589317182486E-02 
2253	 4.83181790353368E-02 
2254	 4.81942045554612E-02 
2255	 4.81214841934037E-02 
2256	 4.80133513070424E-02 
2257	 0.047997217208871 
2258	 4.79674310355563E-02 
2259	 4.79991668731117E-02 
2260	 4.79826953722034E-02 
2261	 4.79678108410502E-02 
2262	 4.78927421664954E-02 
2263	 4.77956336470421E-02 
2264	 4.76879434257853E-02 
2265	 4.74602056324644E-02 
2266	 4.73945421228174E-02 
2267	 4.74409279647175E-02 
2268	 0.047406409232775 
2269	 4.73877684401265E-02 
2270	 4.74238307314252E-02 
2271	 4.75026652503507E-02 
2272	 4.74700682348091E-02 
2273	 4.73870166210891E-02 
2274	 4.73845864070559E-02 
2275	 4.73221416838651E-02 
2276	 4.72784948524284E-02 
2277	 4.74633415120545E-02 
2278	 4.74306911089297E-02 
2279	 4.70826985909573E-02 
2280	 0.046981386250308 
2281	 4.69554708548341E-02 
2282	 4.69024191887876E-02 
2283	 4.69343072673083E-02 
2284	 4.70377922275987E-02 
2285	 4.70659132065474E-02 
2286	 4.70403461811313E-02 
2287	 4.70222132809644E-02 
2288	 4.70392548203608E-02 
2289	 4.69627141294642E-02 
2290	 4.67430591140681E-02 
2291	 4.65460700570112E-02 
2292	 4.64011663996838E-02 
2293	 4.63525491060968E-02 
2294	 4.64163265705665E-02 
2295	 4.65647950980716E-02 
2296	 4.67330991074728E-02 
2297	 4.67618886393686E-02 
2298	 4.67166453781542E-02 
2299	 4.65965816376216E-02 
2300	 4.62734854057433E-02 
2301	 4.62432051106697E-02 
2302	 4.63154445802032E-02 
2303	 4.63357939804282E-02 
2304	 4.64817842419181E-02 
2305	 4.65731217049424E-02 
2306	 4.65809967697678E-02 
2307	 4.66106459730332E-02 
2308	 4.67681059251354E-02 
2309	 4.67724301365426E-02 
2310	 4.65947305016693E-02 
2311	 0.046553539076081 
2312	 4.64734973035396E-02 
2313	 0.046518981897186 
2314	 0.046767917334529 
2315	 4.68469790976873E-02 
2316	 4.69102802362182E-02 
2317	 4.69878672398176E-02 
2318	 4.69332924965938E-02 
2319	 4.69301312920301E-02 
2320	 4.69045477215686E-02 
2321	 4.70320566013004E-02 
2322	 4.73389478997426E-02 
2323	 4.75124084749073E-02 
2324	 4.77773333737038E-02 
2325	 4.79540322221064E-02 
2326	 4.79613397569644E-02 
2327	 4.79664715950117E-02 
2328	 4.80208340989706E-02 
2329	 0.048010790746185 
2330	 0.047863091309524 
2331	 4.77522629530603E-02 
2332	 4.78668526624328E-02 
2333	 4.77719093639546E-02 
2334	 4.77174660811926E-02 
2335	 4.77141316467693E-02 
2336	 4.75345524677972E-02 
2337	 4.75219704201424E-02 
2338	 4.77156217088897E-02 
2339	 4.78556111373373E-02 
2340	 4.79091482822376E-02 
2341	 0.047898412635727 
2342	 4.76855503705349E-02 
2343	 4.75405713364592E-02 
2344	 4.76384633613189E-02 
2345	 4.76090898354482E-02 
2346	 4.77913566890763E-02 
2347	 4.79984633751187E-02 
2348	 4.77214518681612E-02 
2349	 4.77157893511034E-02 
2350	 4.77720663064117E-02 
2351	 4.76039413077218E-02 
2352	 4.77149199456026E-02 
2353	 0.047842565565272 
2354	 4.77635024588332E-02 
2355	 0.047758232722145 
2356	 4.77771419035724E-02 
2357	 4.77588000142722E-02 
2358	 0.047906314459037 
2359	 0.047925219522592 
2360	 4.79442186121207E-02 
2361	 4.81291315170427E-02 
2362	 4.80582688060447E-02 
2363	 4.80013998840907E-02 
2364	 4.80641003568859E-02 
2365	 4.81306216143476E-02 
2366	 4.81591169476768E-02 
2367	 4.79693566055556E-02 
2368	 4.78833279949812E-02 
2369	 4.79661436618555E-02 
2370	 0.048052842058795 
2371	 4.82048346264412E-02 
2372	 4.83242635973295E-02 
2373	 4.81961330895229E-02 
2374	 4.80460826146635E-02 
2375	 4.80441342539803E-02 
2376	 0.048190729494558 
2377	 4.81013702789167E-02 
2378	 4.79118190061248E-02 
2379	 4.81327473133674E-02 
2380	 4.81752417073629E-02 
2381	 4.81746034189823E-02 
2382	 4.80948111809264E-02 
2383	 4.78184775358291E-02 
2384	 4.78385974331354E-02 
2385	 4.79760215008882E-02 
2386	 4.80849771114211E-02 
2387	 4.84848435011208E-02 
2388	 4.85679845878476E-02 
2389	 4.83160517561081E-02 
2390	 0.048200262264555 
2391	 0.048085947271584 
2392	 4.81630403343277E-02 
2393	 4.84146514803806E-02 
2394	 4.83784776529017E-02 
2395	 4.83315202248848E-02 
2396	 4.82844430050465E-02 
2397	 4.79429938161357E-02 
2398	 4.78199914382102E-02 
2399	 4.78297443113749E-02 
2400	 4.79349930304792E-02 
2401	 4.81658285608475E-02 
2402	 4.87111122879145E-02 
2403	 4.89913332885678E-02 
2404	 4.87415654512591E-02 
2405	 4.84159010008669E-02 
2406	 4.80905905154604E-02 
2407	 4.79458477247127E-02 
2408	 4.82078733825247E-02 
2409	 0.048143375674055 
2410	 4.82381762062292E-02 
2411	 0.048466786347984 
2412	 4.83250847806867E-02 
2413	 4.85894234176904E-02 
2414	 4.89123070383146E-02 
2415	 4.87227543637797E-02 
2416	 4.86572525989162E-02 
2417	 4.88799482505415E-02 
2418	 4.88241983943595E-02 
2419	 4.85961236602213E-02 
2420	 4.86376617716316E-02 
2421	 4.85786952939035E-02 
2422	 0.048223009974896 
2423	 4.80134496218729E-02 
2424	 4.77296177865379E-02 
2425	 4.71562428698583E-02 
2426	 4.69769342207309E-02 
2427	 4.72609512566456E-02 
2428	 0.04755825129568 
2429	 4.81948753796134E-02 
2430	 4.86474540663223E-02 
2431	 4.84982657570581E-02 
2432	 0.048510945195981 
2433	 4.84164482049695E-02 
2434	 4.80153779003164E-02 
2435	 4.81875955820648E-02 
2436	 4.89026290972211E-02 
2437	 4.87505563632483E-02 
2438	 4.83294375644944E-02 
2439	 4.85830184768372E-02 
2440	 4.83561115531487E-02 
2441	 4.82839563707092E-02 
2442	 4.89491486190033E-02 
2443	 4.88526569931205E-02 
2444	 4.81615395124351E-02 
2445	 0.048027179394894 
2446	 4.81671899974255E-02 
2447	 4.83431093900735E-02 
2448	 4.85270436490841E-02 
2449	 4.84621746270296E-02 
2450	 0.048231481972513 
2451	 4.81158879021198E-02 
2452	 4.84156258268491E-02 
2453	 4.85591483708235E-02 
2454	 4.82164379227283E-02 
2455	 4.76600936730876E-02 
2456	 4.70404284616126E-02 
2457	 0.04641257951429 
2458	 4.65275625896433E-02 
2459	 4.74217729517205E-02 
2460	 4.77224743931162E-02 
2461	 4.82815101700966E-02 
2462	 4.89839925348938E-02 
2463	 4.89741652981707E-02 
2464	 0.048730883261179 
2465	 4.86210363652707E-02 
2466	 4.86541609012821E-02 
2467	 4.85026843483437E-02 
2468	 0.049177286024688 
2469	 4.97635789974389E-02 
2470	 4.97414153839516E-02 
2471	 4.96153283344117E-02 
2472	 0.048948320001144 
2473	 0.048920479211168 
2474	 4.87810905057593E-02 
2475	 0.04801331696579 
2476	 0.047699742521792 
2477	 4.71647496715233E-02 
2478	 4.62840028633257E-02 
2479	 4.65712753412107E-02 
2480	 4.75551730035054E-02 
2481	 0.047791634364078 
2482	 4.84175454854634E-02 
2483	 4.83904413812366E-02 
2484	 4.84840563567111E-02 
2485	 4.82714386808181E-02 
2486	 0.048685786481115 
2487	 4.90827124378375E-02 
2488	 4.88864168614919E-02 
2489	 4.91332555420916E-02 
2490	 4.89099113223938E-02 
2491	 4.84444892394186E-02 
2492	 4.87206230757801E-02 
2493	 4.84339232123989E-02 
2494	 4.86294058919911E-02 
2495	 4.91045475072486E-02 
2496	 4.80230307659359E-02 
2497	 4.78951848427346E-02 
2498	 4.88305147792505E-02 
2499	 4.86912105918348E-02 
2500	 4.89216433084395E-02 
