Wavelength	Tablay400123.asd
350	 0.203741000756043 
351	 0.113595702834529 
352	 0.034992577295494 
353	 5.78840940695373E-02 
354	 2.59243639644627E-02 
355	 7.99050519567317E-03 
356	 0.032809174167272 
357	 9.69098085545411E-02 
358	 9.45942760171602E-02 
359	 0.083104184643603 
360	 9.66040013554011E-02 
361	 0.129658334681541 
362	 2.49710111669914E-02 
363	-7.69070378695603E-03 
364	 9.80799510885183E-02 
365	 0.114713881629453 
366	 2.72588575940976E-02 
367	-1.61304740610593E-02 
368	 6.50226454707079E-02 
369	 7.03780204518044E-02 
370	 9.72773807227107E-02 
371	 0.122893682927656 
372	 6.45256614272329E-02 
373	 0.04425936800588 
374	 5.57515692473437E-02 
375	 7.13422445099324E-02 
376	 0.039707720585977 
377	 1.36371341154107E-03 
378	 3.28638755356027E-03 
379	 5.31702388747595E-02 
380	 6.01802905085427E-02 
381	 5.96867366048823E-02 
382	 6.72788918360659E-02 
383	 8.29408486686421E-02 
384	 8.38380068357745E-02 
385	 7.40838589752934E-02 
386	 6.58155545744542E-02 
387	 8.03505852474585E-02 
388	 8.00923292057147E-02 
389	 8.28488145584012E-02 
390	 0.100150331050663 
391	 6.51191457172672E-02 
392	 6.06397744905741E-02 
393	 0.07887503334273 
394	 5.88531660238989E-02 
395	 4.90768757055971E-02 
396	 6.23950328177849E-02 
397	 8.79150583312295E-02 
398	 8.52007285800491E-02 
399	 6.98278407150188E-02 
400	 6.23548403610166E-02 
401	 7.24823248192757E-02 
402	 7.07191017669122E-02 
403	 6.05655373091545E-02 
404	 5.55284314430003E-02 
405	 7.03981785467845E-02 
406	 6.80879273699837E-02 
407	 6.60305988195377E-02 
408	 7.11187325556709E-02 
409	 0.052973045476114 
410	 5.20241701384536E-02 
411	 6.43722003298643E-02 
412	 7.21086018359383E-02 
413	 6.28422972181281E-02 
414	 5.93811145620119E-02 
415	 6.64608941893041E-02 
416	 7.15135933630697E-02 
417	 6.46168341814551E-02 
418	 5.80468924698631E-02 
419	 6.02428997829372E-02 
420	 6.35297744853407E-02 
421	 6.15018937606675E-02 
422	 5.94640081399695E-02 
423	 0.064671132874258 
424	 6.40936401563929E-02 
425	 6.18806308657769E-02 
426	 6.12766166588585E-02 
427	 6.29333692193003E-02 
428	 6.36639569541507E-02 
429	 6.34538540766123E-02 
430	 6.27442122858754E-02 
431	 0.060688751754297 
432	 6.01128228136386E-02 
433	 5.94997493573971E-02 
434	 5.59704317536859E-02 
435	 5.59290690926025E-02 
436	 0.059004029441629 
437	 6.26052158243845E-02 
438	 6.25004207694257E-02 
439	 5.73046732247284E-02 
440	 5.35860388667499E-02 
441	 5.71242602973919E-02 
442	 6.23166928200706E-02 
443	 0.060323342633035 
444	 5.42051484658254E-02 
445	 5.52073735091711E-02 
446	 5.33950723059956E-02 
447	 5.31709025939819E-02 
448	 5.72852579607884E-02 
449	 6.13196283316558E-02 
450	 6.04183872080942E-02 
451	 5.76763660291442E-02 
452	 5.80146077885412E-02 
453	 5.62560830899841E-02 
454	 0.055029067196691 
455	 5.55425207085267E-02 
456	 5.69317701342195E-02 
457	 5.56880697267237E-02 
458	 5.44842297618571E-02 
459	 5.54682296336413E-02 
460	 5.51720201255239E-02 
461	 5.59076220394985E-02 
462	 0.056902092631649 
463	 5.61260967915187E-02 
464	 5.58253364107235E-02 
465	 5.47913587979754E-02 
466	 5.29990580071416E-02 
467	 5.26929101228937E-02 
468	 5.28819738409557E-02 
469	 5.35722591456844E-02 
470	 5.44625398049137E-02 
471	 5.28750170122833E-02 
472	 5.27123702817902E-02 
473	 5.34181997011963E-02 
474	 5.13965461211381E-02 
475	 5.29956653189892E-02 
476	 5.42229175056723E-02 
477	 0.052663141587456 
478	 5.25095382309978E-02 
479	 5.29718650654993E-02 
480	 0.05323796505367 
481	 5.26299750426983E-02 
482	 5.18324804350639E-02 
483	 5.25217647059142E-02 
484	 5.39647816074119E-02 
485	 5.28522663062836E-02 
486	 5.18789193098008E-02 
487	 5.18207623373278E-02 
488	 5.24874177326346E-02 
489	 5.22367390053233E-02 
490	 0.05173654938757 
491	 5.18026538081593E-02 
492	 5.29895928523779E-02 
493	 5.26348130074749E-02 
494	 5.30020115495838E-02 
495	 5.43161254979577E-02 
496	 5.25641845106437E-02 
497	 5.15587502560919E-02 
498	 5.17179176126319E-02 
499	 5.21896616934398E-02 
500	 0.051425856771982 
501	 5.12165989092262E-02 
502	 5.16524104484319E-02 
503	 5.13304802296232E-02 
504	 5.07292251397403E-02 
505	 5.11285687353356E-02 
506	 5.27098464857271E-02 
507	 5.28759715623048E-02 
508	 5.25640321422653E-02 
509	 5.21416613933519E-02 
510	 5.17501498494341E-02 
511	 5.13819223609111E-02 
512	 0.050936238515219 
513	 5.06966600427613E-02 
514	 5.14490951499886E-02 
515	 5.14271461807339E-02 
516	 0.050852833084134 
517	 5.04247225155696E-02 
518	 5.06232680057462E-02 
519	 5.03934640477997E-02 
520	 5.00004851326891E-02 
521	 0.050457108692425 
522	 5.01723335180262E-02 
523	 4.99541292075851E-02 
524	 5.03421533645008E-02 
525	 0.050791965219389 
526	 5.08432209999464E-02 
527	 5.06005288063426E-02 
528	 5.03666947280466E-02 
529	 5.01494740693246E-02 
530	 4.97347355902373E-02 
531	 4.94174949575167E-02 
532	 4.99960492321544E-02 
533	 5.08462260605289E-02 
534	 5.08276328192095E-02 
535	 4.97105099884201E-02 
536	 5.00686164489342E-02 
537	 0.05027009395679 
538	 5.00814362707616E-02 
539	 5.00119503715266E-02 
540	 4.98324615450379E-02 
541	 4.98167386590883E-02 
542	 4.99985615938682E-02 
543	 4.99660237496268E-02 
544	 4.98809522490805E-02 
545	 4.98175978237314E-02 
546	 4.97796707933071E-02 
547	 4.95241085638763E-02 
548	 4.94460714811009E-02 
549	 4.94599690896248E-02 
550	 0.049098950970275 
551	 4.94596749892054E-02 
552	 4.97161299582203E-02 
553	 4.93245574456019E-02 
554	 4.93287630932422E-02 
555	 4.92275991459437E-02 
556	 4.91510122368566E-02 
557	 4.94067148907367E-02 
558	 4.94340192318282E-02 
559	 4.91849175166713E-02 
560	 4.90016956545007E-02 
561	 4.97025209098593E-02 
562	 4.93346984666535E-02 
563	 4.89305073075124E-02 
564	 4.95928932529972E-02 
565	 0.04946262174225 
566	 4.94306625412386E-02 
567	 4.95934821050843E-02 
568	 4.94687318904805E-02 
569	 4.94549107266989E-02 
570	 4.95294902340693E-02 
571	 4.95314419267943E-02 
572	 4.90892546617972E-02 
573	 4.89461320932425E-02 
574	 4.90846812461186E-02 
575	 4.92018724718778E-02 
576	 4.92577028928282E-02 
577	 4.91862687360738E-02 
578	 4.90685101744088E-02 
579	 4.91375105629845E-02 
580	 4.92074820057146E-02 
581	 4.92916084754774E-02 
582	 0.049366879234818 
583	 4.91165509727035E-02 
584	 4.91444434691334E-02 
585	 0.049397292270058 
586	 0.049424212393324 
587	 4.90070262948983E-02 
588	 4.89722339506651E-02 
589	 4.94096835978869E-02 
590	 4.90050138779116E-02 
591	 4.90370090311649E-02 
592	 4.93438501694904E-02 
593	 4.94208115016133E-02 
594	 4.92930103702503E-02 
595	 4.91683110605766E-02 
596	 4.91901718564054E-02 
597	 4.94032232655777E-02 
598	 4.92837938411001E-02 
599	 0.049061881140095 
600	 4.90093651417186E-02 
601	 4.92025267518124E-02 
602	 0.04914441884733 
603	 4.90215318605743E-02 
604	 4.92187654868917E-02 
605	 4.92394790902504E-02 
606	 4.90737334950746E-02 
607	 4.89130196806839E-02 
608	 4.91352070518635E-02 
609	 4.92176983644229E-02 
610	 4.90930470108411E-02 
611	 4.88881079738348E-02 
612	 4.89411034928457E-02 
613	 4.90908268275632E-02 
614	 4.91857644963383E-02 
615	 4.91200069726282E-02 
616	 4.91798093541426E-02 
617	 4.91055277446065E-02 
618	 4.88487605521465E-02 
619	 4.88485757101072E-02 
620	 4.89887532977867E-02 
621	 4.90989744048499E-02 
622	 0.04905443099449 
623	 4.90993733604596E-02 
624	 4.90616822378508E-02 
625	 4.89798995138225E-02 
626	 0.049079765312315 
627	 4.90380065680003E-02 
628	 0.048938604539871 
629	 4.88916927474812E-02 
630	 4.88720077927846E-02 
631	 4.89147458659998E-02 
632	 0.04895782475021 
633	 4.89136739488198E-02 
634	 4.88222045910632E-02 
635	 4.89151323775227E-02 
636	 4.91074377623637E-02 
637	 4.89182945419123E-02 
638	 4.88385173823303E-02 
639	 4.88824578001772E-02 
640	 4.89405483080956E-02 
641	 4.89149289894947E-02 
642	 4.88169819363794E-02 
643	 0.048745379731767 
644	 4.88149277208591E-02 
645	 4.87573150732458E-02 
646	 4.87023511543439E-02 
647	 4.86982537822288E-02 
648	 4.85668425436211E-02 
649	 4.87286785231173E-02 
650	 4.88314316928743E-02 
651	 4.85365583511108E-02 
652	 4.86202502460112E-02 
653	 4.86250868240643E-02 
654	 4.85505968332837E-02 
655	 4.87482231381879E-02 
656	 4.87302598515097E-02 
657	 4.87042164205544E-02 
658	 0.048803119470157 
659	 4.87706236839661E-02 
660	 4.86785047088284E-02 
661	 0.048614959757098 
662	 4.86505957311094E-02 
663	 4.86834935908251E-02 
664	 4.87758307485375E-02 
665	 4.88803546269955E-02 
666	 4.88409792224615E-02 
667	 4.87299640879153E-02 
668	 4.87235588220742E-02 
669	 4.88392012316002E-02 
670	 4.86198221991427E-02 
671	 4.85313213365824E-02 
672	 4.85580594724472E-02 
673	 4.84912420136544E-02 
674	 4.84084219244291E-02 
675	 0.048487487356704 
676	 4.86962335370477E-02 
677	 4.87491752516134E-02 
678	 4.86389530169185E-02 
679	 4.84741694680462E-02 
680	 4.83823770603024E-02 
681	 4.84427589009273E-02 
682	 0.048544944850927 
683	 0.048609421576488 
684	 4.85924858779899E-02 
685	 0.04856162747812 
686	 4.85775190559435E-02 
687	 4.86092590059564E-02 
688	 4.85016143279954E-02 
689	 4.85220930831761E-02 
690	 4.85698797035252E-02 
691	 4.85230288698899E-02 
692	 4.85576346222399E-02 
693	 4.84506063269845E-02 
694	 4.83316256358836E-02 
695	 4.84933757564753E-02 
696	 4.85146252513027E-02 
697	 4.85700668709009E-02 
698	 4.86522602682753E-02 
699	 4.83450806528635E-02 
700	 4.84083141061917E-02 
701	 4.86390666905216E-02 
702	 4.86533377487429E-02 
703	 4.85037045285505E-02 
704	 4.84756776787223E-02 
705	 4.85145498878192E-02 
706	 4.83757151947468E-02 
707	 4.85088849461103E-02 
708	 4.86028232229011E-02 
709	 4.84986529300541E-02 
710	 4.84483985789464E-02 
711	 4.84363890853903E-02 
712	 4.84991299843532E-02 
713	 4.86270479283046E-02 
714	 4.86076043803123E-02 
715	 4.86106920990742E-02 
716	 4.86304314017754E-02 
717	 0.04854859615941 
718	 4.85315818513143E-02 
719	 4.85407729258584E-02 
720	 0.048516445434043 
721	 4.84007018585741E-02 
722	 4.85140564646117E-02 
723	 4.86333120494833E-02 
724	 4.85158168833765E-02 
725	 4.85297717274127E-02 
726	 4.86221100115855E-02 
727	 4.86942257512726E-02 
728	 4.86482311474273E-02 
729	 4.86924658145046E-02 
730	 4.87051251449662E-02 
731	 0.048646146940957 
732	 4.86799057337035E-02 
733	 4.86813361406144E-02 
734	 4.86638101128797E-02 
735	 4.86728945675944E-02 
736	 0.048729208956885 
737	 4.87242314400734E-02 
738	 0.048673067955062 
739	 4.86691551059749E-02 
740	 4.86877776364066E-02 
741	 4.87492038131937E-02 
742	 4.88137429745871E-02 
743	 4.87480846727319E-02 
744	 4.87706338134131E-02 
745	 0.048847697644765 
746	 4.88874488366183E-02 
747	 4.88452939730742E-02 
748	 4.88424073280571E-02 
749	 0.048875379605239 
750	 4.88779749987741E-02 
751	 4.89287577207265E-02 
752	 4.89455058477173E-02 
753	 4.88733812480666E-02 
754	 4.87165556285476E-02 
755	 4.88760120262607E-02 
756	 0.048990612162602 
757	 4.88057705048333E-02 
758	 4.89121141500452E-02 
759	 4.89134879887106E-02 
760	 0.048836380551048 
761	 4.88804338598813E-02 
762	 4.90067817062441E-02 
763	 4.90484571244388E-02 
764	 4.89570262930108E-02 
765	 4.88306373079357E-02 
766	 4.89280394668824E-02 
767	 4.90247584281663E-02 
768	 4.89704145922304E-02 
769	 4.90188322598192E-02 
770	 4.89811724098241E-02 
771	 4.89454085071248E-02 
772	 4.90372605176778E-02 
773	 4.90641605986719E-02 
774	 4.90669243686403E-02 
775	 4.90536526190624E-02 
776	 4.90070682354956E-02 
777	 4.90131690211794E-02 
778	 4.90666140624597E-02 
779	 4.91114760524568E-02 
780	 0.049031377156651 
781	 0.049045758414342 
782	 4.90887978891518E-02 
783	 4.90652016586777E-02 
784	 4.90841804414341E-02 
785	 4.91101643312859E-02 
786	 4.90854533903076E-02 
787	 4.89769612333222E-02 
788	 4.90097108796391E-02 
789	 4.90678289482939E-02 
790	 4.90739968656683E-02 
791	 4.90399567808506E-02 
792	 4.89949486404362E-02 
793	 4.90389894339781E-02 
794	 4.91649391868808E-02 
795	 0.049075147513664 
796	 4.90070005967389E-02 
797	 4.90416285358962E-02 
798	 4.91494891931617E-02 
799	 4.90718394177617E-02 
800	 4.90389732799158E-02 
801	 4.91118934142981E-02 
802	 4.91837553379389E-02 
803	 4.90187049364166E-02 
804	 4.89573916701879E-02 
805	 4.90894572688597E-02 
806	 0.049022564057575 
807	 4.90335675124222E-02 
808	 4.90323148124854E-02 
809	 4.89419823600098E-02 
810	 4.89946086165169E-02 
811	 4.90064931209191E-02 
812	 4.89668314957858E-02 
813	 4.89529366685232E-02 
814	 4.90623313497112E-02 
815	 4.91162033828181E-02 
816	 4.90735429528855E-02 
817	 4.90313554931273E-02 
818	 4.89890340470007E-02 
819	 4.90209202900964E-02 
820	 4.90903727453358E-02 
821	 4.89713100388374E-02 
822	 4.89857097030003E-02 
823	 4.90164585707429E-02 
824	 4.89578938846508E-02 
825	 4.91373890887333E-02 
826	 4.91627767649819E-02 
827	 4.90825802688779E-02 
828	 4.91104802031217E-02 
829	 4.90959685561388E-02 
830	 4.91584165617806E-02 
831	 4.92510587463665E-02 
832	 4.91929854038923E-02 
833	 4.91230782182679E-02 
834	 4.90141662319618E-02 
835	 0.048932328858505 
836	 4.91109870722999E-02 
837	 4.91386816423701E-02 
838	 4.90744237842803E-02 
839	 4.90639385038842E-02 
840	 4.91345763611769E-02 
841	 4.92654664871522E-02 
842	 4.93023602547426E-02 
843	 4.91330367101498E-02 
844	 4.90952794469637E-02 
845	 4.90890770925881E-02 
846	 4.91179809695648E-02 
847	 4.92458846285918E-02 
848	 4.92885862136875E-02 
849	 0.04922925662871 
850	 4.91498085178957E-02 
851	 4.92103190150652E-02 
852	 4.91981496427486E-02 
853	 4.91215434632429E-02 
854	 4.90684079406774E-02 
855	 4.92011700164157E-02 
856	 4.91910967850972E-02 
857	 4.91341352567933E-02 
858	 4.92000406659715E-02 
859	 4.93146918152409E-02 
860	 4.92716725657074E-02 
861	 4.92035485181635E-02 
862	 4.93282314248245E-02 
863	 4.92174522345512E-02 
864	 0.049215881261735 
865	 0.049350544991833 
866	 4.93427614341336E-02 
867	 4.91396792516856E-02 
868	 4.91906921284845E-02 
869	 4.94868251726991E-02 
870	 4.93417672942784E-02 
871	 4.94484983922077E-02 
872	 4.94716047620786E-02 
873	 4.92131853870688E-02 
874	 4.92557459849154E-02 
875	 4.93433808454352E-02 
876	 4.93542996775332E-02 
877	 4.92669878457648E-02 
878	 4.92667098726841E-02 
879	 4.93314233571617E-02 
880	 4.93503831576491E-02 
881	 4.92321128994121E-02 
882	 4.92129825680189E-02 
883	 4.92653914202665E-02 
884	 4.93647638312135E-02 
885	 4.94828515363759E-02 
886	 4.94619819394616E-02 
887	 4.94418340943441E-02 
888	 0.049438078828317 
889	 0.049307487266285 
890	 4.93777555864092E-02 
891	 0.04943477516776 
892	 0.04938255566315 
893	 4.94894344796453E-02 
894	 4.94320547949538E-02 
895	 4.93255015984934E-02 
896	 4.93317806013038E-02 
897	 0.049448378417883 
898	 0.049458127217125 
899	 4.94280931053527E-02 
900	 4.94773695922401E-02 
901	 0.04951496153805 
902	 4.94370721068692E-02 
903	 4.93636722924726E-02 
904	 4.94486048107963E-02 
905	 4.93875626880335E-02 
906	 4.93394612122371E-02 
907	 4.93083365850827E-02 
908	 4.92158193420425E-02 
909	 4.93878272003759E-02 
910	 4.94680481128055E-02 
911	 4.93715215767146E-02 
912	 4.93577131661994E-02 
913	 4.95932437047458E-02 
914	 4.96598328525562E-02 
915	 4.94672926197353E-02 
916	 4.94724869861499E-02 
917	 4.94732357191921E-02 
918	 4.95118737385141E-02 
919	 4.95809238440864E-02 
920	 4.95088969212181E-02 
921	 0.04949064109206 
922	 0.049493314329503 
923	 0.049500097031074 
924	 4.97159543612296E-02 
925	 4.95706073540405E-02 
926	 4.94570468687124E-02 
927	 4.97402699899984E-02 
928	 4.95825962565959E-02 
929	 4.94645261630109E-02 
930	 4.94488127101775E-02 
931	 4.94523153980708E-02 
932	 4.95948158836357E-02 
933	 4.96135256630011E-02 
934	 4.95990714432142E-02 
935	 4.97512781604987E-02 
936	 4.97250548562781E-02 
937	 4.95471005110039E-02 
938	 4.94561300718675E-02 
939	 4.97205807210466E-02 
940	 4.99696861166926E-02 
941	 4.99211764075433E-02 
942	 4.96813638737834E-02 
943	 4.96456674717403E-02 
944	 4.97347988427658E-02 
945	 4.98346559889762E-02 
946	 4.98916113078676E-02 
947	 4.99223951121132E-02 
948	 4.98067873690778E-02 
949	 4.99144675397924E-02 
950	 5.01602068177064E-02 
951	 0.049898136721924 
952	 5.00177113690411E-02 
953	 0.050060298263733 
954	 4.98247313598786E-02 
955	 4.98205110995532E-02 
956	 5.00040762115044E-02 
957	 5.01204409544929E-02 
958	 5.00412732779988E-02 
959	 4.99431948992616E-02 
960	 0.049848761032349 
961	 4.97268311137384E-02 
962	 4.95878746281982E-02 
963	 4.95464224874062E-02 
964	 0.049814566774034 
965	 5.00476760167908E-02 
966	 4.99208361521984E-02 
967	 4.94816981439502E-02 
968	 4.96101022000241E-02 
969	 4.98854351152746E-02 
970	 4.98521791190705E-02 
971	 5.00082500290314E-02 
972	 4.98803686818112E-02 
973	 4.96658580805832E-02 
974	 0.049645444352962 
975	 4.97362445250253E-02 
976	 0.049847887829216 
977	 4.97884587070238E-02 
978	 4.95814154808048E-02 
979	 4.99614646012296E-02 
980	 5.01320784925691E-02 
981	 4.99161163988769E-02 
982	 0.049603231825446 
983	 5.02369851188402E-02 
984	 5.00770103442987E-02 
985	 4.96249388084995E-02 
986	 4.98119433481001E-02 
987	 5.01701995060512E-02 
988	 5.00589583119975E-02 
989	 5.00050696899879E-02 
990	 5.04581907051799E-02 
991	 5.00427131456365E-02 
992	 4.99694611972101E-02 
993	 5.00993974413048E-02 
994	 5.00008928692433E-02 
995	 5.00668165343701E-02 
996	 4.98736023900597E-02 
997	 4.98089626473786E-02 
998	 5.01937311964075E-02 
999	 5.01388100765237E-02 
1000	 5.03535958399078E-02 
1001	 5.18169847182277E-02 
1002	 5.17994395493526E-02 
1003	 5.16758358818065E-02 
1004	 5.15895702207692E-02 
1005	 5.12892724238731E-02 
1006	 5.11884196824407E-02 
1007	 5.12214675830836E-02 
1008	 5.12144838727262E-02 
1009	 5.11621374232336E-02 
1010	 5.11981723017505E-02 
1011	 5.13939063672227E-02 
1012	 5.14476083256529E-02 
1013	 0.051524737614692 
1014	 5.14793078657125E-02 
1015	 5.12686741564298E-02 
1016	 5.10192278259214E-02 
1017	 5.10472377186428E-02 
1018	 5.11065685239006E-02 
1019	 5.12154512396804E-02 
1020	 5.14044165348253E-02 
1021	 5.15150660505357E-02 
1022	 5.15503810543026E-02 
1023	 5.16015011337586E-02 
1024	 5.17401297758904E-02 
1025	 5.17323268743067E-02 
1026	 0.05149355257644 
1027	 5.14362224025921E-02 
1028	 0.051446249788914 
1029	 0.051392042820499 
1030	 0.051476339278598 
1031	 5.15629582007438E-02 
1032	 5.14671915109952E-02 
1033	 5.14327739640668E-02 
1034	 5.13273352685356E-02 
1035	 5.13236144625024E-02 
1036	 0.051331342540833 
1037	 0.051402690194557 
1038	 5.14118960652067E-02 
1039	 0.051364570469572 
1040	 5.13652253420144E-02 
1041	 5.14013845380375E-02 
1042	 5.14647492686948E-02 
1043	 5.15499868405273E-02 
1044	 5.17311090916958E-02 
1045	 5.17974187082778E-02 
1046	 5.16014021330616E-02 
1047	 5.14176759495311E-02 
1048	 5.13095658170508E-02 
1049	 5.12032883392025E-02 
1050	 5.11642618184417E-02 
1051	 5.12753165408231E-02 
1052	 5.13253100388577E-02 
1053	 5.13629198090424E-02 
1054	 5.15411276867012E-02 
1055	 5.15476943603798E-02 
1056	 5.13301791686386E-02 
1057	 5.12994919612493E-02 
1058	 5.13572007714885E-02 
1059	 5.12180262855807E-02 
1060	 0.051110804040263 
1061	 0.051176058697134 
1062	 5.11229292928489E-02 
1063	 5.11109002001999E-02 
1064	 5.12965983743645E-02 
1065	 5.15114045503033E-02 
1066	 5.15944542707499E-02 
1067	 5.15375318826014E-02 
1068	 5.15435342739725E-02 
1069	 0.051534552130638 
1070	 5.14763833419491E-02 
1071	 5.13360402398578E-02 
1072	 5.13992124741625E-02 
1073	 5.14916691467046E-02 
1074	 5.14381236327943E-02 
1075	 5.15999164445763E-02 
1076	 5.19241534866566E-02 
1077	 5.19583777445383E-02 
1078	 5.19318707649685E-02 
1079	 5.19597001795818E-02 
1080	 5.17264903540904E-02 
1081	 5.15781245950147E-02 
1082	 0.051745123770143 
1083	 5.19147428395192E-02 
1084	 5.20123545015455E-02 
1085	 5.20687574228325E-02 
1086	 5.21445728018599E-02 
1087	 0.05216344913351 
1088	 5.21198021229992E-02 
1089	 5.21116231759557E-02 
1090	 5.21816324674136E-02 
1091	 5.22653483049155E-02 
1092	 5.23131222718427E-02 
1093	 5.23129394195707E-02 
1094	 5.23464313005422E-02 
1095	 5.23264176622317E-02 
1096	 5.22253270561543E-02 
1097	 5.21832387857806E-02 
1098	 5.22154545150199E-02 
1099	 5.21949578681793E-02 
1100	 5.21738502460585E-02 
1101	 0.052260338080203 
1102	 5.22990591722581E-02 
1103	 5.22672924864997E-02 
1104	 5.21953038478047E-02 
1105	 5.21280339153293E-02 
1106	 5.20171773007365E-02 
1107	 5.18606516245127E-02 
1108	 5.18926556981561E-02 
1109	 5.20302384816668E-02 
1110	 5.20615776219806E-02 
1111	 5.22029027160503E-02 
1112	 5.22420661376166E-02 
1113	 5.21082336806238E-02 
1114	 5.20522477264714E-02 
1115	 5.19256346979017E-02 
1116	 5.18591376418363E-02 
1117	 5.19216528189525E-02 
1118	 5.19515255834669E-02 
1119	 5.20772312367643E-02 
1120	 5.20861575087589E-02 
1121	 5.20575247840947E-02 
1122	 0.051928605734132 
1123	 0.051934638514238 
1124	 5.19076365687746E-02 
1125	 5.18828166098831E-02 
1126	 0.051966993521303 
1127	 5.19078604558584E-02 
1128	 5.18331668448332E-02 
1129	 5.17849973351287E-02 
1130	 5.17536727812826E-02 
1131	 5.18470882341508E-02 
1132	 5.18055086253876E-02 
1133	 0.051844906352161 
1134	 5.19853437845283E-02 
1135	 0.051981339164172 
1136	 5.18670426607015E-02 
1137	 5.18373094561121E-02 
1138	 5.17120484437376E-02 
1139	 5.16793688821488E-02 
1140	 5.17208039129896E-02 
1141	 5.17720586952402E-02 
1142	 5.18235173746162E-02 
1143	 5.19599226997336E-02 
1144	 5.19187999130396E-02 
1145	 5.18627822300817E-02 
1146	 5.19413693023996E-02 
1147	 5.18709665102464E-02 
1148	 5.16988424394804E-02 
1149	 5.16317825037727E-02 
1150	 5.16761004005269E-02 
1151	 5.16941450054669E-02 
1152	 5.16974643280101E-02 
1153	 5.18803344118508E-02 
1154	 5.19185218296264E-02 
1155	 5.17771454074885E-02 
1156	 5.17235413124788E-02 
1157	 5.17244182357614E-02 
1158	 5.16890441739455E-02 
1159	 5.16197226769256E-02 
1160	 5.15542759335099E-02 
1161	 5.14869275733029E-02 
1162	 5.14911553651912E-02 
1163	 5.15308585308533E-02 
1164	 5.15209465640999E-02 
1165	 0.051534302282619 
1166	 5.15708032338425E-02 
1167	 5.15785268395177E-02 
1168	 5.15798087625809E-02 
1169	 5.15561095241139E-02 
1170	 5.14922665316557E-02 
1171	 5.14927351672747E-02 
1172	 5.14923424514933E-02 
1173	 5.15071497689476E-02 
1174	 5.15835130649255E-02 
1175	 5.16208687937023E-02 
1176	 5.16422588120704E-02 
1177	 5.16661319415738E-02 
1178	 5.16943126615714E-02 
1179	 5.17212847929464E-02 
1180	 5.16921153370785E-02 
1181	 5.16794898854532E-02 
1182	 5.17145622498914E-02 
1183	 5.17479726207366E-02 
1184	 5.18027136610277E-02 
1185	 5.18529342496746E-02 
1186	 5.18437846490759E-02 
1187	 5.17374032149307E-02 
1188	 5.17285299190161E-02 
1189	 5.17470231893428E-02 
1190	 5.17391296508978E-02 
1191	 5.17585331835872E-02 
1192	 5.17722687860414E-02 
1193	 5.17594553733199E-02 
1194	 0.051761374905931 
1195	 5.17931669060107E-02 
1196	 5.18080822580402E-02 
1197	 5.18352416890993E-02 
1198	 5.17904674065005E-02 
1199	 5.17598646253463E-02 
1200	 5.18038532238762E-02 
1201	 5.18533732578681E-02 
1202	 5.18831398449989E-02 
1203	 5.19263354994553E-02 
1204	 5.19326777908188E-02 
1205	 5.19542350098769E-02 
1206	 5.19688928734339E-02 
1207	 5.19721582745061E-02 
1208	 5.19849474045237E-02 
1209	 5.19899751835081E-02 
1210	 5.19683893286162E-02 
1211	 5.19472585863948E-02 
1212	 5.18988340413133E-02 
1213	 5.19015592598777E-02 
1214	 5.19397251122731E-02 
1215	 5.19663722963984E-02 
1216	 5.20363704883972E-02 
1217	 5.20740568110588E-02 
1218	 5.21089889668979E-02 
1219	 5.20828210487901E-02 
1220	 5.20072753229768E-02 
1221	 5.19537288020307E-02 
1222	 5.19416150393067E-02 
1223	 5.19030530935244E-02 
1224	 5.19222075830169E-02 
1225	 5.20397520798999E-02 
1226	 5.20901163280987E-02 
1227	 5.21616695562951E-02 
1228	 5.21307755833451E-02 
1229	 5.20109595996406E-02 
1230	 5.19691509269222E-02 
1231	 5.18673218479562E-02 
1232	 5.18353859512546E-02 
1233	 5.18954635983393E-02 
1234	 5.19292026390113E-02 
1235	 0.051975498329242 
1236	 5.19997510887048E-02 
1237	 5.20386454309859E-02 
1238	 5.20584041203793E-02 
1239	 5.20283728728826E-02 
1240	 5.20139477493683E-02 
1241	 5.20889068633429E-02 
1242	 0.05212016926018 
1243	 5.21599924770154E-02 
1244	 5.22436820986597E-02 
1245	 5.22623577676137E-02 
1246	 5.22340044831133E-02 
1247	 5.22239998804676E-02 
1248	 0.052207881415075 
1249	 5.21856716533221E-02 
1250	 5.21278322805312E-02 
1251	 5.21203568598393E-02 
1252	 5.21216482569525E-02 
1253	 5.21444949943098E-02 
1254	 5.22628261014683E-02 
1255	 5.22779533263383E-02 
1256	 5.22296218900193E-02 
1257	 5.22142213763563E-02 
1258	 5.21586989680507E-02 
1259	 5.21101291544426E-02 
1260	 5.20723719018193E-02 
1261	 5.20619136503734E-02 
1262	 5.20409756483366E-02 
1263	 5.20612018700714E-02 
1264	 5.20302403135467E-02 
1265	 5.20156532020061E-02 
1266	 5.19875624364981E-02 
1267	 5.19012904789256E-02 
1268	 5.18667715437143E-02 
1269	 5.18959260416182E-02 
1270	 5.18590301150073E-02 
1271	 5.17488261816412E-02 
1272	 5.17424895227865E-02 
1273	 5.17860359860556E-02 
1274	 5.17905911657342E-02 
1275	 5.18521845534676E-02 
1276	 5.18702441150822E-02 
1277	 5.18025519235099E-02 
1278	 5.17943184465334E-02 
1279	 5.18338474006566E-02 
1280	 5.18511098292792E-02 
1281	 5.18409311447425E-02 
1282	 5.18819124561794E-02 
1283	 5.19878849753085E-02 
1284	 5.20271225760389E-02 
1285	 5.20523534363222E-02 
1286	 5.20861586953042E-02 
1287	 0.052130445422646 
1288	 5.21248247376476E-02 
1289	 5.21648180193215E-02 
1290	 5.22693488210487E-02 
1291	 5.23224189972357E-02 
1292	 5.23606092393626E-02 
1293	 5.23677730418665E-02 
1294	 5.23233238507689E-02 
1295	 5.23583278881732E-02 
1296	 5.24082728593919E-02 
1297	 5.24438655275531E-02 
1298	 5.25579877624413E-02 
1299	 5.25972383825475E-02 
1300	 0.052527102253488 
1301	 5.25458231412973E-02 
1302	 5.26191178553333E-02 
1303	 5.26504995594334E-02 
1304	 5.27120331552291E-02 
1305	 5.27403575682245E-02 
1306	 5.26690721717452E-02 
1307	 5.26817929520547E-02 
1308	 0.052746224541901 
1309	 5.28123629892476E-02 
1310	 5.28525051640575E-02 
1311	 5.29319662390032E-02 
1312	 0.052953686499519 
1313	 5.29170890472788E-02 
1314	 5.29099434288345E-02 
1315	 5.29010877546937E-02 
1316	 5.29028030887421E-02 
1317	 5.29048499061018E-02 
1318	 5.29042238559471E-02 
1319	 5.29019060685555E-02 
1320	 5.29223571149599E-02 
1321	 0.052954850235241 
1322	 5.29738675898738E-02 
1323	 5.30330683056918E-02 
1324	 5.30358872590732E-02 
1325	 0.052958921366454 
1326	 5.29522121828811E-02 
1327	 5.29780672105954E-02 
1328	 5.29728545412044E-02 
1329	 5.29889090388478E-02 
1330	 5.29980697838517E-02 
1331	 5.29655784982264E-02 
1332	 5.29488908656793E-02 
1333	 0.052947811600734 
1334	 5.29592078334542E-02 
1335	 5.29573078435906E-02 
1336	 5.29625849210853E-02 
1337	 5.29200816243303E-02 
1338	 5.28377084495009E-02 
1339	 5.28206711458167E-02 
1340	 5.27962055035291E-02 
1341	 5.27816577957548E-02 
1342	 5.28463324281802E-02 
1343	 5.28148995869429E-02 
1344	 5.27103560640945E-02 
1345	 5.26538694817618E-02 
1346	 5.25805516131485E-02 
1347	 0.052532466175715 
1348	 0.052506291551257 
1349	 5.24813079992497E-02 
1350	 5.24587009225845E-02 
1351	 5.24493913022486E-02 
1352	 0.052449495879706 
1353	 5.24613329837812E-02 
1354	 5.25154981901692E-02 
1355	 5.25208482922686E-02 
1356	 5.25092089498709E-02 
1357	 5.24986930863197E-02 
1358	 5.24573192433955E-02 
1359	 5.24173521087472E-02 
1360	 5.23734669683665E-02 
1361	 5.23464060727323E-02 
1362	 5.23071378038757E-02 
1363	 5.22529639448268E-02 
1364	 5.22386085173855E-02 
1365	 5.22558935453071E-02 
1366	 5.22375938009794E-02 
1367	 0.052224937985677 
1368	 5.22068700438123E-02 
1369	 5.21780670466432E-02 
1370	 5.21301587119076E-02 
1371	 5.20635919524625E-02 
1372	 5.20345550293238E-02 
1373	 5.19938919217085E-02 
1374	 5.19708632061872E-02 
1375	 5.20156226176454E-02 
1376	 5.19868640996359E-02 
1377	 0.051889653396516 
1378	 0.051857908386134 
1379	 5.18571309231265E-02 
1380	 5.18072061092496E-02 
1381	 0.051761294341083 
1382	 5.17190617719526E-02 
1383	 5.16056925365962E-02 
1384	 0.051554425991206 
1385	 0.051583507544233 
1386	 5.15648794297927E-02 
1387	 5.15375572153939E-02 
1388	 5.15165404403568E-02 
1389	 5.14749915469748E-02 
1390	 5.14412506492431E-02 
1391	 5.14335945226787E-02 
1392	 5.13913018198974E-02 
1393	 0.051366034190657 
1394	 5.13476088810411E-02 
1395	 5.13112544808354E-02 
1396	 5.12623585547969E-02 
1397	 5.12455516191191E-02 
1398	 5.12265452782299E-02 
1399	 5.12193071979311E-02 
1400	 0.051261463948885 
1401	 5.12347661414085E-02 
1402	 5.11686795169805E-02 
1403	 5.11250927761776E-02 
1404	 5.10495076992946E-02 
1405	 0.051015768244896 
1406	 5.10039258424962E-02 
1407	 5.10020480948039E-02 
1408	 5.10363363839445E-02 
1409	 5.10347146386786E-02 
1410	 5.10327355283707E-02 
1411	 5.10243057586232E-02 
1412	 5.09884725970829E-02 
1413	 5.09591892512935E-02 
1414	 5.09284459099486E-02 
1415	 5.09105043735579E-02 
1416	 0.050894394912912 
1417	 5.08798988688063E-02 
1418	 5.08752135366538E-02 
1419	 5.08771504614101E-02 
1420	 5.08723099560863E-02 
1421	 5.08797129319271E-02 
1422	 5.09232305144534E-02 
1423	 5.09340872029591E-02 
1424	 5.09257765054115E-02 
1425	 5.09235536500953E-02 
1426	 5.09066321951039E-02 
1427	 5.08936722122647E-02 
1428	 5.08973574480987E-02 
1429	 5.09585211403624E-02 
1430	 5.09902283756611E-02 
1431	 5.10415104281759E-02 
1432	 5.10587104977848E-02 
1433	 0.051052097224602 
1434	 5.10614846135098E-02 
1435	 5.10605932191188E-02 
1436	 0.051080555812604 
1437	 5.11233222193775E-02 
1438	 5.11387588323862E-02 
1439	 5.11429061128046E-02 
1440	 5.11578887546789E-02 
1441	 5.11771519201704E-02 
1442	 0.051177470801493 
1443	 5.11688671625575E-02 
1444	 5.11776506412784E-02 
1445	 5.11664764222974E-02 
1446	 0.05117719605081 
1447	 5.12437238958681E-02 
1448	 5.12520182932266E-02 
1449	 5.12161404754108E-02 
1450	 5.12137241887374E-02 
1451	 5.11968689388796E-02 
1452	 5.11953754263719E-02 
1453	 5.12326390311404E-02 
1454	 5.12488877098918E-02 
1455	 5.12556251943322E-02 
1456	 0.051258116952197 
1457	 5.12451184197426E-02 
1458	 5.12447706107306E-02 
1459	 5.12468540234321E-02 
1460	 5.12511003778401E-02 
1461	 5.12969464382428E-02 
1462	 5.12934335208903E-02 
1463	 5.12226694878513E-02 
1464	 5.12001600859346E-02 
1465	 0.051162225061575 
1466	 5.11576759747412E-02 
1467	 5.11864562383128E-02 
1468	 5.12449899514664E-02 
1469	 5.12579164541411E-02 
1470	 5.12271714164882E-02 
1471	 0.051228285111694 
1472	 5.12186160112598E-02 
1473	 5.12221748928639E-02 
1474	 0.051245832157076 
1475	 5.12548364965334E-02 
1476	 5.12503763248707E-02 
1477	 5.12643810980798E-02 
1478	 5.12961060558351E-02 
1479	 5.13011165228508E-02 
1480	 5.12936249929418E-02 
1481	 5.13073738909719E-02 
1482	 5.13212732440628E-02 
1483	 5.13245278908522E-02 
1484	 0.051340199912621 
1485	 5.13479237513367E-02 
1486	 5.13268937910102E-02 
1487	 5.13313983487677E-02 
1488	 5.13730267220511E-02 
1489	 5.13736391397379E-02 
1490	 5.13370839797613E-02 
1491	 5.13466553123416E-02 
1492	 5.13714325469991E-02 
1493	 5.13741836289571E-02 
1494	 5.14068186410713E-02 
1495	 5.14092502805604E-02 
1496	 0.051356823559868 
1497	 0.051343965600459 
1498	 5.13399110101363E-02 
1499	 5.13514646436914E-02 
1500	 5.13925084334724E-02 
1501	 5.14133844421701E-02 
1502	 5.14459181656216E-02 
1503	 5.14598354059466E-02 
1504	 5.14440562706485E-02 
1505	 5.14464389080181E-02 
1506	 5.14745422234072E-02 
1507	 5.14591247744425E-02 
1508	 5.14010680274598E-02 
1509	 5.13828261853085E-02 
1510	 0.0513370506244 
1511	 5.13326202295021E-02 
1512	 5.14089308112121E-02 
1513	 5.14396202110099E-02 
1514	 5.14825068144673E-02 
1515	 5.14855879062445E-02 
1516	 5.14136047620341E-02 
1517	 5.13930394761545E-02 
1518	 0.051387762002678 
1519	 5.13683119539419E-02 
1520	 5.13447362908124E-02 
1521	 5.13782995041433E-02 
1522	 5.13819634191635E-02 
1523	 0.051323774031816 
1524	 5.13108501038385E-02 
1525	 5.12991641295103E-02 
1526	 5.13359361799628E-02 
1527	 5.14083410545532E-02 
1528	 5.14334812552575E-02 
1529	 5.14869168019301E-02 
1530	 5.14925328995172E-02 
1531	 5.14384098106714E-02 
1532	 5.14225377413533E-02 
1533	 5.14132685008964E-02 
1534	 0.051410063875458 
1535	 5.14075776454068E-02 
1536	 5.14073093236614E-02 
1537	 5.14197639981701E-02 
1538	 5.14213464533833E-02 
1539	 5.14126485224737E-02 
1540	 5.14163849072186E-02 
1541	 0.051428102805986 
1542	 5.14323078976275E-02 
1543	 5.14428310703172E-02 
1544	 5.14373689604534E-02 
1545	 5.14114648216012E-02 
1546	 5.14110141959084E-02 
1547	 5.14198985107353E-02 
1548	 5.14159444309606E-02 
1549	 5.14182864126653E-02 
1550	 5.14205435034268E-02 
1551	 5.14083089634549E-02 
1552	 5.14065936208291E-02 
1553	 5.14058849528348E-02 
1554	 5.14321480951506E-02 
1555	 5.14956415117163E-02 
1556	 0.051499791814634 
1557	 5.14991147675932E-02 
1558	 5.14913516496153E-02 
1559	 5.14063421647748E-02 
1560	 5.14033378450286E-02 
1561	 5.14820374650707E-02 
1562	 0.051486411893352 
1563	 5.14781028300772E-02 
1564	 5.14723002879841E-02 
1565	 5.14267242962042E-02 
1566	 5.14001950712665E-02 
1567	 5.13985396353257E-02 
1568	 0.051382858820126 
1569	 5.13450365332359E-02 
1570	 5.13261963826674E-02 
1571	 5.13145434780083E-02 
1572	 5.13127204684147E-02 
1573	 5.13199542896117E-02 
1574	 0.051331819775797 
1575	 5.13689329434614E-02 
1576	 5.13786313088036E-02 
1577	 5.13732725870459E-02 
1578	 5.13751751686764E-02 
1579	 5.13662770516761E-02 
1580	 5.13614528303894E-02 
1581	 5.13684608699222E-02 
1582	 5.13634618796651E-02 
1583	 5.13406608375349E-02 
1584	 5.13344674937966E-02 
1585	 5.13324248867081E-02 
1586	 5.13365553811451E-02 
1587	 5.13616813469707E-02 
1588	 5.13660231602708E-02 
1589	 5.13653708793338E-02 
1590	 5.13541314220897E-02 
1591	 5.13191539827902E-02 
1592	 5.13021861199739E-02 
1593	 5.12793616268042E-02 
1594	 5.12772206830101E-02 
1595	 5.13269470175115E-02 
1596	 0.051312826472654 
1597	 5.12499397122085E-02 
1598	 5.12300930657001E-02 
1599	 5.11804357303493E-02 
1600	 5.11661229181312E-02 
1601	 5.12223371236766E-02 
1602	 5.12456044620034E-02 
1603	 5.12671262666351E-02 
1604	 5.12663316485328E-02 
1605	 0.051245279201124 
1606	 5.12250893448498E-02 
1607	 5.11614445496549E-02 
1608	 5.11519479380732E-02 
1609	 5.11841898096603E-02 
1610	 5.11985920707763E-02 
1611	 5.12509614869669E-02 
1612	 5.12706308533799E-02 
1613	 5.12586681657284E-02 
1614	 5.12525002359562E-02 
1615	 5.12436219969071E-02 
1616	 5.12136652807099E-02 
1617	 0.051162019915359 
1618	 5.11274549549862E-02 
1619	 5.10771856134023E-02 
1620	 5.10479809426784E-02 
1621	 5.10145234705604E-02 
1622	 5.10236778751108E-02 
1623	 5.10849075152743E-02 
1624	 5.11236651390577E-02 
1625	 0.051209860516026 
1626	 5.12470863181185E-02 
1627	 5.12319744102422E-02 
1628	 5.12251642075389E-02 
1629	 5.12015861413635E-02 
1630	 5.11851289350272E-02 
1631	 5.11625088381673E-02 
1632	 5.11518537484697E-02 
1633	 5.11350047557722E-02 
1634	 0.051146835472795 
1635	 5.12082285415298E-02 
1636	 0.051221538837748 
1637	 5.12303404654416E-02 
1638	 5.12226870041498E-02 
1639	 5.11653065937168E-02 
1640	 5.11337650960051E-02 
1641	 0.05111360021741 
1642	 5.10960182081826E-02 
1643	 0.051079292572645 
1644	 5.10697337446661E-02 
1645	 5.10851674500265E-02 
1646	 5.10656016247785E-02 
1647	 5.10134866788818E-02 
1648	 5.09905370442785E-02 
1649	 5.09676627908392E-02 
1650	 0.050950163789441 
1651	 5.09480715718218E-02 
1652	 5.09487715941512E-02 
1653	 5.09589130864832E-02 
1654	 5.09506648197117E-02 
1655	 5.09354722568908E-02 
1656	 5.09404439900744E-02 
1657	 5.09268501282474E-02 
1658	 5.09358620866057E-02 
1659	 5.10057060924126E-02 
1660	 5.10183165669717E-02 
1661	 5.09964893865805E-02 
1662	 5.09804185568408E-02 
1663	 5.09203267225888E-02 
1664	 5.09131212928414E-02 
1665	 5.09606813859431E-02 
1666	 5.09658877061635E-02 
1667	 5.09719184758355E-02 
1668	 5.09728489923761E-02 
1669	 5.09396137765976E-02 
1670	 5.09262007630266E-02 
1671	 0.050926627400454 
1672	 5.09225964983573E-02 
1673	 5.09125890764327E-02 
1674	 5.09210601794569E-02 
1675	 5.09496217359685E-02 
1676	 5.09620513346103E-02 
1677	 5.09864389646359E-02 
1678	 5.09832678881899E-02 
1679	 5.09417448666705E-02 
1680	 5.09320903432862E-02 
1681	 5.09117392177363E-02 
1682	 5.09215804740446E-02 
1683	 5.09900553157253E-02 
1684	 5.10083706659147E-02 
1685	 5.10141112763946E-02 
1686	 5.10124434638544E-02 
1687	 5.09808437597375E-02 
1688	 5.09657408535417E-02 
1689	 5.09539163969674E-02 
1690	 5.09320951983987E-02 
1691	 5.09235001320696E-02 
1692	 5.08759221371352E-02 
1693	 5.07570722126948E-02 
1694	 5.07776360243434E-02 
1695	 5.08539937080546E-02 
1696	 5.08923983033783E-02 
1697	 5.10200577828629E-02 
1698	 0.051069145439912 
1699	 5.10386360558606E-02 
1700	 5.10351151107884E-02 
1701	 5.10453451846189E-02 
1702	 5.10368916553373E-02 
1703	 5.10020174003242E-02 
1704	 5.09786144265989E-02 
1705	 5.09630520786127E-02 
1706	 0.050977497347407 
1707	 5.09528034797675E-02 
1708	 0.050898572826213 
1709	 5.08317423603695E-02 
1710	 5.08484087922853E-02 
1711	 5.08776062559801E-02 
1712	 5.08997872634287E-02 
1713	 5.09669966712264E-02 
1714	 5.08983992248227E-02 
1715	 5.07966993105215E-02 
1716	 5.08506146696647E-02 
1717	 5.08588117270452E-02 
1718	 5.08238706133978E-02 
1719	 5.07899152354313E-02 
1720	 5.07080021852444E-02 
1721	 5.06666652548626E-02 
1722	 5.07131803098884E-02 
1723	 5.08340049053724E-02 
1724	 5.08741665423539E-02 
1725	 0.050841886543954 
1726	 5.07784193522482E-02 
1727	 5.07079618662684E-02 
1728	 5.07662571620531E-02 
1729	 5.08261191586159E-02 
1730	 5.08638423619505E-02 
1731	 5.09023046737413E-02 
1732	 5.08462729515865E-02 
1733	 5.07947775484915E-02 
1734	 5.07545760492597E-02 
1735	 5.07073588766996E-02 
1736	 5.06998283684198E-02 
1737	 5.06842614896111E-02 
1738	 5.06387531126977E-02 
1739	 5.06042614822156E-02 
1740	 0.050507003993637 
1741	 5.04929447503382E-02 
1742	 5.05995281769401E-02 
1743	 5.06339543365394E-02 
1744	 5.06469771061266E-02 
1745	 5.06351388197931E-02 
1746	 5.05656494481701E-02 
1747	 5.05372963668549E-02 
1748	 5.05369397064441E-02 
1749	 5.05419666921186E-02 
1750	 5.05380952187955E-02 
1751	 5.05355910999436E-02 
1752	 5.05725324200085E-02 
1753	 5.05470302954048E-02 
1754	 5.04783039941609E-02 
1755	 5.04751734036435E-02 
1756	 5.04692945896255E-02 
1757	 5.04839542711254E-02 
1758	 5.04691984474195E-02 
1759	 5.04264559472826E-02 
1760	 5.04119305186699E-02 
1761	 5.04099872659438E-02 
1762	 5.04357556631425E-02 
1763	 0.050480490856119 
1764	 0.050430530269878 
1765	 5.03990143780739E-02 
1766	 5.04340760568681E-02 
1767	 5.03913864530183E-02 
1768	 5.03853881036233E-02 
1769	 5.04385390353146E-02 
1770	 5.04251965152344E-02 
1771	 5.04286533470046E-02 
1772	 5.04311310702486E-02 
1773	 5.04140530297244E-02 
1774	 5.04126921601489E-02 
1775	 5.03864929599196E-02 
1776	 5.04028841893794E-02 
1777	 5.03788903708399E-02 
1778	 5.03022587497627E-02 
1779	 5.02964651460927E-02 
1780	 5.02710900633115E-02 
1781	 5.02388689918564E-02 
1782	 5.02667564402031E-02 
1783	 5.02982178584049E-02 
1784	 5.03410345632519E-02 
1785	 5.03302090404338E-02 
1786	 0.050316513934085 
1787	 5.02717979325287E-02 
1788	 5.02299951279547E-02 
1789	 5.01875363143363E-02 
1790	 5.02097326231225E-02 
1791	 5.02570381587178E-02 
1792	 5.02611636654571E-02 
1793	 5.03210279174719E-02 
1794	 5.02342444556686E-02 
1795	 5.01218423235696E-02 
1796	 5.00464617531304E-02 
1797	 5.00475102327315E-02 
1798	 5.00854860757491E-02 
1799	 5.01476625132843E-02 
1800	 5.02227317457449E-02 
1801	 4.99120427147667E-02 
1802	 0.049908341691163 
1803	 4.99194139341905E-02 
1804	 4.98985129810136E-02 
1805	 4.98171410486992E-02 
1806	 0.049825588021924 
1807	 4.99285534642856E-02 
1808	 4.99391888032481E-02 
1809	 4.98845051848244E-02 
1810	 0.049921767349415 
1811	 5.00306272281431E-02 
1812	 5.00347137870196E-02 
1813	 5.00202216047306E-02 
1814	 5.00722246244761E-02 
1815	 4.99614292034518E-02 
1816	 4.97659615079075E-02 
1817	 4.97425635959235E-02 
1818	 4.98303088026905E-02 
1819	 4.98582113811706E-02 
1820	 4.99654420125425E-02 
1821	 5.00272992717978E-02 
1822	 5.00880893734967E-02 
1823	 5.00397744669957E-02 
1824	 5.00671986884921E-02 
1825	 5.00243536129893E-02 
1826	 5.00037162512674E-02 
1827	 4.99631583501468E-02 
1828	 4.99405730850992E-02 
1829	 4.99141067348878E-02 
1830	 4.99501448245812E-02 
1831	 0.050046355172686 
1832	 5.00719955692776E-02 
1833	 5.01122961204907E-02 
1834	 5.00668535198875E-02 
1835	 4.99521074670558E-02 
1836	 0.049852488053861 
1837	 4.98332283674626E-02 
1838	 4.99098822970957E-02 
1839	 4.99137564957633E-02 
1840	 4.99181565600406E-02 
1841	 4.99200208542846E-02 
1842	 4.99016277655483E-02 
1843	 4.98541690480407E-02 
1844	 4.98325581476476E-02 
1845	 4.99549589338091E-02 
1846	 5.00371840663088E-02 
1847	 5.00546864477727E-02 
1848	 5.00603536660933E-02 
1849	 5.00137466446293E-02 
1850	 5.00019763311753E-02 
1851	 4.99737992758059E-02 
1852	 4.99809004677162E-02 
1853	 5.00061435041647E-02 
1854	 5.00017681921754E-02 
1855	 4.99370114401739E-02 
1856	 4.98914367239978E-02 
1857	 4.98736801818768E-02 
1858	 4.98716508818525E-02 
1859	 4.98861262049832E-02 
1860	 4.99589033580906E-02 
1861	 4.99787114094777E-02 
1862	 4.99781670981757E-02 
1863	 5.00035253174847E-02 
1864	 4.99757499865621E-02 
1865	 4.99175495017874E-02 
1866	 4.98900642529384E-02 
1867	 4.98694345636244E-02 
1868	 4.98928409886304E-02 
1869	 4.99339039714767E-02 
1870	 4.99384791006565E-02 
1871	 4.99130884683846E-02 
1872	 4.98903323610514E-02 
1873	 0.049847925664296 
1874	 4.98127582370481E-02 
1875	 4.97668687502269E-02 
1876	 4.98460337638508E-02 
1877	 4.98796827318456E-02 
1878	 4.98735865780112E-02 
1879	 4.98590315058873E-02 
1880	 4.97899838120966E-02 
1881	 4.97701690952394E-02 
1882	 4.97484973244197E-02 
1883	 4.97411702398574E-02 
1884	 4.97584017488687E-02 
1885	 4.97588565987171E-02 
1886	 4.96692981083513E-02 
1887	 4.96000583842648E-02 
1888	 0.049563534098522 
1889	 4.95064056757936E-02 
1890	 4.94914406319789E-02 
1891	 4.95187753242025E-02 
1892	 4.95111052443276E-02 
1893	 4.94878532198758E-02 
1894	 4.94602319015468E-02 
1895	 4.94394224716797E-02 
1896	 4.93893119964892E-02 
1897	 4.93265545613711E-02 
1898	 4.92972925112358E-02 
1899	 4.92633294716216E-02 
1900	 4.91836274866439E-02 
1901	 4.91746527280404E-02 
1902	 4.91719715401216E-02 
1903	 4.90949057639779E-02 
1904	 4.90443337997102E-02 
1905	 4.90131803859871E-02 
1906	 4.89392303590867E-02 
1907	 4.88607569301592E-02 
1908	 4.88227015859771E-02 
1909	 4.87253930277047E-02 
1910	 4.86643601221744E-02 
1911	 4.86618423075862E-02 
1912	 4.86561155162816E-02 
1913	 4.87130234450443E-02 
1914	 4.87289422767222E-02 
1915	 4.87120422934928E-02 
1916	 4.86438651446067E-02 
1917	 4.85933949557296E-02 
1918	 4.85278355271549E-02 
1919	 4.85289937607533E-02 
1920	 4.85362990467208E-02 
1921	 4.85154550556105E-02 
1922	 0.048530467501786 
1923	 4.85197266228623E-02 
1924	 4.85287574098505E-02 
1925	 4.85519766438207E-02 
1926	 4.85324043660978E-02 
1927	 0.048476038429143 
1928	 4.84540578161474E-02 
1929	 4.84109767642062E-02 
1930	 4.83842914624248E-02 
1931	 4.84018615342016E-02 
1932	 0.048418816983789 
1933	 4.84225424198878E-02 
1934	 4.83917381502921E-02 
1935	 4.83868681552983E-02 
1936	 0.048400555604616 
1937	 4.84091719640881E-02 
1938	 0.048434782367463 
1939	 4.84450813324169E-02 
1940	 4.84607325661257E-02 
1941	 4.84378928385833E-02 
1942	 4.83953566386093E-02 
1943	 4.84219186837155E-02 
1944	 4.84690553982695E-02 
1945	 4.84787429784638E-02 
1946	 4.85237032539269E-02 
1947	 4.85365300689496E-02 
1948	 4.85362716186219E-02 
1949	 4.85572397929575E-02 
1950	 4.85439724235354E-02 
1951	 4.85065344396142E-02 
1952	 4.84857001033873E-02 
1953	 4.84291744682545E-02 
1954	 4.84077557798792E-02 
1955	 4.84708544901183E-02 
1956	 4.85399736419946E-02 
1957	 4.85728042766753E-02 
1958	 4.86178376118965E-02 
1959	 4.86558677252494E-02 
1960	 4.86642941024318E-02 
1961	 4.86818883981278E-02 
1962	 4.87349201634236E-02 
1963	 4.87386552046031E-02 
1964	 4.86723025083356E-02 
1965	 4.86808895318733E-02 
1966	 4.87271955852461E-02 
1967	 4.87487000059859E-02 
1968	 4.87407184612426E-02 
1969	 4.87698390404782E-02 
1970	 4.87762526796735E-02 
1971	 4.87698956430092E-02 
1972	 4.88166195236721E-02 
1973	 4.88187963928207E-02 
1974	 0.048818337280639 
1975	 4.87713045412318E-02 
1976	 4.87900476470962E-02 
1977	 4.88373654383319E-02 
1978	 4.88704080720669E-02 
1979	 0.048952956778163 
1980	 4.89606638090265E-02 
1981	 4.89161770458792E-02 
1982	 4.89319827787818E-02 
1983	 4.89348747471102E-02 
1984	 4.89191041291023E-02 
1985	 4.89593356570622E-02 
1986	 4.90244367578705E-02 
1987	 4.90571201496669E-02 
1988	 4.90858290792125E-02 
1989	 4.91029586076929E-02 
1990	 0.049081535011759 
1991	 4.91068123734374E-02 
1992	 0.049165417431131 
1993	 4.91980610418571E-02 
1994	 4.92277402060146E-02 
1995	 0.049227745006956 
1996	 4.92052065306116E-02 
1997	 4.92431892780087E-02 
1998	 4.92772901141552E-02 
1999	 4.93514446984963E-02 
2000	 4.93990553683904E-02 
2001	 4.94564377088286E-02 
2002	 4.94857796995122E-02 
2003	 4.94663016298297E-02 
2004	 4.94977263222196E-02 
2005	 4.95453027489256E-02 
2006	 4.95710583387578E-02 
2007	 4.96025750304073E-02 
2008	 4.96968139350684E-02 
2009	 4.97163988817588E-02 
2010	 4.97066440304867E-02 
2011	 4.96991720776873E-02 
2012	 0.049716462620932 
2013	 4.97551518121245E-02 
2014	 4.98212798728417E-02 
2015	 4.98568549193199E-02 
2016	 4.99193773937893E-02 
2017	 0.04995067523641 
2018	 4.99471142724268E-02 
2019	 4.99556816043435E-02 
2020	 4.99715313181749E-02 
2021	 4.99424647434452E-02 
2022	 4.99624459171126E-02 
2023	 4.99829664268404E-02 
2024	 5.00813933523873E-02 
2025	 5.01623081694191E-02 
2026	 5.01942384001968E-02 
2027	 0.050204833660743 
2028	 5.02202660665605E-02 
2029	 5.02080395709641E-02 
2030	 5.01950890874047E-02 
2031	 5.01629413802856E-02 
2032	 5.01615223154055E-02 
2033	 5.01272517525829E-02 
2034	 5.01343978295535E-02 
2035	 5.01850660106079E-02 
2036	 5.02891022867466E-02 
2037	 5.03371363854386E-02 
2038	 5.03411805725015E-02 
2039	 0.050408402708838 
2040	 0.050525928627465 
2041	 5.05538332183741E-02 
2042	 5.05686737752725E-02 
2043	 5.05924472430342E-02 
2044	 5.05323090635284E-02 
2045	 5.05212548421034E-02 
2046	 5.05898554341146E-02 
2047	 5.06021036478976E-02 
2048	 5.05327146738023E-02 
2049	 5.05454367990055E-02 
2050	 0.05058634375854 
2051	 5.06548002968197E-02 
2052	 5.07372198322023E-02 
2053	 5.07819343283287E-02 
2054	 5.07983042223959E-02 
2055	 5.07397608186112E-02 
2056	 5.07650190685158E-02 
2057	 5.08249697002239E-02 
2058	 5.08377491374742E-02 
2059	 5.08738118329519E-02 
2060	 0.050863550519061 
2061	 5.07586608941852E-02 
2062	 5.07497270781327E-02 
2063	 5.08357662450689E-02 
2064	 5.08203191424938E-02 
2065	 0.050747814100282 
2066	 5.07365418398488E-02 
2067	 5.07158867159669E-02 
2068	 5.06524353735337E-02 
2069	 5.06517278860422E-02 
2070	 5.07397442253999E-02 
2071	 5.07731817332563E-02 
2072	 5.07890450616878E-02 
2073	 0.050814097599804 
2074	 5.08451229411811E-02 
2075	 5.08855598843049E-02 
2076	 5.09437318110468E-02 
2077	 0.050949483620189 
2078	 5.09061487341943E-02 
2079	 5.09357026162709E-02 
2080	 5.09893288006719E-02 
2081	 0.051010779507077 
2082	 0.051113610341826 
2083	 5.11330874585987E-02 
2084	 5.10500337165182E-02 
2085	 5.09775123650437E-02 
2086	 5.09514321100945E-02 
2087	 5.09351962055739E-02 
2088	 5.09429214915683E-02 
2089	 5.09999624666095E-02 
2090	 5.10286365902922E-02 
2091	 5.10477489870894E-02 
2092	 5.10779340534396E-02 
2093	 5.11238926530744E-02 
2094	 5.11580149839381E-02 
2095	 5.11923956635238E-02 
2096	 5.12217344526526E-02 
2097	 5.12538259441824E-02 
2098	 5.12637079296749E-02 
2099	 5.12456796125251E-02 
2100	 5.12533056066498E-02 
2101	 5.12655374134009E-02 
2102	 5.12608645641855E-02 
2103	 5.12979249023634E-02 
2104	 0.051387014945177 
2105	 5.14185190802324E-02 
2106	 5.14228102688933E-02 
2107	 5.14627125752085E-02 
2108	 5.15083008981485E-02 
2109	 5.15425246353572E-02 
2110	 5.16339901273027E-02 
2111	 5.16480305006786E-02 
2112	 5.16060602612401E-02 
2113	 5.15519225014096E-02 
2114	 0.051380389782095 
2115	 5.13296794802675E-02 
2116	 5.13634164371474E-02 
2117	 5.13312584201407E-02 
2118	 5.13659205120234E-02 
2119	 5.15178151972762E-02 
2120	 5.15617366929906E-02 
2121	 0.051563764784944 
2122	 5.15791139297911E-02 
2123	 5.15668934214441E-02 
2124	 5.15744382232129E-02 
2125	 5.15781727167755E-02 
2126	 5.15947149697061E-02 
2127	 5.16337237683449E-02 
2128	 5.16510435038005E-02 
2129	 5.16729445933823E-02 
2130	 0.051684989977707 
2131	 5.16833878583209E-02 
2132	 5.16780447025369E-02 
2133	 5.16746794347465E-02 
2134	 5.16462552480143E-02 
2135	 5.16236235127401E-02 
2136	 5.15896408316044E-02 
2137	 5.15923134736681E-02 
2138	 5.16301223499859E-02 
2139	 5.16226619874709E-02 
2140	 5.16125723243586E-02 
2141	 5.16141386960632E-02 
2142	 5.16146262825922E-02 
2143	 5.15697170587093E-02 
2144	 5.15143304737026E-02 
2145	 5.14612785116682E-02 
2146	 5.13265641039805E-02 
2147	 0.05127123029622 
2148	 5.13217661268499E-02 
2149	 5.12869139557502E-02 
2150	 0.051245073017875 
2151	 5.11803969956758E-02 
2152	 5.10803885589536E-02 
2153	 5.09058141259102E-02 
2154	 5.08305935614786E-02 
2155	 5.08010929590992E-02 
2156	 5.07850940150725E-02 
2157	 5.08518483732985E-02 
2158	 5.08213298578283E-02 
2159	 5.07478828155739E-02 
2160	 5.07108653069666E-02 
2161	 5.06328156809796E-02 
2162	 5.06182290823217E-02 
2163	 5.07109093613091E-02 
2164	 5.06825423017605E-02 
2165	 5.05813698486105E-02 
2166	 0.050538121680876 
2167	 0.050456497181678 
2168	 5.03961748068548E-02 
2169	 0.050461234866224 
2170	 5.03920101155788E-02 
2171	 5.01425575710747E-02 
2172	 5.00489773844391E-02 
2173	 4.99485535511134E-02 
2174	 4.99347544865482E-02 
2175	 4.99582924232896E-02 
2176	 4.99848399251661E-02 
2177	 5.00139861303376E-02 
2178	 5.00338134294387E-02 
2179	 4.99614130378157E-02 
2180	 4.98777634316049E-02 
2181	 0.049826036957788 
2182	 4.96697882635209E-02 
2183	 4.95950297920887E-02 
2184	 4.96545933547972E-02 
2185	 4.95908910830909E-02 
2186	 4.94071802848142E-02 
2187	 4.93408566217655E-02 
2188	 4.93130029828126E-02 
2189	 4.92730107355318E-02 
2190	 4.93042049374772E-02 
2191	 0.049287900478224 
2192	 4.92169859364643E-02 
2193	 4.91739733040813E-02 
2194	 4.91321116395086E-02 
2195	 4.90986424903699E-02 
2196	 4.90749914794567E-02 
2197	 4.90764101064741E-02 
2198	 4.89880329664101E-02 
2199	 0.048942163628261 
2200	 0.0488995977769 
2201	 4.88202511269767E-02 
2202	 4.87939316776708E-02 
2203	 4.88528997245661E-02 
2204	 0.048791568565061 
2205	 0.04864468736953 
2206	 0.048628122674479 
2207	 4.86484155245265E-02 
2208	 0.048604387872131 
2209	 4.86040865679565E-02 
2210	 4.86079177063305E-02 
2211	 4.84937821474213E-02 
2212	 4.84978055944995E-02 
2213	 4.86777632116965E-02 
2214	 4.87203071993837E-02 
2215	 4.87151807393349E-02 
2216	 4.87309325693089E-02 
2217	 4.86981821504225E-02 
2218	 4.86744505208003E-02 
2219	 4.86338734009239E-02 
2220	 4.86418390805526E-02 
2221	 0.048708528849846 
2222	 4.87235129734642E-02 
2223	 4.86612255657915E-02 
2224	 4.86713610354945E-02 
2225	 4.86203147170304E-02 
2226	 0.04859002757001 
2227	 4.86033393741452E-02 
2228	 4.87084802028364E-02 
2229	 4.87740708276559E-02 
2230	 4.88655698375056E-02 
2231	 4.88523806512527E-02 
2232	 4.87821997101146E-02 
2233	 4.87718293516535E-02 
2234	 4.86847784975912E-02 
2235	 4.86778275374149E-02 
2236	 4.88224082380576E-02 
2237	 4.88472211435202E-02 
2238	 4.87477494402513E-02 
2239	 4.87799393383759E-02 
2240	 4.88807844994704E-02 
2241	 4.89165364178637E-02 
2242	 4.90291925824728E-02 
2243	 4.90586255674934E-02 
2244	 4.89790312119697E-02 
2245	 4.89210227533483E-02 
2246	 4.88043475879748E-02 
2247	 4.87645521115405E-02 
2248	 4.87924480842972E-02 
2249	 0.048778668041029 
2250	 4.87846139999482E-02 
2251	 4.87911378422047E-02 
2252	 4.87993555180509E-02 
2253	 4.87316112247432E-02 
2254	 4.87304112372378E-02 
2255	 4.88084890763651E-02 
2256	 4.88619868776707E-02 
2257	 4.88527554538407E-02 
2258	 4.89259923227648E-02 
2259	 4.90862928596238E-02 
2260	 4.90971558151953E-02 
2261	 4.91047411533157E-02 
2262	 4.90492737308226E-02 
2263	 4.88137580946703E-02 
2264	 4.87525407761543E-02 
2265	 4.87487915311883E-02 
2266	 4.87347156089512E-02 
2267	 4.87628293175329E-02 
2268	 4.88089353219976E-02 
2269	 4.88860529519156E-02 
2270	 4.89357989817049E-02 
2271	 4.90172904500535E-02 
2272	 0.049073561056638 
2273	 4.90805160478536E-02 
2274	 4.91011108202245E-02 
2275	 4.91958431085775E-02 
2276	 4.91846183005947E-02 
2277	 4.90334408827997E-02 
2278	 4.90000364785057E-02 
2279	 4.89911234935984E-02 
2280	 4.89390996350906E-02 
2281	 4.88876886349255E-02 
2282	 4.89450578479133E-02 
2283	 4.90109504062374E-02 
2284	 4.90898937042356E-02 
2285	 4.94276806675192E-02 
2286	 0.049481754598185 
2287	 4.93906186927151E-02 
2288	 4.94275977073011E-02 
2289	 4.94111294199282E-02 
2290	 4.94535630522942E-02 
2291	 4.94459057382712E-02 
2292	 4.93583906437574E-02 
2293	 4.92448079372696E-02 
2294	 4.91422250881933E-02 
2295	 4.92017603157428E-02 
2296	 4.93318198914916E-02 
2297	 4.94216622742825E-02 
2298	 4.95362124903033E-02 
2299	 4.96392150576848E-02 
2300	 4.97510896400043E-02 
2301	 4.97859317628911E-02 
2302	 4.98102620818613E-02 
2303	 4.97912758347312E-02 
2304	 0.049654006415659 
2305	 4.96513206952164E-02 
2306	 4.97022209813503E-02 
2307	 4.97204750572373E-02 
2308	 4.98156159285764E-02 
2309	 4.98224425806222E-02 
2310	 4.97170203172441E-02 
2311	 4.96791214330655E-02 
2312	 4.96380057434757E-02 
2313	 4.96473774877681E-02 
2314	 4.96785950041179E-02 
2315	 0.049784122803601 
2316	 4.99890175014027E-02 
2317	 5.01000863788924E-02 
2318	 5.02928534098847E-02 
2319	 5.03625101126025E-02 
2320	 5.02619026975983E-02 
2321	 0.050249478271445 
2322	 5.02553518899914E-02 
2323	 5.01783504765034E-02 
2324	 5.00432678660311E-02 
2325	 5.00230678300811E-02 
2326	 4.99614878119423E-02 
2327	 4.99525145941616E-02 
2328	 0.050134640292757 
2329	 5.01734915112404E-02 
2330	 5.00531103619447E-02 
2331	 5.01145788405393E-02 
2332	 5.02150757278434E-02 
2333	 5.03663534134858E-02 
2334	 5.05297246504184E-02 
2335	 5.04836512701964E-02 
2336	 5.05377898213967E-02 
2337	 5.05236114407832E-02 
2338	 5.03660476060732E-02 
2339	 5.05143523675588E-02 
2340	 5.06099793531368E-02 
2341	 5.06038622630574E-02 
2342	 5.06686779410881E-02 
2343	 5.07492257932094E-02 
2344	 5.08897385102303E-02 
2345	 5.08483998691506E-02 
2346	 5.06272746709755E-02 
2347	 5.03091891358639E-02 
2348	 4.99390921743753E-02 
2349	 4.97451139001711E-02 
2350	 4.99014033388984E-02 
2351	 5.03043156540262E-02 
2352	 5.04177827665157E-02 
2353	 5.03309147674468E-02 
2354	 5.02928097947965E-02 
2355	 5.01371659700118E-02 
2356	 0.050193851200599 
2357	 0.050330163230455 
2358	 5.02920300642327E-02 
2359	 5.03176109783849E-02 
2360	 5.02800646155811E-02 
2361	 5.02349499571116E-02 
2362	 5.04150114554579E-02 
2363	 5.04555259741468E-02 
2364	 5.03458991216933E-02 
2365	 5.04747798038221E-02 
2366	 5.04799126410616E-02 
2367	 0.050397967019777 
2368	 5.05816350288009E-02 
2369	 5.04253824559025E-02 
2370	 5.02016015629944E-02 
2371	 5.02815824619318E-02 
2372	 5.01305962774891E-02 
2373	 0.050234391461353 
2374	 5.05585071484959E-02 
2375	 5.05325531832996E-02 
2376	 5.06809931765863E-02 
2377	 5.08790431711098E-02 
2378	 5.06845271240834E-02 
2379	 5.06570591672742E-02 
2380	 5.06147114112627E-02 
2381	 0.050309973007602 
2382	 5.02721921788803E-02 
2383	 5.04822324923078E-02 
2384	 5.05082470829206E-02 
2385	 5.05334631897885E-02 
2386	 5.04384914252473E-02 
2387	 5.03131149283199E-02 
2388	 5.00442520156021E-02 
2389	 0.04948532263273 
2390	 4.93977955075148E-02 
2391	 4.92681978514475E-02 
2392	 4.93738833023765E-02 
2393	 5.01319325568189E-02 
2394	 5.03815205217823E-02 
2395	 5.04215606221854E-02 
2396	 5.05111825200558E-02 
2397	 5.04492813729362E-02 
2398	 5.03100250850659E-02 
2399	 0.050257759610496 
2400	 5.01685250879205E-02 
2401	 4.97123413859875E-02 
2402	 4.99648862975378E-02 
2403	 5.01943058633493E-02 
2404	 5.05825206563283E-02 
2405	 5.11157934521702E-02 
2406	 5.08847722194055E-02 
2407	 5.01536825391991E-02 
2408	 4.98754500124889E-02 
2409	 0.049648955730419 
2410	 4.96251689677826E-02 
2411	 5.03271395546157E-02 
2412	 5.05258152498671E-02 
2413	 5.00364317927925E-02 
2414	 4.98466304907847E-02 
2415	 0.049729403433204 
2416	 0.049769875494601 
2417	 5.02764632086486E-02 
2418	 5.05338400913509E-02 
2419	 5.00911057223707E-02 
2420	 4.94656390951217E-02 
2421	 4.90536271293877E-02 
2422	 4.84598130117061E-02 
2423	 4.80518463103354E-02 
2424	 4.82554639593441E-02 
2425	 0.048266898711521 
2426	 4.82490971810558E-02 
2427	 4.85787172543211E-02 
2428	 4.88280888230283E-02 
2429	 4.87599303103487E-02 
2430	 4.90052021931454E-02 
2431	 4.98140510276466E-02 
2432	 5.01596357121896E-02 
2433	 5.03190283971819E-02 
2434	 5.06568087082755E-02 
2435	 5.04032682998858E-02 
2436	 4.98622482208173E-02 
2437	 0.049763978380847 
2438	 4.96925459833473E-02 
2439	 4.96049445321112E-02 
2440	 4.96588517149587E-02 
2441	 4.98013598768235E-02 
2442	 4.97701259862361E-02 
2443	 4.94948248846884E-02 
2444	 4.98500394795441E-02 
2445	 4.96893904958738E-02 
2446	 4.88496864474296E-02 
2447	 4.88989078331435E-02 
2448	 4.89763712791372E-02 
2449	 4.87780571609989E-02 
2450	 4.91680270597448E-02 
2451	 4.90994666621002E-02 
2452	 4.85608234278242E-02 
2453	 4.90155957093963E-02 
2454	 4.94885178616721E-02 
2455	 5.03061629526964E-02 
2456	 5.12643304687258E-02 
2457	 5.06283920901263E-02 
2458	 5.00176265580815E-02 
2459	 4.90985048875422E-02 
2460	 4.78211438250383E-02 
2461	 4.76722823793032E-02 
2462	 4.77442079287276E-02 
2463	 4.76816319280645E-02 
2464	 0.047749721911906 
2465	 4.82509104996392E-02 
2466	 4.85479686727298E-02 
2467	 0.04877629319362 
2468	 4.88982442695797E-02 
2469	 4.86290889189863E-02 
2470	 4.84926502269423E-02 
2471	 4.77784289460196E-02 
2472	 0.047191337626906 
2473	 4.68506530938102E-02 
2474	 4.62647641959955E-02 
2475	 0.046698570257446 
2476	 4.79864053726357E-02 
2477	 4.83270023833996E-02 
2478	 0.048733675956362 
2479	 4.91684411151234E-02 
2480	 4.75293459418811E-02 
2481	 4.72719572059307E-02 
2482	 4.71998165515439E-02 
2483	 4.71348890326949E-02 
2484	 4.69402168734492E-02 
2485	 4.76262067439424E-02 
2486	 4.72805559575507E-02 
2487	 4.70177921475788E-02 
2488	 4.83049924584313E-02 
2489	 4.83166073209751E-02 
2490	 4.88780965783904E-02 
2491	 5.02800392248687E-02 
2492	 4.99370824240541E-02 
2493	 4.91526334103732E-02 
2494	 4.86802339718023E-02 
2495	 4.82731956178868E-02 
2496	 4.83320367597014E-02 
2497	 4.92668140208921E-02 
2498	 0.04946080144494 
2499	 0.048967091041906 
2500	 4.88899019604808E-02 
