Wavelength	Tablay400093.asd
350	 0.194942650155405 
351	 0.201075839111423 
352	 0.17032280904397 
353	 0.155474684494131 
354	 0.191580130907669 
355	 0.154887007990195 
356	 0.116371757905723 
357	 0.144741684886339 
358	 0.142453156571223 
359	 0.163993153982064 
360	 0.196031548390919 
361	 0.196688335816339 
362	 9.39801565596633E-02 
363	 6.37575855912559E-02 
364	 0.142136587180011 
365	 0.144109926618611 
366	 0.083193251281103 
367	 5.41001898587909E-02 
368	 0.114565076373043 
369	 0.158045099618108 
370	 0.150420593603449 
371	 0.126765253605834 
372	 0.153690911772479 
373	 0.157793432311148 
374	 0.13373557290429 
375	 9.54866836868359E-02 
376	 7.45257876363214E-02 
377	 0.079965964087958 
378	 0.104000067592797 
379	 0.123147977247088 
380	 7.95091524229401E-02 
381	 8.37735004174844E-02 
382	 0.11332111037711 
383	 7.85284652267302E-02 
384	 0.101124818116235 
385	 0.123517248272351 
386	 0.115833984478199 
387	 0.126925553236852 
388	 9.63940323295828E-02 
389	 7.89244375496606E-02 
390	 0.119096005435934 
391	 0.112544620460467 
392	 0.117549285104975 
393	 0.132805685702484 
394	 0.120698786569531 
395	 0.10136673686625 
396	 9.53471102620403E-02 
397	 0.102441830002075 
398	 9.53783026988447E-02 
399	 9.91289340684299E-02 
400	 0.108724414168446 
401	 0.109872461482232 
402	 7.82653044908802E-02 
403	 7.37869998461994E-02 
404	 0.102378478627272 
405	 0.12588660408141 
406	 0.12058316043097 
407	 0.102914153989276 
408	 9.03826107177678E-02 
409	 9.26223097027234E-02 
410	 0.103242861324778 
411	 0.1118272100317 
412	 0.110125195993179 
413	 0.107353620205983 
414	 0.101655983481226 
415	 9.71708391713289E-02 
416	 0.102184851399028 
417	 0.109017176710053 
418	 0.110838920849993 
419	 0.106553456035932 
420	 0.10771202246098 
421	 0.102979690114323 
422	 0.10164284530246 
423	 0.11460128994193 
424	 0.109212638929477 
425	 0.109334164017242 
426	 0.117901437634712 
427	 0.111314526167274 
428	 0.114074691826851 
429	 0.114419735368754 
430	 0.104932716209489 
431	 0.113804141116488 
432	 0.117506237106199 
433	 0.116683466573675 
434	 0.123131665441669 
435	 0.122639023407158 
436	 0.120482959281263 
437	 0.120444212539418 
438	 0.120919171692168 
439	 0.121186973446227 
440	 0.123374599380317 
441	 0.127860456301281 
442	 0.124526966753371 
443	 0.123477342371654 
444	 0.126090880392024 
445	 0.126846318949751 
446	 0.128404774455511 
447	 0.130238620085463 
448	 0.131959180097071 
449	 0.134981182464287 
450	 0.1341903336714 
451	 0.132629906500524 
452	 0.135057588405038 
453	 0.136730853597816 
454	 0.137425814792111 
455	 0.137395508037646 
456	 0.137138485173491 
457	 0.139897644432103 
458	 0.141964662582733 
459	 0.1406747851311 
460	 0.140252981777699 
461	 0.143792274277603 
462	 0.147667273281686 
463	 0.14593465917275 
464	 0.146311340637337 
465	 0.146169569218682 
466	 0.145243178143565 
467	 0.148548299700605 
468	 0.149815191776575 
469	 0.149660732380942 
470	 0.150086334516776 
471	 0.150061726440172 
472	 0.15036955344845 
473	 0.150875670483085 
474	 0.150895704358569 
475	 0.153232830156091 
476	 0.154317338908276 
477	 0.152587914723318 
478	 0.152591991838539 
479	 0.153423009165743 
480	 0.153904334321722 
481	 0.15305611905402 
482	 0.152388009298973 
483	 0.152451717356065 
484	 0.15280254705182 
485	 0.152042952503636 
486	 0.152636880905807 
487	 0.152693646187488 
488	 0.150896692196383 
489	 0.150492027986705 
490	 0.150112386722546 
491	 0.149581075602659 
492	 0.149235870111026 
493	 0.147410897306402 
494	 0.146394485728732 
495	 0.146797984866021 
496	 0.145913009223033 
497	 0.144513108274671 
498	 0.143000453743373 
499	 0.141564730703686 
500	 0.139463956750894 
501	 0.13923452334656 
502	 0.140005088435377 
503	 0.138177103360746 
504	 0.136209500995517 
505	 0.135061301342193 
506	 0.134645111450638 
507	 0.133144511887879 
508	 0.131208265340814 
509	 0.129528100373699 
510	 0.128630183890379 
511	 0.12773090054263 
512	 0.1258521293195 
513	 0.123337988751696 
514	 0.122146394032172 
515	 0.120826874249884 
516	 0.119254262228228 
517	 0.117613715488314 
518	 0.115984685178979 
519	 0.114070376833481 
520	 0.112553782208639 
521	 0.112429920367835 
522	 0.110139957415578 
523	 0.108036298587134 
524	 0.107391795689637 
525	 0.105849311751486 
526	 0.104098072431919 
527	 0.102320474432641 
528	 0.100686643644328 
529	 0.100072358358152 
530	 9.86952817104589E-02 
531	 9.64785992887884E-02 
532	 9.52331029634199E-02 
533	 9.47200819212589E-02 
534	 9.36588586064562E-02 
535	 9.15233420958923E-02 
536	 9.05620463551263E-02 
537	 8.97597222154717E-02 
538	 8.86942190037203E-02 
539	 8.73250636654982E-02 
540	 8.59389545560059E-02 
541	 8.47768613553674E-02 
542	 8.37991682713153E-02 
543	 8.25502331358374E-02 
544	 8.13009613889406E-02 
545	 0.080271923330225 
546	 7.95347782513801E-02 
547	 7.85903320517816E-02 
548	 7.77056737422645E-02 
549	 7.68938659418478E-02 
550	 7.59464118542543E-02 
551	 7.53846446597611E-02 
552	 7.47247392904396E-02 
553	 7.36975102713377E-02 
554	 7.30336211980268E-02 
555	 7.23693326459484E-02 
556	 0.071668819844073 
557	 0.071038582880534 
558	 7.05248218629729E-02 
559	 6.97537295616412E-02 
560	 0.068856965351357 
561	 6.87086535039538E-02 
562	 0.068310034244264 
563	 6.78017657764526E-02 
564	 6.74570004890872E-02 
565	 6.67724474479383E-02 
566	 6.63779659513375E-02 
567	 6.62286841769116E-02 
568	 6.58004131519191E-02 
569	 6.52996530515774E-02 
570	 6.49462409011771E-02 
571	 0.06474095076549 
572	 6.41758654735202E-02 
573	 0.064016415730561 
574	 6.40247025972703E-02 
575	 6.36721196363735E-02 
576	 6.31906240881724E-02 
577	 6.28196480276786E-02 
578	 6.26457739458249E-02 
579	 6.25758959162733E-02 
580	 6.24576897714735E-02 
581	 6.23176452500535E-02 
582	 6.21371113844348E-02 
583	 6.15359313469151E-02 
584	 0.061404680913643 
585	 6.15466735710157E-02 
586	 6.12170155016103E-02 
587	 6.10854800711345E-02 
588	 6.10537884430166E-02 
589	 6.09875428278772E-02 
590	 6.08326769054625E-02 
591	 6.08241598794743E-02 
592	 6.08460416451946E-02 
593	 6.07350186299658E-02 
594	 6.05985843448345E-02 
595	 0.060735735563559 
596	 6.10117140524894E-02 
597	 6.09428060554665E-02 
598	 6.07536605030382E-02 
599	 6.06253640672543E-02 
600	 6.06592410362836E-02 
601	 6.08105094494908E-02 
602	 6.08681761093894E-02 
603	 6.08803605753059E-02 
604	 6.09740031597409E-02 
605	 6.09001092016726E-02 
606	 6.10009156300141E-02 
607	 6.13345413532562E-02 
608	 6.15580480109134E-02 
609	 6.15312473826686E-02 
610	 6.15331088300796E-02 
611	 6.17614696763608E-02 
612	 6.17327513754624E-02 
613	 6.18986013881886E-02 
614	 6.22128205341453E-02 
615	 6.23421575076778E-02 
616	 6.25854628472716E-02 
617	 6.27553364987501E-02 
618	 0.062835601368911 
619	 6.32274776819825E-02 
620	 6.35855528536736E-02 
621	 6.38434233335315E-02 
622	 6.40611763683975E-02 
623	 6.44237677230245E-02 
624	 6.48266450102787E-02 
625	 0.065218126412357 
626	 6.56015150488115E-02 
627	 0.065785426391184 
628	 6.60945979570177E-02 
629	 6.66815594678492E-02 
630	 6.70311280538118E-02 
631	 6.74729209324617E-02 
632	 6.79475282680765E-02 
633	 6.82816974959813E-02 
634	 6.87206288143357E-02 
635	 6.93655877642819E-02 
636	 0.070076024560549 
637	 0.070441638100163 
638	 7.08084301353131E-02 
639	 7.14137481790899E-02 
640	 7.22965507748132E-02 
641	 7.29828536112789E-02 
642	 7.36153477382399E-02 
643	 7.42720183711031E-02 
644	 7.49909566900773E-02 
645	 7.57869792914339E-02 
646	 7.65927911095957E-02 
647	 7.73475282907136E-02 
648	 7.80081926166006E-02 
649	 7.88237636987615E-02 
650	 7.96985347824951E-02 
651	 0.080522449639566 
652	 8.16327144773773E-02 
653	 8.26776012511747E-02 
654	 8.36148664689682E-02 
655	 0.084665519214043 
656	 8.58446404222678E-02 
657	 8.70365296884698E-02 
658	 8.81765575397667E-02 
659	 0.089361475532996 
660	 9.05140496298891E-02 
661	 9.17235146992375E-02 
662	 9.30940024402357E-02 
663	 9.44598913258667E-02 
664	 9.58530193239512E-02 
665	 9.73303625069007E-02 
666	 9.89457661688146E-02 
667	 0.100324185665721 
668	 0.101720771221736 
669	 0.103369837624713 
670	 0.105142815646897 
671	 0.106852664246539 
672	 0.108506747872064 
673	 0.110213447157543 
674	 0.111982811705822 
675	 0.113884030814075 
676	 0.115905936639807 
677	 0.117940645286199 
678	 0.119757362294271 
679	 0.121607364599068 
680	 0.123684955349571 
681	 0.12561952064898 
682	 0.127717023937937 
683	 0.129971309616225 
684	 0.132207092075507 
685	 0.134374225201065 
686	 0.136537057111767 
687	 0.138761535454765 
688	 0.141099263091697 
689	 0.143503723087259 
690	 0.145841758140869 
691	 0.148070621122001 
692	 0.150524115335318 
693	 0.152857314665583 
694	 0.155155786704679 
695	 0.157715052359026 
696	 0.160091085795784 
697	 0.162423689447739 
698	 0.164814433856687 
699	 0.167195568777809 
700	 0.169576057635265 
701	 0.171970406567578 
702	 0.174387267869096 
703	 0.176792865694729 
704	 0.179117518201379 
705	 0.181426425621652 
706	 0.183852180370528 
707	 0.1862049414985 
708	 0.188465123236614 
709	 0.190640133119052 
710	 0.192722260781616 
711	 0.194909627841546 
712	 0.197152380956812 
713	 0.199328207358671 
714	 0.201357417789796 
715	 0.203367412833513 
716	 0.205386425819048 
717	 0.207373020781063 
718	 0.209366000139373 
719	 0.211300264349232 
720	 0.213159423476324 
721	 0.215026407323969 
722	 0.21677220504325 
723	 0.21843392533161 
724	 0.220091467172995 
725	 0.221765466426633 
726	 0.223424538885721 
727	 0.225008092568432 
728	 0.22645722917927 
729	 0.227927259430664 
730	 0.229388183245535 
731	 0.230755257360269 
732	 0.231884200171853 
733	 0.233303506733747 
734	 0.234757514563339 
735	 0.235913865873767 
736	 0.237072571653073 
737	 0.23824325672582 
738	 0.239376272950854 
739	 0.240399257747882 
740	 0.241459184480412 
741	 0.242525701273698 
742	 0.243563390585972 
743	 0.244569149007135 
744	 0.245454410143481 
745	 0.246273822392073 
746	 0.247109547858898 
747	 0.247991536098156 
748	 0.248859090719796 
749	 0.249708185040852 
750	 0.250554203010691 
751	 0.251280124828423 
752	 0.251967252107905 
753	 0.252676533077625 
754	 0.253412022662969 
755	 0.254055472889887 
756	 0.254674541127126 
757	 0.255329116606985 
758	 0.255912991789183 
759	 0.256549799936956 
760	 0.257156678894942 
761	 0.257618566446891 
762	 0.258290467391523 
763	 0.25891246824359 
764	 0.25940124791409 
765	 0.259913097113128 
766	 0.260546316905852 
767	 0.261081509997775 
768	 0.261444376550593 
769	 0.262032522163014 
770	 0.262702959032856 
771	 0.263296420719898 
772	 0.26370938431937 
773	 0.264183425517847 
774	 0.26458902106841 
775	 0.264988991556316 
776	 0.265580815428146 
777	 0.266126237549229 
778	 0.266538695218329 
779	 0.266869667914738 
780	 0.26735271954357 
781	 0.267827268334379 
782	 0.268259853101499 
783	 0.268671811474792 
784	 0.269145905074993 
785	 0.269626453177543 
786	 0.270040715216228 
787	 0.270353964232613 
788	 0.270862062154214 
789	 0.271380702185758 
790	 0.271763832898627 
791	 0.271986722492443 
792	 0.27247387612289 
793	 0.272983904089132 
794	 0.273323343448294 
795	 0.273773812748046 
796	 0.274172856729313 
797	 0.274557249859903 
798	 0.275001709578373 
799	 0.275423732077978 
800	 0.275738133797211 
801	 0.275995963472662 
802	 0.276349996055428 
803	 0.276862887798255 
804	 0.277247744817872 
805	 0.277471049074689 
806	 0.277935867163626 
807	 0.278268305627167 
808	 0.27859861807443 
809	 0.279043508389948 
810	 0.279297706612043 
811	 0.279593089993533 
812	 0.279940225593317 
813	 0.280266705936256 
814	 0.280645117705582 
815	 0.28096777921949 
816	 0.281272578262671 
817	 0.281704692490237 
818	 0.281992362147622 
819	 0.282295052942683 
820	 0.282660736394761 
821	 0.282850350420355 
822	 0.283145432055868 
823	 0.283474870446983 
824	 0.283749384350273 
825	 0.284142520576889 
826	 0.284429899779073 
827	 0.284663869977238 
828	 0.284985483592297 
829	 0.285240334352191 
830	 0.285458613353483 
831	 0.285698657294119 
832	 0.28600865075073 
833	 0.286135046571578 
834	 0.286342778960142 
835	 0.286681483408034 
836	 0.286764341130564 
837	 0.287059179797721 
838	 0.287386798214875 
839	 0.287548468576444 
840	 0.287749975282606 
841	 0.288005019636127 
842	 0.28820961548879 
843	 0.288290943643534 
844	 0.288597551335027 
845	 0.288812724654619 
846	 0.288946002827541 
847	 0.289228798010432 
848	 0.289428938219125 
849	 0.289541050589452 
850	 0.289666723926409 
851	 0.289985219264847 
852	 0.290211524668952 
853	 0.290312122923994 
854	 0.29037814039201 
855	 0.290637282226121 
856	 0.290924103056043 
857	 0.291157105976382 
858	 0.291298266402424 
859	 0.291358668906395 
860	 0.291461322572593 
861	 0.291618145247165 
862	 0.291768001953344 
863	 0.291827387255757 
864	 0.291903211650614 
865	 0.292044750264297 
866	 0.292227687526879 
867	 0.292360331947423 
868	 0.292423039007041 
869	 0.292489512141248 
870	 0.292726578108616 
871	 0.292846799676941 
872	 0.292820603191121 
873	 0.292802721794255 
874	 0.293224791179996 
875	 0.293433517812667 
876	 0.293361644556962 
877	 0.293219949290149 
878	 0.293428470490036 
879	 0.293694325674248 
880	 0.293776310964435 
881	 0.29359998527532 
882	 0.293735832263455 
883	 0.293928748464772 
884	 0.294097594488804 
885	 0.294314745798102 
886	 0.294466989771719 
887	 0.294507421250673 
888	 0.294477730422435 
889	 0.294502717177814 
890	 0.29459144036673 
891	 0.294675393924959 
892	 0.294764785402413 
893	 0.295025881588417 
894	 0.295143645590542 
895	 0.295120634503534 
896	 0.295096504237019 
897	 0.295337731230191 
898	 0.29547312308817 
899	 0.295520998262408 
900	 0.29562777715493 
901	 0.295897335873338 
902	 0.295828009362372 
903	 0.295653123423606 
904	 0.295846941047198 
905	 0.295995775688733 
906	 0.296192019173356 
907	 0.29632821170384 
908	 0.296219133497753 
909	 0.296281665523146 
910	 0.296470156439083 
911	 0.296635422485366 
912	 0.296621010409913 
913	 0.296798462019851 
914	 0.296990627246915 
915	 0.297098569404462 
916	 0.29723938629314 
917	 0.297252671705301 
918	 0.297238955256981 
919	 0.297316439308465 
920	 0.297529839646326 
921	 0.297705693536257 
922	 0.297830919261621 
923	 0.297957635566225 
924	 0.298192722547228 
925	 0.298217862414777 
926	 0.298254176735309 
927	 0.298497264192416 
928	 0.298421250543246 
929	 0.298500664400371 
930	 0.298676972647291 
931	 0.298749375386728 
932	 0.298974975352602 
933	 0.299058954199604 
934	 0.29914346576741 
935	 0.299481354668773 
936	 0.299506027059861 
937	 0.299748013835904 
938	 0.300080723733358 
939	 0.300024086989476 
940	 0.300225489825511 
941	 0.300531675365143 
942	 0.300752660948405 
943	 0.300776141873722 
944	 0.300853082573183 
945	 0.300929536713593 
946	 0.3009987392018 
947	 0.301136751811017 
948	 0.301376533012844 
949	 0.301524834464814 
950	 0.30165810514277 
951	 0.302144253001826 
952	 0.301914122503817 
953	 0.301720158208848 
954	 0.302046405908057 
955	 0.302474560549615 
956	 0.302620498821003 
957	 0.302761386111196 
958	 0.303004668225284 
959	 0.30292651044477 
960	 0.302978294498583 
961	 0.303270709705713 
962	 0.303641410207063 
963	 0.303599712349447 
964	 0.303532439758922 
965	 0.303431010847383 
966	 0.303314921452178 
967	 0.303464658778925 
968	 0.304104695158741 
969	 0.3044077349321 
970	 0.304008324637654 
971	 0.3044419918368 
972	 0.304338789877161 
973	 0.304110078280161 
974	 0.304382693618025 
975	 0.304856702512146 
976	 0.304944874582977 
977	 0.304839734368143 
978	 0.30492014824965 
979	 0.305230594645969 
980	 0.305545490770744 
981	 0.305510603023417 
982	 0.305187303842125 
983	 0.3060757863664 
984	 0.305940728109349 
985	 0.305515992934638 
986	 0.305962415987207 
987	 0.306126333918739 
988	 0.306192621409395 
989	 0.306399027868729 
990	 0.306755660021709 
991	 0.306383989345119 
992	 0.306388123671227 
993	 0.306517177951012 
994	 0.306336689600514 
995	 0.306593855029671 
996	 0.306810165254284 
997	 0.306961396734704 
998	 0.307121685766595 
999	 0.307090177359614 
1000	 0.307331276309973 
1001	 0.305471015291272 
1002	 0.305605045900995 
1003	 0.305629311874742 
1004	 0.305832163911986 
1005	 0.306282507855198 
1006	 0.306429939495429 
1007	 0.306507701782198 
1008	 0.306574390525923 
1009	 0.306447294142458 
1010	 0.306560565590798 
1011	 0.306930724495185 
1012	 0.307025060533991 
1013	 0.306974923925285 
1014	 0.306987578997032 
1015	 0.306906481181646 
1016	 0.306808293297607 
1017	 0.306803512212905 
1018	 0.306991708578887 
1019	 0.306960614624897 
1020	 0.307127130469386 
1021	 0.307270789530585 
1022	 0.307486571934955 
1023	 0.307616607558378 
1024	 0.307772001388692 
1025	 0.307792170288417 
1026	 0.307604998919887 
1027	 0.307682469548813 
1028	 0.307797816756206 
1029	 0.308018239019924 
1030	 0.308246558730861 
1031	 0.308530203349681 
1032	 0.308680162823257 
1033	 0.308630090383365 
1034	 0.3086653646304 
1035	 0.308745034941824 
1036	 0.308804364149207 
1037	 0.308865599282883 
1038	 0.308885981900637 
1039	 0.30889494046644 
1040	 0.308910117363367 
1041	 0.308840497840789 
1042	 0.308843381257729 
1043	 0.308880579342434 
1044	 0.308959583201847 
1045	 0.309113163520151 
1046	 0.309308400122821 
1047	 0.3094689068247 
1048	 0.309563669525562 
1049	 0.30945493975972 
1050	 0.309368441332894 
1051	 0.309347301314759 
1052	 0.309241847738498 
1053	 0.309304243619308 
1054	 0.309561281138321 
1055	 0.309694688714864 
1056	 0.309876030326722 
1057	 0.309984364306233 
1058	 0.310028180394463 
1059	 0.30998833169044 
1060	 0.310063285061583 
1061	 0.310346999831036 
1062	 0.310450329122116 
1063	 0.310426741517544 
1064	 0.310475062740315 
1065	 0.310489191587022 
1066	 0.310617894290358 
1067	 0.310845231759217 
1068	 0.310855639952522 
1069	 0.310861097975968 
1070	 0.310896440024899 
1071	 0.310889853127766 
1072	 0.310904112594718 
1073	 0.311121595454109 
1074	 0.311199010532504 
1075	 0.311172753843923 
1076	 0.311180821207051 
1077	 0.311279319468324 
1078	 0.311425064840917 
1079	 0.311562153026451 
1080	 0.311734978615144 
1081	 0.311778704404285 
1082	 0.311833989780492 
1083	 0.311936922009028 
1084	 0.311927192651565 
1085	 0.311924092558997 
1086	 0.311983012657679 
1087	 0.312000811826675 
1088	 0.312026299837024 
1089	 0.312241927802805 
1090	 0.312573088992866 
1091	 0.312797428794173 
1092	 0.312898949379942 
1093	 0.312988428172572 
1094	 0.312998721264909 
1095	 0.312912956942537 
1096	 0.312900605909534 
1097	 0.312951625347506 
1098	 0.313036098723426 
1099	 0.313214270276186 
1100	 0.313395865613888 
1101	 0.313521641706807 
1102	 0.31360498937449 
1103	 0.313688468008279 
1104	 0.313717789383242 
1105	 0.313759809650241 
1106	 0.313813366330946 
1107	 0.313964295392157 
1108	 0.31405153437426 
1109	 0.314158642058538 
1110	 0.314441243075495 
1111	 0.314565315698156 
1112	 0.314633584708999 
1113	 0.314836774421452 
1114	 0.315019931125801 
1115	 0.315179859611542 
1116	 0.315395550472899 
1117	 0.315545005082513 
1118	 0.315622372915267 
1119	 0.315521387770744 
1120	 0.315626886378773 
1121	 0.315778313864744 
1122	 0.315938248037076 
1123	 0.316203176671691 
1124	 0.316408718790264 
1125	 0.316505089807361 
1126	 0.316628822684387 
1127	 0.316736232452684 
1128	 0.31686671440613 
1129	 0.316987959414593 
1130	 0.317052112732593 
1131	 0.317169123591928 
1132	 0.317365165766828 
1133	 0.317559149605157 
1134	 0.317688369093832 
1135	 0.317795204099046 
1136	 0.317808889308312 
1137	 0.317890045535428 
1138	 0.317985759275444 
1139	 0.318101583782398 
1140	 0.318286316308696 
1141	 0.318407112795486 
1142	 0.318352643049682 
1143	 0.318345384216205 
1144	 0.318453048578947 
1145	 0.318478879160861 
1146	 0.318573694313938 
1147	 0.318772426314228 
1148	 0.318882583222023 
1149	 0.318947169704815 
1150	 0.319023650346383 
1151	 0.319108911040212 
1152	 0.319212623971351 
1153	 0.319285763370324 
1154	 0.319377561063645 
1155	 0.319553155814108 
1156	 0.31964153406546 
1157	 0.319674036792837 
1158	 0.31971175118742 
1159	 0.319728752404002 
1160	 0.319713514958205 
1161	 0.319774849493884 
1162	 0.319819452108949 
1163	 0.319902598178441 
1164	 0.319997372358237 
1165	 0.320023125936551 
1166	 0.320105309411688 
1167	 0.320152623763586 
1168	 0.320150245147953 
1169	 0.320168055723736 
1170	 0.320159580340534 
1171	 0.320182574754423 
1172	 0.320196459554517 
1173	 0.320250623476769 
1174	 0.320369003366187 
1175	 0.320448584830375 
1176	 0.320564344143403 
1177	 0.320632026710999 
1178	 0.320680317294871 
1179	 0.320655025260778 
1180	 0.320622398551294 
1181	 0.320658410762908 
1182	 0.320804496812665 
1183	 0.320902494330086 
1184	 0.3209892309752 
1185	 0.321102830728005 
1186	 0.321184628965846 
1187	 0.321201957058051 
1188	 0.321298434038323 
1189	 0.321456492922121 
1190	 0.321526996322476 
1191	 0.321573409497878 
1192	 0.321643236711616 
1193	 0.321650146971728 
1194	 0.321729739479033 
1195	 0.321859404228196 
1196	 0.321993323906058 
1197	 0.322124949845848 
1198	 0.322333713649485 
1199	 0.322511442965166 
1200	 0.322697086944717 
1201	 0.322886472841332 
1202	 0.323017363884789 
1203	 0.323187620214368 
1204	 0.323409975911312 
1205	 0.323589689874282 
1206	 0.323731854146111 
1207	 0.323972356852189 
1208	 0.324223477118192 
1209	 0.324494080450564 
1210	 0.324815759697127 
1211	 0.325191382514626 
1212	 0.325604374461256 
1213	 0.326033205472015 
1214	 0.326561308903636 
1215	 0.327025506444948 
1216	 0.327418900261553 
1217	 0.327872144479972 
1218	 0.328350596339049 
1219	 0.32882784832173 
1220	 0.329380762539454 
1221	 0.329956309393027 
1222	 0.330445208659698 
1223	 0.331040819531265 
1224	 0.331621922011163 
1225	 0.332209510511906 
1226	 0.33275707214212 
1227	 0.333334868915911 
1228	 0.333871939310281 
1229	 0.334380453382959 
1230	 0.334844758318345 
1231	 0.335266957400098 
1232	 0.335714908413013 
1233	 0.336138027062066 
1234	 0.336532166180656 
1235	 0.336911772968938 
1236	 0.337331070666966 
1237	 0.337711369331107 
1238	 0.338117001969091 
1239	 0.338588948990323 
1240	 0.339062793854557 
1241	 0.339451427516124 
1242	 0.339884193846427 
1243	 0.340305844309992 
1244	 0.340728914589274 
1245	 0.341142459126541 
1246	 0.34159208334508 
1247	 0.341938856736032 
1248	 0.342198546677203 
1249	 0.342539677263635 
1250	 0.3428283211663 
1251	 0.34319297738811 
1252	 0.343701402257931 
1253	 0.344079307605402 
1254	 0.3444127176906 
1255	 0.34474247108697 
1256	 0.344992057807402 
1257	 0.345292643415322 
1258	 0.345602751626369 
1259	 0.345929400009899 
1260	 0.346293388094036 
1261	 0.34664108796021 
1262	 0.34699755106435 
1263	 0.347358784934373 
1264	 0.347684755398067 
1265	 0.347989199076701 
1266	 0.348290586607936 
1267	 0.348561411062485 
1268	 0.348868062554555 
1269	 0.34920521731347 
1270	 0.349484594841362 
1271	 0.349751794241543 
1272	 0.350010483262775 
1273	 0.350208958053016 
1274	 0.350459054141465 
1275	 0.350738875846355 
1276	 0.351011471700058 
1277	 0.351260899816155 
1278	 0.351568397301754 
1279	 0.35194962153455 
1280	 0.352264740473734 
1281	 0.352586310659416 
1282	 0.352901413979342 
1283	 0.353152493884785 
1284	 0.353425981061617 
1285	 0.353710919111177 
1286	 0.354029092290824 
1287	 0.354319558982201 
1288	 0.354597239182893 
1289	 0.354878822748591 
1290	 0.355144280624009 
1291	 0.355456119821799 
1292	 0.355804837303098 
1293	 0.356103881055769 
1294	 0.356426595073126 
1295	 0.356702835403194 
1296	 0.356898991704192 
1297	 0.357153695467494 
1298	 0.3574151110366 
1299	 0.357694594145919 
1300	 0.358018595131075 
1301	 0.35830327525953 
1302	 0.358567599684178 
1303	 0.358851917294583 
1304	 0.359138192631054 
1305	 0.359407931019457 
1306	 0.35972145204559 
1307	 0.359972569907267 
1308	 0.360179819857522 
1309	 0.360330311347629 
1310	 0.360563009786145 
1311	 0.360790371079801 
1312	 0.361038168130667 
1313	 0.361340640515991 
1314	 0.361613116172365 
1315	 0.361867326359923 
1316	 0.362128527341918 
1317	 0.362410517590201 
1318	 0.362667053919971 
1319	 0.362891815634388 
1320	 0.363143951090903 
1321	 0.363390893715978 
1322	 0.363663455776126 
1323	 0.363983803292465 
1324	 0.364250121858036 
1325	 0.36452408373631 
1326	 0.364756522490742 
1327	 0.364896405706711 
1328	 0.365110750204914 
1329	 0.365349958525626 
1330	 0.365582196432541 
1331	 0.365859711632717 
1332	 0.366110899780308 
1333	 0.366344388178102 
1334	 0.366573947541811 
1335	 0.366763162106945 
1336	 0.366945737434709 
1337	 0.367087880078551 
1338	 0.367142132851763 
1339	 0.367327814577242 
1340	 0.367542911952833 
1341	 0.367767469487488 
1342	 0.368133486563473 
1343	 0.368288958844034 
1344	 0.368346930924602 
1345	 0.368413215034279 
1346	 0.368322418838729 
1347	 0.368398087483043 
1348	 0.368591838436915 
1349	 0.368689328247659 
1350	 0.368827497158816 
1351	 0.368905698096027 
1352	 0.368846390928795 
1353	 0.368902537913288 
1354	 0.369043001979575 
1355	 0.369117225583965 
1356	 0.369213414372684 
1357	 0.369284881533052 
1358	 0.36925166060391 
1359	 0.369301947259525 
1360	 0.369435060550455 
1361	 0.369531272766813 
1362	 0.369557802863495 
1363	 0.369616812281889 
1364	 0.369639580772245 
1365	 0.369594475209857 
1366	 0.369573483955373 
1367	 0.369584246002104 
1368	 0.369553609425569 
1369	 0.369471466144588 
1370	 0.369422857490467 
1371	 0.369401239148608 
1372	 0.369328556648848 
1373	 0.369246526846015 
1374	 0.369138957902475 
1375	 0.368984076969271 
1376	 0.368850250992471 
1377	 0.368726176544145 
1378	 0.368563126094333 
1379	 0.368369658032579 
1380	 0.3682007679123 
1381	 0.368005857706165 
1382	 0.367834551411706 
1383	 0.367735167037881 
1384	 0.367551716114362 
1385	 0.367327667581752 
1386	 0.367097194876982 
1387	 0.366781811728018 
1388	 0.366533953582277 
1389	 0.366311482808893 
1390	 0.36610700625431 
1391	 0.365922644677208 
1392	 0.365770077505794 
1393	 0.365655573242793 
1394	 0.365560651914246 
1395	 0.365514460480994 
1396	 0.365569999360805 
1397	 0.365482376828891 
1398	 0.365384274640254 
1399	 0.365233047954593 
1400	 0.365020274618635 
1401	 0.36473756776933 
1402	 0.364433062314611 
1403	 0.364049295138128 
1404	 0.36354753676897 
1405	 0.363063909084019 
1406	 0.362534171827711 
1407	 0.362023849146116 
1408	 0.361524330926466 
1409	 0.360957990447804 
1410	 0.360368990380995 
1411	 0.359768855191671 
1412	 0.359066059118329 
1413	 0.358455040104865 
1414	 0.35788211719352 
1415	 0.35732775576499 
1416	 0.356820722100845 
1417	 0.356303484503859 
1418	 0.355812674936268 
1419	 0.355299977086592 
1420	 0.354774599642307 
1421	 0.354256786728039 
1422	 0.353697076055511 
1423	 0.353200262619656 
1424	 0.352768683178342 
1425	 0.352288585372557 
1426	 0.351877916650162 
1427	 0.351460808077414 
1428	 0.351014980712737 
1429	 0.35062721290921 
1430	 0.350223588921868 
1431	 0.349844217612416 
1432	 0.349423568767056 
1433	 0.349007405524929 
1434	 0.34853281429571 
1435	 0.348025894099221 
1436	 0.347481486819221 
1437	 0.346890641998271 
1438	 0.346301830415552 
1439	 0.345660348334406 
1440	 0.345071090607533 
1441	 0.344447852048365 
1442	 0.343925427149108 
1443	 0.343413492622335 
1444	 0.343036066912841 
1445	 0.342696983545419 
1446	 0.342561100726022 
1447	 0.342521822617906 
1448	 0.342697477870847 
1449	 0.34310841427204 
1450	 0.343582107393232 
1451	 0.344234712016331 
1452	 0.344942983863294 
1453	 0.345791728581958 
1454	 0.346616560379822 
1455	 0.347530629311943 
1456	 0.348421861161733 
1457	 0.34935348150127 
1458	 0.350207739756301 
1459	 0.351057839022291 
1460	 0.351857674448595 
1461	 0.35256065712429 
1462	 0.353264823427517 
1463	 0.353942951515209 
1464	 0.354618451548146 
1465	 0.355231125346105 
1466	 0.355939439611154 
1467	 0.356595884782202 
1468	 0.357195878633539 
1469	 0.357824171651481 
1470	 0.358381940870131 
1471	 0.358939603876175 
1472	 0.359495145756537 
1473	 0.360007829316677 
1474	 0.360481271803572 
1475	 0.360938565015864 
1476	 0.36136395085721 
1477	 0.361807733517825 
1478	 0.362249352323487 
1479	 0.36264803110084 
1480	 0.363053529980482 
1481	 0.363398841566449 
1482	 0.363686632086392 
1483	 0.363957061156782 
1484	 0.364228279509809 
1485	 0.364405298932248 
1486	 0.364459610591807 
1487	 0.364624428919513 
1488	 0.364726178508452 
1489	 0.364957461077243 
1490	 0.365302269592522 
1491	 0.365654245285976 
1492	 0.36605500677101 
1493	 0.366482861405046 
1494	 0.366942559241879 
1495	 0.367444712864404 
1496	 0.368006390342315 
1497	 0.368556741069704 
1498	 0.369101614148798 
1499	 0.36972886803881 
1500	 0.370414798252065 
1501	 0.371080411131358 
1502	 0.371831695175045 
1503	 0.372520653465152 
1504	 0.373195800688438 
1505	 0.373803445798231 
1506	 0.374365820593222 
1507	 0.374915788563034 
1508	 0.375400200501718 
1509	 0.375872551830215 
1510	 0.376337842016108 
1511	 0.376784521470471 
1512	 0.377192206277808 
1513	 0.377595391031882 
1514	 0.378015679516228 
1515	 0.378389603076074 
1516	 0.378726490178242 
1517	 0.379045369108882 
1518	 0.379323243121045 
1519	 0.379594533741264 
1520	 0.379846425176803 
1521	 0.380096588616172 
1522	 0.380335650387152 
1523	 0.380548291552437 
1524	 0.380740986786264 
1525	 0.380913859171394 
1526	 0.381074528289882 
1527	 0.381207374789837 
1528	 0.381351990141741 
1529	 0.38149243421701 
1530	 0.381619874471279 
1531	 0.381744288038496 
1532	 0.381857315166481 
1533	 0.381959046280191 
1534	 0.382047926616455 
1535	 0.382106091837019 
1536	 0.382222213639229 
1537	 0.382334402022491 
1538	 0.382496949059947 
1539	 0.382689564847025 
1540	 0.382952983962731 
1541	 0.383267018395015 
1542	 0.383593700421411 
1543	 0.383980138574788 
1544	 0.384386055677004 
1545	 0.384800480106077 
1546	 0.385245408056431 
1547	 0.385758281421755 
1548	 0.386239230850654 
1549	 0.386698507784068 
1550	 0.387207038443288 
1551	 0.387757708453519 
1552	 0.388272562760849 
1553	 0.388829063633688 
1554	 0.389305128497863 
1555	 0.389686592901644 
1556	 0.390156643379949 
1557	 0.390631638793357 
1558	 0.391113391817309 
1559	 0.391663172470071 
1560	 0.392154579397857 
1561	 0.392613663527956 
1562	 0.393062317345961 
1563	 0.393487080239506 
1564	 0.393924464470221 
1565	 0.394355455139135 
1566	 0.394773701669065 
1567	 0.395196419103948 
1568	 0.395608682160486 
1569	 0.396002823145826 
1570	 0.396389808157378 
1571	 0.396727716822272 
1572	 0.397158157165051 
1573	 0.397672083332081 
1574	 0.398090898171919 
1575	 0.398562048349656 
1576	 0.398941208321614 
1577	 0.399169667629453 
1578	 0.399468682324457 
1579	 0.399762929366669 
1580	 0.400080718738467 
1581	 0.400390339953257 
1582	 0.400755040090414 
1583	 0.401188602672586 
1584	 0.40158341862928 
1585	 0.402020932450822 
1586	 0.402405224133745 
1587	 0.402722738514008 
1588	 0.403073069975998 
1589	 0.403434201795639 
1590	 0.403769004208265 
1591	 0.404111296058876 
1592	 0.404426396974014 
1593	 0.404670609369375 
1594	 0.404976841898111 
1595	 0.405300286821065 
1596	 0.405638904421703 
1597	 0.406034615978605 
1598	 0.406399535916963 
1599	 0.406758769873173 
1600	 0.407106640977891 
1601	 0.407430840136038 
1602	 0.407771175224704 
1603	 0.408136042646181 
1604	 0.408459797203022 
1605	 0.408768695041644 
1606	 0.409070375883126 
1607	 0.409310324064099 
1608	 0.40960451968229 
1609	 0.409948289948787 
1610	 0.410261399600362 
1611	 0.410585220701043 
1612	 0.410894379155887 
1613	 0.411183850154251 
1614	 0.411461030042605 
1615	 0.411739686091147 
1616	 0.411999723819671 
1617	 0.412212874361522 
1618	 0.412459079939128 
1619	 0.412738581999842 
1620	 0.412976095862594 
1621	 0.413234792366323 
1622	 0.413437297066248 
1623	 0.413537860260275 
1624	 0.413700545218533 
1625	 0.413880413978198 
1626	 0.414035086172351 
1627	 0.414198915529795 
1628	 0.414379004365883 
1629	 0.414523732455983 
1630	 0.414712256016642 
1631	 0.414991950410185 
1632	 0.41519029058864 
1633	 0.415362509553641 
1634	 0.415518487412602 
1635	 0.415621127772124 
1636	 0.415727830753955 
1637	 0.415802724175378 
1638	 0.415922312437642 
1639	 0.416046477041893 
1640	 0.416194018713642 
1641	 0.416419881124823 
1642	 0.416584608603697 
1643	 0.416718372744081 
1644	 0.416855436701502 
1645	 0.416985649353947 
1646	 0.417089798439669 
1647	 0.41717249855891 
1648	 0.41725405470958 
1649	 0.417330595103661 
1650	 0.417369513847303 
1651	 0.417419412257226 
1652	 0.417416829775157 
1653	 0.417334386341836 
1654	 0.417261588246559 
1655	 0.417179453040713 
1656	 0.417068211007855 
1657	 0.416956287067046 
1658	 0.416800101864961 
1659	 0.416595973999527 
1660	 0.41638271015015 
1661	 0.416129781040183 
1662	 0.415880879922971 
1663	 0.415665350303747 
1664	 0.415336806739372 
1665	 0.414967040957647 
1666	 0.414546698893411 
1667	 0.414028175886767 
1668	 0.413512119885827 
1669	 0.41304024496527 
1670	 0.412389771371471 
1671	 0.411617071633224 
1672	 0.410801420444706 
1673	 0.409835092209926 
1674	 0.408896530012336 
1675	 0.407983113960124 
1676	 0.406997492011993 
1677	 0.40596651600177 
1678	 0.404875930495489 
1679	 0.403711222225059 
1680	 0.402506477305298 
1681	 0.401286662420842 
1682	 0.399937215872552 
1683	 0.398503278585453 
1684	 0.397040874098345 
1685	 0.395441868291722 
1686	 0.393899770695472 
1687	 0.392377543264988 
1688	 0.390765946489054 
1689	 0.389135216567908 
1690	 0.387428185170585 
1691	 0.385652708021979 
1692	 0.38385500228928 
1693	 0.382011531365083 
1694	 0.38013860760188 
1695	 0.378191981424169 
1696	 0.37625970658669 
1697	 0.374337208779197 
1698	 0.372300786862704 
1699	 0.370233474713728 
1700	 0.368168310733571 
1701	 0.365979901719028 
1702	 0.363907976933836 
1703	 0.361838698028899 
1704	 0.359877067714822 
1705	 0.357945873034058 
1706	 0.356164872354408 
1707	 0.354587565397337 
1708	 0.353079764333518 
1709	 0.3516383417672 
1710	 0.350320081132311 
1711	 0.34906859121352 
1712	 0.347953954315059 
1713	 0.34689544585791 
1714	 0.345880313421512 
1715	 0.344869187602869 
1716	 0.343791317408374 
1717	 0.342836094911248 
1718	 0.341859891007558 
1719	 0.340918224727198 
1720	 0.340155939889632 
1721	 0.339323365342591 
1722	 0.33862226892602 
1723	 0.338089995823429 
1724	 0.337494306322808 
1725	 0.337032331689064 
1726	 0.336650908995992 
1727	 0.336317101044991 
1728	 0.336185361207659 
1729	 0.336228178562075 
1730	 0.33646179890938 
1731	 0.33688445096631 
1732	 0.337485678549455 
1733	 0.338193794425842 
1734	 0.339024993065933 
1735	 0.339870829283881 
1736	 0.3406956083911 
1737	 0.341553532948365 
1738	 0.342327369594531 
1739	 0.34294561676869 
1740	 0.343483378989953 
1741	 0.343869777848881 
1742	 0.344104519380805 
1743	 0.344219547347582 
1744	 0.34413602285235 
1745	 0.344083811151827 
1746	 0.343945197258859 
1747	 0.343808272660186 
1748	 0.343595214567275 
1749	 0.343513824751889 
1750	 0.343426281531996 
1751	 0.343437435897932 
1752	 0.343582648687114 
1753	 0.343776260268772 
1754	 0.344006916293798 
1755	 0.34430167457969 
1756	 0.344648607595631 
1757	 0.345116961565879 
1758	 0.345698646351106 
1759	 0.346322742972237 
1760	 0.347123455812239 
1761	 0.348021265145048 
1762	 0.348931654449506 
1763	 0.350017454022301 
1764	 0.351103572632403 
1765	 0.352206338913527 
1766	 0.353518634812078 
1767	 0.354877961509253 
1768	 0.356375137664121 
1769	 0.357919736891205 
1770	 0.359219258413639 
1771	 0.360511553268464 
1772	 0.361810165844568 
1773	 0.36304092306696 
1774	 0.364318566735479 
1775	 0.365467598053335 
1776	 0.36654356097251 
1777	 0.367554929413425 
1778	 0.368434225051786 
1779	 0.369308142819153 
1780	 0.370098500757382 
1781	 0.370873487369569 
1782	 0.371724941906973 
1783	 0.37255514849561 
1784	 0.373233344406008 
1785	 0.373711541813459 
1786	 0.37426000807473 
1787	 0.374692335985946 
1788	 0.375225094303428 
1789	 0.375891441667415 
1790	 0.376394208474518 
1791	 0.376834438711317 
1792	 0.377325832867305 
1793	 0.377775842062898 
1794	 0.378268347903114 
1795	 0.378684256553035 
1796	 0.379054274248328 
1797	 0.379474623998928 
1798	 0.379840778369403 
1799	 0.380226747292531 
1800	 0.380701355201616 
1801	 0.382787726020949 
1802	 0.383159256982897 
1803	 0.383519599085967 
1804	 0.383893961686741 
1805	 0.384194185302603 
1806	 0.384527204163219 
1807	 0.384864070229581 
1808	 0.385184522254683 
1809	 0.385498833235989 
1810	 0.385811119516047 
1811	 0.386069622811543 
1812	 0.386387596446476 
1813	 0.386704628476549 
1814	 0.387129240734147 
1815	 0.38752536894184 
1816	 0.387842274461622 
1817	 0.388188559577614 
1818	 0.38847405822879 
1819	 0.388823970419806 
1820	 0.389226469850722 
1821	 0.389618220440275 
1822	 0.390022278836663 
1823	 0.390463413965911 
1824	 0.390833969572777 
1825	 0.391170938117872 
1826	 0.391504414329298 
1827	 0.391763654528516 
1828	 0.392120789737617 
1829	 0.392531854789192 
1830	 0.392896917212102 
1831	 0.393286717551356 
1832	 0.393685889305543 
1833	 0.393983828064771 
1834	 0.394283191246935 
1835	 0.394562906819492 
1836	 0.394818393857391 
1837	 0.395122725902864 
1838	 0.395466297098421 
1839	 0.395745660451825 
1840	 0.396000314703397 
1841	 0.396301062264945 
1842	 0.396591443917388 
1843	 0.396876986143963 
1844	 0.397195186603255 
1845	 0.39748381150472 
1846	 0.397675339353497 
1847	 0.397810477608767 
1848	 0.397914224816291 
1849	 0.397947637169439 
1850	 0.398019492164424 
1851	 0.398089337644145 
1852	 0.398114891888959 
1853	 0.398099592138958 
1854	 0.398113798927509 
1855	 0.3980629296256 
1856	 0.397951556965205 
1857	 0.397856396293075 
1858	 0.397703218724782 
1859	 0.397462844583714 
1860	 0.397086219226761 
1861	 0.396751882977248 
1862	 0.396403043604426 
1863	 0.396005851527704 
1864	 0.395562817346395 
1865	 0.395126853022611 
1866	 0.394516501470679 
1867	 0.393797565817777 
1868	 0.393049641599694 
1869	 0.392271847143839 
1870	 0.39147001267047 
1871	 0.390693129468668 
1872	 0.389823110454203 
1873	 0.388929122363586 
1874	 0.387918205797227 
1875	 0.386844602113047 
1876	 0.385632640803323 
1877	 0.384418972491973 
1878	 0.383080516175782 
1879	 0.381598432670017 
1880	 0.380215355365801 
1881	 0.378683098967663 
1882	 0.377014255625857 
1883	 0.375322978218973 
1884	 0.373617418884224 
1885	 0.371582921461911 
1886	 0.369559845371741 
1887	 0.367486153309554 
1888	 0.36519202136105 
1889	 0.362990808383927 
1890	 0.360683002624489 
1891	 0.358325167052537 
1892	 0.355937973053692 
1893	 0.353456730680999 
1894	 0.350865911066596 
1895	 0.348353712573694 
1896	 0.345706778462639 
1897	 0.343062007443011 
1898	 0.340675551942063 
1899	 0.338229411831822 
1900	 0.335879764059978 
1901	 0.333663634593201 
1902	 0.331278031048003 
1903	 0.328943060540929 
1904	 0.32668345665013 
1905	 0.324411545568613 
1906	 0.322206776470443 
1907	 0.320332578877411 
1908	 0.318533619508779 
1909	 0.316820309327616 
1910	 0.315246574837599 
1911	 0.313536803045827 
1912	 0.311901870599934 
1913	 0.310381083420852 
1914	 0.308835899022094 
1915	 0.307380251262438 
1916	 0.306035726029823 
1917	 0.304703986574644 
1918	 0.303396239465821 
1919	 0.302131840865748 
1920	 0.300859420426027 
1921	 0.299702373074243 
1922	 0.298498953184999 
1923	 0.297286151220141 
1924	 0.296218911583221 
1925	 0.295074082350058 
1926	 0.29396586056354 
1927	 0.29289523684734 
1928	 0.29187596383576 
1929	 0.290871237988628 
1930	 0.289866557841816 
1931	 0.288999053503735 
1932	 0.288074981391507 
1933	 0.287155867799842 
1934	 0.28646614130632 
1935	 0.285910183394107 
1936	 0.28541550789294 
1937	 0.284978676273691 
1938	 0.284641200852292 
1939	 0.284421762087328 
1940	 0.284256771387223 
1941	 0.284182350906754 
1942	 0.284264493041399 
1943	 0.284427430710303 
1944	 0.284512128270513 
1945	 0.284696003714147 
1946	 0.285079659175765 
1947	 0.28540674869742 
1948	 0.285904437634715 
1949	 0.286589704041431 
1950	 0.287309179620778 
1951	 0.288131723025281 
1952	 0.289040363421625 
1953	 0.290035497466306 
1954	 0.291078945178034 
1955	 0.292239057577217 
1956	 0.293410962825976 
1957	 0.294669805036914 
1958	 0.295952703009419 
1959	 0.29713643995006 
1960	 0.298335255498755 
1961	 0.299421054190675 
1962	 0.300404392756405 
1963	 0.301333448489176 
1964	 0.30222734214537 
1965	 0.302996002773339 
1966	 0.303666518348786 
1967	 0.304278355436367 
1968	 0.304804882961256 
1969	 0.305333937457725 
1970	 0.305800313362322 
1971	 0.306287907248457 
1972	 0.306786809008944 
1973	 0.307219013828846 
1974	 0.307771638840073 
1975	 0.308413044560466 
1976	 0.309042435196611 
1977	 0.309718946161304 
1978	 0.310446914332309 
1979	 0.311222078926396 
1980	 0.311952284077644 
1981	 0.312791812929047 
1982	 0.313539409071952 
1983	 0.314298401267717 
1984	 0.315155744195531 
1985	 0.315938839492632 
1986	 0.316826224339435 
1987	 0.317757403588519 
1988	 0.318655161572455 
1989	 0.319702100282927 
1990	 0.320854646961851 
1991	 0.322084872169543 
1992	 0.323395026174094 
1993	 0.324842115578586 
1994	 0.326309159691386 
1995	 0.327863197679661 
1996	 0.329419113667596 
1997	 0.3310396301811 
1998	 0.332661590141701 
1999	 0.334349851632269 
2000	 0.335926194988556 
2001	 0.337525733828263 
2002	 0.33902216703765 
2003	 0.340443527367228 
2004	 0.341822904064618 
2005	 0.343145581299298 
2006	 0.344399231170222 
2007	 0.345595888168673 
2008	 0.346729749649027 
2009	 0.347772646215893 
2010	 0.348753150958971 
2011	 0.349643056202352 
2012	 0.350445605757615 
2013	 0.351200220200831 
2014	 0.351883867304055 
2015	 0.352551486373343 
2016	 0.353186967794844 
2017	 0.353716472572915 
2018	 0.354162955260653 
2019	 0.354593481394443 
2020	 0.354918257336629 
2021	 0.355285254307234 
2022	 0.355589441357765 
2023	 0.355816578129415 
2024	 0.356011946565618 
2025	 0.356140424902603 
2026	 0.3562353619601 
2027	 0.356288588806307 
2028	 0.356361049042092 
2029	 0.35639964805426 
2030	 0.356416098709995 
2031	 0.356468365361281 
2032	 0.356450390849511 
2033	 0.356307792403288 
2034	 0.356227514507401 
2035	 0.356141957337996 
2036	 0.356094523115412 
2037	 0.356062358270522 
2038	 0.355986885431523 
2039	 0.355892527887553 
2040	 0.355759165452894 
2041	 0.355651413185334 
2042	 0.355543745506631 
2043	 0.355431924440587 
2044	 0.355316388987155 
2045	 0.355198739026393 
2046	 0.35504250665086 
2047	 0.354940849060977 
2048	 0.354886412107512 
2049	 0.354819404532011 
2050	 0.354772828930987 
2051	 0.354731292923201 
2052	 0.354698854976354 
2053	 0.35459631468078 
2054	 0.35451262512178 
2055	 0.354442568247988 
2056	 0.354339132512482 
2057	 0.354172354461993 
2058	 0.354092039595168 
2059	 0.354054781827398 
2060	 0.353976399548024 
2061	 0.353932401559517 
2062	 0.353862336728512 
2063	 0.353717496108941 
2064	 0.353633525700256 
2065	 0.353547259582057 
2066	 0.353532343114281 
2067	 0.35361798866103 
2068	 0.353637140832869 
2069	 0.353627932170018 
2070	 0.353635650186906 
2071	 0.353618282219042 
2072	 0.353535300509944 
2073	 0.353485801555743 
2074	 0.353472384737388 
2075	 0.353410638058829 
2076	 0.353315295338035 
2077	 0.353213577590154 
2078	 0.353079475547054 
2079	 0.352979475813251 
2080	 0.352904347726849 
2081	 0.352778646162623 
2082	 0.352636061771295 
2083	 0.352503150903063 
2084	 0.352334823370049 
2085	 0.352219312012389 
2086	 0.352089411294163 
2087	 0.352020026017487 
2088	 0.351874571411316 
2089	 0.351706163107934 
2090	 0.351497669405319 
2091	 0.351233575891246 
2092	 0.350977503448746 
2093	 0.350639768046464 
2094	 0.350396336556852 
2095	 0.350217989592049 
2096	 0.350015080635177 
2097	 0.349891527363597 
2098	 0.349715644935332 
2099	 0.349321437085522 
2100	 0.348982655627179 
2101	 0.348636191232638 
2102	 0.348186552053226 
2103	 0.347826201248786 
2104	 0.347568939622644 
2105	 0.347211283093318 
2106	 0.346828509381813 
2107	 0.346423601046377 
2108	 0.345966738962459 
2109	 0.345538552070848 
2110	 0.345088710865317 
2111	 0.34465206844167 
2112	 0.344240917160059 
2113	 0.343811441150378 
2114	 0.343416384785181 
2115	 0.342949575683544 
2116	 0.342435372755508 
2117	 0.341886669149303 
2118	 0.341396890698235 
2119	 0.340887165416374 
2120	 0.340390746979131 
2121	 0.339965994142233 
2122	 0.339469849707456 
2123	 0.338865047026252 
2124	 0.338394332514563 
2125	 0.337969118917448 
2126	 0.337562587534506 
2127	 0.337265342903804 
2128	 0.336890016661006 
2129	 0.336460495243834 
2130	 0.336079077188035 
2131	 0.335708883976426 
2132	 0.335329869850777 
2133	 0.334920487422764 
2134	 0.334632699904664 
2135	 0.334270173969197 
2136	 0.333887463340516 
2137	 0.333610325477239 
2138	 0.333416352990906 
2139	 0.333152214070432 
2140	 0.332888095566771 
2141	 0.332696765815905 
2142	 0.332505095359703 
2143	 0.33233349534783 
2144	 0.332291803298114 
2145	 0.332134220457867 
2146	 0.33182662219016 
2147	 0.331682246464003 
2148	 0.331598254106227 
2149	 0.331518417357856 
2150	 0.331611630574241 
2151	 0.331556461400148 
2152	 0.331429903974389 
2153	 0.331234809489479 
2154	 0.331117332944393 
2155	 0.330915619230757 
2156	 0.330767585439129 
2157	 0.330682933069879 
2158	 0.330538099043719 
2159	 0.330340111986509 
2160	 0.330189691201483 
2161	 0.33004779079855 
2162	 0.329910592109045 
2163	 0.329789068800095 
2164	 0.329671101752125 
2165	 0.329557392336066 
2166	 0.329450316938643 
2167	 0.329371785412027 
2168	 0.329255293591108 
2169	 0.32914244652072 
2170	 0.328992677801238 
2171	 0.328824986743207 
2172	 0.328614137596356 
2173	 0.328358796772108 
2174	 0.328067984957477 
2175	 0.327790617638281 
2176	 0.327575096688854 
2177	 0.327440047370767 
2178	 0.327412947063172 
2179	 0.327334524436628 
2180	 0.327292372209344 
2181	 0.32724359097059 
2182	 0.327193803215139 
2183	 0.327130000640575 
2184	 0.327065231887658 
2185	 0.327033093959793 
2186	 0.327064088637225 
2187	 0.326956780256691 
2188	 0.326782437250063 
2189	 0.326650118044525 
2190	 0.326399892170043 
2191	 0.326237353081216 
2192	 0.326243058854986 
2193	 0.326112195026568 
2194	 0.325887894531984 
2195	 0.325698800983495 
2196	 0.325493157218715 
2197	 0.325246080178197 
2198	 0.325074594059134 
2199	 0.32480467538378 
2200	 0.324528694192958 
2201	 0.324176480724467 
2202	 0.323940165094917 
2203	 0.323785071873988 
2204	 0.323479288597548 
2205	 0.323172025931136 
2206	 0.322806907583108 
2207	 0.322229626168251 
2208	 0.321866243640076 
2209	 0.321715869388458 
2210	 0.321314438066467 
2211	 0.320839304895386 
2212	 0.320393803149975 
2213	 0.319741016936445 
2214	 0.319270560017894 
2215	 0.318968905840925 
2216	 0.318608405910717 
2217	 0.31830998924269 
2218	 0.317941124703274 
2219	 0.317475226123781 
2220	 0.317105143983548 
2221	 0.316753274462774 
2222	 0.316363740132667 
2223	 0.316191624987385 
2224	 0.316067284603347 
2225	 0.315956413569507 
2226	 0.315781379721269 
2227	 0.31542000462209 
2228	 0.314908100586176 
2229	 0.314432230198043 
2230	 0.31385028011066 
2231	 0.313229064043065 
2232	 0.312645581995602 
2233	 0.311881270616068 
2234	 0.310988407498096 
2235	 0.309990866062416 
2236	 0.308892308641484 
2237	 0.307699617325569 
2238	 0.306347029636936 
2239	 0.304967697208788 
2240	 0.303542384905192 
2241	 0.301996868033562 
2242	 0.300465197011072 
2243	 0.298656797943852 
2244	 0.296567947469277 
2245	 0.294499347715168 
2246	 0.292189867851946 
2247	 0.289940553695592 
2248	 0.287781352150038 
2249	 0.285488672182192 
2250	 0.283113768910432 
2251	 0.280654269467801 
2252	 0.278142353054052 
2253	 0.275745816206463 
2254	 0.273204041328142 
2255	 0.270621032137517 
2256	 0.268297500044089 
2257	 0.265848444289587 
2258	 0.263491766074631 
2259	 0.26131374072059 
2260	 0.259062264494858 
2261	 0.256731761655622 
2262	 0.254511367735102 
2263	 0.25234779773573 
2264	 0.250266318162666 
2265	 0.248184749603203 
2266	 0.246230791744344 
2267	 0.244495802049977 
2268	 0.2426248214701 
2269	 0.240781136603102 
2270	 0.238926511820056 
2271	 0.236939802485235 
2272	 0.235141080945613 
2273	 0.233467809744201 
2274	 0.231766115719156 
2275	 0.230240766089847 
2276	 0.228529094395421 
2277	 0.226689212937389 
2278	 0.224906944859011 
2279	 0.223038338386652 
2280	 0.221206147917055 
2281	 0.219509275828608 
2282	 0.217630636991823 
2283	 0.215636908822318 
2284	 0.21364209420382 
2285	 0.211503107513752 
2286	 0.209484969976694 
2287	 0.207566219026232 
2288	 0.20552797625121 
2289	 0.203456670276241 
2290	 0.201259992604453 
2291	 0.198932873166163 
2292	 0.196698301933221 
2293	 0.194634475041563 
2294	 0.192700605163319 
2295	 0.190815680703446 
2296	 0.188982127924602 
2297	 0.187332517015352 
2298	 0.185675539565631 
2299	 0.184445784953707 
2300	 0.183502303007677 
2301	 0.182770515707006 
2302	 0.18234764150817 
2303	 0.182054270518332 
2304	 0.181966961333873 
2305	 0.18212908610525 
2306	 0.182609124748972 
2307	 0.183116199232751 
2308	 0.183733046844854 
2309	 0.184631651794385 
2310	 0.185674488805259 
2311	 0.186914836254236 
2312	 0.188549432270249 
2313	 0.190155594517403 
2314	 0.191891355028629 
2315	 0.193666799686085 
2316	 0.195520857516065 
2317	 0.197441059518023 
2318	 0.199658829251911 
2319	 0.201450115598941 
2320	 0.203230823018507 
2321	 0.204701646532358 
2322	 0.205738049150858 
2323	 0.206710823338089 
2324	 0.207578444665059 
2325	 0.208196596890369 
2326	 0.208648247726969 
2327	 0.208814445557182 
2328	 0.208664203927773 
2329	 0.208433270593386 
2330	 0.207949911807554 
2331	 0.207370020307919 
2332	 0.206583674346582 
2333	 0.205740471794754 
2334	 0.204789495427612 
2335	 0.203647118473762 
2336	 0.202363231389996 
2337	 0.200952946236428 
2338	 0.199669832005169 
2339	 0.198254647985472 
2340	 0.19715069049095 
2341	 0.196238650429993 
2342	 0.195058019660614 
2343	 0.194210707712758 
2344	 0.193505728278829 
2345	 0.192830551522263 
2346	 0.192652428058913 
2347	 0.192577927583924 
2348	 0.192469686673144 
2349	 0.19279775555725 
2350	 0.193411014386809 
2351	 0.194274367489772 
2352	 0.195308487545285 
2353	 0.196501733017608 
2354	 0.197752275754202 
2355	 0.198917701933822 
2356	 0.200077176875814 
2357	 0.201204897126639 
2358	 0.202205229656798 
2359	 0.20279942754353 
2360	 0.203298484580994 
2361	 0.203829725190426 
2362	 0.204016689554986 
2363	 0.204058865538045 
2364	 0.204377208691541 
2365	 0.204392558357352 
2366	 0.203989674512214 
2367	 0.203754150168251 
2368	 0.203514441212181 
2369	 0.203203412674394 
2370	 0.203026031040803 
2371	 0.203174521025215 
2372	 0.203201230045835 
2373	 0.203214999373807 
2374	 0.203295360742365 
2375	 0.202975082662261 
2376	 0.202699529121359 
2377	 0.202572563449877 
2378	 0.202612553161933 
2379	 0.202615689800555 
2380	 0.202438726002708 
2381	 0.202207639579762 
2382	 0.202090018112695 
2383	 0.201956669503424 
2384	 0.202005165539463 
2385	 0.202229203144427 
2386	 0.202354287058298 
2387	 0.202504324543754 
2388	 0.202633862552023 
2389	 0.202799738109739 
2390	 0.203072381227578 
2391	 0.203435421676464 
2392	 0.203413575019239 
2393	 0.203319330727558 
2394	 0.203163796391721 
2395	 0.202612869264878 
2396	 0.202365622173545 
2397	 0.202305210549895 
2398	 0.202042693260779 
2399	 0.201685945004719 
2400	 0.201684563857783 
2401	 0.201734263800479 
2402	 0.201970032874717 
2403	 0.202372615607654 
2404	 0.202245417091846 
2405	 0.202127698845724 
2406	 0.202073041464305 
2407	 0.201499235405768 
2408	 0.200947170866367 
2409	 0.200916975523259 
2410	 0.200913196490263 
2411	 0.201187506396061 
2412	 0.201815709193315 
2413	 0.201764239456691 
2414	 0.201507684667525 
2415	 0.20107009367003 
2416	 0.200490227491575 
2417	 0.200705671082506 
2418	 0.200975583059578 
2419	 0.201223732111308 
2420	 0.20133351971267 
2421	 0.200778075303352 
2422	 0.200260303940418 
2423	 0.200165727755355 
2424	 0.200387509139808 
2425	 0.200615378655053 
2426	 0.201023494017907 
2427	 0.201108452279413 
2428	 0.200628830430711 
2429	 0.200544204385485 
2430	 0.200126594344834 
2431	 0.199652674568991 
2432	 0.199610674539604 
2433	 0.199257133920048 
2434	 0.199539329730714 
2435	 0.199844495792551 
2436	 0.199519318434409 
2437	 0.199421956510537 
2438	 0.199178602359886 
2439	 0.198965189275572 
2440	 0.198786456887156 
2441	 0.198637791344518 
2442	 0.198678357646524 
2443	 0.198242066076526 
2444	 0.198124494798799 
2445	 0.198345500199841 
2446	 0.197911420913427 
2447	 0.197747765320494 
2448	 0.19779178494973 
2449	 0.197490840039846 
2450	 0.197429227246019 
2451	 0.196916835458265 
2452	 0.196502567962232 
2453	 0.196556866974319 
2454	 0.195907073229713 
2455	 0.195490181954888 
2456	 0.195234957321313 
2457	 0.194665087211714 
2458	 0.194337225296682 
2459	 0.194012423835417 
2460	 0.193811124654935 
2461	 0.193567783098603 
2462	 0.193383326978592 
2463	 0.193865380228194 
2464	 0.193630438673966 
2465	 0.192761564686611 
2466	 0.192618970526782 
2467	 0.192328238537061 
2468	 0.192169994348072 
2469	 0.192347030464212 
2470	 0.191826059140344 
2471	 0.19092086961751 
2472	 0.190686391038666 
2473	 0.190841261503333 
2474	 0.191345478396371 
2475	 0.192032616637302 
2476	 0.192051248958767 
2477	 0.191978166088028 
2478	 0.191921867222481 
2479	 0.191816800018703 
2480	 0.192647307891888 
2481	 0.192408950194991 
2482	 0.191285065044578 
2483	 0.191382895743142 
2484	 0.190931455609011 
2485	 0.190437020087456 
2486	 0.190131827738641 
2487	 0.189854904372822 
2488	 0.189289692512542 
2489	 0.18891198711456 
2490	 0.189813744815684 
2491	 0.191020081718039 
2492	 0.192303651910338 
2493	 0.194177061016521 
2494	 0.194805661046535 
2495	 0.194132127001823 
2496	 0.193887555738189 
2497	 0.19441958377751 
2498	 0.194795456371794 
2499	 0.195138794311387 
2500	 0.196180114674345 
