Wavelength	Tablay400091.asd
350	 0.250008895054927 
351	 0.206192616431065 
352	 0.166957850711386 
353	 0.184500945983139 
354	 0.189951808277282 
355	 0.203142473640294 
356	 0.172253942715133 
357	 8.54091714882768E-02 
358	 5.91591567134677E-02 
359	 0.124579934498157 
360	 0.205299163629405 
361	 0.208185602643925 
362	 0.15443228697718 
363	 0.13121647694216 
364	 0.157892078766881 
365	 0.151643465868158 
366	 0.122600036283385 
367	 0.116544377001077 
368	 0.159081571895028 
369	 0.200145938723811 
370	 0.186341608845585 
371	 0.162820106525971 
372	 0.209418927116781 
373	 0.150019435848139 
374	 8.48641782729478E-02 
375	 8.98159326802839E-02 
376	 0.152240593967926 
377	 0.156469990350431 
378	 0.139489870570581 
379	 0.143749146739277 
380	 8.01468601283902E-02 
381	 7.38182177146587E-02 
382	 0.10915673489758 
383	 8.96166494355964E-02 
384	 0.100985022590271 
385	 0.10767924997772 
386	 0.09909607413884 
387	 0.124915337838652 
388	 9.52835284207073E-02 
389	 7.44516521766084E-02 
390	 0.121646422359769 
391	 0.126706478692134 
392	 0.114252523370716 
393	 0.105022576575619 
394	 0.112450539685187 
395	 0.112060765204505 
396	 0.102375873398535 
397	 8.72155854540912E-02 
398	 7.05930407603461E-02 
399	 8.39658161025112E-02 
400	 0.100639289466689 
401	 9.49463210094251E-02 
402	 0.107854887955115 
403	 0.108159586623219 
404	 9.76272008228272E-02 
405	 0.102133702829223 
406	 0.104636287682726 
407	 0.105460837966852 
408	 0.103224825742479 
409	 8.56618015536785E-02 
410	 8.68834533493252E-02 
411	 0.101039862023878 
412	 0.109066001102907 
413	 9.98319113860121E-02 
414	 0.095055102679414 
415	 9.99497533801222E-02 
416	 0.10318445208286 
417	 9.84039817706896E-02 
418	 9.70008450614589E-02 
419	 0.104408538006962 
420	 0.106967970917133 
421	 9.76137783457681E-02 
422	 9.14504305159514E-02 
423	 0.105012574538692 
424	 0.10343361713238 
425	 0.104622459603136 
426	 0.10962034478631 
427	 9.74671125056338E-02 
428	 9.73657343149545E-02 
429	 0.102766843827953 
430	 0.103821582737771 
431	 0.104358098364622 
432	 0.10999915688326 
433	 0.114073489925069 
434	 0.106380799588521 
435	 0.106950261944545 
436	 0.111438278634959 
437	 0.114898715551378 
438	 0.116041224513326 
439	 0.113096080419395 
440	 0.109675967320194 
441	 0.110026387884576 
442	 0.11517826667059 
443	 0.116970667376543 
444	 0.114232481038769 
445	 0.11172975388904 
446	 0.115674418283913 
447	 0.119158816907181 
448	 0.118789050293731 
449	 0.123708664888644 
450	 0.124981892023391 
451	 0.123520568110111 
452	 0.123375233059172 
453	 0.123566222380252 
454	 0.124730569033289 
455	 0.127117643621038 
456	 0.130417504158944 
457	 0.129927692482305 
458	 0.129301517107706 
459	 0.131465650224457 
460	 0.131772518822789 
461	 0.132883741065563 
462	 0.134028138212253 
463	 0.133275182993455 
464	 0.135308319467028 
465	 0.135905799288834 
466	 0.134242689195221 
467	 0.135898999548059 
468	 0.13772787502273 
469	 0.138115549852506 
470	 0.136827483791808 
471	 0.137182379276157 
472	 0.137966796374936 
473	 0.138240740097624 
474	 0.137564904333261 
475	 0.137990884323103 
476	 0.138786261878737 
477	 0.139092631810023 
478	 0.138607435806981 
479	 0.139107870782172 
480	 0.139616065019987 
481	 0.13860170696563 
482	 0.137894098691116 
483	 0.138917932614145 
484	 0.140611549627478 
485	 0.139367724144917 
486	 0.137505467262671 
487	 0.136664955154875 
488	 0.137339443923971 
489	 0.137407859951869 
490	 0.135957150893292 
491	 0.134324031014578 
492	 0.134661910079819 
493	 0.133511215874533 
494	 0.13287654398634 
495	 0.133283052131865 
496	 0.131929198366201 
497	 0.129744563392608 
498	 0.128007760530715 
499	 0.127450346298254 
500	 0.12580446317248 
501	 0.124395982964627 
502	 0.123515550996184 
503	 0.122462149136408 
504	 0.121113427486148 
505	 0.119545447656732 
506	 0.117889013190139 
507	 0.116211477064058 
508	 0.115004041076254 
509	 0.113949547926454 
510	 0.112468874130726 
511	 0.110891627278344 
512	 0.109247369159284 
513	 0.107515234202152 
514	 0.105621999383058 
515	 0.104744664917685 
516	 0.103812939216971 
517	 0.101861430500512 
518	 0.100301101304037 
519	 9.85547674965562E-02 
520	 9.67340986938377E-02 
521	 9.53707439110203E-02 
522	 9.40547380180475E-02 
523	 9.28930173470289E-02 
524	 9.19954269278391E-02 
525	 9.14764662747577E-02 
526	 8.99674820427275E-02 
527	 8.81374572410912E-02 
528	 8.70906822660592E-02 
529	 8.59351216617746E-02 
530	 8.45802711684233E-02 
531	 0.083011421453322 
532	 8.12759464710809E-02 
533	 8.09065598869708E-02 
534	 8.03716686060894E-02 
535	 7.86171344728577E-02 
536	 0.077870972613206 
537	 7.71037794306386E-02 
538	 7.59572257189727E-02 
539	 7.45432836108128E-02 
540	 7.36992725991204E-02 
541	 7.28340842859885E-02 
542	 7.17002439676498E-02 
543	 7.08501425788209E-02 
544	 7.00252980873422E-02 
545	 6.92325137139098E-02 
546	 0.068515476563326 
547	 6.77516472122596E-02 
548	 6.70663377470366E-02 
549	 6.63828038334557E-02 
550	 6.54774339210758E-02 
551	 6.50219998276971E-02 
552	 6.47178318522105E-02 
553	 6.42223314667636E-02 
554	 6.35319695826851E-02 
555	 6.28846519331874E-02 
556	 6.23284378743329E-02 
557	 6.18363849953709E-02 
558	 6.16023535271839E-02 
559	 6.12658103470167E-02 
560	 6.07081775149276E-02 
561	 6.02070292167939E-02 
562	 5.98505761192839E-02 
563	 5.95376645925384E-02 
564	 0.059135995716998 
565	 5.86048386046787E-02 
566	 5.83312895586398E-02 
567	 5.81346348604274E-02 
568	 5.74996802116759E-02 
569	 5.73346358876969E-02 
570	 5.72856508600598E-02 
571	 5.70573103514334E-02 
572	 5.68791181610767E-02 
573	 5.67028985953007E-02 
574	 5.65192019487072E-02 
575	 0.056346850450208 
576	 5.63389073250392E-02 
577	 5.61710734370341E-02 
578	 0.055841995143028 
579	 5.57339978705613E-02 
580	 5.54444014249182E-02 
581	 5.52767127181064E-02 
582	 5.53979493958074E-02 
583	 5.50571043395392E-02 
584	 5.47991250337176E-02 
585	 5.47622615483235E-02 
586	 0.05481167630367 
587	 5.47182775984842E-02 
588	 5.45235368635986E-02 
589	 5.43520194105775E-02 
590	 5.44054641698852E-02 
591	 0.054403872940306 
592	 5.44691317512106E-02 
593	 5.46950031301194E-02 
594	 5.44860981268213E-02 
595	 5.43749704936989E-02 
596	 5.43768414243945E-02 
597	 0.054073917422721 
598	 5.41358779710943E-02 
599	 5.42003292649769E-02 
600	 5.40575873231514E-02 
601	 5.43411963656185E-02 
602	 5.43715250375419E-02 
603	 5.42791133990763E-02 
604	 5.44560350599726E-02 
605	 5.44849304742445E-02 
606	 5.45476563573957E-02 
607	 5.46857281736047E-02 
608	 5.47118418609242E-02 
609	 5.46259024229701E-02 
610	 5.46257532439341E-02 
611	 5.48343450385336E-02 
612	 5.49637471025659E-02 
613	 5.50993374203496E-02 
614	 5.52632795132241E-02 
615	 5.54293107993181E-02 
616	 5.55132497977239E-02 
617	 5.55660573084786E-02 
618	 5.56090714613236E-02 
619	 5.55534784715169E-02 
620	 5.58265080898442E-02 
621	 0.056220619942096 
622	 5.64238713552502E-02 
623	 0.056778491366228 
624	 5.69651539207073E-02 
625	 5.70257409420439E-02 
626	 5.73359138471628E-02 
627	 5.76339183691417E-02 
628	 0.057842311613363 
629	 5.79978839784272E-02 
630	 5.83136638657491E-02 
631	 5.88616686723466E-02 
632	 5.93722697059981E-02 
633	 0.059524197997537 
634	 5.98212046114518E-02 
635	 6.01944025328373E-02 
636	 0.060571267949166 
637	 6.09361598022502E-02 
638	 6.14026553101558E-02 
639	 6.18342742242052E-02 
640	 6.21541910444219E-02 
641	 6.26785780926405E-02 
642	 6.32192571130201E-02 
643	 6.37514776216212E-02 
644	 0.064323522687552 
645	 6.46047753633495E-02 
646	 6.51293645826539E-02 
647	 6.60314543004503E-02 
648	 6.66434703536169E-02 
649	 6.71093706754009E-02 
650	 0.067633178075265 
651	 6.84057716936311E-02 
652	 0.069460225965473 
653	 7.02017625043628E-02 
654	 7.07630814350595E-02 
655	 7.18082757949793E-02 
656	 7.26238834946955E-02 
657	 7.33858806662685E-02 
658	 0.074253165602182 
659	 7.50268504132748E-02 
660	 7.60195386695639E-02 
661	 7.71740912577929E-02 
662	 7.82973037949698E-02 
663	 7.92803572020778E-02 
664	 8.03946447252177E-02 
665	 8.16747288415807E-02 
666	 8.28972155090248E-02 
667	 0.084016634082085 
668	 8.52656654675176E-02 
669	 0.086750977995295 
670	 8.81200967431757E-02 
671	 0.089492523200057 
672	 9.08945917765034E-02 
673	 9.23273077876224E-02 
674	 9.38295630831655E-02 
675	 9.54621355651545E-02 
676	 0.097202050944064 
677	 9.89291473003429E-02 
678	 0.100520263457931 
679	 0.102108531504243 
680	 0.103858325234555 
681	 0.105833537662591 
682	 0.107772902767741 
683	 0.109655837920169 
684	 0.111598301017973 
685	 0.113580555359263 
686	 0.115630552899549 
687	 0.1176966644265 
688	 0.119616460677289 
689	 0.121813529599487 
690	 0.12400365294323 
691	 0.125933476295423 
692	 0.128102392690408 
693	 0.13038288594667 
694	 0.132708822897573 
695	 0.13505044200318 
696	 0.137388069724363 
697	 0.13968041180507 
698	 0.141912779679923 
699	 0.144106850539687 
700	 0.146476976944888 
701	 0.148887548282431 
702	 0.151171147668144 
703	 0.15343572855231 
704	 0.155724986554813 
705	 0.158034185352943 
706	 0.160333392389275 
707	 0.162715191560155 
708	 0.16503308090825 
709	 0.167223612933878 
710	 0.169394094591937 
711	 0.17162845206947 
712	 0.173884524917964 
713	 0.176088274919501 
714	 0.17821690680551 
715	 0.180281801645279 
716	 0.182351964068239 
717	 0.184505381602043 
718	 0.186420261374749 
719	 0.188371510799781 
720	 0.190446961498291 
721	 0.192270427204497 
722	 0.194213080796381 
723	 0.19606207810822 
724	 0.197633008751145 
725	 0.199553027792183 
726	 0.201392673379469 
727	 0.203007787836257 
728	 0.204501421104099 
729	 0.206104128631194 
730	 0.207722979222556 
731	 0.209250993191941 
732	 0.210632557441128 
733	 0.21208264026074 
734	 0.21355816324129 
735	 0.214947672047663 
736	 0.21619659936134 
737	 0.217410522722273 
738	 0.218626320147423 
739	 0.219821888982608 
740	 0.220969924782391 
741	 0.222061360399546 
742	 0.223131564759542 
743	 0.224280471688172 
744	 0.225297530777246 
745	 0.226282488530445 
746	 0.227320872797755 
747	 0.228151799724239 
748	 0.228958959204334 
749	 0.229851567493646 
750	 0.230855579931938 
751	 0.231777548744286 
752	 0.232508199068796 
753	 0.233110046444343 
754	 0.233838942714036 
755	 0.234621891884241 
756	 0.23543092726342 
757	 0.236208738470194 
758	 0.236775511786408 
759	 0.237468407843333 
760	 0.238184041756021 
761	 0.238682655889792 
762	 0.239318669901349 
763	 0.239979309226964 
764	 0.24057218180653 
765	 0.241077414390822 
766	 0.241694621067858 
767	 0.242301387803332 
768	 0.242793290559206 
769	 0.243234441754331 
770	 0.243852411093332 
771	 0.244505044839779 
772	 0.244972993661441 
773	 0.245418436399203 
774	 0.24589482472922 
775	 0.24639225458748 
776	 0.246858648631624 
777	 0.247375113099954 
778	 0.247824159929901 
779	 0.248184807839261 
780	 0.248638443288374 
781	 0.249123395749952 
782	 0.249600421814403 
783	 0.250041892808226 
784	 0.250439491801086 
785	 0.250912704377857 
786	 0.251352285155891 
787	 0.251590652226937 
788	 0.252065373197705 
789	 0.252560606432722 
790	 0.252973503785356 
791	 0.253404683817844 
792	 0.253647863269849 
793	 0.253985111358362 
794	 0.254555299835532 
795	 0.254918713189249 
796	 0.255245384270169 
797	 0.25562871144226 
798	 0.256105557445988 
799	 0.256560712739449 
800	 0.256934238598414 
801	 0.257224232272949 
802	 0.25748711183147 
803	 0.257868418189604 
804	 0.25826976429327 
805	 0.258629432151088 
806	 0.258995336087557 
807	 0.259289573877535 
808	 0.259582652106096 
809	 0.259949434938081 
810	 0.260379840732669 
811	 0.26069547349601 
812	 0.260957814973043 
813	 0.26130801114323 
814	 0.261642040399781 
815	 0.261954923252494 
816	 0.262255086800466 
817	 0.262559182636313 
818	 0.262900783928605 
819	 0.263216897812827 
820	 0.263480568115042 
821	 0.263745730448826 
822	 0.264077772838908 
823	 0.264353400875058 
824	 0.26450083177339 
825	 0.264756028340233 
826	 0.265091868689392 
827	 0.265473192983921 
828	 0.265835992689267 
829	 0.266027937767591 
830	 0.266194548900383 
831	 0.266403859889067 
832	 0.266634491986036 
833	 0.266863244619558 
834	 0.267159475627863 
835	 0.26748323560505 
836	 0.267615643404699 
837	 0.267947693406022 
838	 0.268242950996355 
839	 0.268309796536624 
840	 0.268522281391201 
841	 0.268816979294186 
842	 0.269032845033092 
843	 0.26905759841661 
844	 0.269233636349033 
845	 0.269455545714906 
846	 0.269719342669756 
847	 0.270068982130495 
848	 0.270183901858762 
849	 0.270286982088916 
850	 0.270495788500633 
851	 0.270712396014055 
852	 0.27093786980812 
853	 0.271078357343617 
854	 0.271143278581351 
855	 0.271386453058618 
856	 0.271669574738025 
857	 0.271858212272512 
858	 0.271902180698133 
859	 0.272023010780778 
860	 0.27231563811777 
861	 0.27259377707601 
862	 0.272613983878369 
863	 0.272710543695989 
864	 0.272926387778976 
865	 0.273172695307517 
866	 0.273273154915071 
867	 0.273146789537675 
868	 0.273251555664095 
869	 0.273635580226579 
870	 0.273716426550577 
871	 0.273846874630088 
872	 0.273940814698343 
873	 0.273952285654266 
874	 0.274122429668563 
875	 0.274222885249682 
876	 0.274250048572798 
877	 0.274284304804527 
878	 0.274415198226018 
879	 0.274658873017007 
880	 0.274889005192178 
881	 0.274958361066757 
882	 0.275001378840831 
883	 0.275008483575845 
884	 0.275077303010774 
885	 0.275328192721119 
886	 0.275344307661465 
887	 0.275447004659608 
888	 0.275676411468471 
889	 0.275689715876057 
890	 0.275873923880432 
891	 0.276152271469598 
892	 0.276344384045856 
893	 0.27625235483839 
894	 0.276307354234598 
895	 0.276413426239536 
896	 0.276447939439257 
897	 0.276596180564903 
898	 0.276686674159607 
899	 0.276751037896661 
900	 0.276875339732864 
901	 0.27708918904432 
902	 0.277115871912117 
903	 0.277087999241662 
904	 0.277254288037371 
905	 0.277263372625575 
906	 0.277411723229509 
907	 0.277614631325255 
908	 0.277567166357931 
909	 0.277640137908629 
910	 0.277834007485796 
911	 0.277998313122486 
912	 0.277922348151125 
913	 0.277980488268938 
914	 0.278198185787361 
915	 0.278471096555972 
916	 0.278608483529359 
917	 0.278521820305345 
918	 0.278568913534226 
919	 0.278828866609564 
920	 0.278714427731228 
921	 0.278869131885483 
922	 0.279085080597875 
923	 0.279111991054089 
924	 0.279153373241514 
925	 0.27943267369904 
926	 0.279650073123041 
927	 0.279560082189087 
928	 0.279693975966168 
929	 0.279960335927044 
930	 0.280226661472572 
931	 0.280358670443145 
932	 0.280290859511618 
933	 0.28058200924764 
934	 0.280926743561192 
935	 0.280753449943489 
936	 0.280818421642808 
937	 0.280970631464 
938	 0.281099580542122 
939	 0.281198706437546 
940	 0.281561865866853 
941	 0.281700296760577 
942	 0.281560345224585 
943	 0.281533706123022 
944	 0.281921304323099 
945	 0.282099377207346 
946	 0.281996061339394 
947	 0.282189889498714 
948	 0.282507132906168 
949	 0.282614173750008 
950	 0.282605824963377 
951	 0.283055027379449 
952	 0.283042151186715 
953	 0.283006821881007 
954	 0.283258381480645 
955	 0.283543127128292 
956	 0.283659959220903 
957	 0.283761597145259 
958	 0.283922887852806 
959	 0.283952041644389 
960	 0.28403093871842 
961	 0.284250288786835 
962	 0.284526531819562 
963	 0.284502915328174 
964	 0.284716341207447 
965	 0.284733178612704 
966	 0.284365900125808 
967	 0.284511106913482 
968	 0.284766751592917 
969	 0.28502324885496 
970	 0.285155539156723 
971	 0.284790671810382 
972	 0.285047139198741 
973	 0.285484084766473 
974	 0.285527493367094 
975	 0.28566179734364 
976	 0.285983502547038 
977	 0.286263804893523 
978	 0.286268673706704 
979	 0.286080016502291 
980	 0.286221191600882 
981	 0.286362091891085 
982	 0.286238381815155 
983	 0.286860536178349 
984	 0.286682614189127 
985	 0.28666711544599 
986	 0.287626223798437 
987	 0.286810512497926 
988	 0.28666362573934 
989	 0.287042540909771 
990	 0.28712151126191 
991	 0.287201961761423 
992	 0.2873837606328 
993	 0.287448427243805 
994	 0.287254552025099 
995	 0.287299191227326 
996	 0.287500211935526 
997	 0.28776060510207 
998	 0.287934566147998 
999	 0.287726268183516 
1000	 0.288166529314904 
1001	 0.288027104432232 
1002	 0.288393140577223 
1003	 0.288408400081916 
1004	 0.288471113826948 
1005	 0.288565388626152 
1006	 0.288674872827532 
1007	 0.288672518501882 
1008	 0.288735674431978 
1009	 0.288851026181353 
1010	 0.288937902477531 
1011	 0.289008786539894 
1012	 0.289118228377206 
1013	 0.289323684684748 
1014	 0.28942870349667 
1015	 0.289594631719827 
1016	 0.289439984423392 
1017	 0.289249254351813 
1018	 0.289379415724471 
1019	 0.289497874954716 
1020	 0.289711465497453 
1021	 0.289835747409481 
1022	 0.289997684906512 
1023	 0.290060881706412 
1024	 0.28999604726518 
1025	 0.290016474040254 
1026	 0.29006918976124 
1027	 0.290149432369081 
1028	 0.290242887389689 
1029	 0.290359776078671 
1030	 0.29046797687143 
1031	 0.290406750803962 
1032	 0.290442073820232 
1033	 0.290658845051125 
1034	 0.290748222405478 
1035	 0.2909087868662 
1036	 0.290990623175085 
1037	 0.290930313450037 
1038	 0.290857568798389 
1039	 0.290739394705493 
1040	 0.290788560195156 
1041	 0.290858538951575 
1042	 0.290954529221495 
1043	 0.29123058126179 
1044	 0.291397379833446 
1045	 0.291280490640829 
1046	 0.291217860979331 
1047	 0.291298466347762 
1048	 0.291218989255087 
1049	 0.291180498620012 
1050	 0.291402145968062 
1051	 0.291492772938603 
1052	 0.291552294174445 
1053	 0.291630985740866 
1054	 0.291774273026481 
1055	 0.291789046450224 
1056	 0.291686591758824 
1057	 0.291726115236365 
1058	 0.291805184573723 
1059	 0.291840104426421 
1060	 0.29197358353611 
1061	 0.292029220750255 
1062	 0.292019874480292 
1063	 0.292091220791004 
1064	 0.292071818469288 
1065	 0.292063660837939 
1066	 0.29212302313727 
1067	 0.292198460855277 
1068	 0.292389423075382 
1069	 0.292445679016368 
1070	 0.292495696373051 
1071	 0.292487466137873 
1072	 0.292521272975962 
1073	 0.292588408172829 
1074	 0.292911705853365 
1075	 0.29317221327129 
1076	 0.293265067007434 
1077	 0.293333044436378 
1078	 0.293296075818153 
1079	 0.293338010522827 
1080	 0.293453304658789 
1081	 0.293523000585335 
1082	 0.293683578331283 
1083	 0.293926742253684 
1084	 0.294028031010342 
1085	 0.294126174794157 
1086	 0.294264738939174 
1087	 0.294391635993241 
1088	 0.29437755843173 
1089	 0.294431919406685 
1090	 0.294540378570715 
1091	 0.29457139657462 
1092	 0.294529555122914 
1093	 0.294462982094494 
1094	 0.294426736846176 
1095	 0.294414500524803 
1096	 0.294502069143511 
1097	 0.294775574726703 
1098	 0.294989161341815 
1099	 0.295018274230082 
1100	 0.295039866711805 
1101	 0.295060545033484 
1102	 0.295122901232186 
1103	 0.295221771122054 
1104	 0.295431046025268 
1105	 0.295581222839529 
1106	 0.29561359663712 
1107	 0.295645218522565 
1108	 0.295671752390391 
1109	 0.295780194194463 
1110	 0.296003335535271 
1111	 0.296200762090828 
1112	 0.296329135835106 
1113	 0.296343295235887 
1114	 0.296423730556776 
1115	 0.296577725105925 
1116	 0.296686000674481 
1117	 0.296845430338299 
1118	 0.296923521953102 
1119	 0.296845012164555 
1120	 0.296843149278592 
1121	 0.29683885518064 
1122	 0.296901531392369 
1123	 0.296985157752952 
1124	 0.297105630991639 
1125	 0.297276867766454 
1126	 0.297383704508079 
1127	 0.29750695177295 
1128	 0.297599149217203 
1129	 0.297645543454496 
1130	 0.29776236078407 
1131	 0.297829129245774 
1132	 0.297918701560893 
1133	 0.298007208706921 
1134	 0.298058868198374 
1135	 0.298141365928529 
1136	 0.298215380724926 
1137	 0.298315122884258 
1138	 0.29848303634708 
1139	 0.298560517869089 
1140	 0.298581660020744 
1141	 0.298657634438664 
1142	 0.298754627065497 
1143	 0.298821429331718 
1144	 0.298905200726048 
1145	 0.298999963358623 
1146	 0.29893918000395 
1147	 0.298911901617006 
1148	 0.299038139973795 
1149	 0.299139716867706 
1150	 0.299253245659242 
1151	 0.299328727918862 
1152	 0.299422429951894 
1153	 0.299500001493587 
1154	 0.299557838734973 
1155	 0.299643733341944 
1156	 0.299689252910326 
1157	 0.299632379821247 
1158	 0.299653310313821 
1159	 0.299689412255537 
1160	 0.299767668607666 
1161	 0.2998702505439 
1162	 0.299960554553308 
1163	 0.300047610653315 
1164	 0.300109765556999 
1165	 0.300101969245447 
1166	 0.300114825424528 
1167	 0.300139770533004 
1168	 0.300166157334138 
1169	 0.3002194086413 
1170	 0.300344203827132 
1171	 0.300420540416453 
1172	 0.300494245549522 
1173	 0.300516555195539 
1174	 0.30047903312306 
1175	 0.300509484438998 
1176	 0.300569529101015 
1177	 0.300590924612401 
1178	 0.300610631831009 
1179	 0.300659463090935 
1180	 0.300761902176047 
1181	 0.300734584986033 
1182	 0.300760589206288 
1183	 0.300889066846943 
1184	 0.300895715001185 
1185	 0.300940465321014 
1186	 0.301008488049102 
1187	 0.30113087932691 
1188	 0.30119111938851 
1189	 0.301238298164585 
1190	 0.301296621227229 
1191	 0.301318607302145 
1192	 0.301396342026433 
1193	 0.301515877032993 
1194	 0.301590660485572 
1195	 0.301676787034766 
1196	 0.301777008353341 
1197	 0.301827295789353 
1198	 0.301941509283229 
1199	 0.302148215415707 
1200	 0.302289900050373 
1201	 0.302453224326126 
1202	 0.302578957296065 
1203	 0.302636640395238 
1204	 0.302773682796155 
1205	 0.302954876639264 
1206	 0.303206103491913 
1207	 0.303403142612442 
1208	 0.303587040323489 
1209	 0.303833158157697 
1210	 0.304082454195895 
1211	 0.304346120774858 
1212	 0.304662057086601 
1213	 0.30501495388646 
1214	 0.305338767405343 
1215	 0.305730819045445 
1216	 0.30627722083395 
1217	 0.306732099634729 
1218	 0.307173371223833 
1219	 0.307559858316716 
1220	 0.307994424381378 
1221	 0.308473015065599 
1222	 0.308962412813803 
1223	 0.309488111513348 
1224	 0.309976304907647 
1225	 0.310449870654775 
1226	 0.310884461900527 
1227	 0.311307409780825 
1228	 0.311707788466988 
1229	 0.312056675700013 
1230	 0.312424470044135 
1231	 0.312792910786283 
1232	 0.313156573864914 
1233	 0.313495178533849 
1234	 0.313852831161022 
1235	 0.314227902232909 
1236	 0.314599287721511 
1237	 0.315002163562992 
1238	 0.315358605670836 
1239	 0.315716005012719 
1240	 0.316008903297571 
1241	 0.316214239491589 
1242	 0.316524769750916 
1243	 0.31682766493781 
1244	 0.317132962785346 
1245	 0.317437854590449 
1246	 0.317782606572259 
1247	 0.318088250531748 
1248	 0.318355030853605 
1249	 0.318666196660919 
1250	 0.319002252616916 
1251	 0.319313138732033 
1252	 0.319632693689745 
1253	 0.319942609551908 
1254	 0.320247412058603 
1255	 0.320529250272523 
1256	 0.320783879424138 
1257	 0.32105937545616 
1258	 0.321346893775433 
1259	 0.321598959167328 
1260	 0.32180798023748 
1261	 0.322080747716909 
1262	 0.322403159542142 
1263	 0.322643305237624 
1264	 0.322912473540586 
1265	 0.323229365016483 
1266	 0.323531269162274 
1267	 0.323840050938098 
1268	 0.324030219162836 
1269	 0.324160631874151 
1270	 0.324369773584227 
1271	 0.324490538427052 
1272	 0.324685030817177 
1273	 0.325001628220912 
1274	 0.32527270332653 
1275	 0.325540739379173 
1276	 0.325748697033399 
1277	 0.325948487368714 
1278	 0.326148912885087 
1279	 0.32625760549887 
1280	 0.326418853092472 
1281	 0.32659664404174 
1282	 0.326834730971981 
1283	 0.327100275785997 
1284	 0.327383734724184 
1285	 0.327703643273406 
1286	 0.328128541766456 
1287	 0.328416476297142 
1288	 0.328673139633946 
1289	 0.32889736180568 
1290	 0.329027875062216 
1291	 0.329255756450042 
1292	 0.329510459131058 
1293	 0.329745137455315 
1294	 0.330003643639397 
1295	 0.330262085774765 
1296	 0.33050505032055 
1297	 0.330751717428647 
1298	 0.330992383545329 
1299	 0.331281483915448 
1300	 0.331600670882163 
1301	 0.331892197928157 
1302	 0.33224878878971 
1303	 0.332536089423806 
1304	 0.3327171352651 
1305	 0.332964148276358 
1306	 0.33324078097369 
1307	 0.33349315220025 
1308	 0.333724124051321 
1309	 0.334015391364428 
1310	 0.334292975067982 
1311	 0.334563677009913 
1312	 0.334814637863227 
1313	 0.335070583803362 
1314	 0.335347900189645 
1315	 0.335613134317301 
1316	 0.335865098704407 
1317	 0.336144670110872 
1318	 0.336409863544296 
1319	 0.336643829932783 
1320	 0.336870809243698 
1321	 0.337124890209349 
1322	 0.337340181563794 
1323	 0.337490761052461 
1324	 0.337680996638544 
1325	 0.337861636417795 
1326	 0.338080927235419 
1327	 0.338343759802967 
1328	 0.338579229513523 
1329	 0.33884061809837 
1330	 0.339074912090041 
1331	 0.339281148903322 
1332	 0.339478893979842 
1333	 0.339629289614143 
1334	 0.339851397340585 
1335	 0.340022918463021 
1336	 0.340172507414668 
1337	 0.340336905728791 
1338	 0.340495247090878 
1339	 0.340667493035462 
1340	 0.340846384401944 
1341	 0.341032480779704 
1342	 0.34125415118838 
1343	 0.341402503830266 
1344	 0.341507034792424 
1345	 0.341649819417181 
1346	 0.341775022738231 
1347	 0.341900696060918 
1348	 0.342067025872547 
1349	 0.34219231528098 
1350	 0.342273186538787 
1351	 0.342361798158712 
1352	 0.342443673073686 
1353	 0.342536455782055 
1354	 0.342630424751286 
1355	 0.342715784528741 
1356	 0.342823833253716 
1357	 0.342899334619716 
1358	 0.342924495258328 
1359	 0.342982674041831 
1360	 0.343064327607709 
1361	 0.34311724074633 
1362	 0.34316116413469 
1363	 0.343212534065979 
1364	 0.343207134771789 
1365	 0.343132971779174 
1366	 0.343120284290361 
1367	 0.343105852113955 
1368	 0.343109925977021 
1369	 0.343159331651654 
1370	 0.343155121010265 
1371	 0.343141620020804 
1372	 0.343091300969511 
1373	 0.343028303722919 
1374	 0.34291723340918 
1375	 0.342723115936793 
1376	 0.342605984081701 
1377	 0.342489536957772 
1378	 0.342377167068281 
1379	 0.34232465386242 
1380	 0.342228598172769 
1381	 0.342100796336232 
1382	 0.341966632737986 
1383	 0.341840507280203 
1384	 0.341681784320226 
1385	 0.341485308805371 
1386	 0.34129739155658 
1387	 0.341076770436814 
1388	 0.34088582965019 
1389	 0.34068750123193 
1390	 0.34053147397702 
1391	 0.340417644521952 
1392	 0.340293228239914 
1393	 0.340215826567459 
1394	 0.340187249605719 
1395	 0.340144787747995 
1396	 0.340133825893527 
1397	 0.340071735717046 
1398	 0.340013723476126 
1399	 0.33990683416579 
1400	 0.339773580118465 
1401	 0.339592395428592 
1402	 0.339383481301795 
1403	 0.339116810261098 
1404	 0.338780382746335 
1405	 0.338452508168868 
1406	 0.338094174537734 
1407	 0.337723644721009 
1408	 0.337349563707166 
1409	 0.336934455637099 
1410	 0.336464260523129 
1411	 0.336021262963038 
1412	 0.335548502338244 
1413	 0.335117416124512 
1414	 0.334706469762084 
1415	 0.334315580313256 
1416	 0.333928680994034 
1417	 0.333578021188904 
1418	 0.333270170172609 
1419	 0.332963542732247 
1420	 0.33269158596427 
1421	 0.332415744519622 
1422	 0.33210604471702 
1423	 0.331856059108952 
1424	 0.331664048867593 
1425	 0.331449064053268 
1426	 0.331240304573501 
1427	 0.331038891931891 
1428	 0.330807882803337 
1429	 0.330609882521464 
1430	 0.330414083147291 
1431	 0.330242478428322 
1432	 0.330086499007575 
1433	 0.329962179391629 
1434	 0.329762808559088 
1435	 0.329559384423902 
1436	 0.329351432867556 
1437	 0.329049331399648 
1438	 0.328854719475905 
1439	 0.32874829532702 
1440	 0.328579262289154 
1441	 0.328412758936361 
1442	 0.328241864505002 
1443	 0.327991802960368 
1444	 0.327879561510967 
1445	 0.327795098219049 
1446	 0.327814793749081 
1447	 0.327930935183754 
1448	 0.328107869516771 
1449	 0.328357117008058 
1450	 0.328677039622152 
1451	 0.329056751654058 
1452	 0.329535746146114 
1453	 0.330137578451876 
1454	 0.330733171314964 
1455	 0.331461500461755 
1456	 0.332105667587139 
1457	 0.332711544901933 
1458	 0.333328824120766 
1459	 0.333900587963433 
1460	 0.33451529601162 
1461	 0.335203168820023 
1462	 0.335816571574242 
1463	 0.336427447207684 
1464	 0.336996763011149 
1465	 0.33744510263561 
1466	 0.337981579927321 
1467	 0.338509780609298 
1468	 0.339002189709536 
1469	 0.339569908763762 
1470	 0.340097321886967 
1471	 0.340621074611976 
1472	 0.341146779881283 
1473	 0.341667526890701 
1474	 0.342188232201174 
1475	 0.342650842372762 
1476	 0.343090800483609 
1477	 0.343530186903428 
1478	 0.34391395849351 
1479	 0.344329701132053 
1480	 0.344795510671867 
1481	 0.345181917957799 
1482	 0.345530222122917 
1483	 0.345857619245905 
1484	 0.346138073606498 
1485	 0.346434358440286 
1486	 0.346708442493299 
1487	 0.346998426362673 
1488	 0.347303883641375 
1489	 0.347580670199146 
1490	 0.34780721669604 
1491	 0.348130694655816 
1492	 0.348462672301421 
1493	 0.34884085991637 
1494	 0.349303718723129 
1495	 0.349765179720066 
1496	 0.350258385730351 
1497	 0.35074268161402 
1498	 0.351255408574849 
1499	 0.351755125380989 
1500	 0.352251165267468 
1501	 0.352725598044325 
1502	 0.353193312415717 
1503	 0.353659985950422 
1504	 0.354112721207795 
1505	 0.354549758373164 
1506	 0.355005215917657 
1507	 0.355419000752041 
1508	 0.355798471370421 
1509	 0.356153191846597 
1510	 0.356442589307702 
1511	 0.356773911315978 
1512	 0.357129964630284 
1513	 0.35744783854335 
1514	 0.357779982830262 
1515	 0.358091830606466 
1516	 0.358360884097903 
1517	 0.358615259809874 
1518	 0.358873396837939 
1519	 0.359102279972431 
1520	 0.359260926584999 
1521	 0.359458206686746 
1522	 0.359699302148178 
1523	 0.359900292649911 
1524	 0.360107783679522 
1525	 0.360339135489659 
1526	 0.360535720368996 
1527	 0.360704448206049 
1528	 0.360866735851862 
1529	 0.361016859906293 
1530	 0.361184562590302 
1531	 0.361352225476534 
1532	 0.361484905683461 
1533	 0.361614813519927 
1534	 0.3617486403197 
1535	 0.361835371097884 
1536	 0.36197489585075 
1537	 0.362149699453363 
1538	 0.362332225827263 
1539	 0.362518309728874 
1540	 0.362731655218063 
1541	 0.362965188767617 
1542	 0.363231509888911 
1543	 0.363544389583079 
1544	 0.363812304889103 
1545	 0.36408485444573 
1546	 0.364369244698863 
1547	 0.364616021003733 
1548	 0.3649158531601 
1549	 0.365264633805074 
1550	 0.365605214721348 
1551	 0.365957959592702 
1552	 0.366308105504665 
1553	 0.366676310767731 
1554	 0.367026909063327 
1555	 0.367374778355212 
1556	 0.367706867337287 
1557	 0.36802229311708 
1558	 0.368345966600849 
1559	 0.368666117147254 
1560	 0.368976757214193 
1561	 0.369296939792401 
1562	 0.369591643374161 
1563	 0.369835682625621 
1564	 0.370139138577311 
1565	 0.370484044592659 
1566	 0.370780542417396 
1567	 0.371092275584798 
1568	 0.371378587994568 
1569	 0.37158079824953 
1570	 0.371865365811766 
1571	 0.372215015502819 
1572	 0.372518271073367 
1573	 0.372816551138866 
1574	 0.373136971553687 
1575	 0.373463510311808 
1576	 0.373758984574209 
1577	 0.374081644424515 
1578	 0.374363276380358 
1579	 0.374571569704307 
1580	 0.374815949030723 
1581	 0.37505464538252 
1582	 0.375321751227482 
1583	 0.375625675823897 
1584	 0.375895570746872 
1585	 0.376160448355727 
1586	 0.376437463092761 
1587	 0.376708284820521 
1588	 0.376967303484495 
1589	 0.377223981011711 
1590	 0.377498039182802 
1591	 0.377766270556607 
1592	 0.378030364791294 
1593	 0.378325420863989 
1594	 0.378598878875578 
1595	 0.378861967529032 
1596	 0.379093689497723 
1597	 0.37927297819414 
1598	 0.379510483495519 
1599	 0.379758801598993 
1600	 0.379996416282602 
1601	 0.380278521371452 
1602	 0.380542914999749 
1603	 0.380769715515767 
1604	 0.38100974145953 
1605	 0.38128022595112 
1606	 0.38152160011895 
1607	 0.38174176478838 
1608	 0.381962927774109 
1609	 0.382174260455961 
1610	 0.382381247976305 
1611	 0.382580679241761 
1612	 0.382779982149412 
1613	 0.382966341163984 
1614	 0.383165064361196 
1615	 0.383385460560423 
1616	 0.383582350948921 
1617	 0.383769136981807 
1618	 0.383957604925729 
1619	 0.384141500752442 
1620	 0.38430746861676 
1621	 0.384476222141423 
1622	 0.384623134137479 
1623	 0.384755487689037 
1624	 0.384856274457015 
1625	 0.384925742465037 
1626	 0.385000543618442 
1627	 0.385025307948352 
1628	 0.385086860664837 
1629	 0.385157002960292 
1630	 0.385252692203479 
1631	 0.38538319385924 
1632	 0.385512837703348 
1633	 0.385713714910406 
1634	 0.385826583248052 
1635	 0.385860578396023 
1636	 0.385945852352212 
1637	 0.385975062470227 
1638	 0.38605659917442 
1639	 0.386227588473744 
1640	 0.386362214667999 
1641	 0.386526152123489 
1642	 0.386626120016617 
1643	 0.38665893081759 
1644	 0.386727483293303 
1645	 0.386770866375768 
1646	 0.38682631831359 
1647	 0.386930841794456 
1648	 0.387002459314771 
1649	 0.387082531733172 
1650	 0.387084159622595 
1651	 0.387045559081424 
1652	 0.386974012719737 
1653	 0.386806332742378 
1654	 0.386673495910329 
1655	 0.386547842911187 
1656	 0.386407860767881 
1657	 0.386260259791214 
1658	 0.386098025997502 
1659	 0.385934235632048 
1660	 0.38574705451599 
1661	 0.385560475335447 
1662	 0.385331040055413 
1663	 0.385090872943893 
1664	 0.38477086003834 
1665	 0.384413911526526 
1666	 0.38396615801782 
1667	 0.383446648964723 
1668	 0.382859311671129 
1669	 0.382178656023237 
1670	 0.381456128656208 
1671	 0.380632393159917 
1672	 0.37982842007861 
1673	 0.379004163885568 
1674	 0.378145599283703 
1675	 0.377314511432865 
1676	 0.376400896380513 
1677	 0.375421000383503 
1678	 0.374388278524205 
1679	 0.37330371391929 
1680	 0.372135752590981 
1681	 0.370895140029739 
1682	 0.369606310722566 
1683	 0.368251646500598 
1684	 0.366863003074047 
1685	 0.365418210259107 
1686	 0.363936471765246 
1687	 0.362404851188508 
1688	 0.360807611895851 
1689	 0.359159543797268 
1690	 0.357478649142509 
1691	 0.355728466976299 
1692	 0.354011685241683 
1693	 0.352326458123253 
1694	 0.350509298018394 
1695	 0.348606141142999 
1696	 0.346713854523325 
1697	 0.3447370282938 
1698	 0.342762836831682 
1699	 0.340855235568193 
1700	 0.338861406626249 
1701	 0.336720664956574 
1702	 0.334776019447087 
1703	 0.332846121991831 
1704	 0.330968396783067 
1705	 0.329155490898419 
1706	 0.327410687046775 
1707	 0.325901540018457 
1708	 0.324493904032675 
1709	 0.323200609618721 
1710	 0.322041621262591 
1711	 0.320884547320695 
1712	 0.319836815429995 
1713	 0.318895820871695 
1714	 0.317986344031398 
1715	 0.317168190832437 
1716	 0.31639738361287 
1717	 0.315619525155692 
1718	 0.31479560857954 
1719	 0.314004808985841 
1720	 0.313293536022069 
1721	 0.312682208503749 
1722	 0.312153719091234 
1723	 0.311621888478985 
1724	 0.31117449135938 
1725	 0.310833139069279 
1726	 0.310631577195868 
1727	 0.310595154333252 
1728	 0.310680156253642 
1729	 0.310959347435287 
1730	 0.311401836045267 
1731	 0.311967208209162 
1732	 0.312719433473483 
1733	 0.313519042991335 
1734	 0.314418292136552 
1735	 0.315436287205846 
1736	 0.316354734181191 
1737	 0.317262820668234 
1738	 0.318160407765961 
1739	 0.318826671420678 
1740	 0.3193913867363 
1741	 0.319836883914925 
1742	 0.320059032425976 
1743	 0.3202539142965 
1744	 0.320403086363727 
1745	 0.320449375497747 
1746	 0.320338779917704 
1747	 0.320236272386937 
1748	 0.320019305979589 
1749	 0.319913018194585 
1750	 0.319810411177552 
1751	 0.31978682124894 
1752	 0.319849813616901 
1753	 0.319966258061915 
1754	 0.320094790836732 
1755	 0.320345536059554 
1756	 0.320669388362849 
1757	 0.321147974814668 
1758	 0.321681940198314 
1759	 0.32213463797671 
1760	 0.322742847371295 
1761	 0.323440672274391 
1762	 0.324213008754687 
1763	 0.325239544688149 
1764	 0.326331380776127 
1765	 0.327494224407909 
1766	 0.328830522184131 
1767	 0.330118250490456 
1768	 0.331492915743649 
1769	 0.332927977299004 
1770	 0.334267315223797 
1771	 0.335714019095093 
1772	 0.337060575417445 
1773	 0.338245122217054 
1774	 0.339404144337841 
1775	 0.340433568863319 
1776	 0.341422060942404 
1777	 0.342325236915897 
1778	 0.343199009716628 
1779	 0.344078629686189 
1780	 0.344809324693125 
1781	 0.345549292961728 
1782	 0.346227066396878 
1783	 0.346813597997699 
1784	 0.347439266769557 
1785	 0.347964581665731 
1786	 0.348458526918786 
1787	 0.348859887622878 
1788	 0.349271360448077 
1789	 0.349686380810916 
1790	 0.350074865246845 
1791	 0.350424419549115 
1792	 0.350758350076369 
1793	 0.351069639946912 
1794	 0.351305470243583 
1795	 0.351629319071704 
1796	 0.351953122264241 
1797	 0.352256344306138 
1798	 0.352576598994108 
1799	 0.352847853238704 
1800	 0.353087404214725 
1801	 0.350218480778505 
1802	 0.350498171469078 
1803	 0.350795253270542 
1804	 0.351037934559035 
1805	 0.351319503786073 
1806	 0.351637033995464 
1807	 0.352084063071633 
1808	 0.352354879946009 
1809	 0.352518965171357 
1810	 0.352770000476682 
1811	 0.352971427198799 
1812	 0.353189576728501 
1813	 0.353446947242832 
1814	 0.353771969605639 
1815	 0.354008940971737 
1816	 0.354282992167454 
1817	 0.354581228140061 
1818	 0.35492298200449 
1819	 0.355264684492745 
1820	 0.355603409198757 
1821	 0.355960435174842 
1822	 0.356329575687688 
1823	 0.356771098525775 
1824	 0.357131618001053 
1825	 0.357513854775632 
1826	 0.35787278494756 
1827	 0.358183854178318 
1828	 0.35852996592724 
1829	 0.358916272108474 
1830	 0.359254782718597 
1831	 0.359588128087785 
1832	 0.359912671793758 
1833	 0.360161051919479 
1834	 0.360435231559839 
1835	 0.360721374841669 
1836	 0.360948205894263 
1837	 0.361227234647091 
1838	 0.361521769027659 
1839	 0.361818191221002 
1840	 0.362172833798861 
1841	 0.362476812229471 
1842	 0.362772336276583 
1843	 0.363012159765363 
1844	 0.363304742367371 
1845	 0.363574265762066 
1846	 0.363835092763219 
1847	 0.364181827074364 
1848	 0.364464731779794 
1849	 0.364717257184396 
1850	 0.364918362436385 
1851	 0.365094688957342 
1852	 0.365275021825342 
1853	 0.365341943385105 
1854	 0.365426497437964 
1855	 0.365568565290609 
1856	 0.365573710046093 
1857	 0.365518097062261 
1858	 0.365493653245127 
1859	 0.365419877736798 
1860	 0.36526177500248 
1861	 0.365115635261982 
1862	 0.364979277676588 
1863	 0.364818104771601 
1864	 0.36458090217577 
1865	 0.364309542216441 
1866	 0.363973485881564 
1867	 0.363571931912036 
1868	 0.363124096186206 
1869	 0.362749973058676 
1870	 0.362345421460904 
1871	 0.362008920392484 
1872	 0.36149364965649 
1873	 0.360935868599655 
1874	 0.360255905581795 
1875	 0.359478229210566 
1876	 0.358682916718248 
1877	 0.357862032362868 
1878	 0.356979100740501 
1879	 0.356027388170163 
1880	 0.355002854307848 
1881	 0.353847627061862 
1882	 0.352568946411704 
1883	 0.351268922105362 
1884	 0.34989649676098 
1885	 0.348347918928672 
1886	 0.346831062627482 
1887	 0.345149373862205 
1888	 0.34323070023837 
1889	 0.341426003033572 
1890	 0.339484937166807 
1891	 0.337497671495413 
1892	 0.335553129693354 
1893	 0.333467844136842 
1894	 0.331219643904226 
1895	 0.329010574093498 
1896	 0.326811630020643 
1897	 0.324610569752649 
1898	 0.322611408119872 
1899	 0.320607921600188 
1900	 0.318611734835888 
1901	 0.316722707760442 
1902	 0.314746399782801 
1903	 0.312881620224087 
1904	 0.3110930367252 
1905	 0.309371225540284 
1906	 0.307660447536837 
1907	 0.306217965162444 
1908	 0.304781832197009 
1909	 0.303403050613326 
1910	 0.30224647341651 
1911	 0.301032361475394 
1912	 0.299943469066128 
1913	 0.298976085670465 
1914	 0.29796491199435 
1915	 0.297060043677147 
1916	 0.296248738293213 
1917	 0.295433895369185 
1918	 0.29465335856294 
1919	 0.293973355830184 
1920	 0.293189783830338 
1921	 0.292531242038892 
1922	 0.291974681725453 
1923	 0.291352489567372 
1924	 0.290860376586111 
1925	 0.290355583200847 
1926	 0.289866084562179 
1927	 0.289371219433868 
1928	 0.288956982359689 
1929	 0.288584134997956 
1930	 0.288241231212384 
1931	 0.287927001592869 
1932	 0.287621125817402 
1933	 0.28737951733329 
1934	 0.287181506785265 
1935	 0.287049193415549 
1936	 0.286943639155069 
1937	 0.286903394880473 
1938	 0.28692288676355 
1939	 0.286987540758959 
1940	 0.287091542818333 
1941	 0.287273503293867 
1942	 0.287538525347538 
1943	 0.287809905601507 
1944	 0.288053985532181 
1945	 0.28839820616957 
1946	 0.288790470083174 
1947	 0.289156841517361 
1948	 0.289658055594402 
1949	 0.290253000432435 
1950	 0.290875163002264 
1951	 0.291565860864677 
1952	 0.292267351275788 
1953	 0.293022852853771 
1954	 0.293776717678557 
1955	 0.294555843750359 
1956	 0.295292868018545 
1957	 0.296064992939315 
1958	 0.296862489825436 
1959	 0.297579114168543 
1960	 0.298331585751603 
1961	 0.299038152357716 
1962	 0.299687844721943 
1963	 0.300352182245715 
1964	 0.30104378712208 
1965	 0.30165272509239 
1966	 0.302212493426685 
1967	 0.302782199980393 
1968	 0.303324807707725 
1969	 0.303830622102012 
1970	 0.304376265196586 
1971	 0.30485640294635 
1972	 0.305307593711486 
1973	 0.305843064824958 
1974	 0.306336974321404 
1975	 0.306801615974663 
1976	 0.307344916601202 
1977	 0.307899839227869 
1978	 0.308464621355336 
1979	 0.309066775234114 
1980	 0.309715727799399 
1981	 0.310401013215259 
1982	 0.311017566484226 
1983	 0.311591470698875 
1984	 0.312213208116743 
1985	 0.312801482499643 
1986	 0.313374648802463 
1987	 0.314001737459398 
1988	 0.314685244188821 
1989	 0.315385482792356 
1990	 0.316093073602929 
1991	 0.316836273529498 
1992	 0.317617250925562 
1993	 0.318441591204332 
1994	 0.319247488902053 
1995	 0.320158554694603 
1996	 0.32108733312362 
1997	 0.321976268918573 
1998	 0.322877207036813 
1999	 0.323760500627293 
2000	 0.324657102775562 
2001	 0.325611521900053 
2002	 0.326481056776117 
2003	 0.327379745143011 
2004	 0.328162673713843 
2005	 0.328821210622954 
2006	 0.329478106908268 
2007	 0.330072514578034 
2008	 0.3306509300081 
2009	 0.331215363836646 
2010	 0.33174425011192 
2011	 0.332214385565164 
2012	 0.332609904622593 
2013	 0.332995547440395 
2014	 0.333307892353466 
2015	 0.333674852550005 
2016	 0.33412807772288 
2017	 0.334401787060502 
2018	 0.334596034190713 
2019	 0.334778272083506 
2020	 0.334861712866409 
2021	 0.334884718065169 
2022	 0.334934432193015 
2023	 0.335048947991102 
2024	 0.335048620687263 
2025	 0.334970067402502 
2026	 0.334927424468753 
2027	 0.33487274631001 
2028	 0.33479058811737 
2029	 0.33471056823901 
2030	 0.33459817720352 
2031	 0.334481098314067 
2032	 0.334287031025413 
2033	 0.334006461763728 
2034	 0.333791635300745 
2035	 0.333551624767301 
2036	 0.333292479904282 
2037	 0.333162407658534 
2038	 0.332944196789022 
2039	 0.33272309959789 
2040	 0.332470337392939 
2041	 0.332252047932782 
2042	 0.332033450076608 
2043	 0.331815312523267 
2044	 0.331568514067415 
2045	 0.331391960681674 
2046	 0.331251363315003 
2047	 0.331115216331456 
2048	 0.331041550305627 
2049	 0.330960018794362 
2050	 0.330936841704538 
2051	 0.330775258068228 
2052	 0.330618509890728 
2053	 0.330525439990786 
2054	 0.330417039255278 
2055	 0.330298400682315 
2056	 0.330179884980256 
2057	 0.330070657649725 
2058	 0.329961860609911 
2059	 0.329845756720852 
2060	 0.329709897340409 
2061	 0.329588757753139 
2062	 0.329458519931501 
2063	 0.329249756932064 
2064	 0.329129790031102 
2065	 0.329117560329605 
2066	 0.329015302225905 
2067	 0.328893624775922 
2068	 0.328731695444131 
2069	 0.328628731658863 
2070	 0.328484273377187 
2071	 0.328385649325858 
2072	 0.328395725656686 
2073	 0.32832277077618 
2074	 0.328166882405327 
2075	 0.328076744973063 
2076	 0.328009560578494 
2077	 0.327937846597794 
2078	 0.327906520490646 
2079	 0.32782513837327 
2080	 0.32773923037174 
2081	 0.327626330215982 
2082	 0.327408354900641 
2083	 0.327327603941403 
2084	 0.327201396553596 
2085	 0.327003949213603 
2086	 0.326840425645701 
2087	 0.326681206159187 
2088	 0.326504242130286 
2089	 0.32629868453133 
2090	 0.326133809985547 
2091	 0.326030461579961 
2092	 0.325809507053492 
2093	 0.325527734483283 
2094	 0.325300516748869 
2095	 0.32502863624563 
2096	 0.324757315887582 
2097	 0.32449398526591 
2098	 0.324294111441949 
2099	 0.32409389142507 
2100	 0.323841940838766 
2101	 0.323580556987515 
2102	 0.323338380139254 
2103	 0.323117699194746 
2104	 0.322848240500561 
2105	 0.32260163534557 
2106	 0.322467215506971 
2107	 0.322213613405837 
2108	 0.321878480201769 
2109	 0.321545414923441 
2110	 0.321203400787167 
2111	 0.320804884712519 
2112	 0.320292150543129 
2113	 0.319876650188268 
2114	 0.319514938304045 
2115	 0.319085929789841 
2116	 0.31865819007496 
2117	 0.31826937548325 
2118	 0.317802094912318 
2119	 0.31719895904997 
2120	 0.316775126067966 
2121	 0.316462331818968 
2122	 0.316012171166503 
2123	 0.315505439269319 
2124	 0.315132830910653 
2125	 0.31473664825525 
2126	 0.314384146967469 
2127	 0.314239665941209 
2128	 0.313955557502905 
2129	 0.313528117477336 
2130	 0.313179302485262 
2131	 0.312814535753657 
2132	 0.312516539643129 
2133	 0.312212035667673 
2134	 0.31206731670519 
2135	 0.311909308281824 
2136	 0.311711514355866 
2137	 0.311555259899845 
2138	 0.311381184388267 
2139	 0.311287491334325 
2140	 0.311283975139513 
2141	 0.311200872561402 
2142	 0.311087621316637 
2143	 0.311055872949769 
2144	 0.31102713970857 
2145	 0.31101266675789 
2146	 0.311090718974899 
2147	 0.311136131054449 
2148	 0.311129819712821 
2149	 0.311169177114838 
2150	 0.311277841368226 
2151	 0.311330743917569 
2152	 0.311353673918956 
2153	 0.31139518142422 
2154	 0.311399212156324 
2155	 0.311436556690177 
2156	 0.311456116238115 
2157	 0.311482376950736 
2158	 0.311497779112344 
2159	 0.311474311884546 
2160	 0.311522632559108 
2161	 0.311591582659782 
2162	 0.31168640977477 
2163	 0.311887910964336 
2164	 0.311962385275942 
2165	 0.312020075731781 
2166	 0.312019995445417 
2167	 0.311908444527894 
2168	 0.311830422475462 
2169	 0.311753116131554 
2170	 0.311645230821978 
2171	 0.311485067255517 
2172	 0.311372532202044 
2173	 0.311305795468213 
2174	 0.311146317460944 
2175	 0.310998973118674 
2176	 0.310921058713393 
2177	 0.310885132431005 
2178	 0.310868796964005 
2179	 0.310854852338122 
2180	 0.310924943140284 
2181	 0.310930258707788 
2182	 0.31090158091884 
2183	 0.310847473622398 
2184	 0.310778360894146 
2185	 0.310717352988606 
2186	 0.310582779699759 
2187	 0.310539383019562 
2188	 0.310619768959469 
2189	 0.310572707478581 
2190	 0.310516934977992 
2191	 0.310406778141387 
2192	 0.310137438508018 
2193	 0.309976371369728 
2194	 0.309869490553271 
2195	 0.309741312612512 
2196	 0.309663021337103 
2197	 0.309558949453934 
2198	 0.309371175100292 
2199	 0.309125940782589 
2200	 0.30895750728597 
2201	 0.308800542808558 
2202	 0.308590966650736 
2203	 0.308447924889944 
2204	 0.308158739565576 
2205	 0.307695441369142 
2206	 0.307386247741557 
2207	 0.307101551397534 
2208	 0.306780781778329 
2209	 0.306554600212746 
2210	 0.306212829356729 
2211	 0.305691288861967 
2212	 0.305342094294787 
2213	 0.305073571696658 
2214	 0.304746812015324 
2215	 0.304501437685236 
2216	 0.304189374786373 
2217	 0.303820388810115 
2218	 0.30340591191495 
2219	 0.302946946414936 
2220	 0.302514281313074 
2221	 0.302100744589322 
2222	 0.301533698201107 
2223	 0.301158500854518 
2224	 0.300670911527757 
2225	 0.300037368311608 
2226	 0.299572210075893 
2227	 0.299046940796129 
2228	 0.298547611286006 
2229	 0.297852154230063 
2230	 0.297108333203863 
2231	 0.296306392078005 
2232	 0.295334612110561 
2233	 0.294357682250935 
2234	 0.293453072343597 
2235	 0.292324484143047 
2236	 0.291036997116761 
2237	 0.289665492469253 
2238	 0.288148062457768 
2239	 0.286591869552168 
2240	 0.284960619344721 
2241	 0.283213320507555 
2242	 0.281399436346943 
2243	 0.279462463754505 
2244	 0.277351621512835 
2245	 0.275216980901502 
2246	 0.27297883321507 
2247	 0.270706534344678 
2248	 0.268342459272921 
2249	 0.26597337069717 
2250	 0.263537971970377 
2251	 0.261168576857714 
2252	 0.25867064132157 
2253	 0.256280775383525 
2254	 0.253676746770913 
2255	 0.250906533154343 
2256	 0.248337055925856 
2257	 0.245775001797383 
2258	 0.243425506201994 
2259	 0.241358165141091 
2260	 0.239162482235404 
2261	 0.23703983932265 
2262	 0.234885799586497 
2263	 0.232636724495123 
2264	 0.230548408918613 
2265	 0.228510365218539 
2266	 0.226563367889698 
2267	 0.22482399893611 
2268	 0.222956545860736 
2269	 0.221049243770223 
2270	 0.219250366066735 
2271	 0.21742630212556 
2272	 0.215680907181412 
2273	 0.214075780853902 
2274	 0.212441359464521 
2275	 0.210880688284945 
2276	 0.209202827996579 
2277	 0.207560899047014 
2278	 0.205816492575432 
2279	 0.203862330293112 
2280	 0.20199157032897 
2281	 0.200087161624726 
2282	 0.19820069250598 
2283	 0.196366053605581 
2284	 0.194542627496016 
2285	 0.192508442793683 
2286	 0.190560743370695 
2287	 0.18837766702858 
2288	 0.186164447504914 
2289	 0.184224279741696 
2290	 0.182201849692188 
2291	 0.180281650543085 
2292	 0.178421750022256 
2293	 0.176312184448149 
2294	 0.174304619123526 
2295	 0.172481991809444 
2296	 0.170602455944504 
2297	 0.169109452795844 
2298	 0.167926507140157 
2299	 0.166833080653315 
2300	 0.165976649215279 
2301	 0.165248067820051 
2302	 0.164608176768569 
2303	 0.16428814914233 
2304	 0.164168787520564 
2305	 0.164373404075 
2306	 0.164969547903042 
2307	 0.165613845710013 
2308	 0.166491515880927 
2309	 0.167470565552602 
2310	 0.16857104018059 
2311	 0.169857086015672 
2312	 0.171428163306216 
2313	 0.172971496435541 
2314	 0.174665968365877 
2315	 0.176343527306562 
2316	 0.178050406948074 
2317	 0.179732790691914 
2318	 0.18160827686378 
2319	 0.183135441193839 
2320	 0.184574510191838 
2321	 0.185762720088474 
2322	 0.186618723837515 
2323	 0.187391954039477 
2324	 0.188060903335944 
2325	 0.188543911553103 
2326	 0.188797851010138 
2327	 0.188971895905866 
2328	 0.188974270558583 
2329	 0.188820328795921 
2330	 0.188528676778381 
2331	 0.188188900876758 
2332	 0.187541479716407 
2333	 0.186542797337386 
2334	 0.185444833626131 
2335	 0.184345627571387 
2336	 0.183209897172963 
2337	 0.18212371552122 
2338	 0.180909429767032 
2339	 0.179479182992839 
2340	 0.178308783815594 
2341	 0.177148003327464 
2342	 0.1759414860913 
2343	 0.175217999316196 
2344	 0.174598606766135 
2345	 0.174043797989878 
2346	 0.173875160341504 
2347	 0.17384681949917 
2348	 0.173792172329869 
2349	 0.17416302857388 
2350	 0.174948062509438 
2351	 0.175838935990662 
2352	 0.176983331478069 
2353	 0.178304655086004 
2354	 0.179375992240624 
2355	 0.180385680855509 
2356	 0.181551310909629 
2357	 0.182562191099178 
2358	 0.183540888427106 
2359	 0.184412801743455 
2360	 0.184949175699922 
2361	 0.185313688705497 
2362	 0.185479478237576 
2363	 0.185615758130009 
2364	 0.185705493538493 
2365	 0.185673815028301 
2366	 0.185768229587437 
2367	 0.185676994385052 
2368	 0.185657450677437 
2369	 0.18571108137815 
2370	 0.185598340990954 
2371	 0.18572089631967 
2372	 0.185866555319462 
2373	 0.185860068288756 
2374	 0.185900751666202 
2375	 0.185972938072191 
2376	 0.18597494078057 
2377	 0.186088756727045 
2378	 0.185872356304318 
2379	 0.185383973663311 
2380	 0.185318781289166 
2381	 0.185191458750675 
2382	 0.185145831752068 
2383	 0.185462227677 
2384	 0.185661230474594 
2385	 0.185702425260613 
2386	 0.185751798179084 
2387	 0.185950871192571 
2388	 0.186190680364365 
2389	 0.186320501132381 
2390	 0.18663730886111 
2391	 0.187182456390102 
2392	 0.187272221608396 
2393	 0.187203644981346 
2394	 0.187161580691844 
2395	 0.18699896695828 
2396	 0.186895942201189 
2397	 0.186718875223686 
2398	 0.186707173685069 
2399	 0.186668140998098 
2400	 0.186674047387671 
2401	 0.186892099561089 
2402	 0.187264188638555 
2403	 0.187233695575014 
2404	 0.187458214309011 
2405	 0.188106105101324 
2406	 0.187914532225502 
2407	 0.187795963808908 
2408	 0.187946248790616 
2409	 0.187286175142639 
2410	 0.186921171738434 
2411	 0.186981703864957 
2412	 0.186990306645615 
2413	 0.187128848341317 
2414	 0.187093472891725 
2415	 0.187001286843436 
2416	 0.186935751586012 
2417	 0.187031619732428 
2418	 0.187244693880936 
2419	 0.187469117247374 
2420	 0.187714124396974 
2421	 0.187438659938042 
2422	 0.186891900057767 
2423	 0.186974969170508 
2424	 0.186953948682083 
2425	 0.186215218818301 
2426	 0.18648126129019 
2427	 0.18706971876098 
2428	 0.187033559540467 
2429	 0.18773095933188 
2430	 0.18771999835178 
2431	 0.186686411117226 
2432	 0.186309881715188 
2433	 0.186435244778061 
2434	 0.186681312846577 
2435	 0.187042580150597 
2436	 0.187253388111454 
2437	 0.187031165927558 
2438	 0.186925619521892 
2439	 0.187002598821607 
2440	 0.187220077054002 
2441	 0.187413544854043 
2442	 0.187188977560584 
2443	 0.187347479392101 
2444	 0.187415882132 
2445	 0.187155861564917 
2446	 0.187000539466524 
2447	 0.186338717495493 
2448	 0.185949099932649 
2449	 0.185979679467876 
2450	 0.185852241351763 
2451	 0.185791226473037 
2452	 0.184918159729737 
2453	 0.18392657881676 
2454	 0.183755879350795 
2455	 0.183364910637957 
2456	 0.18329996758429 
2457	 0.18349541675633 
2458	 0.183267160973646 
2459	 0.183168526316031 
2460	 0.182933778407746 
2461	 0.182132025128412 
2462	 0.181262081310748 
2463	 0.181218765131295 
2464	 0.181808121551482 
2465	 0.182278073234602 
2466	 0.18209858035198 
2467	 0.18134700675934 
2468	 0.180564121978522 
2469	 0.179906186579192 
2470	 0.17995791817275 
2471	 0.180378921164711 
2472	 0.180458750893433 
2473	 0.18092437935486 
2474	 0.181355590435454 
2475	 0.180920110264229 
2476	 0.180702710089867 
2477	 0.180358063001976 
2478	 0.17952249049302 
2479	 0.179915200786494 
2480	 0.179662997059395 
2481	 0.179371593240129 
2482	 0.179367533818801 
2483	 0.178891134255235 
2484	 0.179362505243669 
2485	 0.180907235603237 
2486	 0.181892828931861 
2487	 0.181950399069941 
2488	 0.182740379733549 
2489	 0.183741435985589 
2490	 0.18372002688301 
2491	 0.184292482745195 
2492	 0.184359931330506 
2493	 0.183259692722833 
2494	 0.182916386601902 
2495	 0.183439743622868 
2496	 0.183831012467952 
2497	 0.183690685807927 
2498	 0.183377268573112 
2499	 0.183223408662765 
2500	 0.184042688376391 
