Wavelength	Tablay400050.asd
350	 0.162317526749622 
351	 0.185146664596575 
352	 0.207155512879786 
353	 0.191445282197225 
354	 4.55076059019936E-02 
355	-1.82721981217516E-02 
356	 5.18235183292008E-02 
357	 0.192496633004367 
358	 0.139497091636653 
359	 8.50482014474053E-02 
360	 7.07018047953576E-02 
361	 6.23792553656339E-02 
362	 6.30339356298141E-02 
363	 8.79006721311316E-02 
364	 0.130586431452553 
365	 0.154326063058968 
366	 0.126261500975396 
367	 9.50694214568788E-02 
368	 0.101354997982523 
369	 6.64723112921463E-02 
370	 4.85998930135851E-02 
371	 0.074884269979294 
372	 0.130507370827963 
373	 0.103121307515892 
374	 0.069957782062915 
375	 7.41019807920603E-02 
376	 9.27855515771879E-02 
377	 0.080334818809577 
378	 8.47536464525245E-02 
379	 0.120761511238173 
380	 1.34723639584378E-02 
381	 1.57122521461319E-02 
382	 0.107911230853462 
383	 0.108592550262463 
384	 9.69051878905572E-02 
385	 8.47672204224101E-02 
386	 0.071530415021077 
387	 4.62381138788855E-02 
388	 0.050473798393074 
389	 6.94649731951675E-02 
390	 7.88064244056469E-02 
391	 8.14445372757143E-02 
392	 7.99280594379495E-02 
393	 6.63777156608987E-02 
394	 3.16031540884602E-02 
395	 4.08793681465685E-02 
396	 6.17147559877637E-02 
397	 6.41297004144501E-02 
398	 4.35222590215683E-02 
399	 5.25626463515249E-02 
400	 7.97785969722404E-02 
401	 9.72310120682017E-02 
402	 9.32666398778508E-02 
403	 6.14937434996345E-02 
404	 3.62401231626419E-02 
405	 0.069198087900443 
406	 7.10109531537694E-02 
407	 5.58481024540013E-02 
408	 4.62641107334821E-02 
409	 5.41196701161381E-02 
410	 5.71628633939767E-02 
411	 0.060628240501644 
412	 7.18574343974955E-02 
413	 6.02434635600704E-02 
414	 5.43863153093352E-02 
415	 0.060227825120929 
416	 0.062446535715352 
417	 5.84354691944555E-02 
418	 5.08815472210766E-02 
419	 4.62609621094569E-02 
420	 6.07790941336825E-02 
421	 5.30728451451377E-02 
422	 3.97325030174118E-02 
423	 5.14125109072244E-02 
424	 4.72781791889136E-02 
425	 4.63484093637626E-02 
426	 5.23735831539088E-02 
427	 4.81191377988046E-02 
428	 5.22046026934087E-02 
429	 5.49606611723697E-02 
430	 4.85893584123878E-02 
431	 4.80510596796395E-02 
432	 4.61627630916577E-02 
433	 4.53907040512728E-02 
434	 5.13851921437932E-02 
435	 4.92734553275033E-02 
436	 4.92861585413839E-02 
437	 5.41654672225046E-02 
438	 5.16681356167694E-02 
439	 4.77372233530688E-02 
440	 0.04686476278013 
441	 5.04718641391733E-02 
442	 4.96738016048811E-02 
443	 4.73339993838793E-02 
444	 4.61225795461821E-02 
445	 4.78202510219651E-02 
446	 4.70383505944151E-02 
447	 4.67881718984073E-02 
448	 4.88205473820546E-02 
449	 4.99063046563365E-02 
450	 4.71781799467649E-02 
451	 4.41148061199442E-02 
452	 4.55332735241656E-02 
453	 4.82734207240379E-02 
454	 4.77869934137203E-02 
455	 4.49319193754933E-02 
456	 4.61433695570233E-02 
457	 4.64931455690119E-02 
458	 4.66561696568497E-02 
459	 4.72649277993388E-02 
460	 4.49959227589757E-02 
461	 0.04568791914729 
462	 4.75727653797282E-02 
463	 4.57607286343337E-02 
464	 4.70699267349842E-02 
465	 4.58417804193182E-02 
466	 4.14515892028025E-02 
467	 4.26222040183035E-02 
468	 4.27991038704234E-02 
469	 4.31833180499826E-02 
470	 4.56798956094705E-02 
471	 4.65486812088464E-02 
472	 4.58029948054258E-02 
473	 4.40094786933306E-02 
474	 4.21748537919699E-02 
475	 4.24001582308487E-02 
476	 4.35327829450752E-02 
477	 4.39970098916365E-02 
478	 4.21558472489401E-02 
479	 4.23429999953305E-02 
480	 4.39083271369842E-02 
481	 4.43422760161651E-02 
482	 4.28100526857843E-02 
483	 4.17768180141911E-02 
484	 4.24339950464571E-02 
485	 4.42717079531157E-02 
486	 4.44829069956372E-02 
487	 4.30169121588557E-02 
488	 4.11711107380073E-02 
489	 4.20601828255477E-02 
490	 4.25109339878393E-02 
491	 4.19203939052968E-02 
492	 4.12892194233674E-02 
493	 4.15050830778129E-02 
494	 4.18644555207237E-02 
495	 4.19080521140519E-02 
496	 4.18499098407742E-02 
497	 4.25790155646994E-02 
498	 4.26400430491894E-02 
499	 4.08777286849844E-02 
500	 4.04515536221124E-02 
501	 4.14476467179796E-02 
502	 4.26078115455466E-02 
503	 4.18533127615346E-02 
504	 4.10482372160882E-02 
505	 4.09734530923114E-02 
506	 4.16054534682988E-02 
507	 4.16367533836279E-02 
508	 4.12508729767415E-02 
509	 0.040938448750972 
510	 4.11187293625484E-02 
511	 4.04273632423996E-02 
512	 4.04446965626278E-02 
513	 4.12074766341294E-02 
514	 4.05411364647348E-02 
515	 4.05595848660147E-02 
516	 4.07636581658261E-02 
517	 4.03286766336773E-02 
518	 3.94674465930859E-02 
519	 0.039569470020253 
520	 4.01777877334448E-02 
521	 3.97609602107025E-02 
522	 4.00034069334866E-02 
523	 4.01698050867989E-02 
524	 3.98894653985825E-02 
525	 0.040161829898313 
526	 0.040245404318904 
527	 3.99426007182326E-02 
528	 3.94525220415166E-02 
529	 4.00887011964798E-02 
530	 4.01730890223824E-02 
531	 0.03960490347303 
532	 4.00409962662565E-02 
533	 4.01095512127098E-02 
534	 3.97772405979621E-02 
535	 3.94208944468282E-02 
536	 3.97662704077925E-02 
537	 4.01197108205893E-02 
538	 4.00281749169949E-02 
539	 0.039356170961354 
540	 3.93689941416306E-02 
541	 3.94641570801032E-02 
542	 3.93201271099794E-02 
543	 3.94069528644218E-02 
544	 0.039509726489755 
545	 3.96009573044673E-02 
546	 3.96548007830788E-02 
547	 3.94355706909625E-02 
548	 0.039023528245142 
549	 3.87893993979543E-02 
550	 3.92707047003712E-02 
551	 3.94227219914386E-02 
552	 3.94220893869664E-02 
553	 3.94774192361537E-02 
554	 3.92491268183772E-02 
555	 3.91270521338546E-02 
556	 3.90732461731162E-02 
557	 3.88977583378136E-02 
558	 3.88972211131282E-02 
559	 3.90073046353692E-02 
560	 3.91136218286522E-02 
561	 3.90873190912974E-02 
562	 0.038835101828464 
563	 3.88054870612294E-02 
564	 3.92142934214453E-02 
565	 3.88287102481149E-02 
566	 3.86973382525093E-02 
567	 3.87785408281568E-02 
568	 3.83002922648379E-02 
569	 3.83689786027572E-02 
570	 3.84181172214704E-02 
571	 3.81722698088997E-02 
572	 3.85208695104073E-02 
573	 3.86824945671622E-02 
574	 3.87302345261844E-02 
575	 3.89353739112441E-02 
576	 3.87083892177182E-02 
577	 3.86417040555074E-02 
578	 3.88512740338559E-02 
579	 0.038840560067932 
580	 3.87612407239707E-02 
581	 3.87704949977875E-02 
582	 3.88525018880049E-02 
583	 3.83559742084646E-02 
584	 3.85139118825226E-02 
585	 3.88917539918805E-02 
586	 3.82812346592135E-02 
587	 3.81402433068866E-02 
588	 3.82670224222276E-02 
589	 3.83527946716519E-02 
590	 3.82315530864252E-02 
591	 3.84062433954865E-02 
592	 3.86751518752325E-02 
593	 3.86915881913483E-02 
594	 3.84926233282399E-02 
595	 3.83770249791078E-02 
596	 3.83812729685102E-02 
597	 3.83181084211044E-02 
598	 3.83888511420586E-02 
599	 3.83330465064274E-02 
600	 3.80651575955431E-02 
601	 3.81071481696709E-02 
602	 3.81169955288965E-02 
603	 3.81187646782947E-02 
604	 3.82550262960939E-02 
605	 3.84044145052281E-02 
606	 3.83493547962453E-02 
607	 3.81752368870594E-02 
608	 0.038337526978574 
609	 3.82075620628233E-02 
610	 3.80403912117253E-02 
611	 3.81021251570918E-02 
612	 3.78933784563235E-02 
613	 3.80843327787817E-02 
614	 3.84143840027563E-02 
615	 3.81293968079564E-02 
616	 3.80292706661002E-02 
617	 3.80518491574451E-02 
618	 3.80673547166863E-02 
619	 3.80330093756467E-02 
620	 3.79631998050058E-02 
621	 3.78859716561026E-02 
622	 3.78689027607925E-02 
623	 0.038178101883404 
624	 3.81518771773803E-02 
625	 3.78455507678524E-02 
626	 0.037971009120367 
627	 3.80419768955119E-02 
628	 3.79349028190137E-02 
629	 3.77339228520827E-02 
630	 3.78818100850083E-02 
631	 3.79917274133731E-02 
632	 3.79967838771239E-02 
633	 3.79722135304388E-02 
634	 3.79248111003138E-02 
635	 3.78874661690086E-02 
636	 3.78725261529658E-02 
637	 3.78658039979066E-02 
638	 3.78555967066429E-02 
639	 3.78238615474971E-02 
640	 3.77756281110289E-02 
641	 3.77913470009588E-02 
642	 3.77998764734782E-02 
643	 3.78158318967542E-02 
644	 3.78837767889512E-02 
645	 3.77916629522888E-02 
646	 3.77604670650159E-02 
647	 3.78329298112365E-02 
648	 3.76721116448451E-02 
649	 3.75880087481305E-02 
650	 3.76016315533887E-02 
651	 3.76393411117116E-02 
652	 3.76290404337044E-02 
653	 3.76305548089836E-02 
654	 3.76808900954918E-02 
655	 3.77816128497173E-02 
656	 3.77700219377247E-02 
657	 3.77164065465661E-02 
658	 3.76839391901455E-02 
659	 3.76263537360194E-02 
660	 3.76770062442858E-02 
661	 3.76715622514902E-02 
662	 3.74480181861228E-02 
663	 3.74815816017511E-02 
664	 3.75992079154063E-02 
665	 3.76755959072173E-02 
666	 3.76761470300009E-02 
667	 3.75790368679423E-02 
668	 0.037528265887006 
669	 3.75948261813408E-02 
670	 3.75833013428251E-02 
671	 3.75793043655909E-02 
672	 3.76212662858774E-02 
673	 3.77037122894344E-02 
674	 0.037670700628098 
675	 0.037632068685661 
676	 0.03765851707696 
677	 3.77432833065254E-02 
678	 3.77312268817912E-02 
679	 3.75973868350906E-02 
680	 3.74295031611287E-02 
681	 3.75428839199505E-02 
682	 3.76611711711025E-02 
683	 0.037664051406399 
684	 3.75608258524252E-02 
685	 3.76221924027752E-02 
686	 3.76865590147956E-02 
687	 3.76568363924341E-02 
688	 3.75893825896695E-02 
689	 3.76865464680335E-02 
690	 3.77609643033347E-02 
691	 3.76454391352621E-02 
692	 3.76103038827818E-02 
693	 3.76568771548626E-02 
694	 3.77075894955104E-02 
695	 3.76653916878998E-02 
696	 0.037768224216753 
697	 3.78201227175264E-02 
698	 3.77327098501054E-02 
699	 3.76578151316723E-02 
700	 3.77087668196473E-02 
701	 3.78337447692117E-02 
702	 3.79166130136258E-02 
703	 0.037815022293011 
704	 3.77581126123102E-02 
705	 3.78352815109596E-02 
706	 3.80037621350702E-02 
707	 3.80257886529841E-02 
708	 3.80025792748231E-02 
709	 3.79915986914513E-02 
710	 3.78853020758378E-02 
711	 3.79978760782781E-02 
712	 3.81350354734831E-02 
713	 3.80755215925253E-02 
714	 3.81486826765942E-02 
715	 3.81295633154665E-02 
716	 3.80830766954349E-02 
717	 3.82427195694255E-02 
718	 3.82136723981211E-02 
719	 3.82206430170776E-02 
720	 3.83453230341479E-02 
721	 3.82834584391172E-02 
722	 3.83034389894287E-02 
723	 3.84027527535952E-02 
724	 3.84881345127236E-02 
725	 3.84407742684029E-02 
726	 3.84889099136224E-02 
727	 3.85733004289614E-02 
728	 3.84728358907879E-02 
729	 3.85856759613865E-02 
730	 3.86726774809155E-02 
731	 3.86334926441774E-02 
732	 3.87319766170234E-02 
733	 3.87553620767888E-02 
734	 3.88032610881852E-02 
735	 3.89693175140854E-02 
736	 3.89895352590644E-02 
737	 3.89773449071541E-02 
738	 3.90162634400865E-02 
739	 3.91415640978576E-02 
740	 3.91816290817612E-02 
741	 3.92350879100386E-02 
742	 3.93377525169812E-02 
743	 3.93833729027941E-02 
744	 3.94356065939142E-02 
745	 3.94963270730204E-02 
746	 3.95500803109722E-02 
747	 3.95774234568637E-02 
748	 3.95964520202468E-02 
749	 3.96438130377575E-02 
750	 3.97547104738396E-02 
751	 3.98864267666969E-02 
752	 3.99541852985322E-02 
753	 3.99533593231324E-02 
754	 3.99839447662478E-02 
755	 4.01181652772991E-02 
756	 4.02197398620938E-02 
757	 4.02021845041243E-02 
758	 0.040265678980357 
759	 4.03220979108056E-02 
760	 4.03832182763501E-02 
761	 4.04940500618273E-02 
762	 4.06154131850742E-02 
763	 4.07094404698958E-02 
764	 4.07513569911131E-02 
765	 4.07399276607192E-02 
766	 0.040885605789417 
767	 0.041014977478241 
768	 4.10093358752439E-02 
769	 4.10472550543772E-02 
770	 4.10922736903156E-02 
771	 4.11981728904421E-02 
772	 4.13915261814569E-02 
773	 0.041437188571415 
774	 4.15190896141798E-02 
775	 4.16438953622469E-02 
776	 4.16744457955974E-02 
777	 4.17278956159339E-02 
778	 4.18192193194997E-02 
779	 4.19245249538382E-02 
780	 4.19811849445911E-02 
781	 4.20627681323363E-02 
782	 4.21299954772915E-02 
783	 4.21632746635846E-02 
784	 4.23367355291713E-02 
785	 4.24125479168909E-02 
786	 4.24476815610909E-02 
787	 4.26222864951371E-02 
788	 4.26507819068151E-02 
789	 4.27426108759783E-02 
790	 4.28999404463336E-02 
791	 4.28493593607077E-02 
792	 4.30067495105024E-02 
793	 0.043194863798081 
794	 0.043253776107716 
795	 4.33763642737914E-02 
796	 4.34169964009457E-02 
797	 0.043450577663502 
798	 0.04358123243253 
799	 4.36366727766761E-02 
800	 4.37821966565986E-02 
801	 4.39811820340476E-02 
802	 4.40550138050246E-02 
803	 4.41571046091817E-02 
804	 4.42508299225638E-02 
805	 4.43184949088016E-02 
806	 4.44054171697045E-02 
807	 0.044521227010244 
808	 4.46453409251816E-02 
809	 4.47572134155071E-02 
810	 4.48582087117552E-02 
811	 4.50179427372316E-02 
812	 4.51731996693775E-02 
813	 0.045244564389951 
814	 0.045436607838364 
815	 4.55452244659918E-02 
816	 4.55704227536013E-02 
817	 4.56996294924275E-02 
818	 0.045848318622007 
819	 4.59848333320505E-02 
820	 4.60976894320915E-02 
821	 4.61967634557789E-02 
822	 4.63481408883124E-02 
823	 4.65110639750114E-02 
824	 4.66316309188351E-02 
825	 4.67126772101822E-02 
826	 0.046776057230575 
827	 4.69159759011826E-02 
828	 4.71921415784589E-02 
829	 0.047292675070139 
830	 4.74755011466379E-02 
831	 4.77128483387095E-02 
832	 4.77324683296586E-02 
833	 4.77526444812562E-02 
834	 4.78576929482285E-02 
835	 0.048038235276481 
836	 4.81750501951775E-02 
837	 4.85728785247961E-02 
838	 4.88454561043441E-02 
839	 4.87421250582768E-02 
840	 4.88482128720079E-02 
841	 4.91098446475264E-02 
842	 4.93506843594766E-02 
843	 4.94074507620559E-02 
844	 4.95017361690329E-02 
845	 4.96759001310243E-02 
846	 4.98908076795185E-02 
847	 5.00611056443143E-02 
848	 5.02333652079284E-02 
849	 5.03606919327322E-02 
850	 5.04539872140218E-02 
851	 5.06049730985216E-02 
852	 5.09094145390722E-02 
853	 5.10954902604191E-02 
854	 5.10950869207724E-02 
855	 5.14377513838019E-02 
856	 0.051546944318092 
857	 0.05157736627111 
858	 5.18000998253835E-02 
859	 5.20421035919608E-02 
860	 5.21524607330828E-02 
861	 5.22442200662809E-02 
862	 5.25045446231966E-02 
863	 5.26664532367991E-02 
864	 5.28229650730893E-02 
865	 5.30367767334008E-02 
866	 0.053300697018839 
867	 5.33942205756233E-02 
868	 0.053449881517875 
869	 0.053578884241222 
870	 5.37864159354122E-02 
871	 5.40226249432178E-02 
872	 5.42723424555459E-02 
873	 5.45008184537236E-02 
874	 5.46056578022365E-02 
875	 0.054789681436832 
876	 5.50100576929882E-02 
877	 5.51670156717902E-02 
878	 5.52404025692894E-02 
879	 5.55163372183951E-02 
880	 5.57994848619205E-02 
881	 5.57852772977087E-02 
882	 0.055950309312922 
883	 5.61434491136512E-02 
884	 5.63041488122876E-02 
885	 5.64743272523066E-02 
886	 0.056714007998547 
887	 5.70467889901529E-02 
888	 5.73105578201501E-02 
889	 5.72014957559244E-02 
890	 5.74385159956653E-02 
891	 5.77808149940306E-02 
892	 5.79971155549121E-02 
893	 5.81850923352913E-02 
894	 5.83354638506377E-02 
895	 5.85385362084941E-02 
896	 5.88349835448323E-02 
897	 5.91068351044871E-02 
898	 5.90966261852247E-02 
899	 5.91522617709437E-02 
900	 0.059595626243374 
901	 5.98221890737593E-02 
902	 6.00256367023602E-02 
903	 6.02198212737141E-02 
904	 6.03442216554505E-02 
905	 0.060425942141225 
906	 6.06682480447528E-02 
907	 0.060969424861568 
908	 6.10715740888511E-02 
909	 0.061331833650923 
910	 6.16695851769154E-02 
911	 6.19295432327817E-02 
912	 6.19781772630628E-02 
913	 6.22381520863577E-02 
914	 6.24812897969539E-02 
915	 6.26234560800674E-02 
916	 6.28987770408983E-02 
917	 6.30899571109656E-02 
918	 6.32800915430317E-02 
919	 0.063504157438378 
920	 6.35970644745709E-02 
921	 6.39207367621097E-02 
922	 6.42702509276247E-02 
923	 6.44408455031841E-02 
924	 6.46118602747068E-02 
925	 6.48798062717378E-02 
926	 6.51638423707559E-02 
927	 6.53712600805633E-02 
928	 6.55945617026284E-02 
929	 6.58697788495217E-02 
930	 6.60826330082789E-02 
931	 6.61413748032254E-02 
932	 6.63020962409829E-02 
933	 6.66918954043657E-02 
934	 6.70855530827903E-02 
935	 6.72033046393709E-02 
936	 0.067562039275998 
937	 6.78474937218047E-02 
938	 6.80077484048213E-02 
939	 6.82061037100227E-02 
940	 6.85167312198333E-02 
941	 6.87724899898012E-02 
942	 6.89518758357006E-02 
943	 6.91788809623272E-02 
944	 6.95265157621305E-02 
945	 6.97066077986828E-02 
946	 6.97399618592237E-02 
947	 0.069985116431975 
948	 7.03524549686684E-02 
949	 7.08272630250704E-02 
950	 7.12546388935894E-02 
951	 7.13541246613552E-02 
952	 7.15326327801877E-02 
953	 7.19564861022088E-02 
954	 7.23903603802605E-02 
955	 7.21737928336499E-02 
956	 7.26140433264547E-02 
957	 0.072844980491809 
958	 7.26031439129687E-02 
959	 7.33571317261662E-02 
960	 0.073655529173009 
961	 7.38121423189018E-02 
962	 7.41385825330754E-02 
963	 0.074117472464883 
964	 7.43955498304311E-02 
965	 7.49179450234614E-02 
966	 7.52826002012985E-02 
967	 7.47678673984666E-02 
968	 7.50767781665768E-02 
969	 7.57892332795229E-02 
970	 7.61657520801515E-02 
971	 7.63438671747258E-02 
972	 7.65034266694282E-02 
973	 7.67301068487274E-02 
974	 7.69792489118702E-02 
975	 7.69495686170056E-02 
976	 7.71501543837661E-02 
977	 7.75469413226211E-02 
978	 7.79699951035909E-02 
979	 7.84615639133558E-02 
980	 7.87188497351006E-02 
981	 7.88906116878963E-02 
982	 7.91831228736468E-02 
983	 7.94709948845538E-02 
984	 7.93923720871976E-02 
985	 7.94580604996797E-02 
986	 8.00911996509609E-02 
987	 8.03942594621954E-02 
988	 8.05639933420609E-02 
989	 8.08832622614712E-02 
990	 8.14306845774084E-02 
991	 8.14720008684152E-02 
992	 8.16691093155896E-02 
993	 8.20374635255746E-02 
994	 8.22812402213834E-02 
995	 8.19068999177095E-02 
996	 8.20415402928347E-02 
997	 8.25358085893891E-02 
998	 8.29233959322863E-02 
999	 8.34658033402837E-02 
1000	 8.36801620666763E-02 
1001	 8.72311050135011E-02 
1002	 8.73552914268258E-02 
1003	 8.76976156521995E-02 
1004	 0.087944582924145 
1005	 0.088125548057542 
1006	 8.84668840726819E-02 
1007	 8.89521618517561E-02 
1008	 0.089246468872411 
1009	 8.95202416840091E-02 
1010	 8.97728560808918E-02 
1011	 8.98433631705452E-02 
1012	 9.01084810301923E-02 
1013	 9.05605604782072E-02 
1014	 9.08990861890349E-02 
1015	 9.12704954763745E-02 
1016	 9.15599858127173E-02 
1017	 9.16770562593471E-02 
1018	 9.19063343504733E-02 
1019	 9.24143319827434E-02 
1020	 9.28108932746808E-02 
1021	 9.30692213939694E-02 
1022	 9.32767495716497E-02 
1023	 9.35432383048619E-02 
1024	 9.35966460547028E-02 
1025	 0.093917779764175 
1026	 9.46690175120095E-02 
1027	 9.49677221125546E-02 
1028	 9.51269765123175E-02 
1029	 9.51841735889967E-02 
1030	 9.51990244686733E-02 
1031	 9.52831856192526E-02 
1032	 9.56119846691174E-02 
1033	 9.61315460239496E-02 
1034	 9.66041887482871E-02 
1035	 9.69504417477182E-02 
1036	 9.72364968047986E-02 
1037	 9.74827579917821E-02 
1038	 9.76762049763513E-02 
1039	 9.77463172766808E-02 
1040	 9.79140471846639E-02 
1041	 9.80643648909669E-02 
1042	 9.82977752020068E-02 
1043	 9.85489786083894E-02 
1044	 9.88924085939821E-02 
1045	 9.91706112021569E-02 
1046	 9.95104844931082E-02 
1047	 9.98875418061723E-02 
1048	 0.100027979863279 
1049	 0.100306060250768 
1050	 0.100602336189162 
1051	 0.100847551380649 
1052	 0.101147924675858 
1053	 0.101409964048729 
1054	 0.101699936396526 
1055	 0.10199749848799 
1056	 0.102185474592311 
1057	 0.102505328331618 
1058	 0.102944184111585 
1059	 0.103299224596598 
1060	 0.103626402734541 
1061	 0.103996240703606 
1062	 0.104281860385385 
1063	 0.104476169405352 
1064	 0.104871382302153 
1065	 0.105310553069063 
1066	 0.105596694295246 
1067	 0.106040882840397 
1068	 0.106413518116665 
1069	 0.106715935406553 
1070	 0.107073625464314 
1071	 0.107548772604302 
1072	 0.107829595125891 
1073	 0.108115240186442 
1074	 0.108475910824046 
1075	 0.108697887505061 
1076	 0.109067976421728 
1077	 0.109600380697161 
1078	 0.10997094481908 
1079	 0.110282186403562 
1080	 0.11066831120471 
1081	 0.110961344772007 
1082	 0.111249551788495 
1083	 0.111635022305311 
1084	 0.111991408034079 
1085	 0.112199487731956 
1086	 0.112450894283365 
1087	 0.112643697755064 
1088	 0.113004486695904 
1089	 0.113401123784554 
1090	 0.113770749707448 
1091	 0.114297376409187 
1092	 0.114857024854785 
1093	 0.115161594389536 
1094	 0.115445106753001 
1095	 0.115755096025604 
1096	 0.115930016740296 
1097	 0.116174743584094 
1098	 0.116514863013207 
1099	 0.116887634893164 
1100	 0.117200958968954 
1101	 0.117473541960102 
1102	 0.117863608597705 
1103	 0.118214420841475 
1104	 0.118546703570645 
1105	 0.118806064131966 
1106	 0.119095141448783 
1107	 0.119413697548411 
1108	 0.119667634602413 
1109	 0.119866865907702 
1110	 0.120238913735704 
1111	 0.120582089926972 
1112	 0.120803011779307 
1113	 0.121143655697217 
1114	 0.121380368551155 
1115	 0.121558126577503 
1116	 0.121900080984011 
1117	 0.122158790364777 
1118	 0.122419434257977 
1119	 0.122710942777717 
1120	 0.123006603594122 
1121	 0.123250543651221 
1122	 0.123541036190726 
1123	 0.123947747656614 
1124	 0.12424498580452 
1125	 0.124472552919422 
1126	 0.124780395438533 
1127	 0.125056883418613 
1128	 0.125261023553799 
1129	 0.125537592003722 
1130	 0.125892935464762 
1131	 0.126252037038473 
1132	 0.126649155415392 
1133	 0.126972204779923 
1134	 0.127152153685423 
1135	 0.127392831886295 
1136	 0.127557014426743 
1137	 0.127789704402866 
1138	 0.128139359991259 
1139	 0.128386545459006 
1140	 0.128561488722876 
1141	 0.128800094923985 
1142	 0.129000106791528 
1143	 0.129259040712107 
1144	 0.129639353113871 
1145	 0.12995090761715 
1146	 0.13028308516914 
1147	 0.130554466184493 
1148	 0.130785231100777 
1149	 0.130973939995609 
1150	 0.131153616400261 
1151	 0.131464199456838 
1152	 0.131739730687715 
1153	 0.132049323722776 
1154	 0.132344707253439 
1155	 0.132627776311145 
1156	 0.132888786503656 
1157	 0.13315980365128 
1158	 0.133443430539655 
1159	 0.133726634445125 
1160	 0.133978310323102 
1161	 0.134287349624109 
1162	 0.134541110572914 
1163	 0.134769917057824 
1164	 0.135118802020335 
1165	 0.135458606489066 
1166	 0.135698114073271 
1167	 0.136024144956525 
1168	 0.13632781997064 
1169	 0.136566871943071 
1170	 0.136772960662821 
1171	 0.137007341022622 
1172	 0.137156107646141 
1173	 0.137394468760667 
1174	 0.137703014197943 
1175	 0.137979720012536 
1176	 0.138278895437583 
1177	 0.138559457244405 
1178	 0.138824020039873 
1179	 0.139106512552361 
1180	 0.139376752619494 
1181	 0.139666228221253 
1182	 0.139925788788101 
1183	 0.140194551623401 
1184	 0.140436883876436 
1185	 0.140658437068051 
1186	 0.140915074259706 
1187	 0.141181662292774 
1188	 0.141441019480548 
1189	 0.141724703846064 
1190	 0.141996739045102 
1191	 0.142250566992354 
1192	 0.142507172433745 
1193	 0.142747067993857 
1194	 0.143021041643057 
1195	 0.143314367741623 
1196	 0.143619638164798 
1197	 0.143950429620004 
1198	 0.1443164766168 
1199	 0.144606727837269 
1200	 0.144804151540296 
1201	 0.145046765296541 
1202	 0.14527297724538 
1203	 0.145609625470247 
1204	 0.145970932717002 
1205	 0.146275429510551 
1206	 0.14655349217247 
1207	 0.146901911999883 
1208	 0.147223765398871 
1209	 0.147600168785194 
1210	 0.148106762130025 
1211	 0.148502704703972 
1212	 0.148849640027606 
1213	 0.149207510936202 
1214	 0.149488045824282 
1215	 0.14986409419654 
1216	 0.150297639283839 
1217	 0.150719998941187 
1218	 0.151226746157589 
1219	 0.151653561611913 
1220	 0.152033843739482 
1221	 0.152503479639715 
1222	 0.152968674503337 
1223	 0.153463715243063 
1224	 0.153935312524643 
1225	 0.154429570649881 
1226	 0.154871383590696 
1227	 0.155256994215269 
1228	 0.155704975934371 
1229	 0.156187267040709 
1230	 0.156618271759874 
1231	 0.15704306888636 
1232	 0.157467657612044 
1233	 0.157846664510535 
1234	 0.158250244387822 
1235	 0.158706741709363 
1236	 0.159125114823002 
1237	 0.159497631955993 
1238	 0.159890583451839 
1239	 0.160265578214455 
1240	 0.160671678856047 
1241	 0.161116332518428 
1242	 0.161546061272025 
1243	 0.161955502157384 
1244	 0.162360206816868 
1245	 0.16277349681222 
1246	 0.163184216201168 
1247	 0.16356479757971 
1248	 0.163932663466094 
1249	 0.164316508903721 
1250	 0.164671360815718 
1251	 0.165043229792732 
1252	 0.165467747153289 
1253	 0.165844465272261 
1254	 0.166212062374358 
1255	 0.166531026923059 
1256	 0.166767399343888 
1257	 0.167078190053871 
1258	 0.167384213798048 
1259	 0.167704893426005 
1260	 0.168091856486942 
1261	 0.168462983822046 
1262	 0.168822890467751 
1263	 0.169186891920008 
1264	 0.169512322174471 
1265	 0.169820557720516 
1266	 0.170164588289688 
1267	 0.170484471099515 
1268	 0.170820793196346 
1269	 0.171220943085322 
1270	 0.1715491718964 
1271	 0.171795515259647 
1272	 0.172134502320138 
1273	 0.172476668663554 
1274	 0.172866448577564 
1275	 0.17335237494904 
1276	 0.173774882735939 
1277	 0.174210219364609 
1278	 0.174611216671275 
1279	 0.174967911204174 
1280	 0.175331570201373 
1281	 0.17563563738014 
1282	 0.176012373954506 
1283	 0.176428217715282 
1284	 0.1768499203414 
1285	 0.17729665803412 
1286	 0.17781263856841 
1287	 0.178250799873057 
1288	 0.178674655938502 
1289	 0.179063107618424 
1290	 0.179390027765805 
1291	 0.179793475158009 
1292	 0.180179031730713 
1293	 0.180629768595931 
1294	 0.181211761450866 
1295	 0.181637871876957 
1296	 0.182007975398071 
1297	 0.182397459262717 
1298	 0.182674775249868 
1299	 0.183055974071163 
1300	 0.183523030595286 
1301	 0.183958278275006 
1302	 0.18444339566343 
1303	 0.184862127096807 
1304	 0.185232350788798 
1305	 0.185615843252974 
1306	 0.185941141598929 
1307	 0.18631074182648 
1308	 0.186714622210337 
1309	 0.187124798812766 
1310	 0.187526081071959 
1311	 0.187943020434284 
1312	 0.188335323905101 
1313	 0.188706818012392 
1314	 0.189096240423554 
1315	 0.18950840399293 
1316	 0.189858911227303 
1317	 0.190165497151387 
1318	 0.190522204550715 
1319	 0.190859959647957 
1320	 0.191208363292728 
1321	 0.191628811625248 
1322	 0.19196867796898 
1323	 0.192209183099309 
1324	 0.192543754719358 
1325	 0.192938941163439 
1326	 0.193263162799634 
1327	 0.193572780121019 
1328	 0.193912555096868 
1329	 0.194212594853246 
1330	 0.194523376385914 
1331	 0.194907042974377 
1332	 0.195242480687599 
1333	 0.195509678290328 
1334	 0.195812808858398 
1335	 0.196104039905016 
1336	 0.196394771153504 
1337	 0.196681477248508 
1338	 0.196973593771124 
1339	 0.197236008022564 
1340	 0.197474095825485 
1341	 0.197736989833782 
1342	 0.198003667247238 
1343	 0.198250373891578 
1344	 0.198508825304677 
1345	 0.198745189469755 
1346	 0.198940344188883 
1347	 0.199159672427137 
1348	 0.19939162958748 
1349	 0.199615812362351 
1350	 0.199844625676661 
1351	 0.200061142404078 
1352	 0.200240814595353 
1353	 0.200473810153084 
1354	 0.200773493194081 
1355	 0.200993473120527 
1356	 0.201207006277973 
1357	 0.201408988404127 
1358	 0.201526913506541 
1359	 0.201681963181539 
1360	 0.201856596604217 
1361	 0.202054910277851 
1362	 0.202217739775162 
1363	 0.202392828579705 
1364	 0.202610407595279 
1365	 0.202879989802224 
1366	 0.203054349617117 
1367	 0.203228117508131 
1368	 0.203375459807887 
1369	 0.203432696613606 
1370	 0.203559870054686 
1371	 0.203744121902284 
1372	 0.203869707861779 
1373	 0.203970292459693 
1374	 0.204080756658388 
1375	 0.204171358652559 
1376	 0.204270087404776 
1377	 0.20436857918982 
1378	 0.204486638295705 
1379	 0.204634556374688 
1380	 0.204738480702018 
1381	 0.204850943668849 
1382	 0.204933342218016 
1383	 0.204938626217941 
1384	 0.204998173456343 
1385	 0.20508673924644 
1386	 0.205156235546518 
1387	 0.205230999184986 
1388	 0.205314819256001 
1389	 0.205362150526104 
1390	 0.205458915722993 
1391	 0.20560802216367 
1392	 0.205739355307824 
1393	 0.205896272197121 
1394	 0.206091711102488 
1395	 0.206274885682245 
1396	 0.206459781486383 
1397	 0.206659526027715 
1398	 0.206897498399091 
1399	 0.20706178607946 
1400	 0.207220653626532 
1401	 0.207332003714586 
1402	 0.20736360185932 
1403	 0.207443327495241 
1404	 0.207532636527106 
1405	 0.207594457287739 
1406	 0.207685519678556 
1407	 0.2076991194395 
1408	 0.207620283556609 
1409	 0.207614351121921 
1410	 0.207599000750259 
1411	 0.207588728635483 
1412	 0.207632772969239 
1413	 0.207643415505423 
1414	 0.207597092803535 
1415	 0.207603891743154 
1416	 0.207626039503659 
1417	 0.207671151538497 
1418	 0.20775699595898 
1419	 0.207837251551726 
1420	 0.207935016781482 
1421	 0.208024786841203 
1422	 0.20810115154522 
1423	 0.208200572600169 
1424	 0.208329504077577 
1425	 0.208435833386802 
1426	 0.208527018304117 
1427	 0.208622623801129 
1428	 0.208705546436081 
1429	 0.208814766472882 
1430	 0.208946701713011 
1431	 0.209133947323755 
1432	 0.209251613842202 
1433	 0.209351739522214 
1434	 0.209460744468374 
1435	 0.2095477613401 
1436	 0.209637865228982 
1437	 0.209714054823776 
1438	 0.209842409584261 
1439	 0.209985759457106 
1440	 0.210127038736018 
1441	 0.210337657827769 
1442	 0.210477355584799 
1443	 0.210529246688379 
1444	 0.210673746734289 
1445	 0.210825269030131 
1446	 0.211022185329335 
1447	 0.211270164516424 
1448	 0.211549939698428 
1449	 0.211851603016902 
1450	 0.212197359570964 
1451	 0.212593581108277 
1452	 0.213019736229524 
1453	 0.213494899154142 
1454	 0.213967573922959 
1455	 0.214477190065488 
1456	 0.21498012737017 
1457	 0.215486670983408 
1458	 0.216001163515392 
1459	 0.21653301339769 
1460	 0.217055867222543 
1461	 0.217584951486983 
1462	 0.218092883324468 
1463	 0.218615764282029 
1464	 0.219089440471389 
1465	 0.219468617602983 
1466	 0.219924722680579 
1467	 0.220435454484825 
1468	 0.220906193980982 
1469	 0.221439743069514 
1470	 0.221948562328826 
1471	 0.222440206669471 
1472	 0.222883894338619 
1473	 0.22333477838231 
1474	 0.223798031680451 
1475	 0.22424035089932 
1476	 0.224631240228036 
1477	 0.225082724376992 
1478	 0.225587497773234 
1479	 0.2260113992367 
1480	 0.226431683772357 
1481	 0.226810417503131 
1482	 0.227115281999806 
1483	 0.227461839120738 
1484	 0.227811251600105 
1485	 0.228160427988103 
1486	 0.228504480542573 
1487	 0.228859591085195 
1488	 0.229226069271295 
1489	 0.229575236658923 
1490	 0.229898892786464 
1491	 0.230282611109348 
1492	 0.230698817594407 
1493	 0.231091059724919 
1494	 0.231507891075331 
1495	 0.231924966421975 
1496	 0.232313297663984 
1497	 0.232722803245061 
1498	 0.233174970721297 
1499	 0.233604597638149 
1500	 0.234019349792545 
1501	 0.234434390232592 
1502	 0.234856088889062 
1503	 0.235266454134584 
1504	 0.235640156393964 
1505	 0.236056113888284 
1506	 0.236505043382624 
1507	 0.236930375910872 
1508	 0.237384422576026 
1509	 0.237805866351448 
1510	 0.238204807655288 
1511	 0.238576244236658 
1512	 0.238918566886454 
1513	 0.239259207882092 
1514	 0.239547299576586 
1515	 0.23987782014128 
1516	 0.240249123572219 
1517	 0.240592679842458 
1518	 0.240953359718575 
1519	 0.24128821218549 
1520	 0.241575741419456 
1521	 0.241885498173575 
1522	 0.242200260876962 
1523	 0.242478362232347 
1524	 0.242745413373151 
1525	 0.242998134772753 
1526	 0.243252817136131 
1527	 0.243485404269483 
1528	 0.243731381192333 
1529	 0.243978192632344 
1530	 0.244242694974575 
1531	 0.244514090106021 
1532	 0.244779763585433 
1533	 0.245070971595046 
1534	 0.245320640724605 
1535	 0.245537509753985 
1536	 0.245778510172696 
1537	 0.246010126576853 
1538	 0.246258250053681 
1539	 0.24651398337177 
1540	 0.246787943245874 
1541	 0.247093258919327 
1542	 0.247349112333878 
1543	 0.247580038258798 
1544	 0.247858020146328 
1545	 0.248104375371297 
1546	 0.248419795883351 
1547	 0.248818093999291 
1548	 0.24917721584062 
1549	 0.249544039430259 
1550	 0.249905130805785 
1551	 0.250277386388266 
1552	 0.250618066512418 
1553	 0.250924613927158 
1554	 0.251272038548744 
1555	 0.251638050306567 
1556	 0.251965182182175 
1557	 0.252300588410867 
1558	 0.252624229845553 
1559	 0.252903596034741 
1560	 0.253199640017468 
1561	 0.253500260220607 
1562	 0.253823841536427 
1563	 0.254150278204116 
1564	 0.254476113598663 
1565	 0.254827334382445 
1566	 0.255175404865849 
1567	 0.255520813537058 
1568	 0.255851396276947 
1569	 0.25620033479564 
1570	 0.256518756181629 
1571	 0.256785830615777 
1572	 0.257087875541706 
1573	 0.257401931773791 
1574	 0.257709662686948 
1575	 0.258019333731471 
1576	 0.258338155104569 
1577	 0.258667149878156 
1578	 0.258977927698952 
1579	 0.25928672660757 
1580	 0.259600451742275 
1581	 0.259920108834024 
1582	 0.260203304182606 
1583	 0.260465394978258 
1584	 0.26074286332238 
1585	 0.260971135561616 
1586	 0.261255071677572 
1587	 0.261617636894598 
1588	 0.261919263931218 
1589	 0.262202351462553 
1590	 0.26249093301595 
1591	 0.262739358504039 
1592	 0.263020931057253 
1593	 0.263336883777215 
1594	 0.263639442069522 
1595	 0.263942412788955 
1596	 0.264247298774631 
1597	 0.264555151549051 
1598	 0.264856876443525 
1599	 0.265157534181349 
1600	 0.265456636229926 
1601	 0.265740809930085 
1602	 0.266040018485209 
1603	 0.266388695335 
1604	 0.266665712856864 
1605	 0.266875856467929 
1606	 0.267144335279426 
1607	 0.267402855191808 
1608	 0.267656726499921 
1609	 0.267976561834685 
1610	 0.268244414891131 
1611	 0.2684585822069 
1612	 0.268673144603964 
1613	 0.268862548709536 
1614	 0.26907443724887 
1615	 0.269286973384468 
1616	 0.269497895270257 
1617	 0.269728754444862 
1618	 0.26994800064669 
1619	 0.270165093885033 
1620	 0.27036157621697 
1621	 0.270517724275837 
1622	 0.270718021351242 
1623	 0.270967461883794 
1624	 0.271145750698468 
1625	 0.271294388966276 
1626	 0.271480028214231 
1627	 0.271621655112263 
1628	 0.271776632776553 
1629	 0.272005531329247 
1630	 0.272191062615208 
1631	 0.272310068805578 
1632	 0.272467617154 
1633	 0.272645107792023 
1634	 0.272814110458661 
1635	 0.272981585515942 
1636	 0.273173014635104 
1637	 0.273393910912831 
1638	 0.273579469321617 
1639	 0.273780515252918 
1640	 0.273943479300758 
1641	 0.274032440707596 
1642	 0.274172425179263 
1643	 0.274362933769791 
1644	 0.27448656473435 
1645	 0.2745668646687 
1646	 0.274693433973946 
1647	 0.274797496447069 
1648	 0.274901833775473 
1649	 0.27508179500698 
1650	 0.275186730981385 
1651	 0.275210947917523 
1652	 0.275268626730978 
1653	 0.275338865195758 
1654	 0.275384413795082 
1655	 0.275435144766653 
1656	 0.27544557646379 
1657	 0.275398750680447 
1658	 0.275365554017641 
1659	 0.275362904997146 
1660	 0.275293019973837 
1661	 0.275211248771327 
1662	 0.275063274246511 
1663	 0.274817490611605 
1664	 0.274572807139026 
1665	 0.274285029393842 
1666	 0.274006244857218 
1667	 0.273726556202966 
1668	 0.273435367161264 
1669	 0.273158872189051 
1670	 0.272822966740983 
1671	 0.272478391479709 
1672	 0.272048870650326 
1673	 0.271557819459348 
1674	 0.271001323884157 
1675	 0.270373584721446 
1676	 0.26971334871959 
1677	 0.269004501323027 
1678	 0.268239905018037 
1679	 0.267401146250739 
1680	 0.266544287819926 
1681	 0.265649205694778 
1682	 0.26469483932891 
1683	 0.2637195387841 
1684	 0.262702181681932 
1685	 0.261639651390996 
1686	 0.260498870729548 
1687	 0.259326174224284 
1688	 0.258036544949876 
1689	 0.256568755052145 
1690	 0.255181198785134 
1691	 0.253750965148599 
1692	 0.252386459963234 
1693	 0.251087746576053 
1694	 0.249752862820328 
1695	 0.248431478816539 
1696	 0.247038125118564 
1697	 0.245595943458387 
1698	 0.244162717474613 
1699	 0.242699263172604 
1700	 0.2412783780145 
1701	 0.239848654414054 
1702	 0.238505305407796 
1703	 0.237187011404349 
1704	 0.235910398989815 
1705	 0.234675299831023 
1706	 0.23345582138452 
1707	 0.232366509137106 
1708	 0.231389600556932 
1709	 0.230601533464807 
1710	 0.229808102884429 
1711	 0.228994769957108 
1712	 0.22832048421218 
1713	 0.22758418621187 
1714	 0.226910658810409 
1715	 0.226371749880891 
1716	 0.225692693309615 
1717	 0.22504751143645 
1718	 0.224492566276865 
1719	 0.22393076862067 
1720	 0.223512261291682 
1721	 0.223088574286271 
1722	 0.22267510421057 
1723	 0.222407843514391 
1724	 0.222136258805131 
1725	 0.221970141611085 
1726	 0.221968666583386 
1727	 0.222096961866056 
1728	 0.222369246181757 
1729	 0.222795894860772 
1730	 0.223379392571017 
1731	 0.224039881774554 
1732	 0.224848571365544 
1733	 0.225772529780563 
1734	 0.226796406016421 
1735	 0.227848236824188 
1736	 0.228844071996589 
1737	 0.229873934935419 
1738	 0.230781993846772 
1739	 0.231573516033115 
1740	 0.232307164983749 
1741	 0.232896845414999 
1742	 0.233369475497021 
1743	 0.233749901021814 
1744	 0.233996185684693 
1745	 0.234180640622541 
1746	 0.234203815327939 
1747	 0.234290067544843 
1748	 0.234356772146403 
1749	 0.23436726126088 
1750	 0.234365625903545 
1751	 0.234373199448775 
1752	 0.234299884263998 
1753	 0.234321463842876 
1754	 0.234389636104815 
1755	 0.234496013169332 
1756	 0.234576047946894 
1757	 0.2348840577065 
1758	 0.23531596327474 
1759	 0.235782361437416 
1760	 0.236270569864094 
1761	 0.236793329143607 
1762	 0.237334728046678 
1763	 0.237965262576966 
1764	 0.238730017930318 
1765	 0.239642533517373 
1766	 0.240708712641003 
1767	 0.241822217154835 
1768	 0.243022832148655 
1769	 0.244261011669893 
1770	 0.245265760687982 
1771	 0.246253507882148 
1772	 0.247347462083993 
1773	 0.248321518046396 
1774	 0.249377808200637 
1775	 0.250541063679818 
1776	 0.251557473423016 
1777	 0.252480366082477 
1778	 0.253413785080183 
1779	 0.254241832603008 
1780	 0.255001192746347 
1781	 0.255789721229724 
1782	 0.25650140811595 
1783	 0.257183514527747 
1784	 0.257899875712417 
1785	 0.258491713418506 
1786	 0.259074722530987 
1787	 0.259642529761248 
1788	 0.260139437386769 
1789	 0.260626140780108 
1790	 0.261045213051932 
1791	 0.261330888023022 
1792	 0.261671598142267 
1793	 0.261988994670213 
1794	 0.262308663676334 
1795	 0.262687467506735 
1796	 0.262968940497929 
1797	 0.263240391384648 
1798	 0.263576000034325 
1799	 0.263790375473725 
1800	 0.264065496852674 
1801	 0.260574150163624 
1802	 0.260892641585198 
1803	 0.261234497054652 
1804	 0.261594368895147 
1805	 0.262008405198376 
1806	 0.262307844746618 
1807	 0.262580999248766 
1808	 0.262828179637337 
1809	 0.262955846908721 
1810	 0.263186795100203 
1811	 0.263425665520878 
1812	 0.263711366491063 
1813	 0.264055111610124 
1814	 0.264417647538342 
1815	 0.264704951178926 
1816	 0.265093821301059 
1817	 0.265469268868924 
1818	 0.26583537993981 
1819	 0.266195676387608 
1820	 0.26660631145457 
1821	 0.26695973092314 
1822	 0.267245786961801 
1823	 0.267609233620165 
1824	 0.267860381922579 
1825	 0.268223301193917 
1826	 0.268562523619816 
1827	 0.268873009383209 
1828	 0.269208018598582 
1829	 0.269600814163648 
1830	 0.269928009699367 
1831	 0.270200053449403 
1832	 0.270546233399925 
1833	 0.270864617736113 
1834	 0.271234786433413 
1835	 0.271619598477262 
1836	 0.271939751860767 
1837	 0.272337063431767 
1838	 0.272795365988329 
1839	 0.273165266288034 
1840	 0.273530168140042 
1841	 0.273917556713156 
1842	 0.274274738418523 
1843	 0.274572450610381 
1844	 0.275009180017242 
1845	 0.275478213239125 
1846	 0.275778782273313 
1847	 0.276084723585003 
1848	 0.276398071935902 
1849	 0.276634568615908 
1850	 0.276914997252722 
1851	 0.277239934903639 
1852	 0.277575098803496 
1853	 0.277844013270596 
1854	 0.27803583739196 
1855	 0.278209237871319 
1856	 0.27833972854168 
1857	 0.278529407720172 
1858	 0.27870476049227 
1859	 0.278846684379448 
1860	 0.279050316388325 
1861	 0.279155147874291 
1862	 0.279167844005183 
1863	 0.279176678125734 
1864	 0.279212570960841 
1865	 0.279163627003502 
1866	 0.279118693206745 
1867	 0.279041009253078 
1868	 0.278903971819585 
1869	 0.278715477378751 
1870	 0.278520070408819 
1871	 0.278291118677749 
1872	 0.278082383597245 
1873	 0.277902080205942 
1874	 0.277640676398449 
1875	 0.277316606151985 
1876	 0.276918619740758 
1877	 0.276441455618452 
1878	 0.275915334841903 
1879	 0.275429361665137 
1880	 0.274914891399202 
1881	 0.274289827538129 
1882	 0.273584824830703 
1883	 0.272855788365649 
1884	 0.27199283446714 
1885	 0.271018255154558 
1886	 0.270075723865436 
1887	 0.269062695634935 
1888	 0.267974839349409 
1889	 0.266902289631762 
1890	 0.265727328206341 
1891	 0.264521873118782 
1892	 0.263340294312313 
1893	 0.26208833709969 
1894	 0.260768863709808 
1895	 0.259451058803042 
1896	 0.258121318617162 
1897	 0.256783433830042 
1898	 0.255646375581219 
1899	 0.254522457961114 
1900	 0.253384619945805 
1901	 0.252332502354447 
1902	 0.251142090701756 
1903	 0.249974010331648 
1904	 0.248904502680869 
1905	 0.247880915184693 
1906	 0.246903440504012 
1907	 0.246102476571492 
1908	 0.245404743293735 
1909	 0.244765359691992 
1910	 0.244140717320731 
1911	 0.243489206907798 
1912	 0.242837828485193 
1913	 0.242202300477954 
1914	 0.241639244685707 
1915	 0.241134290901636 
1916	 0.2407132140714 
1917	 0.240288214824947 
1918	 0.239850230684193 
1919	 0.239473218551978 
1920	 0.239088471141523 
1921	 0.238735059650459 
1922	 0.238437998260936 
1923	 0.2380851390237 
1924	 0.237758750065518 
1925	 0.237455782488721 
1926	 0.237174206862671 
1927	 0.236917283714496 
1928	 0.236698717976458 
1929	 0.236507477114427 
1930	 0.236340619643104 
1931	 0.236154877096054 
1932	 0.236027570154976 
1933	 0.235993491077182 
1934	 0.235904060784398 
1935	 0.235820313492413 
1936	 0.235813706992731 
1937	 0.235856382294639 
1938	 0.235897537430227 
1939	 0.236012529830569 
1940	 0.236223640648405 
1941	 0.236465158653665 
1942	 0.236685547827045 
1943	 0.236860687796893 
1944	 0.237067883767529 
1945	 0.237340407734098 
1946	 0.237629858353424 
1947	 0.237959840125462 
1948	 0.238409213812207 
1949	 0.238884548476789 
1950	 0.239357031280205 
1951	 0.239871600539432 
1952	 0.240395358224034 
1953	 0.240924697482332 
1954	 0.24145803548817 
1955	 0.242030701733872 
1956	 0.242547617971278 
1957	 0.243139576377989 
1958	 0.243784556851584 
1959	 0.244338652250586 
1960	 0.2449644829105 
1961	 0.245549704614972 
1962	 0.246083412860747 
1963	 0.246602714795578 
1964	 0.247153884980584 
1965	 0.247624882707391 
1966	 0.248039810627495 
1967	 0.248444882539813 
1968	 0.24876175201098 
1969	 0.249107001777389 
1970	 0.249492459702194 
1971	 0.249833303967262 
1972	 0.250194026092805 
1973	 0.250594931760255 
1974	 0.250993319423148 
1975	 0.251360852711722 
1976	 0.251776351480395 
1977	 0.252271993015138 
1978	 0.252698927180357 
1979	 0.253075414358969 
1980	 0.253537366835195 
1981	 0.253976327796939 
1982	 0.254333993078398 
1983	 0.254741792531233 
1984	 0.255106712298712 
1985	 0.255489126200101 
1986	 0.255941749384503 
1987	 0.256408584822869 
1988	 0.25694715503658 
1989	 0.25746709523599 
1990	 0.257973727687088 
1991	 0.258506226410512 
1992	 0.259076192460134 
1993	 0.259621741213726 
1994	 0.260140318864422 
1995	 0.260781149034236 
1996	 0.26142080200132 
1997	 0.262110275502474 
1998	 0.262778647599538 
1999	 0.263495412047082 
2000	 0.264132790859763 
2001	 0.264742454335602 
2002	 0.265316429917371 
2003	 0.265884301425076 
2004	 0.266397467114137 
2005	 0.266837536647367 
2006	 0.267280952980818 
2007	 0.267703251031081 
2008	 0.26806964673647 
2009	 0.268451250587816 
2010	 0.268844364047455 
2011	 0.269190724017387 
2012	 0.269459829412274 
2013	 0.269714432702853 
2014	 0.2699245943468 
2015	 0.270131678680685 
2016	 0.270300236944385 
2017	 0.270484193703834 
2018	 0.270687750208536 
2019	 0.270823740579502 
2020	 0.270936195130808 
2021	 0.271022104678176 
2022	 0.271039662923416 
2023	 0.271034566200431 
2024	 0.271017482206586 
2025	 0.270941316464178 
2026	 0.270849160195928 
2027	 0.27070492982773 
2028	 0.270584062675947 
2029	 0.270437955339763 
2030	 0.270317084171224 
2031	 0.270203359369184 
2032	 0.270101646851841 
2033	 0.270009926441266 
2034	 0.269928038486631 
2035	 0.269873978861716 
2036	 0.269805714266512 
2037	 0.269748498994561 
2038	 0.269626764702646 
2039	 0.269477274485633 
2040	 0.269255877154435 
2041	 0.269105580375431 
2042	 0.268942853589416 
2043	 0.268820539939099 
2044	 0.268747161563167 
2045	 0.268675119481412 
2046	 0.268627648975624 
2047	 0.268544471824411 
2048	 0.268488569554167 
2049	 0.268393280274664 
2050	 0.268238284662915 
2051	 0.268099127550513 
2052	 0.268017141318008 
2053	 0.267894745925791 
2054	 0.26780162740741 
2055	 0.267760216836028 
2056	 0.267674047760247 
2057	 0.267569889770069 
2058	 0.267463802289687 
2059	 0.267328955546547 
2060	 0.267232061014914 
2061	 0.267130085841458 
2062	 0.26705509516174 
2063	 0.267020999578253 
2064	 0.266975427140277 
2065	 0.266948870654977 
2066	 0.266902306340484 
2067	 0.266832703016881 
2068	 0.266845753129595 
2069	 0.266814806761696 
2070	 0.266774619634804 
2071	 0.266736246489513 
2072	 0.266698856270591 
2073	 0.266653040215225 
2074	 0.266637045659134 
2075	 0.266550699004867 
2076	 0.266389289510025 
2077	 0.266284146459455 
2078	 0.266143785933709 
2079	 0.266050833068388 
2080	 0.266023908365944 
2081	 0.265983697458045 
2082	 0.265973429590025 
2083	 0.265924893402061 
2084	 0.265838238015706 
2085	 0.265754137026915 
2086	 0.265689085950425 
2087	 0.265594819203385 
2088	 0.265545984606589 
2089	 0.265570013907475 
2090	 0.265523645121297 
2091	 0.265460574235183 
2092	 0.265372317061266 
2093	 0.265218747243988 
2094	 0.265120466853797 
2095	 0.265063761534538 
2096	 0.26495550530519 
2097	 0.264829339600583 
2098	 0.264732584973739 
2099	 0.264571314506228 
2100	 0.264402694359253 
2101	 0.264225866164146 
2102	 0.264058579914746 
2103	 0.263850832535857 
2104	 0.263569857491944 
2105	 0.263382382512909 
2106	 0.263255200772369 
2107	 0.263048020031887 
2108	 0.262863963506744 
2109	 0.26264355784648 
2110	 0.262310490853299 
2111	 0.262049381246074 
2112	 0.261845329928668 
2113	 0.26161108107401 
2114	 0.261424385013253 
2115	 0.261157693961834 
2116	 0.260859148262872 
2117	 0.260492879595151 
2118	 0.260132047509307 
2119	 0.259681220446861 
2120	 0.259352548210799 
2121	 0.259045904113997 
2122	 0.258792326657575 
2123	 0.258636780952031 
2124	 0.258409265958701 
2125	 0.258216095628953 
2126	 0.257956119264048 
2127	 0.257591032183599 
2128	 0.257328547053823 
2129	 0.257041724634148 
2130	 0.256849651015363 
2131	 0.256822118203169 
2132	 0.256691813057928 
2133	 0.256586743982507 
2134	 0.256415435597005 
2135	 0.256175821537312 
2136	 0.255942682416121 
2137	 0.255779829431213 
2138	 0.25562500364817 
2139	 0.255550392030207 
2140	 0.255580183583648 
2141	 0.255548818993523 
2142	 0.255569789850035 
2143	 0.25550958473344 
2144	 0.255357030842373 
2145	 0.255287455870514 
2146	 0.255201334959463 
2147	 0.255167045349785 
2148	 0.255201494808002 
2149	 0.255238784474694 
2150	 0.255286592942277 
2151	 0.255364159493068 
2152	 0.255557279580333 
2153	 0.255609108506313 
2154	 0.255631485391823 
2155	 0.255715691472983 
2156	 0.255715239673375 
2157	 0.255616145907047 
2158	 0.255620294732435 
2159	 0.255646232559489 
2160	 0.255661837265862 
2161	 0.255735827219238 
2162	 0.255735325938071 
2163	 0.255682211982953 
2164	 0.255643787675045 
2165	 0.255580491520222 
2166	 0.255530294401074 
2167	 0.255494755010107 
2168	 0.255444408750746 
2169	 0.255373205574906 
2170	 0.255318453954216 
2171	 0.255244239699073 
2172	 0.255208307355882 
2173	 0.255230850851764 
2174	 0.255197308580109 
2175	 0.255236919687565 
2176	 0.255254377485241 
2177	 0.25520536239238 
2178	 0.255080339006185 
2179	 0.255099159545761 
2180	 0.25512809231746 
2181	 0.255164279180054 
2182	 0.255333401803308 
2183	 0.255373097975037 
2184	 0.255323036111959 
2185	 0.255296232230013 
2186	 0.255287731941855 
2187	 0.255205742410788 
2188	 0.255033150501065 
2189	 0.254931940389078 
2190	 0.254816161479183 
2191	 0.254712066212934 
2192	 0.254645412576621 
2193	 0.254585244615077 
2194	 0.254552700230603 
2195	 0.254476030968475 
2196	 0.254418140652338 
2197	 0.254307623538707 
2198	 0.254217326899899 
2199	 0.254047563939489 
2200	 0.25386176516272 
2201	 0.253677213482152 
2202	 0.253452798118396 
2203	 0.253148719686387 
2204	 0.252893435123695 
2205	 0.252639882159991 
2206	 0.252396077607767 
2207	 0.25214091184834 
2208	 0.251913360260572 
2209	 0.251784640866706 
2210	 0.251506845437993 
2211	 0.251174845381352 
2212	 0.250822298745681 
2213	 0.250277238127749 
2214	 0.249904403385024 
2215	 0.249655103954085 
2216	 0.249353902025001 
2217	 0.249141641042202 
2218	 0.248850148579513 
2219	 0.248457914646243 
2220	 0.24809575286325 
2221	 0.247753444170034 
2222	 0.247353944862032 
2223	 0.246941356594043 
2224	 0.246566890297659 
2225	 0.246134372857528 
2226	 0.245685194038916 
2227	 0.245136996232208 
2228	 0.244587948926066 
2229	 0.243839860364804 
2230	 0.242862754182986 
2231	 0.242066073140472 
2232	 0.241245801824118 
2233	 0.240393108112539 
2234	 0.239761629032301 
2235	 0.238697084945797 
2236	 0.237375824671047 
2237	 0.236001994519547 
2238	 0.234281875874069 
2239	 0.232770527711987 
2240	 0.231364757293553 
2241	 0.229773549653523 
2242	 0.228279506298589 
2243	 0.226502675517985 
2244	 0.224363394325319 
2245	 0.222344694619964 
2246	 0.220248173338895 
2247	 0.218097742229954 
2248	 0.215988495415107 
2249	 0.213770665969589 
2250	 0.211481314548833 
2251	 0.209061602899854 
2252	 0.206478257164095 
2253	 0.203932088228998 
2254	 0.20127126320914 
2255	 0.198605071532129 
2256	 0.196191237807917 
2257	 0.193804992473643 
2258	 0.191449355336867 
2259	 0.189243813010251 
2260	 0.186901437987399 
2261	 0.184491723833272 
2262	 0.182162536726531 
2263	 0.179786375867429 
2264	 0.177521619167465 
2265	 0.175306511876283 
2266	 0.173179930979761 
2267	 0.171154210262694 
2268	 0.169144299691214 
2269	 0.16721210636307 
2270	 0.165336818045561 
2271	 0.163514912698486 
2272	 0.161733241273139 
2273	 0.160037946682034 
2274	 0.158312947879124 
2275	 0.156474317334307 
2276	 0.154870425073583 
2277	 0.153447625549381 
2278	 0.152003623335077 
2279	 0.150749630231168 
2280	 0.149417534841462 
2281	 0.148021856438501 
2282	 0.146624184166516 
2283	 0.1452319647979 
2284	 0.14384601826376 
2285	 0.142439611498416 
2286	 0.140991698614209 
2287	 0.139454271236722 
2288	 0.137856586673307 
2289	 0.136304512954756 
2290	 0.134564353210433 
2291	 0.132880174609601 
2292	 0.131247470563779 
2293	 0.129328606809319 
2294	 0.12753212167549 
2295	 0.125828684303445 
2296	 0.124063165431736 
2297	 0.122454693402883 
2298	 0.120965431896626 
2299	 0.119574285367051 
2300	 0.118201334845468 
2301	 0.117134237317192 
2302	 0.116315006940152 
2303	 0.115524953564982 
2304	 0.114826678077631 
2305	 0.11441957234105 
2306	 0.114114222836398 
2307	 0.114188968529464 
2308	 0.114729608066942 
2309	 0.115292239928371 
2310	 0.116008167701181 
2311	 0.116899227529088 
2312	 0.118014978349721 
2313	 0.119171187494188 
2314	 0.120525117772463 
2315	 0.121993562947551 
2316	 0.123591661688012 
2317	 0.125144347199788 
2318	 0.127019022905882 
2319	 0.128451420983854 
2320	 0.129650856321154 
2321	 0.130812574938796 
2322	 0.131769904461226 
2323	 0.132609152633324 
2324	 0.133302559699458 
2325	 0.133994586400557 
2326	 0.134698000084329 
2327	 0.135091193446562 
2328	 0.135330148858755 
2329	 0.135503302612105 
2330	 0.135435817506858 
2331	 0.135196164748322 
2332	 0.135038425512809 
2333	 0.134713651268018 
2334	 0.134166321702294 
2335	 0.133590155540142 
2336	 0.132828653392694 
2337	 0.131799877742363 
2338	 0.130601726740862 
2339	 0.129187496268942 
2340	 0.127914886956965 
2341	 0.126899545603234 
2342	 0.12596239782739 
2343	 0.125017207875211 
2344	 0.123844408413534 
2345	 0.122862555365894 
2346	 0.122363249634157 
2347	 0.121975435526921 
2348	 0.121785523927822 
2349	 0.122134981666554 
2350	 0.122565284003271 
2351	 0.123185285891238 
2352	 0.124425796754235 
2353	 0.12569744954927 
2354	 0.126728557744282 
2355	 0.127877682874726 
2356	 0.128993351252466 
2357	 0.129957316306631 
2358	 0.13087775243112 
2359	 0.131636933589556 
2360	 0.13223726704577 
2361	 0.132804304343446 
2362	 0.133729433902395 
2363	 0.134492126425324 
2364	 0.134688651498437 
2365	 0.134902974513409 
2366	 0.134852190609962 
2367	 0.134524216223015 
2368	 0.134632881734845 
2369	 0.134873986998828 
2370	 0.134905115877806 
2371	 0.13532533702562 
2372	 0.135590991538071 
2373	 0.135583706670361 
2374	 0.135797366541118 
2375	 0.135559130676537 
2376	 0.135353320453041 
2377	 0.135519387489087 
2378	 0.135687938129963 
2379	 0.135815695228641 
2380	 0.135714011101892 
2381	 0.135607418126759 
2382	 0.135839331739013 
2383	 0.136236883275969 
2384	 0.136479421366108 
2385	 0.137004553657323 
2386	 0.137252460710891 
2387	 0.137081819788927 
2388	 0.137094656959337 
2389	 0.137354167596851 
2390	 0.137511982091687 
2391	 0.137411621701744 
2392	 0.137517966649901 
2393	 0.13790734777054 
2394	 0.137800577395736 
2395	 0.137429464417014 
2396	 0.137366229641356 
2397	 0.137171273093507 
2398	 0.137084741589674 
2399	 0.137287430747996 
2400	 0.137318416175955 
2401	 0.137051679552339 
2402	 0.13743986510844 
2403	 0.137821725904823 
2404	 0.138102640878505 
2405	 0.138403929767931 
2406	 0.138343021342531 
2407	 0.137990169768732 
2408	 0.13798809714293 
2409	 0.137926017288144 
2410	 0.137483356743682 
2411	 0.137446195894369 
2412	 0.137556986360052 
2413	 0.137329992256678 
2414	 0.137489342090741 
2415	 0.137701316992986 
2416	 0.137762168499146 
2417	 0.138303230945475 
2418	 0.1387580753889 
2419	 0.139061727651134 
2420	 0.13941632796046 
2421	 0.139581044636054 
2422	 0.139632701439139 
2423	 0.139665581760581 
2424	 0.139713506452851 
2425	 0.13931992822152 
2426	 0.138562764439407 
2427	 0.13833140384546 
2428	 0.138341480568032 
2429	 0.138387921642818 
2430	 0.138805134526895 
2431	 0.138855301402522 
2432	 0.138441502736831 
2433	 0.138288690226063 
2434	 0.138419966183101 
2435	 0.138872741980278 
2436	 0.139406859107069 
2437	 0.139426918445504 
2438	 0.139404124508504 
2439	 0.13959404093433 
2440	 0.139528083593442 
2441	 0.13943786924964 
2442	 0.139263871896101 
2443	 0.138654497135934 
2444	 0.13815673261411 
2445	 0.138045047102097 
2446	 0.137922491709904 
2447	 0.13780879863376 
2448	 0.137815848513602 
2449	 0.137583538130072 
2450	 0.137425458578025 
2451	 0.137491864325552 
2452	 0.137152609449852 
2453	 0.136807873249013 
2454	 0.136829140618724 
2455	 0.136821073177239 
2456	 0.136682294941711 
2457	 0.136655980928833 
2458	 0.136144177386807 
2459	 0.135238758334867 
2460	 0.134506348274904 
2461	 0.133995921169527 
2462	 0.133740440531488 
2463	 0.133480253695268 
2464	 0.134150858728531 
2465	 0.134619901159886 
2466	 0.134343959276178 
2467	 0.134974166070805 
2468	 0.134810750062043 
2469	 0.134316629230059 
2470	 0.135202966612134 
2471	 0.13556644158372 
2472	 0.135493723552882 
2473	 0.135843186545151 
2474	 0.135721576283134 
2475	 0.135463014535367 
2476	 0.135447188757799 
2477	 0.135767317345432 
2478	 0.136571779759946 
2479	 0.137258523560477 
2480	 0.138069878407612 
2481	 0.138458824413091 
2482	 0.138510629884818 
2483	 0.138485425482479 
2484	 0.139207211738102 
2485	 0.139477003015464 
2486	 0.138846082483494 
2487	 0.138526308718567 
2488	 0.137937469751744 
2489	 0.137958377690789 
2490	 0.138971354213418 
2491	 0.139967103551683 
2492	 0.140723745139961 
2493	 0.14164199842866 
2494	 0.142338000447153 
2495	 0.142602065207029 
2496	 0.143032785151131 
2497	 0.142574712356197 
2498	 0.142827209996567 
2499	 0.144910294551552 
2500	 0.146004118283003 
