Wavelength	Tablay400080.asd
350	 0.315977557159179 
351	 0.257185016731498 
352	 0.218613180446308 
353	 0.267458216195426 
354	 0.243732770067933 
355	 0.204814282445691 
356	 0.216614338102978 
357	 0.27782304286753 
358	 0.190654379667934 
359	 0.158150772352881 
360	 0.188113268388283 
361	 0.184445956901584 
362	 0.147198333569353 
363	 0.135569801268869 
364	 0.170418067937466 
365	 0.184142875629606 
366	 0.160310438130205 
367	 0.124240258899965 
368	 0.115321029983734 
369	 0.170938475752276 
370	 0.174347122790564 
371	 0.139298092576531 
372	 0.145962531856933 
373	 0.138674925648104 
374	 0.143045027085405 
375	 0.153006785344329 
376	 0.105742596800078 
377	 8.33940771110743E-02 
378	 0.118335173582953 
379	 0.182954112629167 
380	 0.119567694493258 
381	 7.46685955716031E-02 
382	 8.12845637977644E-02 
383	 9.69943477872214E-02 
384	 8.57350963401766E-02 
385	 8.73101617556901E-02 
386	 0.112613649774241 
387	 0.121572399947084 
388	 0.141165050307436 
389	 0.134137531450617 
390	 8.48234532515729E-02 
391	 0.11311993438725 
392	 0.129195076986064 
393	 0.107823126833664 
394	 7.58471181049946E-02 
395	 9.04569613811235E-02 
396	 0.100469711760977 
397	 8.25614676061694E-02 
398	 8.11839558253412E-02 
399	 8.30753088228333E-02 
400	 8.41669190300886E-02 
401	 8.40419222610709E-02 
402	 8.96869214167144E-02 
403	 8.82171002736019E-02 
404	 8.09343894341954E-02 
405	 7.95876679967832E-02 
406	 8.28664058890613E-02 
407	 7.67884227046364E-02 
408	 6.03758636359962E-02 
409	 6.02824558116653E-02 
410	 6.33170086378727E-02 
411	 6.62901966877793E-02 
412	 6.82847669712243E-02 
413	 6.51910096255295E-02 
414	 6.19531867523002E-02 
415	 0.061979856393573 
416	 6.60398905930122E-02 
417	 5.92697957020149E-02 
418	 5.40445863876756E-02 
419	 5.84829467439844E-02 
420	 6.12020684455213E-02 
421	 6.06687529129437E-02 
422	 0.06067104083378 
423	 6.48007339903063E-02 
424	 5.94132355203327E-02 
425	 5.70732466780931E-02 
426	 5.84157646758624E-02 
427	 4.93843152337141E-02 
428	 5.14617376526096E-02 
429	 5.45276870146779E-02 
430	 4.94910367607226E-02 
431	 5.04172706555313E-02 
432	 5.10788914148958E-02 
433	 5.18052769004416E-02 
434	 5.56018056039075E-02 
435	 5.63645059884211E-02 
436	 5.54297166071666E-02 
437	 5.36152080761625E-02 
438	 4.93363187398772E-02 
439	 4.78753184623571E-02 
440	 4.91160157553335E-02 
441	 5.11731543459385E-02 
442	 5.29036442338952E-02 
443	 0.051815652591054 
444	 4.95385147368143E-02 
445	 0.050319094412045 
446	 4.78714360038388E-02 
447	 4.65647475615931E-02 
448	 4.87649155980653E-02 
449	 4.95128055918265E-02 
450	 4.88027707624202E-02 
451	 4.78422720273027E-02 
452	 4.79105815920385E-02 
453	 4.66455255515344E-02 
454	 4.53674187126934E-02 
455	 4.55772489510887E-02 
456	 4.85246299697735E-02 
457	 4.90537205015876E-02 
458	 4.78611481318473E-02 
459	 4.67367411507653E-02 
460	 4.63700149072271E-02 
461	 4.69917704989079E-02 
462	 4.76640318635916E-02 
463	 4.71018237632033E-02 
464	 4.70643925377045E-02 
465	 0.045869463195096 
466	 4.38473617980958E-02 
467	 4.48689600177056E-02 
468	 4.53570238877397E-02 
469	 4.47650094200375E-02 
470	 4.38791326954216E-02 
471	 4.51495663842158E-02 
472	 4.62614968160308E-02 
473	 4.54927893360781E-02 
474	 4.22622652908398E-02 
475	 4.38560604807171E-02 
476	 4.60350804528915E-02 
477	 4.55196039313022E-02 
478	 4.50552155659914E-02 
479	 4.34934476540643E-02 
480	 4.24565215653114E-02 
481	 4.37605308216275E-02 
482	 4.41705520919314E-02 
483	 0.04448084903837 
484	 4.45186578641544E-02 
485	 4.28020874544224E-02 
486	 4.22540032245785E-02 
487	 4.25290092906337E-02 
488	 4.27416450221771E-02 
489	 4.28708480288073E-02 
490	 4.26676066238787E-02 
491	 4.21031230116295E-02 
492	 4.14174527146544E-02 
493	 4.19773938876797E-02 
494	 4.23046423169075E-02 
495	 0.042005864904101 
496	 0.043044811049712 
497	 4.26570385260635E-02 
498	 4.15743895446547E-02 
499	 4.12331862152335E-02 
500	 4.10892812777153E-02 
501	 4.12785336534346E-02 
502	 4.16234390862822E-02 
503	 4.16575887745711E-02 
504	 4.04556755902153E-02 
505	 4.02177626164591E-02 
506	 4.17100868549294E-02 
507	 4.10698816881215E-02 
508	 4.09447748934341E-02 
509	 4.09610974287161E-02 
510	 3.98778535010591E-02 
511	 0.039836899933234 
512	 3.95618125222587E-02 
513	 3.88867482417442E-02 
514	 3.93842104241793E-02 
515	 3.97138793174895E-02 
516	 3.98927061918835E-02 
517	 0.04007897274333 
518	 3.96621672310674E-02 
519	 3.93885081204871E-02 
520	 3.93593306001797E-02 
521	 3.92356182653754E-02 
522	 3.91854033393309E-02 
523	 3.90319080592474E-02 
524	 3.88923887170545E-02 
525	 3.96526271987164E-02 
526	 3.96707416107328E-02 
527	 3.92738678510317E-02 
528	 3.93225410467417E-02 
529	 3.94590953018202E-02 
530	 3.92339539947795E-02 
531	 3.88606531002206E-02 
532	 3.92090544719952E-02 
533	 0.039636001732296 
534	 0.039629793914332 
535	 3.90536743924422E-02 
536	 3.86180962361497E-02 
537	 3.86633511802684E-02 
538	 3.89219713025366E-02 
539	 3.88531029562317E-02 
540	 3.88697072726755E-02 
541	 3.88050069862249E-02 
542	 3.86796894553993E-02 
543	 3.89311307916848E-02 
544	 3.88650962814769E-02 
545	 3.86134615463219E-02 
546	 3.84925051316476E-02 
547	 3.84264139882976E-02 
548	 3.83228649006904E-02 
549	 3.81968028927781E-02 
550	 3.81573543559509E-02 
551	 3.82426740181956E-02 
552	 3.83368119565839E-02 
553	 3.83478987011203E-02 
554	 3.82965388442763E-02 
555	 3.83492634299902E-02 
556	 3.84795803898375E-02 
557	 3.85687589244208E-02 
558	 3.85790643768851E-02 
559	 3.87260082425636E-02 
560	 3.90617827296829E-02 
561	 3.93943585547347E-02 
562	 3.92735387383569E-02 
563	 3.91339372230661E-02 
564	 3.93886763159974E-02 
565	 3.93415920260193E-02 
566	 3.95877856276461E-02 
567	 3.99617534697975E-02 
568	 3.98078836418064E-02 
569	 4.00230142709716E-02 
570	 4.01853615794381E-02 
571	 4.00549670704626E-02 
572	 4.01611700767432E-02 
573	 4.04648286618695E-02 
574	 4.09852404521574E-02 
575	 4.16546296799965E-02 
576	 0.041926451044932 
577	 4.21776799023406E-02 
578	 4.26766582948938E-02 
579	 0.043483519889084 
580	 4.41938686614589E-02 
581	 4.47495405602116E-02 
582	 4.52573110571374E-02 
583	 4.59813104743692E-02 
584	 4.71118904821048E-02 
585	 4.83975963577011E-02 
586	 4.93902845703114E-02 
587	 5.04581116793745E-02 
588	 5.17401250234046E-02 
589	 5.31015773497825E-02 
590	 0.053975250579125 
591	 5.54316400592849E-02 
592	 5.71781184813849E-02 
593	 5.86111992057064E-02 
594	 5.97393026288587E-02 
595	 6.09615491337859E-02 
596	 6.23645225094419E-02 
597	 6.37430557974204E-02 
598	 6.49686821209875E-02 
599	 6.60964992160776E-02 
600	 6.72428156968841E-02 
601	 6.86043114807206E-02 
602	 6.96396429877493E-02 
603	 7.05787356221051E-02 
604	 7.18860206716569E-02 
605	 7.31194896701946E-02 
606	 0.074208104272707 
607	 7.52813182642121E-02 
608	 7.66654076944799E-02 
609	 7.75913194531278E-02 
610	 7.83935381589264E-02 
611	 7.94681201840878E-02 
612	 8.04306338840868E-02 
613	 8.14199265835317E-02 
614	 8.24028512499444E-02 
615	 8.32628972109357E-02 
616	 8.41991451226873E-02 
617	 8.51889943454294E-02 
618	 8.61365345491183E-02 
619	 8.68515781107397E-02 
620	 8.77939478150381E-02 
621	 8.88014883872051E-02 
622	 8.96075536451926E-02 
623	 9.05484956420116E-02 
624	 9.13013430587823E-02 
625	 9.20119682705777E-02 
626	 9.32190517035074E-02 
627	 9.40071390771225E-02 
628	 9.45583036693612E-02 
629	 0.095219488665031 
630	 9.62230281929726E-02 
631	 0.097248212712514 
632	 9.81275469372266E-02 
633	 0.098813286767646 
634	 9.95337990360384E-02 
635	 0.100384350205011 
636	 0.101308712743086 
637	 0.102084564547584 
638	 0.102990427593139 
639	 0.103882975642424 
640	 0.104651737950743 
641	 0.10565472783729 
642	 0.106495480415012 
643	 0.10723394174373 
644	 0.108171225147073 
645	 0.108973826705507 
646	 0.109818105605968 
647	 0.110784597855754 
648	 0.111709264948058 
649	 0.112482130181781 
650	 0.113228760555749 
651	 0.114129658677573 
652	 0.115257518915925 
653	 0.116247102714699 
654	 0.117063455067892 
655	 0.117957020653736 
656	 0.119115816304206 
657	 0.120308603478815 
658	 0.121323700088852 
659	 0.122121795501491 
660	 0.122951183379586 
661	 0.123944602635185 
662	 0.125109405052898 
663	 0.126096398901748 
664	 0.127074387238503 
665	 0.128141764337466 
666	 0.129285140803096 
667	 0.130298086109938 
668	 0.131324257333019 
669	 0.132470739126473 
670	 0.133563796676897 
671	 0.134670859530993 
672	 0.135793386749018 
673	 0.136890877709617 
674	 0.137798832090085 
675	 0.13888141464313 
676	 0.140218468311402 
677	 0.141502325413003 
678	 0.142575886847889 
679	 0.143647665297941 
680	 0.144899751427253 
681	 0.146146947365215 
682	 0.147364657260393 
683	 0.14861842643239 
684	 0.149978736908089 
685	 0.15106648027405 
686	 0.152260920713074 
687	 0.153658106339242 
688	 0.154859389566757 
689	 0.156142957171804 
690	 0.157420616341754 
691	 0.158604338266996 
692	 0.159915622136367 
693	 0.161275393122168 
694	 0.162612688767032 
695	 0.163881619909202 
696	 0.165197134598126 
697	 0.166513612064328 
698	 0.167814726715155 
699	 0.16915640978135 
700	 0.170600273526638 
701	 0.172092576589213 
702	 0.17354586889262 
703	 0.174884785973631 
704	 0.176252016349848 
705	 0.177659443427328 
706	 0.179037733276258 
707	 0.180543038729407 
708	 0.181956191121838 
709	 0.18324557896232 
710	 0.18476950285104 
711	 0.18618783433797 
712	 0.187554137882025 
713	 0.189013861809515 
714	 0.190603306035527 
715	 0.192035995907252 
716	 0.193378961515419 
717	 0.194922034774935 
718	 0.196401005890756 
719	 0.197855355095964 
720	 0.199292741087575 
721	 0.200588605786897 
722	 0.202049752295448 
723	 0.203605986537774 
724	 0.205120863682195 
725	 0.206715572521085 
726	 0.208234153694939 
727	 0.209649518118704 
728	 0.211041286385034 
729	 0.212524762144288 
730	 0.214018374705544 
731	 0.215459837353229 
732	 0.216857310712335 
733	 0.218350347911087 
734	 0.219850247423617 
735	 0.221238705767167 
736	 0.222526375089675 
737	 0.224035271833896 
738	 0.225660588447597 
739	 0.227048870734615 
740	 0.228450112433818 
741	 0.22981768882735 
742	 0.231148073951296 
743	 0.23254968105724 
744	 0.234028286676318 
745	 0.235445525303059 
746	 0.236707299269378 
747	 0.237993137712837 
748	 0.239396597042999 
749	 0.240848466631275 
750	 0.242196338356625 
751	 0.243478735663524 
752	 0.244734965565186 
753	 0.246046910965131 
754	 0.247541687983899 
755	 0.248856208863008 
756	 0.250050199962256 
757	 0.251280548208926 
758	 0.252682547923032 
759	 0.253878849417426 
760	 0.255028733400187 
761	 0.256444470945391 
762	 0.257656659647488 
763	 0.258808158493845 
764	 0.259996773691764 
765	 0.261219632677632 
766	 0.262376070780322 
767	 0.263541694231844 
768	 0.264759834563322 
769	 0.265907222171078 
770	 0.267145545251724 
771	 0.268387447518218 
772	 0.269496619980318 
773	 0.270568304009228 
774	 0.271713080785651 
775	 0.272872573096465 
776	 0.273881518484638 
777	 0.274997080244801 
778	 0.276091860806515 
779	 0.277102194255391 
780	 0.278164721605587 
781	 0.279169309222328 
782	 0.280212572032354 
783	 0.281365094417283 
784	 0.282419875397623 
785	 0.283348579202268 
786	 0.284252453154519 
787	 0.285272341140972 
788	 0.286234066823796 
789	 0.287233347753535 
790	 0.288235119968601 
791	 0.289039543924377 
792	 0.289871537031723 
793	 0.290861015880646 
794	 0.291946675827012 
795	 0.292653799404461 
796	 0.293405587838376 
797	 0.294270269579115 
798	 0.295172433057936 
799	 0.29603713444273 
800	 0.296879542346324 
801	 0.297690651532142 
802	 0.298449608657238 
803	 0.29923860560625 
804	 0.299960460907845 
805	 0.300638205849924 
806	 0.301503762178376 
807	 0.302294656302656 
808	 0.303012508778864 
809	 0.303716225587082 
810	 0.304427387164576 
811	 0.305067184850547 
812	 0.305652730598044 
813	 0.306261650683312 
814	 0.307029990990681 
815	 0.307728556692833 
816	 0.308323126556868 
817	 0.308961535162441 
818	 0.309547197093542 
819	 0.310060605287287 
820	 0.310562741613924 
821	 0.311220892833382 
822	 0.311882340085005 
823	 0.312445787537291 
824	 0.312922795157754 
825	 0.313639061737289 
826	 0.314136452154154 
827	 0.314489610809964 
828	 0.314976396541705 
829	 0.315444490424287 
830	 0.316028145177155 
831	 0.316607372461034 
832	 0.316890021521474 
833	 0.317339549042197 
834	 0.317829660377838 
835	 0.318251713167672 
836	 0.318663039816625 
837	 0.319058237841211 
838	 0.319466909881227 
839	 0.319907056336846 
840	 0.320367289058309 
841	 0.320615715926345 
842	 0.320813954394395 
843	 0.321213916107952 
844	 0.321631346146043 
845	 0.322033183614767 
846	 0.322377234394969 
847	 0.322635874851421 
848	 0.322961162491518 
849	 0.323260604148867 
850	 0.323527576465958 
851	 0.323886814236806 
852	 0.32415805251197 
853	 0.324390646333885 
854	 0.32465574532873 
855	 0.324975798078413 
856	 0.325112313015083 
857	 0.325233161222927 
858	 0.325545446634784 
859	 0.325923290290751 
860	 0.326075952534851 
861	 0.326125131031641 
862	 0.3263630187127 
863	 0.326662386060849 
864	 0.326946145683777 
865	 0.327191749885415 
866	 0.32741390732707 
867	 0.32746945738439 
868	 0.327537682166329 
869	 0.327707306852216 
870	 0.327883764580215 
871	 0.328223077810859 
872	 0.328405489639 
873	 0.32833079103779 
874	 0.328602460376442 
875	 0.328682549935165 
876	 0.328721839550799 
877	 0.328949908992424 
878	 0.329080735260363 
879	 0.329267186690653 
880	 0.329451529067547 
881	 0.329511390266762 
882	 0.329549997991297 
883	 0.329657948627521 
884	 0.329853489196996 
885	 0.33007212225443 
886	 0.330072218146252 
887	 0.33013698615916 
888	 0.330294504172063 
889	 0.330242176147735 
890	 0.330319035155418 
891	 0.330496424225047 
892	 0.330631784988764 
893	 0.330515576157648 
894	 0.330793918301006 
895	 0.3309740694159 
896	 0.330733297120662 
897	 0.330959874800711 
898	 0.331024044838638 
899	 0.331013437312477 
900	 0.331166001711621 
901	 0.331343802041743 
902	 0.33145322022143 
903	 0.331425093827459 
904	 0.331277112272804 
905	 0.331322030487984 
906	 0.331506093564745 
907	 0.331687329545442 
908	 0.331719037555163 
909	 0.331773436457311 
910	 0.331898034139205 
911	 0.332054349086911 
912	 0.332131833646776 
913	 0.332041804965065 
914	 0.332029021077612 
915	 0.332172418987754 
916	 0.332261815799477 
917	 0.332339395491789 
918	 0.332379041546127 
919	 0.332415601984988 
920	 0.332606339291276 
921	 0.332706218249288 
922	 0.332706725978717 
923	 0.332726832854339 
924	 0.333048446521982 
925	 0.333092862720518 
926	 0.333022037168803 
927	 0.333135609854998 
928	 0.333301721037813 
929	 0.333512605582769 
930	 0.333628602174362 
931	 0.333577059799889 
932	 0.333779142740143 
933	 0.333880321255685 
934	 0.333929063385486 
935	 0.334118354456157 
936	 0.334080392725757 
937	 0.33408660942296 
938	 0.334293514394682 
939	 0.334673083553689 
940	 0.334794058590127 
941	 0.334870459841349 
942	 0.334947069193034 
943	 0.334913622715528 
944	 0.335076537185186 
945	 0.335261711586314 
946	 0.33533082944152 
947	 0.335272715362635 
948	 0.33524937247291 
949	 0.335553013070488 
950	 0.336000613502256 
951	 0.335896458287454 
952	 0.335983656729599 
953	 0.336056460798727 
954	 0.33606719178751 
955	 0.33640455838474 
956	 0.336471361121678 
957	 0.336445358511544 
958	 0.336517711430807 
959	 0.336609744844293 
960	 0.33667742726922 
961	 0.336771888990612 
962	 0.336848458331971 
963	 0.336636002718651 
964	 0.336788577086652 
965	 0.337053804905547 
966	 0.33710431792622 
967	 0.33701948231603 
968	 0.336961826617475 
969	 0.337130673955082 
970	 0.33749888302883 
971	 0.337502555002305 
972	 0.337614312936502 
973	 0.337652575569225 
974	 0.33751200175696 
975	 0.337867560146862 
976	 0.337832377550604 
977	 0.337693114627671 
978	 0.337803179333445 
979	 0.337443782050284 
980	 0.337829483859602 
981	 0.338200349436038 
982	 0.337804066175242 
983	 0.338167038486229 
984	 0.338188738993656 
985	 0.338132684669124 
986	 0.338434166757556 
987	 0.338446159616318 
988	 0.338623006207173 
989	 0.338906170128516 
990	 0.339145964721261 
991	 0.33962516671101 
992	 0.339224239789327 
993	 0.338700667289915 
994	 0.339014805295467 
995	 0.339330826020198 
996	 0.339531991343273 
997	 0.339609535622738 
998	 0.339573044546041 
999	 0.339224062245635 
1000	 0.339133032855143 
1001	 0.342786953636794 
1002	 0.342848962224804 
1003	 0.343089774204556 
1004	 0.343168633939146 
1005	 0.343005951967451 
1006	 0.343110644713139 
1007	 0.343335444339857 
1008	 0.343392962603393 
1009	 0.343534224019323 
1010	 0.343556521435658 
1011	 0.343427800374362 
1012	 0.343369183179022 
1013	 0.343247044308188 
1014	 0.343165703094175 
1015	 0.343015969154771 
1016	 0.343019858379399 
1017	 0.343152448966272 
1018	 0.343493124446549 
1019	 0.343660390469863 
1020	 0.343718631301616 
1021	 0.343790564795157 
1022	 0.343751162811993 
1023	 0.343680566799186 
1024	 0.343543573817337 
1025	 0.343631966724166 
1026	 0.343726037869061 
1027	 0.34378896515701 
1028	 0.34401744399105 
1029	 0.344243687590751 
1030	 0.344131518480543 
1031	 0.34413505489648 
1032	 0.34416009806308 
1033	 0.344075385598081 
1034	 0.344149042827127 
1035	 0.344338829062385 
1036	 0.344410112945109 
1037	 0.344527566756349 
1038	 0.344580726562288 
1039	 0.344434692168884 
1040	 0.344459568213326 
1041	 0.344597214903639 
1042	 0.344694123303457 
1043	 0.344882073652555 
1044	 0.344965262607934 
1045	 0.344853432465769 
1046	 0.344808670217456 
1047	 0.344765152116881 
1048	 0.344867124211484 
1049	 0.345094826923924 
1050	 0.345112381411068 
1051	 0.345068917655449 
1052	 0.345045640341383 
1053	 0.345012399083139 
1054	 0.345028922794601 
1055	 0.345018954052805 
1056	 0.344895743741883 
1057	 0.344916375068573 
1058	 0.345022460047153 
1059	 0.345058787202916 
1060	 0.345179881553647 
1061	 0.345274245819539 
1062	 0.34529199102112 
1063	 0.345295086419687 
1064	 0.345320734365296 
1065	 0.345373241895217 
1066	 0.345370305943823 
1067	 0.345327928956486 
1068	 0.345331889268047 
1069	 0.345359262734993 
1070	 0.345360703641569 
1071	 0.345363333756109 
1072	 0.34537769804988 
1073	 0.345449665847853 
1074	 0.345463110731466 
1075	 0.345414855329395 
1076	 0.345542731796032 
1077	 0.345596858317561 
1078	 0.345655906267158 
1079	 0.345802569600714 
1080	 0.345825807452545 
1081	 0.345773368698264 
1082	 0.345621695646776 
1083	 0.345551677928274 
1084	 0.345663304851676 
1085	 0.345875550768896 
1086	 0.345982154611812 
1087	 0.346146387090272 
1088	 0.346198352240013 
1089	 0.346092750955599 
1090	 0.345910749614816 
1091	 0.345845718422763 
1092	 0.345824062590691 
1093	 0.345818383824341 
1094	 0.345892621672834 
1095	 0.346072037334486 
1096	 0.346293787439166 
1097	 0.346386270219737 
1098	 0.346409645119615 
1099	 0.346418721129819 
1100	 0.346297799525173 
1101	 0.346224877378947 
1102	 0.346351986034321 
1103	 0.346454308970953 
1104	 0.346565751161126 
1105	 0.346668930559833 
1106	 0.346758299490831 
1107	 0.346765132891841 
1108	 0.346822768427948 
1109	 0.346873429240361 
1110	 0.347008060364634 
1111	 0.347165297074225 
1112	 0.347191552018288 
1113	 0.347270862725293 
1114	 0.347397723799329 
1115	 0.347550471261686 
1116	 0.347703644500765 
1117	 0.347769303618538 
1118	 0.347815099787073 
1119	 0.347790225384451 
1120	 0.347822243532458 
1121	 0.347820051014371 
1122	 0.347892367753782 
1123	 0.348101338070301 
1124	 0.348207720545852 
1125	 0.348214642408482 
1126	 0.348238174260076 
1127	 0.348291806515915 
1128	 0.348254365574082 
1129	 0.34828416191188 
1130	 0.348498804013247 
1131	 0.34856460248775 
1132	 0.348562042124587 
1133	 0.348628720126648 
1134	 0.348637890925824 
1135	 0.348722444243731 
1136	 0.348870072680035 
1137	 0.348982826804965 
1138	 0.349147465045396 
1139	 0.349268081617344 
1140	 0.349323598361435 
1141	 0.349399937764551 
1142	 0.349585817394554 
1143	 0.349642786154511 
1144	 0.349687961417478 
1145	 0.34973876587203 
1146	 0.34965629145686 
1147	 0.349697362465184 
1148	 0.34983237471605 
1149	 0.349934552828986 
1150	 0.350067379723554 
1151	 0.350169017580884 
1152	 0.350225138510681 
1153	 0.350161870817495 
1154	 0.350210819362441 
1155	 0.350303555074011 
1156	 0.350366158118571 
1157	 0.350478619008211 
1158	 0.350566530082565 
1159	 0.350650222939283 
1160	 0.350662584600103 
1161	 0.3506564193692 
1162	 0.350670657281016 
1163	 0.350658315511658 
1164	 0.35068029697339 
1165	 0.350741939376983 
1166	 0.350730448688808 
1167	 0.350806678272424 
1168	 0.350928519498342 
1169	 0.35099101800032 
1170	 0.351116911972065 
1171	 0.351135877685522 
1172	 0.35100734506043 
1173	 0.35099574826232 
1174	 0.351010262693401 
1175	 0.351023990765932 
1176	 0.351131390062617 
1177	 0.351123000731727 
1178	 0.35103969037405 
1179	 0.350948666936514 
1180	 0.35085017640585 
1181	 0.350817019357955 
1182	 0.350878253770836 
1183	 0.350972187826527 
1184	 0.351069314337519 
1185	 0.351149391562464 
1186	 0.351213286002248 
1187	 0.351245327888582 
1188	 0.351297161913225 
1189	 0.351349358221951 
1190	 0.351398995320499 
1191	 0.35145237397915 
1192	 0.351520569510664 
1193	 0.351610856644213 
1194	 0.35165464474623 
1195	 0.351641596067965 
1196	 0.351685007051779 
1197	 0.351662752724529 
1198	 0.351802988319961 
1199	 0.351977175873732 
1200	 0.35221817019623 
1201	 0.352451604244081 
1202	 0.352531059988675 
1203	 0.352679952482142 
1204	 0.352928446114164 
1205	 0.353164093426197 
1206	 0.353471238339307 
1207	 0.353750471720274 
1208	 0.353983412506374 
1209	 0.35429399945734 
1210	 0.354648869700631 
1211	 0.355006208442423 
1212	 0.355397875237765 
1213	 0.355824709927589 
1214	 0.356225862256353 
1215	 0.356727908685728 
1216	 0.3573735623082 
1217	 0.357929855771879 
1218	 0.358468870429362 
1219	 0.359048875043541 
1220	 0.359635609518013 
1221	 0.360239555201046 
1222	 0.360899593764288 
1223	 0.361590001389148 
1224	 0.362236681029094 
1225	 0.362857667629031 
1226	 0.363460553007891 
1227	 0.364074059975665 
1228	 0.364625476978071 
1229	 0.365107562670894 
1230	 0.365637186587511 
1231	 0.366134882389275 
1232	 0.366674397584013 
1233	 0.367286922971644 
1234	 0.367810601916214 
1235	 0.36831703261716 
1236	 0.368800872763077 
1237	 0.36922502234076 
1238	 0.369662380189347 
1239	 0.370099726997992 
1240	 0.37050419988073 
1241	 0.3709592962492 
1242	 0.371397735631736 
1243	 0.371827962380876 
1244	 0.372284479528359 
1245	 0.372691763164897 
1246	 0.373049036690055 
1247	 0.373447741599162 
1248	 0.37384090149324 
1249	 0.374244192105915 
1250	 0.374689777715876 
1251	 0.375069813166841 
1252	 0.375432953153299 
1253	 0.375778674936668 
1254	 0.376045519465141 
1255	 0.376382784207923 
1256	 0.376749666474824 
1257	 0.377107231963296 
1258	 0.377527071213999 
1259	 0.377884586213151 
1260	 0.378180481854481 
1261	 0.3785052318173 
1262	 0.378813642223326 
1263	 0.379116642541116 
1264	 0.379465707001255 
1265	 0.379870570579201 
1266	 0.380206933206425 
1267	 0.380523107788872 
1268	 0.380872340850948 
1269	 0.381205128760933 
1270	 0.381547623606265 
1271	 0.381946375095787 
1272	 0.382283045233803 
1273	 0.38254198310543 
1274	 0.382876479150577 
1275	 0.383230061570352 
1276	 0.383587091236619 
1277	 0.384012083455398 
1278	 0.384375211058762 
1279	 0.384718860539775 
1280	 0.385034169871587 
1281	 0.385262505623745 
1282	 0.385564965999816 
1283	 0.385883629394059 
1284	 0.386208632553872 
1285	 0.38655646721303 
1286	 0.386961835853607 
1287	 0.387329020242317 
1288	 0.387677156317113 
1289	 0.38805183829391 
1290	 0.388470088706965 
1291	 0.388807538322323 
1292	 0.389114531528623 
1293	 0.389422681113038 
1294	 0.389658920852237 
1295	 0.389965905057378 
1296	 0.390350633134543 
1297	 0.390644056017048 
1298	 0.390885918484358 
1299	 0.39117912412163 
1300	 0.391453081247102 
1301	 0.391729112758691 
1302	 0.392053661545585 
1303	 0.392355795356363 
1304	 0.39266212607823 
1305	 0.3929052628076 
1306	 0.393096480920437 
1307	 0.393319185455123 
1308	 0.393463283579938 
1309	 0.393654870696874 
1310	 0.393943284253876 
1311	 0.394345482121229 
1312	 0.394644070712221 
1313	 0.394982702940306 
1314	 0.395247053258499 
1315	 0.395391802093498 
1316	 0.395679025562393 
1317	 0.396016248897959 
1318	 0.396337442629954 
1319	 0.396744198465991 
1320	 0.397057754121914 
1321	 0.397339593361487 
1322	 0.397576850773295 
1323	 0.397728480704706 
1324	 0.397944672849675 
1325	 0.398119609588408 
1326	 0.398361495170345 
1327	 0.398695355853196 
1328	 0.398984381611304 
1329	 0.399291834958876 
1330	 0.399571555293733 
1331	 0.399810070836822 
1332	 0.400066776728047 
1333	 0.400321866317764 
1334	 0.400576311509109 
1335	 0.40083269305724 
1336	 0.401112011374683 
1337	 0.401335445298761 
1338	 0.401552352213127 
1339	 0.401711152229488 
1340	 0.401816577628065 
1341	 0.401936291782018 
1342	 0.401986995238275 
1343	 0.4021400711646 
1344	 0.402366472711146 
1345	 0.402518620814455 
1346	 0.402713390401309 
1347	 0.402832749451106 
1348	 0.402833236046032 
1349	 0.40292402350891 
1350	 0.403059317802919 
1351	 0.403152781740096 
1352	 0.403276461459088 
1353	 0.403352005913798 
1354	 0.403355911294206 
1355	 0.403389567298428 
1356	 0.403416048746328 
1357	 0.403457622758705 
1358	 0.403505963547947 
1359	 0.403567307754091 
1360	 0.403689570290207 
1361	 0.403727717854098 
1362	 0.403756247077456 
1363	 0.403807488856065 
1364	 0.403838520149594 
1365	 0.403844703306419 
1366	 0.40385122085807 
1367	 0.403873550668034 
1368	 0.40384478814974 
1369	 0.403815411599477 
1370	 0.403692556169172 
1371	 0.403491577013458 
1372	 0.403332407894998 
1373	 0.403085309054782 
1374	 0.402940018019309 
1375	 0.4029120628405 
1376	 0.402763100325667 
1377	 0.402582859866182 
1378	 0.402410827751765 
1379	 0.402169313894865 
1380	 0.401966867286617 
1381	 0.40181877406947 
1382	 0.401624323916544 
1383	 0.401418875858554 
1384	 0.40118048137052 
1385	 0.400919413708377 
1386	 0.400644751488679 
1387	 0.400288460626337 
1388	 0.400011644535471 
1389	 0.399767488262442 
1390	 0.399526324098721 
1391	 0.399285670394377 
1392	 0.399136857131533 
1393	 0.398965149311782 
1394	 0.398810243765834 
1395	 0.398711437787535 
1396	 0.398694307709644 
1397	 0.398598117511692 
1398	 0.398532763611453 
1399	 0.398371364118288 
1400	 0.398163111710089 
1401	 0.39789079142842 
1402	 0.397582834469572 
1403	 0.397179198244223 
1404	 0.396687826868952 
1405	 0.396173781680927 
1406	 0.395582435016847 
1407	 0.394981867681169 
1408	 0.394325758729819 
1409	 0.393689420424784 
1410	 0.39304339347135 
1411	 0.392375470336111 
1412	 0.391669835908394 
1413	 0.391030983228833 
1414	 0.390379697135924 
1415	 0.38977379943438 
1416	 0.389240792568253 
1417	 0.388700433074161 
1418	 0.388174545435575 
1419	 0.38764838124037 
1420	 0.387113319026183 
1421	 0.386628982675073 
1422	 0.386154381967981 
1423	 0.385713100152366 
1424	 0.385336837421818 
1425	 0.384952307113839 
1426	 0.384591914661621 
1427	 0.384229209406658 
1428	 0.383813978622498 
1429	 0.38343365658063 
1430	 0.383062894467974 
1431	 0.382692925988919 
1432	 0.382304789434653 
1433	 0.381946174682902 
1434	 0.381544694415401 
1435	 0.381086477326339 
1436	 0.380674397802541 
1437	 0.380286966787088 
1438	 0.379862557106848 
1439	 0.379410130906634 
1440	 0.379013203589558 
1441	 0.378593987617892 
1442	 0.378248780848336 
1443	 0.377933179342105 
1444	 0.377706994372277 
1445	 0.377481412995904 
1446	 0.377430038081497 
1447	 0.377486279137539 
1448	 0.377673863935399 
1449	 0.377992372493048 
1450	 0.37842761738108 
1451	 0.379016678433696 
1452	 0.379657072668856 
1453	 0.380483057630848 
1454	 0.381230255814926 
1455	 0.381968976416964 
1456	 0.382768305152892 
1457	 0.383607279238372 
1458	 0.384422465501441 
1459	 0.385292788723845 
1460	 0.386139875374694 
1461	 0.386967982238041 
1462	 0.387751744425184 
1463	 0.388518472829635 
1464	 0.389276951061813 
1465	 0.389972325016249 
1466	 0.390702926170398 
1467	 0.391383511183728 
1468	 0.392059891746914 
1469	 0.392743230150601 
1470	 0.393339060114164 
1471	 0.393964080514771 
1472	 0.394603703694025 
1473	 0.395212040343844 
1474	 0.395798461446775 
1475	 0.396362284198685 
1476	 0.396913140326481 
1477	 0.397448874196152 
1478	 0.39796852238031 
1479	 0.398437012340693 
1480	 0.398889532747224 
1481	 0.399297044145086 
1482	 0.399640472500669 
1483	 0.399988164845924 
1484	 0.40031805730846 
1485	 0.400632995523669 
1486	 0.400909580077473 
1487	 0.401209810033253 
1488	 0.401508963666855 
1489	 0.401807109275481 
1490	 0.402052415374071 
1491	 0.402430600964881 
1492	 0.40286270723506 
1493	 0.403318657985555 
1494	 0.403867941369254 
1495	 0.404426619499477 
1496	 0.404982611604171 
1497	 0.405588323448266 
1498	 0.406282052454399 
1499	 0.406942950640109 
1500	 0.407625191664026 
1501	 0.408275464698137 
1502	 0.408929969105702 
1503	 0.409547978312718 
1504	 0.410144112948344 
1505	 0.410703442828312 
1506	 0.411210303109943 
1507	 0.411728094071167 
1508	 0.412227501439145 
1509	 0.412713638027391 
1510	 0.41322845156356 
1511	 0.413677829314942 
1512	 0.414068784677035 
1513	 0.414454383523927 
1514	 0.414786183273609 
1515	 0.415133345664887 
1516	 0.415497300593429 
1517	 0.415831532978889 
1518	 0.416172670033104 
1519	 0.416468439692923 
1520	 0.416720721322261 
1521	 0.416953263969544 
1522	 0.41716621580131 
1523	 0.417347757856477 
1524	 0.417556598869705 
1525	 0.417781894514981 
1526	 0.417945052157858 
1527	 0.418086215157846 
1528	 0.418238224059779 
1529	 0.418348921009953 
1530	 0.4184852766662 
1531	 0.418657606106936 
1532	 0.418786812557433 
1533	 0.418882746522909 
1534	 0.419001213229456 
1535	 0.419102703937271 
1536	 0.419256200642483 
1537	 0.419439186448394 
1538	 0.419608197953557 
1539	 0.419775683420829 
1540	 0.420016006598547 
1541	 0.420263265470075 
1542	 0.420566433295798 
1543	 0.420953953660612 
1544	 0.421335534192221 
1545	 0.42172761145272 
1546	 0.422149357471174 
1547	 0.422652946376745 
1548	 0.423057047964159 
1549	 0.423421638938854 
1550	 0.423806525058989 
1551	 0.424129815217618 
1552	 0.42452364758148 
1553	 0.425000554119376 
1554	 0.425392041389847 
1555	 0.425716774395405 
1556	 0.426147710687167 
1557	 0.426600350819673 
1558	 0.427046715522505 
1559	 0.42758977502176 
1560	 0.428054637458618 
1561	 0.428451540203838 
1562	 0.428866801133837 
1563	 0.429288424915529 
1564	 0.42969402047769 
1565	 0.430089074335814 
1566	 0.430460182192345 
1567	 0.430802065100838 
1568	 0.431167645580814 
1569	 0.43151755286288 
1570	 0.431880654065375 
1571	 0.432289779148219 
1572	 0.432647311025637 
1573	 0.432975667296205 
1574	 0.433303320977954 
1575	 0.43360221613752 
1576	 0.433913491274532 
1577	 0.43421697032228 
1578	 0.434537627528133 
1579	 0.434852709770491 
1580	 0.435200154305473 
1581	 0.435579860554078 
1582	 0.435955914672208 
1583	 0.436410889534797 
1584	 0.436747177602308 
1585	 0.436984311226472 
1586	 0.437285706574617 
1587	 0.437509667763307 
1588	 0.437817881131341 
1589	 0.438271985516691 
1590	 0.438617957601649 
1591	 0.438910452583813 
1592	 0.439240227620064 
1593	 0.439549854088773 
1594	 0.439852178070307 
1595	 0.440172877080225 
1596	 0.440496735634568 
1597	 0.440797131396877 
1598	 0.441105910569472 
1599	 0.441450946156438 
1600	 0.441771242453952 
1601	 0.442063452637928 
1602	 0.442361242315693 
1603	 0.442664701633011 
1604	 0.44295722057973 
1605	 0.443243286854373 
1606	 0.443521106653393 
1607	 0.443798036418564 
1608	 0.444055221224622 
1609	 0.444281045459421 
1610	 0.444531693826221 
1611	 0.444778111947247 
1612	 0.445031195611265 
1613	 0.445314305132535 
1614	 0.44556986133593 
1615	 0.445833921305864 
1616	 0.446058179715351 
1617	 0.446247051295651 
1618	 0.446434588095697 
1619	 0.446571613815935 
1620	 0.446737953220128 
1621	 0.446947822906989 
1622	 0.447102046285972 
1623	 0.447269419630468 
1624	 0.447378724964475 
1625	 0.447391751797737 
1626	 0.447440915560426 
1627	 0.447465449232144 
1628	 0.447506519760936 
1629	 0.447537117501182 
1630	 0.447628689071099 
1631	 0.447765987001479 
1632	 0.447899118963149 
1633	 0.448117047343761 
1634	 0.448257220584348 
1635	 0.448352146559659 
1636	 0.448429988620082 
1637	 0.448439429262186 
1638	 0.448493803509798 
1639	 0.448567421744478 
1640	 0.448627302084222 
1641	 0.448720832376699 
1642	 0.44876547215534 
1643	 0.448783941671369 
1644	 0.448776155838389 
1645	 0.448721651655438 
1646	 0.448674819746017 
1647	 0.448654624927296 
1648	 0.448541430735084 
1649	 0.448379074032284 
1650	 0.448199446300973 
1651	 0.447986269025907 
1652	 0.447684190883507 
1653	 0.447363317631672 
1654	 0.446961836982939 
1655	 0.446425526817135 
1656	 0.445877271577034 
1657	 0.445304223224395 
1658	 0.444666179954652 
1659	 0.443983243512271 
1660	 0.443238629431843 
1661	 0.442422108638871 
1662	 0.441568825172062 
1663	 0.440612411920137 
1664	 0.439694904876246 
1665	 0.438771253092656 
1666	 0.437820204423087 
1667	 0.436858234556127 
1668	 0.435917735477859 
1669	 0.434940522031914 
1670	 0.434016640302348 
1671	 0.43313639098081 
1672	 0.432248874333222 
1673	 0.431413944465858 
1674	 0.430506413014747 
1675	 0.429585801144256 
1676	 0.4286478495349 
1677	 0.427670007128385 
1678	 0.426672751470295 
1679	 0.425690581919971 
1680	 0.424611335071284 
1681	 0.423487220064598 
1682	 0.422272037069415 
1683	 0.420983148308931 
1684	 0.419639969792281 
1685	 0.418267220054413 
1686	 0.416707121060475 
1687	 0.415007784044529 
1688	 0.413248218670995 
1689	 0.411320941353135 
1690	 0.409392640587845 
1691	 0.407470177186871 
1692	 0.405451281074083 
1693	 0.403327970744648 
1694	 0.401193631785002 
1695	 0.398996641830786 
1696	 0.39672431087866 
1697	 0.394409403730241 
1698	 0.392027267334944 
1699	 0.389539427872675 
1700	 0.387125990339798 
1701	 0.384685829031827 
1702	 0.38228644312633 
1703	 0.379879888048574 
1704	 0.377584639374417 
1705	 0.375272381671249 
1706	 0.373125949797009 
1707	 0.371199124108735 
1708	 0.369321340390638 
1709	 0.367672429145935 
1710	 0.366192706285538 
1711	 0.364705853908738 
1712	 0.363381267786972 
1713	 0.362038367155291 
1714	 0.360660430798907 
1715	 0.359495684049155 
1716	 0.358400291287329 
1717	 0.357368315051664 
1718	 0.356394933741244 
1719	 0.35543745213953 
1720	 0.354577539058485 
1721	 0.353764998657436 
1722	 0.353074195825909 
1723	 0.352476413101004 
1724	 0.351876376739366 
1725	 0.35146527732517 
1726	 0.351221047790873 
1727	 0.351157228909354 
1728	 0.351368801957928 
1729	 0.351779020671883 
1730	 0.352429852716841 
1731	 0.353274453017152 
1732	 0.354291065022137 
1733	 0.355381798759425 
1734	 0.35655901412303 
1735	 0.35781797021934 
1736	 0.359012425977714 
1737	 0.360183292209031 
1738	 0.361283628567308 
1739	 0.362169197432849 
1740	 0.362909959311804 
1741	 0.363456709241882 
1742	 0.363793911787265 
1743	 0.3640372768863 
1744	 0.364105546670555 
1745	 0.364093138902531 
1746	 0.363941431796187 
1747	 0.36379136097027 
1748	 0.363494123258314 
1749	 0.363307608779459 
1750	 0.363117874949737 
1751	 0.362992123077276 
1752	 0.362886396185364 
1753	 0.362900158712843 
1754	 0.362971585649905 
1755	 0.363143959529375 
1756	 0.363453883822575 
1757	 0.363810801258433 
1758	 0.364245609998067 
1759	 0.364848326645856 
1760	 0.365576444958007 
1761	 0.366526544060842 
1762	 0.367701787152247 
1763	 0.369136761977365 
1764	 0.370587565733995 
1765	 0.371970344761151 
1766	 0.373570514598657 
1767	 0.375159777196366 
1768	 0.376780858987069 
1769	 0.378582225408461 
1770	 0.380247668622066 
1771	 0.381923651951291 
1772	 0.383556803650694 
1773	 0.385038281582699 
1774	 0.386536585689803 
1775	 0.387853562691311 
1776	 0.389059387329029 
1777	 0.390268723515178 
1778	 0.391356072104672 
1779	 0.392388739236189 
1780	 0.393354376548176 
1781	 0.39420771169823 
1782	 0.395033464442826 
1783	 0.395720691530632 
1784	 0.396430241455311 
1785	 0.397176813846716 
1786	 0.3978658800429 
1787	 0.398646612604195 
1788	 0.399285582498805 
1789	 0.39985123979225 
1790	 0.400354871836517 
1791	 0.400699715076391 
1792	 0.401146948930472 
1793	 0.401573718391956 
1794	 0.401953535826879 
1795	 0.402417681645892 
1796	 0.402960299235457 
1797	 0.403452984897518 
1798	 0.40389291540948 
1799	 0.40440878148599 
1800	 0.404852539645273 
1801	 0.40175391947147 
1802	 0.40217790777811 
1803	 0.402581533876107 
1804	 0.402877858709552 
1805	 0.403176728628209 
1806	 0.403575361436153 
1807	 0.404046027023873 
1808	 0.404484476936672 
1809	 0.405003869169614 
1810	 0.405441595367399 
1811	 0.405832761870669 
1812	 0.406242676274684 
1813	 0.406637300522807 
1814	 0.407001480969756 
1815	 0.407406465059289 
1816	 0.407896618168837 
1817	 0.408303708381269 
1818	 0.408657018421132 
1819	 0.409060848998057 
1820	 0.409447211496578 
1821	 0.409872139123753 
1822	 0.410331028324149 
1823	 0.410844349631645 
1824	 0.411321790251585 
1825	 0.41172645919101 
1826	 0.412174473732478 
1827	 0.412620627706466 
1828	 0.413068305386949 
1829	 0.413565852017842 
1830	 0.413992163419602 
1831	 0.414377511453527 
1832	 0.414742158038245 
1833	 0.415146793134081 
1834	 0.415489212923973 
1835	 0.415780048192983 
1836	 0.416141744934818 
1837	 0.416480856540544 
1838	 0.416732067436869 
1839	 0.417110529996837 
1840	 0.41758077805614 
1841	 0.418015852197329 
1842	 0.418503616419821 
1843	 0.418979401727042 
1844	 0.419376661674139 
1845	 0.419769724041639 
1846	 0.420093350387136 
1847	 0.42037197880522 
1848	 0.420651722053924 
1849	 0.420912260650592 
1850	 0.421118679068994 
1851	 0.421281956239619 
1852	 0.421495666479317 
1853	 0.42158638037203 
1854	 0.421642367090384 
1855	 0.42173577235287 
1856	 0.421636473476754 
1857	 0.42147567596831 
1858	 0.421366189306597 
1859	 0.421187099125263 
1860	 0.420926234264182 
1861	 0.42067130511933 
1862	 0.420410823227038 
1863	 0.420109841197086 
1864	 0.419787441909026 
1865	 0.41940156777004 
1866	 0.4190049846747 
1867	 0.418487961943471 
1868	 0.417917698446263 
1869	 0.41733460500408 
1870	 0.416670463531481 
1871	 0.415981074689113 
1872	 0.415246281474877 
1873	 0.414481435673559 
1874	 0.413568733073818 
1875	 0.412585994833795 
1876	 0.411448114286378 
1877	 0.41023263972547 
1878	 0.408931970907663 
1879	 0.407549968221055 
1880	 0.406149514503855 
1881	 0.404662483461001 
1882	 0.403051257431983 
1883	 0.401428702099975 
1884	 0.399737802566152 
1885	 0.397815433590682 
1886	 0.395857385334541 
1887	 0.39373301923513 
1888	 0.391405893890565 
1889	 0.389206408258461 
1890	 0.386833933749166 
1891	 0.384386048336957 
1892	 0.38206007506517 
1893	 0.379660503657558 
1894	 0.377181748114985 
1895	 0.374774442729924 
1896	 0.372333857298488 
1897	 0.369780128021621 
1898	 0.367331891844627 
1899	 0.364834490194584 
1900	 0.362396344789174 
1901	 0.36013732965075 
1902	 0.357862322745759 
1903	 0.355744240235621 
1904	 0.35370516443838 
1905	 0.351766556258789 
1906	 0.349826691801633 
1907	 0.348111235749339 
1908	 0.346457100700837 
1909	 0.344861877349923 
1910	 0.343452112106375 
1911	 0.342018318696642 
1912	 0.340721824684459 
1913	 0.339453501434623 
1914	 0.338125152345013 
1915	 0.336940334171849 
1916	 0.335881837265675 
1917	 0.334760469108067 
1918	 0.333702974777599 
1919	 0.332768558541201 
1920	 0.331676319656447 
1921	 0.330594041584203 
1922	 0.329580176036621 
1923	 0.328600691026525 
1924	 0.327750603466724 
1925	 0.326942274734147 
1926	 0.326133565879027 
1927	 0.32535125893262 
1928	 0.324551376953152 
1929	 0.323717196606068 
1930	 0.322996722079123 
1931	 0.322316426819929 
1932	 0.321647168022316 
1933	 0.321080658517878 
1934	 0.320611322317279 
1935	 0.320197005834345 
1936	 0.319856936360878 
1937	 0.319598964390531 
1938	 0.319440883493158 
1939	 0.319343520517358 
1940	 0.319279578402463 
1941	 0.319370646909249 
1942	 0.319559248428971 
1943	 0.319762244576698 
1944	 0.320000486726003 
1945	 0.320317777922963 
1946	 0.320756703349084 
1947	 0.321273705782206 
1948	 0.321888825812935 
1949	 0.322578948955753 
1950	 0.323256390072829 
1951	 0.323904821253299 
1952	 0.324697507140609 
1953	 0.32557058908255 
1954	 0.326439143006117 
1955	 0.327460838410025 
1956	 0.328489297612781 
1957	 0.329488494617811 
1958	 0.330569517849611 
1959	 0.331619410788021 
1960	 0.332644319000775 
1961	 0.333560050561359 
1962	 0.334398495220884 
1963	 0.335197465247873 
1964	 0.335879040956177 
1965	 0.336552320909653 
1966	 0.33720205172285 
1967	 0.337842727456387 
1968	 0.338367206035134 
1969	 0.338963314004836 
1970	 0.339555385099839 
1971	 0.340100739149008 
1972	 0.340644045670208 
1973	 0.341205552678481 
1974	 0.341809073306682 
1975	 0.342461574932999 
1976	 0.343057325401702 
1977	 0.343644631785059 
1978	 0.344267206482913 
1979	 0.344872812343767 
1980	 0.345458066981393 
1981	 0.346122716620164 
1982	 0.346835273470473 
1983	 0.347596530729917 
1984	 0.348287551309648 
1985	 0.348931116856329 
1986	 0.349706542311149 
1987	 0.35043982637865 
1988	 0.351027442154934 
1989	 0.351858243381587 
1990	 0.352813762524294 
1991	 0.353798003762046 
1992	 0.35487117338202 
1993	 0.356101769034073 
1994	 0.357217422984918 
1995	 0.358401035961255 
1996	 0.359638788386445 
1997	 0.360910797684537 
1998	 0.362222314649874 
1999	 0.363680460425682 
2000	 0.364934264930528 
2001	 0.366181065956665 
2002	 0.367296054243243 
2003	 0.368250730631458 
2004	 0.369226733174286 
2005	 0.370171262135765 
2006	 0.371035782010128 
2007	 0.371841125364287 
2008	 0.372602664416771 
2009	 0.373325019887039 
2010	 0.374012143891025 
2011	 0.374635444446931 
2012	 0.375200587640275 
2013	 0.375718003853025 
2014	 0.376138229583589 
2015	 0.376553939528769 
2016	 0.377002374772228 
2017	 0.377301775928664 
2018	 0.37749013130946 
2019	 0.377634334273282 
2020	 0.377657015557931 
2021	 0.377674319167148 
2022	 0.377690386799296 
2023	 0.377728129239686 
2024	 0.377746884353489 
2025	 0.377708777417101 
2026	 0.377607903636333 
2027	 0.377459207637498 
2028	 0.377266931509241 
2029	 0.376973343457796 
2030	 0.376705367615091 
2031	 0.376435154944495 
2032	 0.376105412063711 
2033	 0.375695421255862 
2034	 0.375370496219489 
2035	 0.375058279605479 
2036	 0.374682841020291 
2037	 0.374466838008735 
2038	 0.374311140613536 
2039	 0.374044080734511 
2040	 0.373774450794652 
2041	 0.373467725595218 
2042	 0.372993356962953 
2043	 0.372722000589042 
2044	 0.37258025490542 
2045	 0.372348761433607 
2046	 0.372188664336465 
2047	 0.371990399640519 
2048	 0.371702948508803 
2049	 0.371430943000466 
2050	 0.371150002707645 
2051	 0.370956926669959 
2052	 0.370660817550864 
2053	 0.370387737591694 
2054	 0.370152139602615 
2055	 0.369938445052852 
2056	 0.369727529009651 
2057	 0.369545184652047 
2058	 0.369370285527366 
2059	 0.369215367925993 
2060	 0.369038804327558 
2061	 0.368863246279112 
2062	 0.368698096889015 
2063	 0.368504627950064 
2064	 0.36834700007853 
2065	 0.368220913368706 
2066	 0.368112515913353 
2067	 0.367969255033152 
2068	 0.367856882536407 
2069	 0.367701224878965 
2070	 0.367507118877961 
2071	 0.367347224358157 
2072	 0.367194517824472 
2073	 0.367013962412241 
2074	 0.366841027506144 
2075	 0.36664733255772 
2076	 0.366409994928797 
2077	 0.36620326785532 
2078	 0.366022893594676 
2079	 0.365810198880912 
2080	 0.365605191906554 
2081	 0.365364883692494 
2082	 0.365044123852701 
2083	 0.364791692216614 
2084	 0.364582574933234 
2085	 0.364308330003805 
2086	 0.364104440901276 
2087	 0.363982953090229 
2088	 0.36379690449301 
2089	 0.363637733075813 
2090	 0.363390543865547 
2091	 0.363102726672153 
2092	 0.362770462930809 
2093	 0.362324621066586 
2094	 0.361943839370927 
2095	 0.361516234188615 
2096	 0.361172487678007 
2097	 0.360892237104308 
2098	 0.360636385723093 
2099	 0.36037794105708 
2100	 0.360110449462478 
2101	 0.35976386824715 
2102	 0.359337946543752 
2103	 0.358938540233026 
2104	 0.358502832676908 
2105	 0.358083688422073 
2106	 0.357683238166066 
2107	 0.357240538372042 
2108	 0.356805123646772 
2109	 0.356301787589306 
2110	 0.35572345527279 
2111	 0.355176466090688 
2112	 0.35461219544779 
2113	 0.354016930661183 
2114	 0.353441240955383 
2115	 0.352814764841063 
2116	 0.352107310268426 
2117	 0.351429883753665 
2118	 0.350733038424962 
2119	 0.350011658661127 
2120	 0.349312684348116 
2121	 0.348643001889372 
2122	 0.347887142733859 
2123	 0.347040148496976 
2124	 0.346332692892495 
2125	 0.34565252558303 
2126	 0.344954541718375 
2127	 0.344370049831707 
2128	 0.343706056163668 
2129	 0.342892345046234 
2130	 0.342208640489646 
2131	 0.34158127206844 
2132	 0.340992658777579 
2133	 0.340434403919971 
2134	 0.339950108831775 
2135	 0.339551364548174 
2136	 0.339170950375466 
2137	 0.33883605519976 
2138	 0.338572391191696 
2139	 0.338325911344322 
2140	 0.338084453276013 
2141	 0.33792741329942 
2142	 0.337886233245195 
2143	 0.337766209104764 
2144	 0.337660597813122 
2145	 0.337555898561249 
2146	 0.337360291976185 
2147	 0.337308266709905 
2148	 0.337344573108416 
2149	 0.337391913899723 
2150	 0.337541007906088 
2151	 0.337648768407399 
2152	 0.337769924507034 
2153	 0.337887405778573 
2154	 0.33790675169759 
2155	 0.337949221263438 
2156	 0.337968989666594 
2157	 0.337930642202264 
2158	 0.337929915919057 
2159	 0.337949325559498 
2160	 0.33794561287365 
2161	 0.33794647266723 
2162	 0.337906680054578 
2163	 0.337817741096316 
2164	 0.337803428974444 
2165	 0.337779471314621 
2166	 0.337772690411788 
2167	 0.337868927129852 
2168	 0.337883939370261 
2169	 0.337863352250391 
2170	 0.337819568765036 
2171	 0.337646445403143 
2172	 0.337605914675202 
2173	 0.337588265251357 
2174	 0.337677677645322 
2175	 0.337667205568912 
2176	 0.337746995641828 
2177	 0.337779438541565 
2178	 0.337704621233677 
2179	 0.337744547295453 
2180	 0.337911528775972 
2181	 0.337936443859892 
2182	 0.3379143711693 
2183	 0.337898393220642 
2184	 0.337844164304354 
2185	 0.337793828054272 
2186	 0.337724806871344 
2187	 0.337682973480159 
2188	 0.337679256860306 
2189	 0.33757991459204 
2190	 0.337485878789882 
2191	 0.337325691845025 
2192	 0.337021941776821 
2193	 0.336779090868759 
2194	 0.336529546232612 
2195	 0.336294977885615 
2196	 0.336038323809428 
2197	 0.335849378231873 
2198	 0.335694092874112 
2199	 0.335587379578265 
2200	 0.335455493500397 
2201	 0.335368913525786 
2202	 0.335233769882425 
2203	 0.33509071315019 
2204	 0.334898924393647 
2205	 0.334672108249958 
2206	 0.334455077681328 
2207	 0.334178144678379 
2208	 0.333939126870051 
2209	 0.33373963469789 
2210	 0.333528023658275 
2211	 0.333392987647498 
2212	 0.333088663065734 
2213	 0.332623361629115 
2214	 0.332286774699813 
2215	 0.331906592402705 
2216	 0.331545836299952 
2217	 0.331327867946484 
2218	 0.331030726369851 
2219	 0.330623216632272 
2220	 0.330256364073451 
2221	 0.329906640197535 
2222	 0.329560057491968 
2223	 0.329262798210672 
2224	 0.328917206048575 
2225	 0.328453872858869 
2226	 0.327999890500311 
2227	 0.327440908715044 
2228	 0.326752928784268 
2229	 0.326054069067643 
2230	 0.325364746641095 
2231	 0.324491298109872 
2232	 0.323530943191192 
2233	 0.322451300798785 
2234	 0.321248999159604 
2235	 0.319911886280514 
2236	 0.31843033056941 
2237	 0.316886689039388 
2238	 0.315148504226015 
2239	 0.313439810282695 
2240	 0.311839736644232 
2241	 0.309898427966058 
2242	 0.307790702098674 
2243	 0.305583648190532 
2244	 0.303069108354529 
2245	 0.300566824133944 
2246	 0.297970965219437 
2247	 0.295374880773919 
2248	 0.292720793025482 
2249	 0.290012310614002 
2250	 0.287311133794955 
2251	 0.2845516803528 
2252	 0.281516496338642 
2253	 0.278603400361577 
2254	 0.27567707848989 
2255	 0.272704183965534 
2256	 0.269949364147546 
2257	 0.267094074094496 
2258	 0.264364897241072 
2259	 0.261702631029478 
2260	 0.259042270378105 
2261	 0.256411873517824 
2262	 0.253917227711049 
2263	 0.251454681368113 
2264	 0.249055734413043 
2265	 0.246806693122577 
2266	 0.244568801233497 
2267	 0.242342202207196 
2268	 0.240195656107679 
2269	 0.23819622816145 
2270	 0.236131445400913 
2271	 0.234013426497218 
2272	 0.23201502144711 
2273	 0.23006297940693 
2274	 0.228144155911157 
2275	 0.226445284593838 
2276	 0.224521658448667 
2277	 0.222493014630472 
2278	 0.220484146377319 
2279	 0.218314244378146 
2280	 0.21620263939567 
2281	 0.214125307018709 
2282	 0.212051610128716 
2283	 0.209978995200837 
2284	 0.207962035701938 
2285	 0.205790273343403 
2286	 0.203605171548048 
2287	 0.201261137420868 
2288	 0.198919570683377 
2289	 0.196709746289699 
2290	 0.194356549635213 
2291	 0.19207739398289 
2292	 0.189751659092658 
2293	 0.187146391691252 
2294	 0.18476904929898 
2295	 0.182402092814492 
2296	 0.179987665581392 
2297	 0.17798579531717 
2298	 0.176193211656205 
2299	 0.174760685358306 
2300	 0.173705088557354 
2301	 0.172784354812838 
2302	 0.172167417216887 
2303	 0.171783334520863 
2304	 0.171585770572481 
2305	 0.17168428687285 
2306	 0.172100993885955 
2307	 0.17275441256997 
2308	 0.173678713840613 
2309	 0.174768187795036 
2310	 0.176146494727516 
2311	 0.177709918948241 
2312	 0.179559085220636 
2313	 0.181463732591401 
2314	 0.183710606886937 
2315	 0.185758803796401 
2316	 0.187795784056456 
2317	 0.189767573342888 
2318	 0.1917937035077 
2319	 0.193524367090193 
2320	 0.195245968966879 
2321	 0.196556659676161 
2322	 0.197467973183585 
2323	 0.198297478929745 
2324	 0.19886113593063 
2325	 0.199302421881131 
2326	 0.199564306391371 
2327	 0.199718499572944 
2328	 0.199674330176068 
2329	 0.199529501657614 
2330	 0.199345514075273 
2331	 0.19890331852607 
2332	 0.198259425123967 
2333	 0.197416956641466 
2334	 0.196123418005994 
2335	 0.194820001593525 
2336	 0.193364384182304 
2337	 0.191889031262067 
2338	 0.190847499998145 
2339	 0.189508453859236 
2340	 0.188038320249925 
2341	 0.186834107707467 
2342	 0.185377591017761 
2343	 0.183999598792706 
2344	 0.183245007041777 
2345	 0.182560919291214 
2346	 0.182002100623673 
2347	 0.182107463676716 
2348	 0.182148190792866 
2349	 0.182372734974053 
2350	 0.183184217226963 
2351	 0.18437820475107 
2352	 0.185902020124887 
2353	 0.18756491671395 
2354	 0.189012729816116 
2355	 0.190126499694195 
2356	 0.191331588008724 
2357	 0.192360970764518 
2358	 0.193275225442637 
2359	 0.194250479478702 
2360	 0.19486653518936 
2361	 0.195309494661555 
2362	 0.195643478844014 
2363	 0.195786390092156 
2364	 0.195921584165823 
2365	 0.195815530160012 
2366	 0.19571040385076 
2367	 0.195807380237086 
2368	 0.195824812937739 
2369	 0.196012028468594 
2370	 0.196208596948593 
2371	 0.196224544275258 
2372	 0.196102613983159 
2373	 0.195728854583404 
2374	 0.19539412391898 
2375	 0.195080368565824 
2376	 0.194770939138176 
2377	 0.194740926618025 
2378	 0.194730964234204 
2379	 0.194744262012428 
2380	 0.194771000674863 
2381	 0.194634829010171 
2382	 0.194754035791072 
2383	 0.195092514147445 
2384	 0.195135796351591 
2385	 0.195210439607229 
2386	 0.195326676709495 
2387	 0.195169860135582 
2388	 0.19529480590681 
2389	 0.1957243638862 
2390	 0.195983183450082 
2391	 0.19624491685838 
2392	 0.196318993247218 
2393	 0.196283458441866 
2394	 0.196383498211978 
2395	 0.196364305953981 
2396	 0.196441476161326 
2397	 0.196775033847096 
2398	 0.196758491110413 
2399	 0.196379222022695 
2400	 0.196476211630125 
2401	 0.196751124884131 
2402	 0.196875018367105 
2403	 0.197173932505951 
2404	 0.197312277821152 
2405	 0.197169184382783 
2406	 0.197185760098337 
2407	 0.197382456275816 
2408	 0.197291630354109 
2409	 0.197341012924634 
2410	 0.197579569742421 
2411	 0.197712944624125 
2412	 0.198098733452522 
2413	 0.198385684719279 
2414	 0.198185511731508 
2415	 0.197740285795066 
2416	 0.197388938798399 
2417	 0.197341200473644 
2418	 0.197660681064731 
2419	 0.198099982239263 
2420	 0.198299874107959 
2421	 0.198138031797243 
2422	 0.198253938418581 
2423	 0.19871322077062 
2424	 0.198958602538362 
2425	 0.199325137244548 
2426	 0.199182486456392 
2427	 0.198782979136517 
2428	 0.199030273890612 
2429	 0.199445896894608 
2430	 0.199872590125115 
2431	 0.199713735266722 
2432	 0.199206778677673 
2433	 0.198556402831139 
2434	 0.197907188082255 
2435	 0.197920452548198 
2436	 0.198148972957295 
2437	 0.198539072180005 
2438	 0.198790429129468 
2439	 0.198849407146535 
2440	 0.198806858932751 
2441	 0.198554467426048 
2442	 0.198358923005027 
2443	 0.19828476953863 
2444	 0.198351809961395 
2445	 0.197929942612193 
2446	 0.197439409138734 
2447	 0.197246902424261 
2448	 0.196844188298194 
2449	 0.196918913501771 
2450	 0.197001405371407 
2451	 0.196946342815855 
2452	 0.196840031077936 
2453	 0.196290413610102 
2454	 0.196259988932079 
2455	 0.19586320782711 
2456	 0.195035995755159 
2457	 0.195069193680077 
2458	 0.194976153503402 
2459	 0.194349398841373 
2460	 0.194199842451013 
2461	 0.193842136300669 
2462	 0.192602895135982 
2463	 0.192257075194351 
2464	 0.192073581746558 
2465	 0.191334520799038 
2466	 0.191604790219819 
2467	 0.192101086160994 
2468	 0.192217178820946 
2469	 0.192526253971303 
2470	 0.192530067311392 
2471	 0.191911984305474 
2472	 0.192009951771105 
2473	 0.193065480617862 
2474	 0.193686634675173 
2475	 0.193600179413262 
2476	 0.193280093295221 
2477	 0.192122120966768 
2478	 0.191019290576882 
2479	 0.191530883687983 
2480	 0.191276855800971 
2481	 0.191477572345506 
2482	 0.191841866836314 
2483	 0.191459894652466 
2484	 0.192634837321427 
2485	 0.193613665166462 
2486	 0.193571733256713 
2487	 0.194091779449109 
2488	 0.194078907402399 
2489	 0.193423187304095 
2490	 0.194874707572746 
2491	 0.196327265753493 
2492	 0.196470138455197 
2493	 0.196483534235693 
2494	 0.195885190981637 
2495	 0.195058574191039 
2496	 0.195782448581597 
2497	 0.197440678544518 
2498	 0.198001156291517 
2499	 0.199055199899565 
2500	 0.199362704896088 
