Wavelength	Tablay400103.asd
350	 0.125665786323411 
351	 9.75100386109298E-02 
352	 6.12253704415616E-02 
353	 4.50986014536264E-02 
354	 4.31533133402185E-02 
355	 5.90706081607964E-02 
356	 8.13548972407461E-02 
357	 9.29363211427417E-02 
358	 7.23074111321581E-02 
359	 8.24088806082795E-02 
360	 8.12829799762265E-02 
361	 1.70375740722299E-03 
362	 6.85081999881348E-02 
363	 0.108726907619961 
364	 5.09549323465962E-02 
365	 2.16050990617906E-02 
366	 1.26967695785391E-02 
367	 2.55763177732964E-02 
368	 5.44512197384694E-02 
369	 9.13316790087828E-02 
370	 5.66751740320505E-02 
371	 2.25839288855836E-02 
372	 0.113592544446709 
373	 4.46596415064397E-02 
374	 2.98401236342757E-03 
375	 5.08768292976962E-02 
376	 1.67686140600259E-02 
377	 3.52658953521165E-02 
378	 6.92181723978621E-02 
379	 6.03875676236394E-02 
380	 7.47391472168229E-03 
381	 2.58386080537401E-02 
382	 7.99056840661408E-02 
383	 6.44988535790451E-02 
384	 7.67278020148397E-02 
385	 6.66600722249736E-02 
386	 2.35105074260726E-02 
387	 1.39300412334902E-02 
388	 0.050044711730274 
389	 8.06804327873668E-02 
390	 6.61405260363541E-02 
391	 7.87526112854953E-02 
392	 8.01195721155219E-02 
393	 6.49815148829941E-02 
394	 4.98013612405708E-02 
395	 2.22073232326556E-02 
396	 2.21253095493289E-02 
397	 5.46652369336229E-02 
398	 6.45181912681268E-02 
399	 5.64322467922868E-02 
400	 5.01900931850811E-02 
401	 5.99344854065324E-02 
402	 5.53806648696104E-02 
403	 6.05593764316174E-02 
404	 6.99449600351785E-02 
405	 5.89438537240922E-02 
406	 0.064607303898254 
407	 6.38921731872285E-02 
408	 4.83811283553183E-02 
409	 5.19726166305833E-02 
410	 5.70547431133055E-02 
411	 5.80147543754387E-02 
412	 5.49790251958266E-02 
413	 5.75291632242932E-02 
414	 0.054179558424135 
415	 4.91476422605624E-02 
416	 5.92858679173722E-02 
417	 5.41785499653571E-02 
418	 4.84716355825027E-02 
419	 5.35598099020991E-02 
420	 5.80274025574239E-02 
421	 0.049920832421259 
422	 4.47018579759107E-02 
423	 6.03949956995114E-02 
424	 5.54018852293117E-02 
425	 0.054083713356115 
426	 6.17945695128713E-02 
427	 5.83803917434267E-02 
428	 5.65764830988197E-02 
429	 5.64854363527804E-02 
430	 5.58462557435608E-02 
431	 5.31651449562295E-02 
432	 5.38014338827103E-02 
433	 5.59078979712931E-02 
434	 5.45994484192538E-02 
435	 5.49138041013326E-02 
436	 5.76404228587363E-02 
437	 6.05513895553659E-02 
438	 5.75141374918728E-02 
439	 5.57630413923177E-02 
440	 5.68907543620303E-02 
441	 5.95483413674891E-02 
442	 5.81222565734287E-02 
443	 0.055305763499412 
444	 0.053492943191353 
445	 5.41447910359235E-02 
446	 5.17926788391556E-02 
447	 5.04300818563818E-02 
448	 5.29852892418332E-02 
449	 5.78975809701263E-02 
450	 5.89115518112435E-02 
451	 5.69406589068285E-02 
452	 5.57264555051088E-02 
453	 5.65996136693439E-02 
454	 5.72474629669623E-02 
455	 5.69580797868922E-02 
456	 5.69995279162374E-02 
457	 5.56438695221338E-02 
458	 5.51348394529139E-02 
459	 5.66370924126636E-02 
460	 5.57380958746491E-02 
461	 5.64761244314951E-02 
462	 5.71766325695864E-02 
463	 5.42002143304374E-02 
464	 0.054613980511172 
465	 5.59403310092562E-02 
466	 5.61772118038433E-02 
467	 0.055528641078226 
468	 5.68052005312656E-02 
469	 5.78796898754762E-02 
470	 5.68184599869342E-02 
471	 5.87222068854324E-02 
472	 5.87113628450444E-02 
473	 5.70390163077277E-02 
474	 5.77368261110961E-02 
475	 5.68378300417382E-02 
476	 5.67476367199776E-02 
477	 5.84446291875475E-02 
478	 5.78002841787289E-02 
479	 0.057310913820115 
480	 0.057990408306816 
481	 5.97921664110883E-02 
482	 5.99279638832448E-02 
483	 5.92206738689607E-02 
484	 5.87393970823669E-02 
485	 5.94560799836249E-02 
486	 5.84586221101598E-02 
487	 5.80749752334377E-02 
488	 6.00245376323922E-02 
489	 6.09936779714309E-02 
490	 5.96209171186014E-02 
491	 5.82238271591403E-02 
492	 0.060412613487568 
493	 6.05439420952838E-02 
494	 6.13025336969242E-02 
495	 6.36018646724689E-02 
496	 6.40599403207149E-02 
497	 6.36468758846357E-02 
498	 6.28754556191122E-02 
499	 6.23523949690259E-02 
500	 6.34036797312074E-02 
501	 6.43866448969977E-02 
502	 6.45910217058741E-02 
503	 6.42550047499353E-02 
504	 0.063725602258067 
505	 6.39848492805577E-02 
506	 6.52749649539704E-02 
507	 6.60671418245781E-02 
508	 6.63216567209299E-02 
509	 6.66030245766113E-02 
510	 6.74970377845256E-02 
511	 0.067501285797753 
512	 6.75968147788997E-02 
513	 6.82226779427969E-02 
514	 6.88936796485413E-02 
515	 6.89332704893769E-02 
516	 6.91455852398927E-02 
517	 6.99971011374621E-02 
518	 6.92319381796032E-02 
519	 0.069901876153252 
520	 7.15033970988978E-02 
521	 0.071341608678981 
522	 7.16270082049662E-02 
523	 7.22627117689342E-02 
524	 7.29027877054284E-02 
525	 7.34142346737639E-02 
526	 7.32673661120301E-02 
527	 7.31632530160571E-02 
528	 7.39470321646821E-02 
529	 0.074701318182427 
530	 7.52040424610987E-02 
531	 7.55158591750386E-02 
532	 7.59313666371564E-02 
533	 7.63194058601582E-02 
534	 7.66997792230194E-02 
535	 7.70885818049995E-02 
536	 7.73912250504625E-02 
537	 7.78791281022113E-02 
538	 7.83904833774812E-02 
539	 7.85824715492913E-02 
540	 7.87976814922271E-02 
541	 7.89357260136472E-02 
542	 0.079026750251447 
543	 7.93939419144242E-02 
544	 0.079663596148199 
545	 7.98806262532845E-02 
546	 8.01367492213398E-02 
547	 8.01033236301727E-02 
548	 0.080296563992247 
549	 8.06015055609282E-02 
550	 8.03847628686395E-02 
551	 8.06713666070033E-02 
552	 8.09772180141242E-02 
553	 8.09007100761842E-02 
554	 8.09318452597107E-02 
555	 8.11104665617915E-02 
556	 8.11262423507441E-02 
557	 0.080643259877592 
558	 8.05460806647493E-02 
559	 8.05008583640511E-02 
560	 8.03251078402124E-02 
561	 8.02087301035028E-02 
562	 8.00214410839678E-02 
563	 7.98215292910339E-02 
564	 7.96885497882886E-02 
565	 7.96057901617856E-02 
566	 7.94314054454431E-02 
567	 7.91197843253242E-02 
568	 7.87352650526932E-02 
569	 0.078792650180657 
570	 7.86268399484935E-02 
571	 7.79531912432337E-02 
572	 7.76268270897653E-02 
573	 7.75641461429066E-02 
574	 7.75947490855863E-02 
575	 7.74726176992942E-02 
576	 7.69581899027634E-02 
577	 7.63830131685754E-02 
578	 7.60042802814793E-02 
579	 7.59315862230574E-02 
580	 7.57933020614366E-02 
581	 7.53966539638723E-02 
582	 0.074752440973048 
583	 7.42875214162359E-02 
584	 7.40547652950826E-02 
585	 7.38452498780292E-02 
586	 7.33320753407362E-02 
587	 7.26691469378972E-02 
588	 7.23060683480907E-02 
589	 7.22089529852077E-02 
590	 7.15087811127294E-02 
591	 7.10138820738415E-02 
592	 7.08097212044993E-02 
593	 0.07068820438963 
594	 0.070216647049344 
595	 6.96716362869209E-02 
596	 0.069149630510726 
597	 6.85816845453574E-02 
598	 6.82460086706838E-02 
599	 6.78019922079282E-02 
600	 0.06713466837452 
601	 6.69760782895767E-02 
602	 6.65232415932691E-02 
603	 6.59625216656273E-02 
604	 6.57885783846696E-02 
605	 6.54459523876891E-02 
606	 6.50860121658236E-02 
607	 6.47987166547981E-02 
608	 6.45290215323178E-02 
609	 0.063949097717667 
610	 6.33466586010162E-02 
611	 6.29893178555071E-02 
612	 6.25186420115706E-02 
613	 6.22174768664149E-02 
614	 6.20594185113692E-02 
615	 6.18143386800054E-02 
616	 6.13966558136294E-02 
617	 6.09878003370679E-02 
618	 0.060638516768342 
619	 6.00690823931183E-02 
620	 5.99515283216706E-02 
621	 5.99576177645833E-02 
622	 5.95721885434087E-02 
623	 5.90892290381662E-02 
624	 5.89296749924227E-02 
625	 5.89745038187495E-02 
626	 0.058632714487892 
627	 5.82562645406873E-02 
628	 5.78371035602268E-02 
629	 5.74241926730597E-02 
630	 5.74056406282356E-02 
631	 5.71551401042643E-02 
632	 5.67575912472233E-02 
633	 5.65696095827539E-02 
634	 5.64010723986364E-02 
635	 5.61701118810258E-02 
636	 5.58842513280111E-02 
637	 5.56498534266423E-02 
638	 5.54318248920718E-02 
639	 5.51990526976402E-02 
640	 5.49859685887932E-02 
641	 5.50852651647709E-02 
642	 5.48988556735616E-02 
643	 5.44821502699632E-02 
644	 5.42680945202607E-02 
645	 5.40592618847181E-02 
646	 0.05387271737156 
647	 5.37265696431168E-02 
648	 5.36065789610693E-02 
649	 5.34689761075437E-02 
650	 5.32871581940209E-02 
651	 5.30687783289047E-02 
652	 5.29241319245977E-02 
653	 5.27747847400212E-02 
654	 5.26183253270743E-02 
655	 0.052516208032076 
656	 5.24775496621545E-02 
657	 5.23922124820319E-02 
658	 5.22076171071017E-02 
659	 5.20183123845154E-02 
660	 5.18803902536559E-02 
661	 5.17950188117612E-02 
662	 5.17207862787475E-02 
663	 5.15331134780669E-02 
664	 5.14545785423907E-02 
665	 5.15060677828728E-02 
666	 5.14878396726309E-02 
667	 5.13291990756291E-02 
668	 5.11620422147154E-02 
669	 5.10895049927591E-02 
670	 5.10344814063217E-02 
671	 5.09116489366678E-02 
672	 0.050854601198838 
673	 5.10003260034227E-02 
674	 5.07782436500444E-02 
675	 5.05589928914791E-02 
676	 5.05771717076494E-02 
677	 5.07991590100626E-02 
678	 5.06611311563537E-02 
679	 5.04294242860648E-02 
680	 0.050391061363048 
681	 5.02355065520724E-02 
682	 5.01994022242367E-02 
683	 5.02373581983516E-02 
684	 5.01750307669931E-02 
685	 5.01332876249532E-02 
686	 5.02194299169683E-02 
687	 5.03169695874118E-02 
688	 5.00033120686458E-02 
689	 0.050034328131042 
690	 5.00850016063961E-02 
691	 4.98198502725146E-02 
692	 4.99079725556853E-02 
693	 0.049966075260649 
694	 4.99227933993313E-02 
695	 4.99130890177415E-02 
696	 4.99905026282374E-02 
697	 4.99771626156539E-02 
698	 0.049859493597662 
699	 4.99229969576665E-02 
700	 4.98817816835526E-02 
701	 4.98605799464398E-02 
702	 4.99796339285622E-02 
703	 4.98860656796189E-02 
704	 4.98342963653783E-02 
705	 0.049865798534791 
706	 4.98692599203644E-02 
707	 4.98503002455995E-02 
708	 4.98599941973826E-02 
709	 4.98987941100269E-02 
710	 4.98674591998159E-02 
711	 4.99480674480733E-02 
712	 5.00586231813001E-02 
713	 0.050088111427914 
714	 5.01485515614306E-02 
715	 5.01999923753176E-02 
716	 5.02022279431789E-02 
717	 5.01409570104749E-02 
718	 5.02482577676225E-02 
719	 0.050361001140114 
720	 5.03667005738664E-02 
721	 5.03206488740207E-02 
722	 5.04795514204926E-02 
723	 5.06213056372322E-02 
724	 5.05341077839895E-02 
725	 5.06805205724532E-02 
726	 5.07142285834875E-02 
727	 5.06314337004726E-02 
728	 5.06708893235061E-02 
729	 0.050799924280974 
730	 5.08976309069866E-02 
731	 5.09217512235569E-02 
732	 5.09763620162599E-02 
733	 5.10599748840716E-02 
734	 5.11841008663109E-02 
735	 0.051331903741826 
736	 5.13868077439965E-02 
737	 5.14235805671496E-02 
738	 5.14763082076103E-02 
739	 5.15490730817889E-02 
740	 5.16639794381077E-02 
741	 5.17564895994249E-02 
742	 5.17970088356551E-02 
743	 5.18205495210498E-02 
744	 0.051916993105748 
745	 5.20544323139027E-02 
746	 5.21725939346404E-02 
747	 0.052246853685182 
748	 5.22975840621001E-02 
749	 5.23986195715859E-02 
750	 5.26128387443934E-02 
751	 5.26898951811148E-02 
752	 5.27244566283853E-02 
753	 5.27824264495347E-02 
754	 5.28440331191339E-02 
755	 5.29581672507076E-02 
756	 0.053122993302949 
757	 5.33012486929881E-02 
758	 5.33983726679928E-02 
759	 5.34569072767257E-02 
760	 0.053511871457944 
761	 5.35978697063904E-02 
762	 5.37593618650487E-02 
763	 5.39387738029018E-02 
764	 0.054087155475636 
765	 5.41801172092959E-02 
766	 5.42873170914699E-02 
767	 5.43962234437976E-02 
768	 5.44959101282966E-02 
769	 5.46207950020476E-02 
770	 5.47147883111715E-02 
771	 5.48669851835702E-02 
772	 5.51348147475195E-02 
773	 5.51558573226969E-02 
774	 5.52450675344282E-02 
775	 5.54330463490738E-02 
776	 5.55150160022916E-02 
777	 5.56642281638905E-02 
778	 5.58399996797196E-02 
779	 5.59762268837029E-02 
780	 5.60112633104313E-02 
781	 5.61982613916069E-02 
782	 0.056389605641301 
783	 0.056444049539053 
784	 5.66829296900198E-02 
785	 5.68210627083634E-02 
786	 5.68827224814002E-02 
787	 5.70457239401621E-02 
788	 5.71702830079028E-02 
789	 5.73443543469257E-02 
790	 5.75704725588905E-02 
791	 5.77308778319471E-02 
792	 0.057782749264468 
793	 0.057944527621436 
794	 5.82851610832133E-02 
795	 0.058385372548579 
796	 5.84624600778247E-02 
797	 5.86250814899066E-02 
798	 5.88839089212393E-02 
799	 5.89647703998444E-02 
800	 0.059081724429959 
801	 0.059259688496757 
802	 5.93806352148902E-02 
803	 5.96211030583186E-02 
804	 5.97927565068294E-02 
805	 5.98672199043861E-02 
806	 6.01174927802692E-02 
807	 6.02702946594999E-02 
808	 6.03784540385137E-02 
809	 6.05442840177645E-02 
810	 6.07658002246837E-02 
811	 6.09918841962017E-02 
812	 6.12178379326709E-02 
813	 6.14411220389419E-02 
814	 6.15309603322762E-02 
815	 6.16991882966831E-02 
816	 6.19749001569019E-02 
817	 6.22089586596692E-02 
818	 6.23937416945239E-02 
819	 6.25057099807174E-02 
820	 6.26126736452284E-02 
821	 6.29218126718755E-02 
822	 6.31881830790581E-02 
823	 6.33785169260855E-02 
824	 0.06353325158921 
825	 6.37201231008825E-02 
826	 6.39600041369424E-02 
827	 6.41539802670265E-02 
828	 6.42151484405694E-02 
829	 6.44432754683547E-02 
830	 6.47474092540047E-02 
831	 6.50387372735005E-02 
832	 6.52562553211828E-02 
833	 6.53498241530119E-02 
834	 6.55134910797575E-02 
835	 6.58108420836389E-02 
836	 6.60552016004883E-02 
837	 0.066284293098755 
838	 6.64599909376747E-02 
839	 6.65999365115909E-02 
840	 6.69217026282763E-02 
841	 6.71774458523854E-02 
842	 6.73901093534112E-02 
843	 6.76501646069085E-02 
844	 0.067789830869047 
845	 6.79431675935433E-02 
846	 6.81944314937626E-02 
847	 6.85464027306327E-02 
848	 6.87654824263358E-02 
849	 6.88950739162864E-02 
850	 6.90411970652702E-02 
851	 6.93258026159713E-02 
852	 6.95401186146002E-02 
853	 6.97557829369967E-02 
854	 7.00112356719161E-02 
855	 7.01387327252785E-02 
856	 7.04478720967558E-02 
857	 0.070798133477467 
858	 7.10076021925789E-02 
859	 7.13074823770457E-02 
860	 7.14993186992668E-02 
861	 7.16813057934951E-02 
862	 7.20351310622699E-02 
863	 7.22754955669644E-02 
864	 7.24470967496936E-02 
865	 7.26623312836443E-02 
866	 7.30354409432363E-02 
867	 7.33019584785214E-02 
868	 7.35249529443856E-02 
869	 7.37305461173326E-02 
870	 7.38408043370261E-02 
871	 7.41969615172666E-02 
872	 0.074530966862908 
873	 7.46694483325527E-02 
874	 7.49478253400236E-02 
875	 7.52383506054124E-02 
876	 7.54897245327687E-02 
877	 0.07570088753479 
878	 7.59660952651407E-02 
879	 7.62900302586492E-02 
880	 7.64863483899988E-02 
881	 7.64307474901692E-02 
882	 7.68062033004475E-02 
883	 7.72163550804486E-02 
884	 7.74738798526822E-02 
885	 0.077646236500053 
886	 7.80704119798907E-02 
887	 7.84740455107985E-02 
888	 7.86823001253828E-02 
889	 7.87406729400938E-02 
890	 7.89450406278601E-02 
891	 7.93164972870934E-02 
892	 7.97197445808442E-02 
893	 0.079871152454109 
894	 8.01652700706054E-02 
895	 8.04918070234643E-02 
896	 8.07172222844118E-02 
897	 8.09960080913336E-02 
898	 0.081187234662267 
899	 8.13927376683324E-02 
900	 8.17370047417294E-02 
901	 8.21213564266269E-02 
902	 8.23840092178492E-02 
903	 8.26281997134733E-02 
904	 8.30104245403041E-02 
905	 8.31794502845285E-02 
906	 0.083487484171314 
907	 8.39174340832238E-02 
908	 0.084190100834161 
909	 8.43926477101076E-02 
910	 8.45953502745286E-02 
911	 8.49137348172275E-02 
912	 8.54463984736472E-02 
913	 8.56513580656088E-02 
914	 8.57879923775005E-02 
915	 8.60502430236296E-02 
916	 8.63611230337039E-02 
917	 8.66592730375875E-02 
918	 8.69039452458494E-02 
919	 8.71242509213203E-02 
920	 8.74527824207376E-02 
921	 8.78257931094429E-02 
922	 8.81794461480311E-02 
923	 8.84773153032698E-02 
924	 8.87449425655329E-02 
925	 0.089089462213288 
926	 8.94840831509953E-02 
927	 8.98591049515393E-02 
928	 9.01799054398429E-02 
929	 9.04317432739359E-02 
930	 9.07094701787098E-02 
931	 9.10847344637187E-02 
932	 9.13307644871969E-02 
933	 9.16221169013004E-02 
934	 0.091903973913067 
935	 9.20616526119742E-02 
936	 9.23950820455614E-02 
937	 9.27177899844984E-02 
938	 0.092952255191157 
939	 9.31656828573026E-02 
940	 9.37076261524424E-02 
941	 9.40698927340977E-02 
942	 9.42865840674061E-02 
943	 9.48197986302622E-02 
944	 9.50420853636783E-02 
945	 9.52503650772267E-02 
946	 0.095627053014821 
947	 9.60823675956313E-02 
948	 0.096210240781147 
949	 9.64481264695808E-02 
950	 9.69428273739218E-02 
951	 9.73257168545411E-02 
952	 9.75530922261051E-02 
953	 9.77445928596458E-02 
954	 9.80020951017119E-02 
955	 9.83376147048164E-02 
956	 9.87588073466206E-02 
957	 9.90494696042883E-02 
958	 9.92300196021624E-02 
959	 9.97679717129064E-02 
960	 0.100138231360564 
961	 0.100371520781733 
962	 0.100623274968632 
963	 0.10101432293794 
964	 0.101298235186581 
965	 0.101597590348326 
966	 0.101901570399026 
967	 0.101666916618116 
968	 0.102228501118468 
969	 0.102836488687801 
970	 0.102819186016015 
971	 0.103263792639301 
972	 0.103698136865677 
973	 0.104061664434355 
974	 0.104378350739412 
975	 0.104566781426628 
976	 0.10489679959554 
977	 0.105340197010746 
978	 0.105763663048651 
979	 0.106078588606908 
980	 0.10612684257863 
981	 0.106253717330714 
982	 0.106749440423502 
983	 0.107209247989247 
984	 0.107272291961062 
985	 0.107254737194927 
986	 0.107575193482861 
987	 0.108102137621683 
988	 0.108478022165027 
989	 0.108745422291242 
990	 0.109010793798797 
991	 0.108993294232058 
992	 0.109231865834134 
993	 0.10949148926857 
994	 0.10952246697998 
995	 0.110051750576114 
996	 0.110462337919934 
997	 0.110696506409825 
998	 0.110850640088765 
999	 0.110727264448833 
1000	 0.111201211159124 
1001	 0.1119649053178 
1002	 0.112188958071388 
1003	 0.112538663466645 
1004	 0.112751210949399 
1005	 0.11288814542587 
1006	 0.113173894467869 
1007	 0.113469003267544 
1008	 0.113800020477826 
1009	 0.114350750906123 
1010	 0.114641258777485 
1011	 0.114720270741669 
1012	 0.114957213654222 
1013	 0.115233670802462 
1014	 0.115426648936514 
1015	 0.115563269860711 
1016	 0.115852695214982 
1017	 0.116200794797144 
1018	 0.116253702037311 
1019	 0.116646913427315 
1020	 0.116958308280224 
1021	 0.117133942586609 
1022	 0.117094065529954 
1023	 0.117352717693181 
1024	 0.11763300949429 
1025	 0.118014266220978 
1026	 0.118726922555406 
1027	 0.119112359219748 
1028	 0.11945017197347 
1029	 0.119581314784316 
1030	 0.119547150461208 
1031	 0.119545237325675 
1032	 0.119637640361277 
1033	 0.119861986204612 
1034	 0.120101379713424 
1035	 0.120339351329872 
1036	 0.120654061918156 
1037	 0.12101042986181 
1038	 0.121278118322338 
1039	 0.121579967180316 
1040	 0.121920483790121 
1041	 0.122314620020769 
1042	 0.122566679226146 
1043	 0.122816627412459 
1044	 0.122957246943289 
1045	 0.123058410316524 
1046	 0.123099145216208 
1047	 0.123309336529386 
1048	 0.123650050403888 
1049	 0.123997761630144 
1050	 0.124335954874277 
1051	 0.12471293967737 
1052	 0.125059766622855 
1053	 0.12524384438831 
1054	 0.125223083392254 
1055	 0.125342154483039 
1056	 0.125331502668352 
1057	 0.125476952321412 
1058	 0.125737794454448 
1059	 0.126123571947392 
1060	 0.126415904620253 
1061	 0.126725546027383 
1062	 0.127039973484593 
1063	 0.127209656602821 
1064	 0.12724192359023 
1065	 0.127421993564557 
1066	 0.127713237732181 
1067	 0.127973853692942 
1068	 0.128229982069603 
1069	 0.128375997547674 
1070	 0.128586938380072 
1071	 0.128715644767643 
1072	 0.128925669798786 
1073	 0.129186305480765 
1074	 0.129386926585754 
1075	 0.129373459151435 
1076	 0.129453803784375 
1077	 0.12971183895153 
1078	 0.129915684448818 
1079	 0.130293451842159 
1080	 0.130654950332119 
1081	 0.130852480522065 
1082	 0.131131924898755 
1083	 0.131311887396704 
1084	 0.131318765078834 
1085	 0.131360716105678 
1086	 0.131525177675613 
1087	 0.131745336344717 
1088	 0.132023796328415 
1089	 0.132319613935933 
1090	 0.132536587675612 
1091	 0.132687012617853 
1092	 0.132804183082495 
1093	 0.132896925549181 
1094	 0.133019237278845 
1095	 0.133091471100742 
1096	 0.133263367417626 
1097	 0.133576400395047 
1098	 0.13388298648429 
1099	 0.134094378239781 
1100	 0.134255943433168 
1101	 0.134413695061844 
1102	 0.134522878019505 
1103	 0.134673129621714 
1104	 0.134878945177903 
1105	 0.135100973989083 
1106	 0.135302132461769 
1107	 0.13546909928661 
1108	 0.13557644575079 
1109	 0.135717856343751 
1110	 0.135812964430333 
1111	 0.135959727178152 
1112	 0.136218307922898 
1113	 0.13645958168067 
1114	 0.136715288892716 
1115	 0.136919954029362 
1116	 0.137119297823629 
1117	 0.137383649341817 
1118	 0.137576469915375 
1119	 0.137684633827745 
1120	 0.137847110923975 
1121	 0.138004111060857 
1122	 0.138194030301839 
1123	 0.138397002908529 
1124	 0.138760702228536 
1125	 0.139102418092836 
1126	 0.139220365878076 
1127	 0.13940989281836 
1128	 0.139672845423989 
1129	 0.139858444447414 
1130	 0.140064438712031 
1131	 0.140261086116495 
1132	 0.140433557635844 
1133	 0.140542367350271 
1134	 0.140746552310229 
1135	 0.140966203126053 
1136	 0.141186612838234 
1137	 0.141367601254308 
1138	 0.141570142875929 
1139	 0.141791348655955 
1140	 0.141999231518402 
1141	 0.142218591176659 
1142	 0.142413458284309 
1143	 0.142642799433442 
1144	 0.142856112895354 
1145	 0.143020287699889 
1146	 0.143166822417201 
1147	 0.143310352907621 
1148	 0.143350511164617 
1149	 0.143330537919444 
1150	 0.143457731642721 
1151	 0.143639634249039 
1152	 0.143809379533191 
1153	 0.1440526362491 
1154	 0.14424411186789 
1155	 0.144413013593256 
1156	 0.144565869429117 
1157	 0.144698070079762 
1158	 0.144847575778519 
1159	 0.145005441188789 
1160	 0.145122556138923 
1161	 0.1452405019998 
1162	 0.14538954290801 
1163	 0.145508245847646 
1164	 0.145628581781258 
1165	 0.14577738792287 
1166	 0.145858383373048 
1167	 0.145970016544913 
1168	 0.146113099581515 
1169	 0.146228945269044 
1170	 0.146356754670124 
1171	 0.146472831368211 
1172	 0.146539563169194 
1173	 0.146644147898293 
1174	 0.146802071028771 
1175	 0.146901235510393 
1176	 0.146948038325257 
1177	 0.147056463268555 
1178	 0.147178559258414 
1179	 0.147262401238448 
1180	 0.147400422032029 
1181	 0.147649185509237 
1182	 0.147794069365606 
1183	 0.147840844082822 
1184	 0.147936215972439 
1185	 0.148044383305656 
1186	 0.148182848819293 
1187	 0.148403720445811 
1188	 0.148533137031978 
1189	 0.148609929995838 
1190	 0.148729448166574 
1191	 0.148859381709545 
1192	 0.14894601125329 
1193	 0.149016268259061 
1194	 0.149118509958652 
1195	 0.149175003116093 
1196	 0.14927901307927 
1197	 0.149446223755713 
1198	 0.149604485106988 
1199	 0.149811638034442 
1200	 0.14993947689601 
1201	 0.150051837274322 
1202	 0.150173227056106 
1203	 0.150243053991829 
1204	 0.150363204381092 
1205	 0.150487425615013 
1206	 0.150646937403039 
1207	 0.150805693802531 
1208	 0.150949355861194 
1209	 0.151117636928136 
1210	 0.151343454105616 
1211	 0.151505059290312 
1212	 0.151623659507169 
1213	 0.151806516470934 
1214	 0.151959369704228 
1215	 0.152171179371428 
1216	 0.152497651802414 
1217	 0.152743984283328 
1218	 0.152974113705959 
1219	 0.153185928594736 
1220	 0.153357922108728 
1221	 0.153630422337165 
1222	 0.153910296512104 
1223	 0.154174140301426 
1224	 0.154408108339089 
1225	 0.154594138722484 
1226	 0.154846566181669 
1227	 0.155123279186612 
1228	 0.155364065636264 
1229	 0.155648648749168 
1230	 0.15587862213947 
1231	 0.156021789952671 
1232	 0.156224708840473 
1233	 0.15647454842206 
1234	 0.156676753539824 
1235	 0.156830538814888 
1236	 0.157042506104206 
1237	 0.157272591134838 
1238	 0.157478976288703 
1239	 0.157680062654222 
1240	 0.157978542329506 
1241	 0.158157681575051 
1242	 0.158284168796062 
1243	 0.158414118418809 
1244	 0.158479864606727 
1245	 0.158652856801047 
1246	 0.158867152387709 
1247	 0.159051823491033 
1248	 0.159299151862833 
1249	 0.159498074440648 
1250	 0.159642768825534 
1251	 0.159807088607747 
1252	 0.159965256554454 
1253	 0.160157670370417 
1254	 0.160385770792537 
1255	 0.160560400152624 
1256	 0.160717058268557 
1257	 0.160902248507493 
1258	 0.161088346584475 
1259	 0.161235595520677 
1260	 0.161413487962 
1261	 0.161557009834161 
1262	 0.161621798895783 
1263	 0.161671140737662 
1264	 0.161804580473875 
1265	 0.161985605337805 
1266	 0.162149590972081 
1267	 0.162341655694453 
1268	 0.162534066202539 
1269	 0.162734896701665 
1270	 0.162912184282245 
1271	 0.16311422381936 
1272	 0.16327632348103 
1273	 0.163371952327092 
1274	 0.163517991748722 
1275	 0.163678815932137 
1276	 0.163839584990139 
1277	 0.164018134349725 
1278	 0.164191052771579 
1279	 0.16436765663381 
1280	 0.164531355102791 
1281	 0.16465677617387 
1282	 0.164839741856168 
1283	 0.165090712781453 
1284	 0.165274005337044 
1285	 0.165443082895709 
1286	 0.165627960237624 
1287	 0.165800300724888 
1288	 0.165923489005416 
1289	 0.166053110331769 
1290	 0.166215001374074 
1291	 0.166338746160372 
1292	 0.166394852204482 
1293	 0.166507326030471 
1294	 0.166650886961061 
1295	 0.166780359060823 
1296	 0.16691830815264 
1297	 0.167043258881173 
1298	 0.167165756238919 
1299	 0.167280756074161 
1300	 0.167382130997124 
1301	 0.167488584896352 
1302	 0.167582248061417 
1303	 0.167694909191192 
1304	 0.167842153364932 
1305	 0.167949490868848 
1306	 0.168049447209802 
1307	 0.168139623829133 
1308	 0.168185210347374 
1309	 0.16823550411083 
1310	 0.168337844574736 
1311	 0.168458798222286 
1312	 0.168603917652425 
1313	 0.168819659158886 
1314	 0.168941921520607 
1315	 0.169051234568172 
1316	 0.16912827097865 
1317	 0.169104670191496 
1318	 0.169200610097237 
1319	 0.169357944138027 
1320	 0.169467820993427 
1321	 0.169579578626714 
1322	 0.169737997205986 
1323	 0.16989784248585 
1324	 0.170050490609931 
1325	 0.170279366227523 
1326	 0.170448392032557 
1327	 0.170533755159703 
1328	 0.170668464407149 
1329	 0.170837831294842 
1330	 0.170978257052722 
1331	 0.171085420254757 
1332	 0.171239178427441 
1333	 0.17139161112051 
1334	 0.171571214994823 
1335	 0.171758634602684 
1336	 0.17201124594649 
1337	 0.17216896794851 
1338	 0.172266030452167 
1339	 0.172440595777231 
1340	 0.172620345056423 
1341	 0.172787744559197 
1342	 0.172995044935664 
1343	 0.173174706231926 
1344	 0.17333177656986 
1345	 0.173466086378296 
1346	 0.173582661744968 
1347	 0.173730941481239 
1348	 0.173845702187008 
1349	 0.173997097136706 
1350	 0.174220218437929 
1351	 0.17439794449826 
1352	 0.174573130842561 
1353	 0.174714320287722 
1354	 0.174804017791841 
1355	 0.174934286791347 
1356	 0.175081709030141 
1357	 0.175197078463273 
1358	 0.175294912377972 
1359	 0.175430323747026 
1360	 0.175544053000145 
1361	 0.175681671996771 
1362	 0.175872461745013 
1363	 0.176073534424331 
1364	 0.176226632998252 
1365	 0.176373458409082 
1366	 0.176449741144132 
1367	 0.176465511042853 
1368	 0.176524503961531 
1369	 0.176560263358991 
1370	 0.176588712166909 
1371	 0.176628794145907 
1372	 0.176672122342433 
1373	 0.176679359073519 
1374	 0.17671819285936 
1375	 0.176820163808727 
1376	 0.176854463302918 
1377	 0.176830849592716 
1378	 0.176859764871235 
1379	 0.176896497265921 
1380	 0.176925510397275 
1381	 0.177015835234325 
1382	 0.17703202047478 
1383	 0.176963414583788 
1384	 0.176943504221844 
1385	 0.176941892699667 
1386	 0.176900516112512 
1387	 0.176839710961647 
1388	 0.176809050225937 
1389	 0.176715221339489 
1390	 0.176694805853266 
1391	 0.176722863448892 
1392	 0.176832869434542 
1393	 0.176907715414443 
1394	 0.17695114411165 
1395	 0.176957829814756 
1396	 0.176896520524011 
1397	 0.176911824209406 
1398	 0.176946058587182 
1399	 0.176949144285735 
1400	 0.176982234540679 
1401	 0.176979091912841 
1402	 0.176925187720837 
1403	 0.176895596162263 
1404	 0.176891103038907 
1405	 0.176838444678718 
1406	 0.176764460402498 
1407	 0.176678259463549 
1408	 0.176557571481208 
1409	 0.176454567652604 
1410	 0.176339355163577 
1411	 0.176234899556465 
1412	 0.17612560989465 
1413	 0.176042604135623 
1414	 0.175977143763478 
1415	 0.175918065447895 
1416	 0.175896570264418 
1417	 0.17584462086065 
1418	 0.175762324418372 
1419	 0.175707967833359 
1420	 0.175651459902344 
1421	 0.175607121893384 
1422	 0.175607550863761 
1423	 0.17558025878486 
1424	 0.175526571305896 
1425	 0.175486330877677 
1426	 0.175465855176195 
1427	 0.175450998229444 
1428	 0.175469091248924 
1429	 0.175500903967904 
1430	 0.175514113760297 
1431	 0.175527167432619 
1432	 0.175517967489563 
1433	 0.175496048570207 
1434	 0.175474181603363 
1435	 0.175425406403023 
1436	 0.175413830423335 
1437	 0.175418305988551 
1438	 0.175418194758254 
1439	 0.175450767279293 
1440	 0.175431589732942 
1441	 0.175372703460293 
1442	 0.175348574322448 
1443	 0.175291352245251 
1444	 0.175299545693277 
1445	 0.17535558342768 
1446	 0.175415133518048 
1447	 0.175507936464644 
1448	 0.175593719611968 
1449	 0.175650619581473 
1450	 0.17579209330718 
1451	 0.175995022309581 
1452	 0.176181009465261 
1453	 0.176412131177323 
1454	 0.176641823321793 
1455	 0.176848024753782 
1456	 0.177083194602027 
1457	 0.177347846909777 
1458	 0.177635449202768 
1459	 0.177967941013378 
1460	 0.178256389026116 
1461	 0.178545099802038 
1462	 0.17882946395201 
1463	 0.17907730748315 
1464	 0.179335179515029 
1465	 0.179611178292889 
1466	 0.179879977730941 
1467	 0.180127571809898 
1468	 0.18038434822419 
1469	 0.180657278993153 
1470	 0.180960054139465 
1471	 0.181241402744276 
1472	 0.181529473344236 
1473	 0.181812571254049 
1474	 0.182085817721798 
1475	 0.182362973054832 
1476	 0.182647681403302 
1477	 0.182928726921585 
1478	 0.183221421128704 
1479	 0.183463630739263 
1480	 0.183695449194359 
1481	 0.183893242566955 
1482	 0.184018305974034 
1483	 0.184207536624639 
1484	 0.184415445189974 
1485	 0.184613244780005 
1486	 0.184839009361083 
1487	 0.185033236912221 
1488	 0.185197523568788 
1489	 0.185375194223117 
1490	 0.185549814132911 
1491	 0.185726190677462 
1492	 0.185883999678918 
1493	 0.186086816712685 
1494	 0.18630492397158 
1495	 0.186542466047863 
1496	 0.186858257971524 
1497	 0.187089294347522 
1498	 0.187270418013053 
1499	 0.187487391312599 
1500	 0.187692781090451 
1501	 0.18787992534184 
1502	 0.188062854822982 
1503	 0.188272947271803 
1504	 0.188458488866607 
1505	 0.188668866557395 
1506	 0.188961151300946 
1507	 0.18919150039178 
1508	 0.189391301352962 
1509	 0.189579271693558 
1510	 0.189727106498799 
1511	 0.189889858139669 
1512	 0.1900349818971 
1513	 0.190198498530215 
1514	 0.190399260099535 
1515	 0.190568297565835 
1516	 0.190718582335807 
1517	 0.190882349833359 
1518	 0.191035053340572 
1519	 0.191182855481206 
1520	 0.191332484495555 
1521	 0.191512991111158 
1522	 0.191600752775225 
1523	 0.191692778522423 
1524	 0.191815709865445 
1525	 0.191923968802627 
1526	 0.192064835085038 
1527	 0.192271765771416 
1528	 0.192380205898278 
1529	 0.192440623203922 
1530	 0.19254595228973 
1531	 0.192625354109514 
1532	 0.192727216721235 
1533	 0.19286230165129 
1534	 0.192993817239956 
1535	 0.19312141538574 
1536	 0.193237925222193 
1537	 0.193370671833598 
1538	 0.19349088585459 
1539	 0.193584627121142 
1540	 0.193687317008131 
1541	 0.193791963855644 
1542	 0.193921922632844 
1543	 0.194054563597272 
1544	 0.194186064325677 
1545	 0.194333138153179 
1546	 0.19450069040931 
1547	 0.194661785660878 
1548	 0.194842309462869 
1549	 0.195079583098174 
1550	 0.195264997308571 
1551	 0.195418828765149 
1552	 0.195592371726224 
1553	 0.195766503094406 
1554	 0.195931609359855 
1555	 0.19608633927942 
1556	 0.196266069160662 
1557	 0.196457770298632 
1558	 0.196631087789209 
1559	 0.196840780593832 
1560	 0.196987294013685 
1561	 0.197061411234472 
1562	 0.197188768707659 
1563	 0.197308923981402 
1564	 0.197445196240626 
1565	 0.197612785769769 
1566	 0.197774129866231 
1567	 0.197921506831982 
1568	 0.198097036759531 
1569	 0.19830411881471 
1570	 0.198494573691485 
1571	 0.198707117984137 
1572	 0.198883815117676 
1573	 0.199022523502212 
1574	 0.199188642727508 
1575	 0.199363505332997 
1576	 0.199514207642195 
1577	 0.199655753805319 
1578	 0.199814189779518 
1579	 0.199951556029752 
1580	 0.200108486268771 
1581	 0.200297803062017 
1582	 0.200480745336068 
1583	 0.200693445013852 
1584	 0.200840898859861 
1585	 0.200933222325221 
1586	 0.201074885536117 
1587	 0.201183234260829 
1588	 0.20132575991548 
1589	 0.201551794449976 
1590	 0.201723380701744 
1591	 0.20184956732443 
1592	 0.202004009173795 
1593	 0.202158177976581 
1594	 0.202320950635822 
1595	 0.202514775400842 
1596	 0.202681844718832 
1597	 0.202850848715055 
1598	 0.202987316284927 
1599	 0.203063998781038 
1600	 0.203196306797951 
1601	 0.203331585754026 
1602	 0.203483244004047 
1603	 0.203709154506012 
1604	 0.203871766790818 
1605	 0.203991958840561 
1606	 0.204130045597584 
1607	 0.204223298486479 
1608	 0.204367891210675 
1609	 0.204583808937301 
1610	 0.204741276999948 
1611	 0.204897192140479 
1612	 0.205038225711857 
1613	 0.2051082833136 
1614	 0.205227223497198 
1615	 0.205399873655915 
1616	 0.205526917868538 
1617	 0.205648524461543 
1618	 0.205764134030919 
1619	 0.205814777842753 
1620	 0.205924212981275 
1621	 0.206069185810202 
1622	 0.206216705757587 
1623	 0.206443735819949 
1624	 0.206584480485721 
1625	 0.206687367268785 
1626	 0.206773964541652 
1627	 0.206772552348969 
1628	 0.206817808038009 
1629	 0.20687668023902 
1630	 0.206935304236162 
1631	 0.206999204670672 
1632	 0.207087994947928 
1633	 0.207200541567029 
1634	 0.207304485309191 
1635	 0.207409195290243 
1636	 0.207537573672448 
1637	 0.207688988129581 
1638	 0.207811406669834 
1639	 0.207961184300647 
1640	 0.208069970162537 
1641	 0.208101041191922 
1642	 0.208183688414492 
1643	 0.208288445442558 
1644	 0.208379309298015 
1645	 0.208503505421103 
1646	 0.208587230140019 
1647	 0.208598592555368 
1648	 0.208689534546874 
1649	 0.208848312536391 
1650	 0.208934955413327 
1651	 0.209025380434488 
1652	 0.209100496395789 
1653	 0.209128685404731 
1654	 0.209133530078375 
1655	 0.209134130731655 
1656	 0.209135368694903 
1657	 0.209102407816188 
1658	 0.209050043278524 
1659	 0.208998477612993 
1660	 0.208945902209285 
1661	 0.208842446093338 
1662	 0.208777826816467 
1663	 0.208783070465219 
1664	 0.20871386822128 
1665	 0.208617750512134 
1666	 0.20849450487073 
1667	 0.208342026615231 
1668	 0.208151378872968 
1669	 0.207931085298796 
1670	 0.207685399292534 
1671	 0.207383149260331 
1672	 0.207080339027179 
1673	 0.206773209127207 
1674	 0.206436514793518 
1675	 0.206084876006873 
1676	 0.205694384237228 
1677	 0.205259219873238 
1678	 0.204831889292449 
1679	 0.204360152782882 
1680	 0.203925837332228 
1681	 0.203574304317736 
1682	 0.203073955761729 
1683	 0.202506107067016 
1684	 0.201948661657659 
1685	 0.201272302893285 
1686	 0.200666747904223 
1687	 0.200146162603187 
1688	 0.199526088290945 
1689	 0.198874793079167 
1690	 0.198185788433685 
1691	 0.197442881466795 
1692	 0.196701460918842 
1693	 0.195900410258088 
1694	 0.195151715100659 
1695	 0.194408887741408 
1696	 0.193677915748474 
1697	 0.19304581445883 
1698	 0.192256052951703 
1699	 0.191357813330042 
1700	 0.190537594688226 
1701	 0.189633436283498 
1702	 0.188858485960245 
1703	 0.188208162337748 
1704	 0.187498180164946 
1705	 0.186784981153244 
1706	 0.186008045432681 
1707	 0.185327303415051 
1708	 0.184678067567859 
1709	 0.184110876999723 
1710	 0.18360291485828 
1711	 0.18309687681295 
1712	 0.182636616851421 
1713	 0.182174317313241 
1714	 0.181804656565679 
1715	 0.181467114115967 
1716	 0.18109966804337 
1717	 0.1808126110949 
1718	 0.18047455362061 
1719	 0.180161696031867 
1720	 0.179939662550072 
1721	 0.179670924884047 
1722	 0.179459666104293 
1723	 0.179350844260307 
1724	 0.179256768124317 
1725	 0.179241966583175 
1726	 0.179335209831386 
1727	 0.179466216909971 
1728	 0.179671331325531 
1729	 0.179983313063604 
1730	 0.180290134364303 
1731	 0.180645846196938 
1732	 0.181132377220986 
1733	 0.181631846175862 
1734	 0.182265776821243 
1735	 0.182891542595097 
1736	 0.183383829772034 
1737	 0.183971054428771 
1738	 0.184494549105841 
1739	 0.18493802048832 
1740	 0.185410051073992 
1741	 0.185701457245254 
1742	 0.185812317408981 
1743	 0.185960462249357 
1744	 0.186029172251222 
1745	 0.186070489911343 
1746	 0.186091340651098 
1747	 0.186131924034721 
1748	 0.18612622323149 
1749	 0.186108700802449 
1750	 0.186101966078271 
1751	 0.186077845750713 
1752	 0.186007539719337 
1753	 0.186035426717405 
1754	 0.186102078666565 
1755	 0.186171777233238 
1756	 0.186254012529357 
1757	 0.186263912617342 
1758	 0.186468217729672 
1759	 0.186777940608644 
1760	 0.187109302873135 
1761	 0.187520303578676 
1762	 0.187942377458702 
1763	 0.188344744788738 
1764	 0.188837071872198 
1765	 0.189444251893979 
1766	 0.190058119858185 
1767	 0.1906353337633 
1768	 0.191249130838117 
1769	 0.191959309277907 
1770	 0.192625065044666 
1771	 0.193291811707697 
1772	 0.194030750608915 
1773	 0.19467752826469 
1774	 0.195261410086489 
1775	 0.19587104814756 
1776	 0.196440498635875 
1777	 0.19693113918413 
1778	 0.197449537255323 
1779	 0.197922344741715 
1780	 0.198261127646045 
1781	 0.198572194702046 
1782	 0.198862960543265 
1783	 0.199182711663946 
1784	 0.199547120107874 
1785	 0.199819557674882 
1786	 0.200093028633283 
1787	 0.200295187196493 
1788	 0.200563514119183 
1789	 0.200896037656692 
1790	 0.201176443632443 
1791	 0.201434008888101 
1792	 0.201699815722581 
1793	 0.202012975683962 
1794	 0.202170293705164 
1795	 0.202283311449638 
1796	 0.202408174850865 
1797	 0.202634235872318 
1798	 0.20291140343446 
1799	 0.203147769268784 
1800	 0.203357922743076 
1801	 0.200489334653569 
1802	 0.200628428501786 
1803	 0.2008090397855 
1804	 0.200964565853611 
1805	 0.201137740067796 
1806	 0.201313949196481 
1807	 0.201579893479082 
1808	 0.201718416344067 
1809	 0.201731664517364 
1810	 0.20186617443799 
1811	 0.201989028483845 
1812	 0.202127403267071 
1813	 0.202331258825195 
1814	 0.202591409321029 
1815	 0.202664317632865 
1816	 0.202815384689725 
1817	 0.202994240545939 
1818	 0.203173939601452 
1819	 0.203362243469808 
1820	 0.203592301796016 
1821	 0.203829651038399 
1822	 0.204081640988684 
1823	 0.204334991603104 
1824	 0.204543771585849 
1825	 0.204745085798082 
1826	 0.204904025269868 
1827	 0.204938731215825 
1828	 0.205117061008365 
1829	 0.205341445239493 
1830	 0.205556830499212 
1831	 0.205831857867902 
1832	 0.206094345017053 
1833	 0.206280769207449 
1834	 0.206498329544697 
1835	 0.206689967053111 
1836	 0.206881092775143 
1837	 0.207077520603018 
1838	 0.207281845105126 
1839	 0.207471780283565 
1840	 0.207653422921698 
1841	 0.207816417642692 
1842	 0.207946617914077 
1843	 0.208116144131468 
1844	 0.20827950152519 
1845	 0.208475000207922 
1846	 0.208676222233433 
1847	 0.208878178517136 
1848	 0.209040806241858 
1849	 0.209186433002078 
1850	 0.209310191266897 
1851	 0.209390156337371 
1852	 0.209482364958388 
1853	 0.209664783408196 
1854	 0.20978740548254 
1855	 0.209850178873705 
1856	 0.209899214904799 
1857	 0.209927119431613 
1858	 0.209988938492391 
1859	 0.210056318368586 
1860	 0.210247008245437 
1861	 0.210284921862905 
1862	 0.2102244997364 
1863	 0.210192738741567 
1864	 0.210175055555017 
1865	 0.210149472781606 
1866	 0.210148770427892 
1867	 0.210125859111508 
1868	 0.210043637750473 
1869	 0.209963786996271 
1870	 0.209893279826319 
1871	 0.20985946289338 
1872	 0.209739518069147 
1873	 0.209589937906245 
1874	 0.2094359255584 
1875	 0.209198202121698 
1876	 0.208943451570312 
1877	 0.208649256080694 
1878	 0.208341234421732 
1879	 0.208031955485026 
1880	 0.20769499568605 
1881	 0.20731423698208 
1882	 0.206914448241509 
1883	 0.206467875234443 
1884	 0.205973958334142 
1885	 0.20545355065977 
1886	 0.20491498789071 
1887	 0.204303231975136 
1888	 0.20363259767114 
1889	 0.202951097655769 
1890	 0.202237728557966 
1891	 0.201550306588126 
1892	 0.200934180467361 
1893	 0.20025057718846 
1894	 0.199538376438243 
1895	 0.198824585840156 
1896	 0.198077487865307 
1897	 0.197213591513704 
1898	 0.19644589071378 
1899	 0.19570075829405 
1900	 0.194993064743186 
1901	 0.194325885773563 
1902	 0.19357039596607 
1903	 0.192935805551282 
1904	 0.192316464200404 
1905	 0.191701314682222 
1906	 0.191115543060314 
1907	 0.190697155815807 
1908	 0.190178925247571 
1909	 0.189676716219127 
1910	 0.189305244585814 
1911	 0.188879890098476 
1912	 0.188472901023292 
1913	 0.188081215168865 
1914	 0.187710900714756 
1915	 0.187391095108005 
1916	 0.187095498319791 
1917	 0.186857126461293 
1918	 0.186698201629304 
1919	 0.186506952134416 
1920	 0.186330750235839 
1921	 0.186174096927649 
1922	 0.18602127900585 
1923	 0.185917567884892 
1924	 0.185755500313949 
1925	 0.185562089610035 
1926	 0.185406715252606 
1927	 0.185216687067817 
1928	 0.185048262322559 
1929	 0.184891130850079 
1930	 0.184838129127683 
1931	 0.184718173333949 
1932	 0.184644429087557 
1933	 0.184649317235923 
1934	 0.184616056620877 
1935	 0.184612589274159 
1936	 0.184645091383656 
1937	 0.184699894663563 
1938	 0.184776540459337 
1939	 0.184893096621017 
1940	 0.185062664707527 
1941	 0.185198968061741 
1942	 0.185353244191284 
1943	 0.185501055555718 
1944	 0.185614965355724 
1945	 0.185765061077005 
1946	 0.185956208332886 
1947	 0.186124179768299 
1948	 0.186384661053754 
1949	 0.18675140044776 
1950	 0.187033817670939 
1951	 0.187328468633751 
1952	 0.187615189150425 
1953	 0.1878752536944 
1954	 0.188055643132185 
1955	 0.188361453002656 
1956	 0.1887051149797 
1957	 0.189041722128528 
1958	 0.18941416671924 
1959	 0.189724223781271 
1960	 0.19005154381392 
1961	 0.190352105347014 
1962	 0.190621156693618 
1963	 0.190894026347851 
1964	 0.191137731855548 
1965	 0.191392556500078 
1966	 0.191652486167195 
1967	 0.191907331198812 
1968	 0.192155318799915 
1969	 0.192497160007857 
1970	 0.192726644181108 
1971	 0.192916485681625 
1972	 0.193182100403322 
1973	 0.193317716335857 
1974	 0.193538984469876 
1975	 0.193847356864965 
1976	 0.194120555140594 
1977	 0.194398575338937 
1978	 0.194664101494087 
1979	 0.194944092867536 
1980	 0.195142146054752 
1981	 0.195382477766419 
1982	 0.195622723942563 
1983	 0.195918334074524 
1984	 0.196227649936081 
1985	 0.19646643831387 
1986	 0.196781307236637 
1987	 0.197072574978436 
1988	 0.197326284585875 
1989	 0.197625038921648 
1990	 0.197941887328341 
1991	 0.198278397755915 
1992	 0.198639236142414 
1993	 0.199032989433172 
1994	 0.199403854545354 
1995	 0.199770535763447 
1996	 0.200067112930814 
1997	 0.200418114610927 
1998	 0.200802211035898 
1999	 0.201221542773453 
2000	 0.201602478558713 
2001	 0.202057885907933 
2002	 0.202378275983159 
2003	 0.202612225282346 
2004	 0.202869318235981 
2005	 0.203021230241119 
2006	 0.203252632344616 
2007	 0.203539791684448 
2008	 0.203803782448417 
2009	 0.204042775844225 
2010	 0.204306609769747 
2011	 0.204507370744828 
2012	 0.204686838751858 
2013	 0.204851564133615 
2014	 0.204999189551875 
2015	 0.205129359457256 
2016	 0.205224040056819 
2017	 0.205316938600698 
2018	 0.205418273074162 
2019	 0.205508284655133 
2020	 0.205567025766848 
2021	 0.205653887434609 
2022	 0.20573230096516 
2023	 0.205733400403896 
2024	 0.205781541963083 
2025	 0.205822672000486 
2026	 0.205856421912764 
2027	 0.205904315616052 
2028	 0.20591762476698 
2029	 0.205902401339951 
2030	 0.205891232087325 
2031	 0.205885519824605 
2032	 0.205844299392258 
2033	 0.205789526784367 
2034	 0.20571466807951 
2035	 0.205591648268513 
2036	 0.205467013055119 
2037	 0.205387124500052 
2038	 0.205294063918239 
2039	 0.205230285415511 
2040	 0.205195156661454 
2041	 0.20516667093006 
2042	 0.205166880064746 
2043	 0.205128032360591 
2044	 0.205107978907914 
2045	 0.205058705001826 
2046	 0.204927886377677 
2047	 0.2048714489525 
2048	 0.204869518949517 
2049	 0.204824390594721 
2050	 0.204757070014706 
2051	 0.204747843744787 
2052	 0.204762734471028 
2053	 0.204695646364456 
2054	 0.204677619111926 
2055	 0.204735801579158 
2056	 0.204709331950775 
2057	 0.204633777863397 
2058	 0.204564640842944 
2059	 0.204407193036261 
2060	 0.204372873500637 
2061	 0.204427383498885 
2062	 0.204427891019801 
2063	 0.204479264008221 
2064	 0.204503199558443 
2065	 0.204471255966247 
2066	 0.204445393104014 
2067	 0.204425318624751 
2068	 0.204471102489363 
2069	 0.204522325602971 
2070	 0.204606277516098 
2071	 0.204631339918868 
2072	 0.20468659809329 
2073	 0.204675806585589 
2074	 0.204570761872006 
2075	 0.204518814280956 
2076	 0.204455879776479 
2077	 0.204419417951302 
2078	 0.20441688665336 
2079	 0.204387986684649 
2080	 0.204356968777512 
2081	 0.204331870988743 
2082	 0.204305523673288 
2083	 0.204274069649828 
2084	 0.204141762255461 
2085	 0.204139902887574 
2086	 0.204142844319671 
2087	 0.204134398138195 
2088	 0.204165351505589 
2089	 0.204314746830187 
2090	 0.204347493542626 
2091	 0.20432506512335 
2092	 0.204327739083345 
2093	 0.20432085366796 
2094	 0.204294373629721 
2095	 0.204275421945741 
2096	 0.204226629754691 
2097	 0.204159971428906 
2098	 0.204026560533977 
2099	 0.203937437013255 
2100	 0.203882251151831 
2101	 0.203800464087151 
2102	 0.203710267230598 
2103	 0.203666104344354 
2104	 0.203651717654622 
2105	 0.203571481696225 
2106	 0.203513812997948 
2107	 0.203424597839615 
2108	 0.203249688504668 
2109	 0.2031151153145 
2110	 0.20299693340488 
2111	 0.202890158659898 
2112	 0.202799336785348 
2113	 0.202683162404303 
2114	 0.202596155499325 
2115	 0.202463436898407 
2116	 0.202246215744512 
2117	 0.202078397034521 
2118	 0.20192334664725 
2119	 0.201766335551545 
2120	 0.201622520644972 
2121	 0.201501389465873 
2122	 0.201391504828831 
2123	 0.201291632642769 
2124	 0.201191483419897 
2125	 0.201122737543432 
2126	 0.201030579231556 
2127	 0.200877146725497 
2128	 0.200820342679586 
2129	 0.200806756182523 
2130	 0.200799216527515 
2131	 0.200879851182205 
2132	 0.200912409881878 
2133	 0.200940914456159 
2134	 0.2009296690006 
2135	 0.200945797703504 
2136	 0.200949378407332 
2137	 0.200926453504549 
2138	 0.200879906198549 
2139	 0.200879843235191 
2140	 0.200839422424494 
2141	 0.200890053219624 
2142	 0.2010486257397 
2143	 0.20110678118966 
2144	 0.201170348330765 
2145	 0.201218073958731 
2146	 0.201168783685708 
2147	 0.201217007354836 
2148	 0.201331567227001 
2149	 0.201416847114472 
2150	 0.201527909383267 
2151	 0.201643184439606 
2152	 0.20174687049041 
2153	 0.201834184887063 
2154	 0.202067865246961 
2155	 0.202281390184712 
2156	 0.202445624835526 
2157	 0.202681563275712 
2158	 0.202738519599018 
2159	 0.202627927349629 
2160	 0.202636986928469 
2161	 0.202588513140489 
2162	 0.202612108042095 
2163	 0.202769189870125 
2164	 0.202779190138179 
2165	 0.202710477668693 
2166	 0.202686450189083 
2167	 0.202629178901429 
2168	 0.202573934713779 
2169	 0.20250481840566 
2170	 0.202484400206282 
2171	 0.202501450060399 
2172	 0.20245864641056 
2173	 0.202358674184199 
2174	 0.202441496948621 
2175	 0.202303893553928 
2176	 0.202147964501366 
2177	 0.202119011463914 
2178	 0.202121471138404 
2179	 0.202166571358944 
2180	 0.20235236537534 
2181	 0.202397034931916 
2182	 0.202439007831971 
2183	 0.202390746173653 
2184	 0.20222152803849 
2185	 0.202126479439153 
2186	 0.201937026694964 
2187	 0.201904107956063 
2188	 0.202046477651146 
2189	 0.202043670843649 
2190	 0.20207140260671 
2191	 0.202041806876853 
2192	 0.20188622469511 
2193	 0.201776921450738 
2194	 0.201671089198509 
2195	 0.201572588001162 
2196	 0.201467063066399 
2197	 0.201365185716288 
2198	 0.201269105468012 
2199	 0.201209089181733 
2200	 0.201149012020064 
2201	 0.201112545120166 
2202	 0.201013791547896 
2203	 0.200908618207031 
2204	 0.2008009207871 
2205	 0.200667235799277 
2206	 0.200492370354749 
2207	 0.200322197870497 
2208	 0.20009655013006 
2209	 0.199761033602828 
2210	 0.199525233061378 
2211	 0.199332527563849 
2212	 0.199098434782134 
2213	 0.198882764492922 
2214	 0.198635211314229 
2215	 0.198298774423888 
2216	 0.198072193049173 
2217	 0.197972162914125 
2218	 0.197749602389185 
2219	 0.197520751055883 
2220	 0.197260229490201 
2221	 0.196893052568935 
2222	 0.196510603331409 
2223	 0.196306657554632 
2224	 0.196057541512389 
2225	 0.195747386575845 
2226	 0.19546688487622 
2227	 0.195054842188087 
2228	 0.19450543737709 
2229	 0.193997188614133 
2230	 0.193415461855899 
2231	 0.192936753790535 
2232	 0.19254749843692 
2233	 0.191998129342849 
2234	 0.191481432536065 
2235	 0.190813732837589 
2236	 0.189992133185342 
2237	 0.189108089707994 
2238	 0.188103726251277 
2239	 0.187131421928052 
2240	 0.186118093199737 
2241	 0.185024455866294 
2242	 0.18394962287562 
2243	 0.18275124884778 
2244	 0.181359233336841 
2245	 0.180023732366767 
2246	 0.178679637501493 
2247	 0.177303383691062 
2248	 0.175902713899632 
2249	 0.174454787853264 
2250	 0.172968808273368 
2251	 0.171452226690681 
2252	 0.169822830547966 
2253	 0.168318731763625 
2254	 0.166798383288082 
2255	 0.165212488706003 
2256	 0.163641688328414 
2257	 0.162093796796186 
2258	 0.160656868729308 
2259	 0.159289265060884 
2260	 0.157902493464465 
2261	 0.156619714946607 
2262	 0.155286260412161 
2263	 0.153825851058165 
2264	 0.152550349572073 
2265	 0.151395403705539 
2266	 0.15024036267433 
2267	 0.149224700114403 
2268	 0.148098312886545 
2269	 0.146874708761151 
2270	 0.145796864974899 
2271	 0.144763319258666 
2272	 0.143714875946404 
2273	 0.142808778875611 
2274	 0.141774714107889 
2275	 0.1405981140136 
2276	 0.139528457184759 
2277	 0.138453741751516 
2278	 0.137450637501428 
2279	 0.136603762303213 
2280	 0.135603495239874 
2281	 0.134559796057152 
2282	 0.133506089199578 
2283	 0.132413612614333 
2284	 0.131198452427778 
2285	 0.130034553916395 
2286	 0.128903038432463 
2287	 0.127485999470238 
2288	 0.126091437324309 
2289	 0.124886104059569 
2290	 0.123569871267442 
2291	 0.122324283644425 
2292	 0.121262351501272 
2293	 0.119940006073849 
2294	 0.118456130972601 
2295	 0.117288645187231 
2296	 0.116053207948505 
2297	 0.114842728758753 
2298	 0.113709947960271 
2299	 0.112706904899147 
2300	 0.11162868914958 
2301	 0.110851466400869 
2302	 0.110268169236414 
2303	 0.109916467937533 
2304	 0.109759810463114 
2305	 0.109766341756813 
2306	 0.110117247678397 
2307	 0.110436084696294 
2308	 0.110723365165825 
2309	 0.111366431941946 
2310	 0.112224339710474 
2311	 0.113242050163395 
2312	 0.114707351525487 
2313	 0.115952656080037 
2314	 0.117284436762142 
2315	 0.118481397713106 
2316	 0.119501982024436 
2317	 0.120632546211226 
2318	 0.121845558624007 
2319	 0.122906458478038 
2320	 0.124040631240635 
2321	 0.124909167510819 
2322	 0.125619503739814 
2323	 0.126119589347772 
2324	 0.126327689368327 
2325	 0.126596373854118 
2326	 0.126604246622883 
2327	 0.126733455312038 
2328	 0.127073775888491 
2329	 0.127124904975888 
2330	 0.127095946564722 
2331	 0.127001401554596 
2332	 0.126392185396992 
2333	 0.12583947326828 
2334	 0.12530362652347 
2335	 0.124574362710881 
2336	 0.124119215672741 
2337	 0.123470762029204 
2338	 0.122638879941355 
2339	 0.121912225408013 
2340	 0.120835007326584 
2341	 0.119778775969174 
2342	 0.118891174265279 
2343	 0.11798491142641 
2344	 0.117365504636257 
2345	 0.116927666861063 
2346	 0.11668548287258 
2347	 0.116630113431182 
2348	 0.116556465555943 
2349	 0.116828632304935 
2350	 0.117284220029821 
2351	 0.117918346865299 
2352	 0.119086918891447 
2353	 0.12023532641291 
2354	 0.121060355113328 
2355	 0.121797366073526 
2356	 0.122326599696079 
2357	 0.122939875689423 
2358	 0.123705573018688 
2359	 0.124263511218371 
2360	 0.124816403552892 
2361	 0.125319454210341 
2362	 0.125524328957857 
2363	 0.125613592739616 
2364	 0.125580915054743 
2365	 0.125211693948824 
2366	 0.124980929649759 
2367	 0.125070399794439 
2368	 0.125201666611692 
2369	 0.12557217721302 
2370	 0.125967274923834 
2371	 0.125919927206352 
2372	 0.125696949079809 
2373	 0.125432599638875 
2374	 0.125165556949963 
2375	 0.125204434251597 
2376	 0.125358451976054 
2377	 0.125481440501748 
2378	 0.125677955994115 
2379	 0.125773491639779 
2380	 0.125936632054633 
2381	 0.126114911047427 
2382	 0.126071112053604 
2383	 0.125782316476455 
2384	 0.12567988907575 
2385	 0.125411704941669 
2386	 0.125466417202226 
2387	 0.125853570010757 
2388	 0.125963304350844 
2389	 0.126144227687002 
2390	 0.126093245821131 
2391	 0.125773828791892 
2392	 0.125642793041699 
2393	 0.125390975829354 
2394	 0.125355970660667 
2395	 0.125453586564798 
2396	 0.125610396754262 
2397	 0.126091471243471 
2398	 0.126225593091283 
2399	 0.126246779288966 
2400	 0.126315580010179 
2401	 0.126089102235059 
2402	 0.12599789505471 
2403	 0.126161240062065 
2404	 0.126212619654546 
2405	 0.126364301840204 
2406	 0.126742198420358 
2407	 0.127040641228847 
2408	 0.127152779836267 
2409	 0.127061998881149 
2410	 0.126963638574602 
2411	 0.127155779015538 
2412	 0.126920608113356 
2413	 0.126727188418978 
2414	 0.127255052034588 
2415	 0.126976896721149 
2416	 0.126789870576193 
2417	 0.12719280839322 
2418	 0.126698515269143 
2419	 0.126606207631897 
2420	 0.126657361750743 
2421	 0.126319404174177 
2422	 0.126444412783638 
2423	 0.126501185432332 
2424	 0.12696924726088 
2425	 0.127328054575438 
2426	 0.127232958187804 
2427	 0.127109783021937 
2428	 0.126501396428181 
2429	 0.126549739721132 
2430	 0.126988235700942 
2431	 0.127187226626735 
2432	 0.12713773642275 
2433	 0.12640739415425 
2434	 0.125962504211118 
2435	 0.125914823554893 
2436	 0.126346832557893 
2437	 0.126932457891403 
2438	 0.127104129983159 
2439	 0.127149823543733 
2440	 0.126680153112851 
2441	 0.126208559335726 
2442	 0.126073574484582 
2443	 0.125686996733092 
2444	 0.125526469213384 
2445	 0.125809458826645 
2446	 0.12601538051095 
2447	 0.125823094833737 
2448	 0.125552636017844 
2449	 0.125801276194261 
2450	 0.125737510857669 
2451	 0.125735723883221 
2452	 0.126280954767677 
2453	 0.125841885116735 
2454	 0.125034208027954 
2455	 0.124810347875283 
2456	 0.124284387293032 
2457	 0.123891742721659 
2458	 0.124147969062463 
2459	 0.124555979803952 
2460	 0.125348819058148 
2461	 0.126235825762703 
2462	 0.126814068324932 
2463	 0.126632487053715 
2464	 0.125740047505533 
2465	 0.125548204171853 
2466	 0.125651732437239 
2467	 0.125837751256836 
2468	 0.126626545280943 
2469	 0.126510561705548 
2470	 0.126025679255119 
2471	 0.126264070672144 
2472	 0.126490696225205 
2473	 0.127292689317056 
2474	 0.128003483444398 
2475	 0.128268509909289 
2476	 0.128158753689275 
2477	 0.127692674852822 
2478	 0.127874367954987 
2479	 0.128451560878757 
2480	 0.129963658430172 
2481	 0.130611463940088 
2482	 0.131234578392907 
2483	 0.130786703090235 
2484	 0.131133202025805 
2485	 0.13144147275044 
2486	 0.130092182167367 
2487	 0.12977366188734 
2488	 0.12979111478849 
2489	 0.129361699198348 
2490	 0.129753584028211 
2491	 0.13091862299397 
2492	 0.131079237747191 
2493	 0.130952285798748 
2494	 0.132609928440416 
2495	 0.133575794052631 
2496	 0.133805561688206 
2497	 0.134119499076601 
2498	 0.133556818979557 
2499	 0.13374790794639 
2500	 0.134911067505615 
