Wavelength	Tablay400062.asd
350	 0.328816206064364 
351	 0.405372017606572 
352	 0.379931671201383 
353	 0.220303376009289 
354	 0.199019838750014 
355	 0.268181917838424 
356	 0.339758258203234 
357	 0.34130979580596 
358	 0.368602275533719 
359	 0.301189146777581 
360	 0.208577937765865 
361	 0.225082104507512 
362	 0.267725448416804 
363	 0.284609136390105 
364	 0.259356570801671 
365	 0.225911143415774 
366	 0.197290862175585 
367	 0.195132282183416 
368	 0.221162030843844 
369	 0.224096718000791 
370	 0.221086983064813 
371	 0.235078074269041 
372	 0.275217397421629 
373	 0.226094840956231 
374	 0.188283900537078 
375	 0.19985688145936 
376	 0.182729237588218 
377	 0.172844471617728 
378	 0.189852349993045 
379	 0.225372204581724 
380	 0.186004344560305 
381	 0.183170116752512 
382	 0.18892150205672 
383	 0.117172418412108 
384	 0.163596162552385 
385	 0.199399651932369 
386	 0.169977409646309 
387	 0.181480781485554 
388	 0.186374539797296 
389	 0.186696868231515 
390	 0.188510095131002 
391	 0.163910779819795 
392	 0.153332235154425 
393	 0.163553671082061 
394	 0.178540587291109 
395	 0.164452272847722 
396	 0.155255804219928 
397	 0.157606760521553 
398	 0.120838774711273 
399	 0.121794360461132 
400	 0.143257428742713 
401	 0.149842578256465 
402	 0.146054667040912 
403	 0.143909612046395 
404	 0.141640873791933 
405	 0.13005795388439 
406	 0.144976240944993 
407	 0.14505196191268 
408	 0.119720965559241 
409	 0.137530538171053 
410	 0.138987534375777 
411	 0.129940118509109 
412	 0.131385614638721 
413	 0.130483133742143 
414	 0.123208421329074 
415	 0.11679177728787 
416	 0.125551540464046 
417	 0.125258206083128 
418	 0.120772218878498 
419	 0.119706267095801 
420	 0.126433201737954 
421	 0.116812720030437 
422	 0.106715447696137 
423	 0.120264241616324 
424	 0.121666571785785 
425	 0.119444294898088 
426	 0.119152619057279 
427	 0.119322913799127 
428	 0.118423250481785 
429	 0.11554188378254 
430	 0.112074203135735 
431	 0.11661446168141 
432	 0.113652182778856 
433	 0.108521453910925 
434	 0.115016457249025 
435	 0.116145769630784 
436	 0.113345529795464 
437	 0.111315556015411 
438	 0.116888368405154 
439	 0.113803213936755 
440	 0.110212414818489 
441	 0.115651085022661 
442	 0.116515509259956 
443	 0.113485245335806 
444	 0.110027484419873 
445	 0.110893587160853 
446	 0.11170674953981 
447	 0.113448924983631 
448	 0.11599921433519 
449	 0.11513413981658 
450	 0.113678321647938 
451	 0.113812687905649 
452	 0.116316316453024 
453	 0.115614557105632 
454	 0.113056551644546 
455	 0.111435533318618 
456	 0.1143158327157 
457	 0.113972619706878 
458	 0.112892613045046 
459	 0.113855197100129 
460	 0.113925764310781 
461	 0.113753560611279 
462	 0.113479043243038 
463	 0.113243026853079 
464	 0.115720537914768 
465	 0.115546371896443 
466	 0.112647646622124 
467	 0.116133769396024 
468	 0.115433928639365 
469	 0.112571015617768 
470	 0.112070399046545 
471	 0.113458258089551 
472	 0.113941406981167 
473	 0.112743589405623 
474	 0.111017687904786 
475	 0.113399805755636 
476	 0.116129747643293 
477	 0.115834095137463 
478	 0.112163966619282 
479	 0.111609561744365 
480	 0.112957933073378 
481	 0.112573121177803 
482	 0.112317923064129 
483	 0.113288432918304 
484	 0.114356793607082 
485	 0.112161069134065 
486	 0.111720199693605 
487	 0.11271629530805 
488	 0.113666475248991 
489	 0.113570263396778 
490	 0.112831520311599 
491	 0.112189738888489 
492	 0.11238545761826 
493	 0.112232399828658 
494	 0.112407697800678 
495	 0.113014853906425 
496	 0.11288309984898 
497	 0.113263407652554 
498	 0.113259627608247 
499	 0.112113183046088 
500	 0.112454141509672 
501	 0.113369245683046 
502	 0.113960065207867 
503	 0.113587561787253 
504	 0.113696679230057 
505	 0.113527997032943 
506	 0.112781956365327 
507	 0.113143396555642 
508	 0.113905051286415 
509	 0.114429653459198 
510	 0.114261838019467 
511	 0.114078255789943 
512	 0.114046607714505 
513	 0.114209131758431 
514	 0.114517647542893 
515	 0.114903813281449 
516	 0.115314918240402 
517	 0.115671416632761 
518	 0.115710249567845 
519	 0.116052088978025 
520	 0.116751455089798 
521	 0.117441176664976 
522	 0.117717628170589 
523	 0.118098844819078 
524	 0.118773969915072 
525	 0.118997165382421 
526	 0.11957539383261 
527	 0.120739409926431 
528	 0.122278652340733 
529	 0.1228995710024 
530	 0.123455990807929 
531	 0.124352191148258 
532	 0.125381774164543 
533	 0.127104759235654 
534	 0.128634160322355 
535	 0.129560293227991 
536	 0.131730568441184 
537	 0.133886158686339 
538	 0.135828065156468 
539	 0.138031497026076 
540	 0.141414854929803 
541	 0.144731724799982 
542	 0.147620479940611 
543	 0.151478919973596 
544	 0.15529683533457 
545	 0.159562034405231 
546	 0.164837163857893 
547	 0.170012469954698 
548	 0.175648547005303 
549	 0.181811332418972 
550	 0.18810502433199 
551	 0.195161497608339 
552	 0.202604193463869 
553	 0.210142007302015 
554	 0.218080774880158 
555	 0.226572210871954 
556	 0.235449711889631 
557	 0.244442365396144 
558	 0.254016920613744 
559	 0.263295030836565 
560	 0.272201017171457 
561	 0.281929008812374 
562	 0.291528182411316 
563	 0.300823072981858 
564	 0.309767099970479 
565	 0.317973356950464 
566	 0.326109707302626 
567	 0.33407391068343 
568	 0.341261413237957 
569	 0.348439680354198 
570	 0.355047655276303 
571	 0.360793086988427 
572	 0.366347829385905 
573	 0.37124213152786 
574	 0.375753975516017 
575	 0.380343617364838 
576	 0.384761680690992 
577	 0.388570034850386 
578	 0.391871513335209 
579	 0.395369034764061 
580	 0.398406910603417 
581	 0.40113036127965 
582	 0.403707178422597 
583	 0.405681604418606 
584	 0.408061873527358 
585	 0.410541448464594 
586	 0.41214219778104 
587	 0.413537376408924 
588	 0.414842451353829 
589	 0.416103323334817 
590	 0.417352187159899 
591	 0.41864183994742 
592	 0.419702214670116 
593	 0.420356156939431 
594	 0.421202184354578 
595	 0.422249701648867 
596	 0.423343197743231 
597	 0.424226807674082 
598	 0.425202834273946 
599	 0.425889172601139 
600	 0.426168896390214 
601	 0.426824802591661 
602	 0.427435734616628 
603	 0.427925687980104 
604	 0.428349664640109 
605	 0.428644543494521 
606	 0.429031795148001 
607	 0.429486091527813 
608	 0.429657295077502 
609	 0.430072724409821 
610	 0.430573662263733 
611	 0.430903042819915 
612	 0.431055754378158 
613	 0.431244464723706 
614	 0.431659609138546 
615	 0.432363986269726 
616	 0.432364058555544 
617	 0.432372554840336 
618	 0.432747934691249 
619	 0.432794195515674 
620	 0.433276648328292 
621	 0.433739749224074 
622	 0.433589731938986 
623	 0.433560828460082 
624	 0.433732680006721 
625	 0.434068954070524 
626	 0.434435955571074 
627	 0.434553059433479 
628	 0.434487440060835 
629	 0.434440043069002 
630	 0.434786093403834 
631	 0.434951872663069 
632	 0.434985868668124 
633	 0.43515771647329 
634	 0.435148840658656 
635	 0.435244092502619 
636	 0.4354468097301 
637	 0.435362050494159 
638	 0.435356693137975 
639	 0.435549711768673 
640	 0.435863899069488 
641	 0.435815664470716 
642	 0.435720870594039 
643	 0.435732806645186 
644	 0.435855638891457 
645	 0.435722156300494 
646	 0.435662508983564 
647	 0.435821774537225 
648	 0.435914414928158 
649	 0.435867528911672 
650	 0.435853340097422 
651	 0.43600946427704 
652	 0.435966767177722 
653	 0.435839980368696 
654	 0.435794981630996 
655	 0.43598062730214 
656	 0.435889022598461 
657	 0.435759858169948 
658	 0.435799088536363 
659	 0.435897933231168 
660	 0.435923596635564 
661	 0.435821868024336 
662	 0.435615762472622 
663	 0.435487921016045 
664	 0.435460202715546 
665	 0.435464106862215 
666	 0.435359268082757 
667	 0.435187051123289 
668	 0.435080772033326 
669	 0.435090374901776 
670	 0.435008022511045 
671	 0.434960140299929 
672	 0.434877175852931 
673	 0.434663661412096 
674	 0.434665442803978 
675	 0.434633978557416 
676	 0.434486170057081 
677	 0.434395374727519 
678	 0.434445008159911 
679	 0.434369606891516 
680	 0.434039066068933 
681	 0.433981998578461 
682	 0.433889138943298 
683	 0.43378188548386 
684	 0.433806330595068 
685	 0.433573279648389 
686	 0.43335192831186 
687	 0.433258379358357 
688	 0.433098666243171 
689	 0.432999133069452 
690	 0.432928999070441 
691	 0.432818663145895 
692	 0.432592130710066 
693	 0.43247424230002 
694	 0.432426283159741 
695	 0.432261296593918 
696	 0.432121852130323 
697	 0.431929771278999 
698	 0.431701543266131 
699	 0.431635482229265 
700	 0.431652853431231 
701	 0.431579146653268 
702	 0.4313178343658 
703	 0.431162039366914 
704	 0.431015217236951 
705	 0.4308779832545 
706	 0.430806442703774 
707	 0.430672639327966 
708	 0.430524676877156 
709	 0.430393236546827 
710	 0.430240152852863 
711	 0.430080231039633 
712	 0.429945796969495 
713	 0.429838517854666 
714	 0.429608579080293 
715	 0.429491822682488 
716	 0.429448235886174 
717	 0.429259279099396 
718	 0.429100936836882 
719	 0.429013765702698 
720	 0.428956981219611 
721	 0.428779969691342 
722	 0.428747792442884 
723	 0.428671703838144 
724	 0.428372157453019 
725	 0.428245431619944 
726	 0.428288370828332 
727	 0.428308921431476 
728	 0.428051526348054 
729	 0.427988103726172 
730	 0.427946269730768 
731	 0.427848422417171 
732	 0.42792211609566 
733	 0.427785954974676 
734	 0.427592701995014 
735	 0.427546522093733 
736	 0.42740639774896 
737	 0.427387121989756 
738	 0.427462525706775 
739	 0.427450080939524 
740	 0.427351765154282 
741	 0.42721218139481 
742	 0.42712034380917 
743	 0.427218505550716 
744	 0.427195731067382 
745	 0.427134083757482 
746	 0.427159958647354 
747	 0.427169000841082 
748	 0.427143319966984 
749	 0.427105336077726 
750	 0.427097000395879 
751	 0.427102020929873 
752	 0.427121458173825 
753	 0.427126440784868 
754	 0.427052274411586 
755	 0.427099270113485 
756	 0.427262207982722 
757	 0.42743997790708 
758	 0.42740635393166 
759	 0.427457226385673 
760	 0.42749624684859 
761	 0.427329922575066 
762	 0.427405639143866 
763	 0.427494081249067 
764	 0.427492725967891 
765	 0.42750117587545 
766	 0.427879543960531 
767	 0.428135038008162 
768	 0.428011352208244 
769	 0.428178326462208 
770	 0.428282501936686 
771	 0.428349077894578 
772	 0.428498018515841 
773	 0.428658207479651 
774	 0.428780329454203 
775	 0.428872317110535 
776	 0.428986940379591 
777	 0.429126431750672 
778	 0.429239109840978 
779	 0.42931362232047 
780	 0.429416451492999 
781	 0.429579119154615 
782	 0.429771767591977 
783	 0.429950872874984 
784	 0.430109062776283 
785	 0.430224043447692 
786	 0.430308976298547 
787	 0.430398250945714 
788	 0.430497556525126 
789	 0.430697419608253 
790	 0.430971521451933 
791	 0.431153831854392 
792	 0.431147627287029 
793	 0.431351310513492 
794	 0.431849879447982 
795	 0.431706543362106 
796	 0.431695191491142 
797	 0.43185171781968 
798	 0.431985268730297 
799	 0.432216593628636 
800	 0.432333355977561 
801	 0.432396042922023 
802	 0.432637928086555 
803	 0.432682567893146 
804	 0.432734883601046 
805	 0.432921371770636 
806	 0.433136711653076 
807	 0.433184068250784 
808	 0.433191166010611 
809	 0.433317519000788 
810	 0.433576737559171 
811	 0.433565935245895 
812	 0.433533817519858 
813	 0.433869602423892 
814	 0.43394154630506 
815	 0.433913177503225 
816	 0.433986287972509 
817	 0.434301811978204 
818	 0.434418816316385 
819	 0.434383959510068 
820	 0.434319010134357 
821	 0.43432536435419 
822	 0.434563656908813 
823	 0.434741704265692 
824	 0.434662040912472 
825	 0.434827955473327 
826	 0.434799079104689 
827	 0.434712268596737 
828	 0.434859420281991 
829	 0.434758373306096 
830	 0.434849112448822 
831	 0.435084319184708 
832	 0.434993686111086 
833	 0.434846652574922 
834	 0.434786476419822 
835	 0.434853001003353 
836	 0.434953696039544 
837	 0.435124770239362 
838	 0.435169742841622 
839	 0.434978461253564 
840	 0.43478737249399 
841	 0.434849448221411 
842	 0.435005753732948 
843	 0.434981399697309 
844	 0.434921742800464 
845	 0.434742306131537 
846	 0.434570403015936 
847	 0.434637136771554 
848	 0.434660369349483 
849	 0.43456125911657 
850	 0.434414799048862 
851	 0.43444027923019 
852	 0.434530261738614 
853	 0.434499767577651 
854	 0.434279777707562 
855	 0.434059183631088 
856	 0.434022148085563 
857	 0.434036280125955 
858	 0.433933285043732 
859	 0.433832515573171 
860	 0.433796870749364 
861	 0.43377079461403 
862	 0.43366689843276 
863	 0.433613996572003 
864	 0.433541533007396 
865	 0.433483281457562 
866	 0.433525392708615 
867	 0.433219325260553 
868	 0.432940353817158 
869	 0.43293594041298 
870	 0.433102901307139 
871	 0.432983274690748 
872	 0.432689781403206 
873	 0.432456402143099 
874	 0.432473035991993 
875	 0.432355438783083 
876	 0.432243643943126 
877	 0.4322722153353 
878	 0.431918275298069 
879	 0.431769546435592 
880	 0.431739477789208 
881	 0.431507270563651 
882	 0.43145181619695 
883	 0.431412652404475 
884	 0.431277715752579 
885	 0.431020608325662 
886	 0.430750659646564 
887	 0.430706179653574 
888	 0.430763151785701 
889	 0.430435643419303 
890	 0.430358550640493 
891	 0.430367473197322 
892	 0.430251124657046 
893	 0.429976113042904 
894	 0.4298375397044 
895	 0.429764744340525 
896	 0.429623754158275 
897	 0.429382671905763 
898	 0.429112363469165 
899	 0.428978594006166 
900	 0.429060078506084 
901	 0.429045968524976 
902	 0.428812961407117 
903	 0.428575082831164 
904	 0.428603316489184 
905	 0.428506598057658 
906	 0.428378313306125 
907	 0.428153610705161 
908	 0.427738422212023 
909	 0.427784612217832 
910	 0.427882683124408 
911	 0.427823774505782 
912	 0.427723237750851 
913	 0.42765141744906 
914	 0.427475104878375 
915	 0.427270058603342 
916	 0.427388013153989 
917	 0.426946907033748 
918	 0.426643355806963 
919	 0.426836678776113 
920	 0.426680768714412 
921	 0.426713932541321 
922	 0.426586067023923 
923	 0.426163126819809 
924	 0.426409324333263 
925	 0.426473122191684 
926	 0.426340118537714 
927	 0.42626353718127 
928	 0.426437639078534 
929	 0.426321701513629 
930	 0.426151130858997 
931	 0.426302960275233 
932	 0.426240049258967 
933	 0.426100741216599 
934	 0.426010053764797 
935	 0.426046668228645 
936	 0.426143556687491 
937	 0.426205701946153 
938	 0.426267722469177 
939	 0.426415061619331 
940	 0.426414364291123 
941	 0.426492470302061 
942	 0.426630674068872 
943	 0.426596227815115 
944	 0.426494460023522 
945	 0.426499897846806 
946	 0.426518824103013 
947	 0.426244655379321 
948	 0.42629497035482 
949	 0.42633326779609 
950	 0.426142934823099 
951	 0.425878984549624 
952	 0.426256367056469 
953	 0.426427584577456 
954	 0.426130266220197 
955	 0.42632170611759 
956	 0.426236705576983 
957	 0.426129611536459 
958	 0.426180958694284 
959	 0.426099861113913 
960	 0.426121321319198 
961	 0.426102192859858 
962	 0.426019932370066 
963	 0.426249460070011 
964	 0.426023005650687 
965	 0.425817732576133 
966	 0.426009527126604 
967	 0.42600035198982 
968	 0.426010360690015 
969	 0.425939272334762 
970	 0.425797785816718 
971	 0.426070147038414 
972	 0.426152210576656 
973	 0.426188798680469 
974	 0.426312101376789 
975	 0.425938658752757 
976	 0.425793826069605 
977	 0.425746250743754 
978	 0.425519500762751 
979	 0.425272861087342 
980	 0.425311246338454 
981	 0.425404052261645 
982	 0.425271103206821 
983	 0.425080650221289 
984	 0.425323682607098 
985	 0.425539373258668 
986	 0.42528326211656 
987	 0.425358260766752 
988	 0.42546500662807 
989	 0.425272843876951 
990	 0.424812672466649 
991	 0.425341355509152 
992	 0.425429303269611 
993	 0.425149580592769 
994	 0.425041899999997 
995	 0.425155004491325 
996	 0.42511498828984 
997	 0.425293009858374 
998	 0.425915500835963 
999	 0.425906416324554 
1000	 0.425206345867671 
1001	 0.427580993767169 
1002	 0.427584017122001 
1003	 0.427622146881878 
1004	 0.427672430314874 
1005	 0.427735768773575 
1006	 0.427719421996051 
1007	 0.427760029923065 
1008	 0.427624680759389 
1009	 0.427216402048246 
1010	 0.42716010716408 
1011	 0.427234406712676 
1012	 0.427186913658233 
1013	 0.427283851045936 
1014	 0.427323184211285 
1015	 0.427295465740327 
1016	 0.427105901179855 
1017	 0.426968903144829 
1018	 0.427095386485078 
1019	 0.427199886688944 
1020	 0.427079233956703 
1021	 0.427057965005971 
1022	 0.427217112215488 
1023	 0.427072223873015 
1024	 0.426711387035397 
1025	 0.426519712856321 
1026	 0.426081193575873 
1027	 0.426006420399008 
1028	 0.426193172842703 
1029	 0.426393849196979 
1030	 0.426486479515537 
1031	 0.426587727819595 
1032	 0.426401124973135 
1033	 0.426119932807056 
1034	 0.425978328370592 
1035	 0.425818269865336 
1036	 0.425778664572922 
1037	 0.425860483989287 
1038	 0.425832251036738 
1039	 0.425812116333014 
1040	 0.425807762829856 
1041	 0.425766451314305 
1042	 0.425704039367928 
1043	 0.425653158291572 
1044	 0.425701743743493 
1045	 0.425539534204884 
1046	 0.425381716791912 
1047	 0.425435254589245 
1048	 0.4255258416777 
1049	 0.425551942778396 
1050	 0.425459496001771 
1051	 0.425449786352135 
1052	 0.425467868389395 
1053	 0.42546961695233 
1054	 0.425712843486361 
1055	 0.425662839683684 
1056	 0.42531886396064 
1057	 0.42513845075862 
1058	 0.424881286661286 
1059	 0.424673018096247 
1060	 0.424827430021387 
1061	 0.425071134390083 
1062	 0.425091623371011 
1063	 0.425089102322282 
1064	 0.425039210296183 
1065	 0.424793356958667 
1066	 0.424569988448052 
1067	 0.42457527673031 
1068	 0.424590781282698 
1069	 0.424650856106323 
1070	 0.424675014580586 
1071	 0.424829378817014 
1072	 0.424768170287629 
1073	 0.424639691295423 
1074	 0.424446154846649 
1075	 0.424334189658848 
1076	 0.424399317646647 
1077	 0.424373186900869 
1078	 0.424530052825706 
1079	 0.424663915656398 
1080	 0.42458228443771 
1081	 0.424596856647211 
1082	 0.424485712240521 
1083	 0.424235892033226 
1084	 0.424112984447714 
1085	 0.424037127994877 
1086	 0.423986194417297 
1087	 0.423961091792676 
1088	 0.423940007888165 
1089	 0.423966673126933 
1090	 0.424135689970753 
1091	 0.424194850927606 
1092	 0.424170171064511 
1093	 0.424133733928424 
1094	 0.424034504545357 
1095	 0.423888602057246 
1096	 0.423818534320665 
1097	 0.423848037598246 
1098	 0.423776787901552 
1099	 0.423734561688423 
1100	 0.423824159551365 
1101	 0.42387724574477 
1102	 0.423801118796021 
1103	 0.423819948559843 
1104	 0.423852758765414 
1105	 0.423930963668734 
1106	 0.423942255239259 
1107	 0.423996263354419 
1108	 0.423994725830214 
1109	 0.423959278131359 
1110	 0.424053354170699 
1111	 0.424241367019675 
1112	 0.424404453759957 
1113	 0.424452793028879 
1114	 0.42452203378825 
1115	 0.424575466329987 
1116	 0.424537397731301 
1117	 0.424564233718884 
1118	 0.424602436093167 
1119	 0.424589507196226 
1120	 0.424617996764141 
1121	 0.424696299798057 
1122	 0.424815032707647 
1123	 0.424843338610322 
1124	 0.424885835186412 
1125	 0.425059029844254 
1126	 0.425157537970535 
1127	 0.425277008573681 
1128	 0.425450991685004 
1129	 0.425535747254998 
1130	 0.425605849061427 
1131	 0.425665862594553 
1132	 0.425630633077894 
1133	 0.425607036170936 
1134	 0.425625422811954 
1135	 0.425643349313631 
1136	 0.425673056553501 
1137	 0.425760192431617 
1138	 0.425918951623145 
1139	 0.425967229938897 
1140	 0.426015870221486 
1141	 0.426021409736493 
1142	 0.425961784347343 
1143	 0.425884476799321 
1144	 0.425825772986438 
1145	 0.425843734450731 
1146	 0.425870762309775 
1147	 0.42587777117158 
1148	 0.425958362161828 
1149	 0.42600907999137 
1150	 0.425964730101609 
1151	 0.425874612388328 
1152	 0.425828512757321 
1153	 0.425785696027426 
1154	 0.425707743917684 
1155	 0.425641407940628 
1156	 0.425582021236806 
1157	 0.425479330102168 
1158	 0.425375904975494 
1159	 0.425298961939769 
1160	 0.425213488734721 
1161	 0.425040536494348 
1162	 0.424857108845228 
1163	 0.424780432837163 
1164	 0.424651834188048 
1165	 0.424453606820913 
1166	 0.424362468361001 
1167	 0.424212285528268 
1168	 0.424040396938237 
1169	 0.423926851993571 
1170	 0.42390015287691 
1171	 0.423801814697998 
1172	 0.423697771816986 
1173	 0.423580567392062 
1174	 0.423463964364443 
1175	 0.423319470854288 
1176	 0.423139051282917 
1177	 0.422961288644215 
1178	 0.422755112017577 
1179	 0.422558926718075 
1180	 0.422431698969175 
1181	 0.422293401729568 
1182	 0.42211368714319 
1183	 0.421966269006376 
1184	 0.421789868487305 
1185	 0.421590141386257 
1186	 0.421398047858454 
1187	 0.421218006434237 
1188	 0.421053430490987 
1189	 0.420850409102922 
1190	 0.420721550730265 
1191	 0.420687921874284 
1192	 0.420577472031113 
1193	 0.420407373921715 
1194	 0.420320456445531 
1195	 0.42024439837241 
1196	 0.420194712280695 
1197	 0.420195166074447 
1198	 0.420274964919287 
1199	 0.420241261023682 
1200	 0.420161070711862 
1201	 0.420084142321592 
1202	 0.420026502503257 
1203	 0.420066473731464 
1204	 0.42012875288209 
1205	 0.420223824269461 
1206	 0.420357703732612 
1207	 0.420542547115392 
1208	 0.420761178666615 
1209	 0.421015769125002 
1210	 0.42131127321423 
1211	 0.421665295121006 
1212	 0.422040610374147 
1213	 0.422498195912457 
1214	 0.42303724048963 
1215	 0.423618347184267 
1216	 0.424282521042462 
1217	 0.424937187234664 
1218	 0.425621808825444 
1219	 0.426343114272834 
1220	 0.427059357677673 
1221	 0.427804649530464 
1222	 0.428588950809123 
1223	 0.429434561892452 
1224	 0.430249715278043 
1225	 0.431116527576556 
1226	 0.43188928792346 
1227	 0.43261057928678 
1228	 0.433331420522997 
1229	 0.434017998493066 
1230	 0.434692272058669 
1231	 0.435367674063506 
1232	 0.436017504431022 
1233	 0.436621475465591 
1234	 0.437231066648637 
1235	 0.437821270275688 
1236	 0.438422339263511 
1237	 0.439107835846434 
1238	 0.439652031091831 
1239	 0.440108881755099 
1240	 0.440562887588144 
1241	 0.440991092799402 
1242	 0.441337609356303 
1243	 0.441766751966895 
1244	 0.442279653684772 
1245	 0.442716951663942 
1246	 0.443137982714732 
1247	 0.443520884758486 
1248	 0.443855083175954 
1249	 0.444227084964702 
1250	 0.444556628476627 
1251	 0.444950760150557 
1252	 0.44544180592969 
1253	 0.445839249065422 
1254	 0.446231074440007 
1255	 0.446591512745 
1256	 0.446857457626651 
1257	 0.447184071785438 
1258	 0.447548442790862 
1259	 0.447876140450019 
1260	 0.448218106447633 
1261	 0.448532015167761 
1262	 0.448760556265252 
1263	 0.449080893876381 
1264	 0.449356231206752 
1265	 0.449597447881612 
1266	 0.449925856810082 
1267	 0.450296426037008 
1268	 0.450630862221666 
1269	 0.451020863224963 
1270	 0.451357536279724 
1271	 0.451645855594276 
1272	 0.451943309641718 
1273	 0.452197690353669 
1274	 0.452534146778497 
1275	 0.452903018780515 
1276	 0.453259800292471 
1277	 0.45365837176957 
1278	 0.454069652055746 
1279	 0.454524773196491 
1280	 0.454891207912421 
1281	 0.455253358967097 
1282	 0.455589074948145 
1283	 0.455815203750677 
1284	 0.456067799252545 
1285	 0.456325879321738 
1286	 0.456613181825658 
1287	 0.456865044114391 
1288	 0.457086706441818 
1289	 0.457337393031181 
1290	 0.457592238045072 
1291	 0.457851911508837 
1292	 0.458144480508343 
1293	 0.458374877270072 
1294	 0.458556439790637 
1295	 0.458791380569621 
1296	 0.459011009973112 
1297	 0.459251116239379 
1298	 0.459572196264881 
1299	 0.45981078778481 
1300	 0.459966589090067 
1301	 0.460190817498798 
1302	 0.460445297155673 
1303	 0.460657640510187 
1304	 0.460870134750897 
1305	 0.461098145745011 
1306	 0.461273477501813 
1307	 0.461488866457707 
1308	 0.461748806203092 
1309	 0.462023579885528 
1310	 0.462306561764743 
1311	 0.462624287512137 
1312	 0.462855243439397 
1313	 0.463060722307776 
1314	 0.463281417661816 
1315	 0.463435496091814 
1316	 0.46365195362991 
1317	 0.463923305990625 
1318	 0.464172690823105 
1319	 0.464410074787469 
1320	 0.464661794618138 
1321	 0.464944037270318 
1322	 0.465189982713561 
1323	 0.465427661113643 
1324	 0.465654836176958 
1325	 0.465863461718767 
1326	 0.466064631763598 
1327	 0.466240120314543 
1328	 0.466437287642229 
1329	 0.466671638798353 
1330	 0.466845987942543 
1331	 0.466982067106032 
1332	 0.467141535874102 
1333	 0.467247393488928 
1334	 0.467374011225133 
1335	 0.467594958453567 
1336	 0.467920939741795 
1337	 0.468112551248218 
1338	 0.468307284686549 
1339	 0.468483424216307 
1340	 0.468580017014514 
1341	 0.468722367509089 
1342	 0.468933057101948 
1343	 0.469043665349688 
1344	 0.469092403338472 
1345	 0.469151667453378 
1346	 0.46916706699167 
1347	 0.469212516959729 
1348	 0.469287743982908 
1349	 0.469311556686324 
1350	 0.469320776596707 
1351	 0.46931569200952 
1352	 0.469257963671369 
1353	 0.46923233608955 
1354	 0.46922169928126 
1355	 0.469202797673984 
1356	 0.469214725595771 
1357	 0.469176724566296 
1358	 0.4691013674968 
1359	 0.469030533289645 
1360	 0.468909125717871 
1361	 0.468817786907971 
1362	 0.468802817906675 
1363	 0.468771204256842 
1364	 0.468694832675685 
1365	 0.468634134267633 
1366	 0.468518605474834 
1367	 0.468327051055029 
1368	 0.468184509103545 
1369	 0.468092732801106 
1370	 0.467876294817639 
1371	 0.467602844382236 
1372	 0.467335274270965 
1373	 0.466994894978297 
1374	 0.46668078348882 
1375	 0.466400693945845 
1376	 0.466067918294568 
1377	 0.465695558660292 
1378	 0.465308318690428 
1379	 0.464879194807005 
1380	 0.464476247729017 
1381	 0.464104339975387 
1382	 0.463661289154009 
1383	 0.4631668889352 
1384	 0.462709838195277 
1385	 0.462218103517194 
1386	 0.461734496667603 
1387	 0.461296542311251 
1388	 0.460851653554943 
1389	 0.460309303961485 
1390	 0.459890521420263 
1391	 0.459528858814849 
1392	 0.459231057595244 
1393	 0.459001861957134 
1394	 0.458810457873885 
1395	 0.45864067754175 
1396	 0.458500262901204 
1397	 0.458368081545354 
1398	 0.458317281091787 
1399	 0.458132648980241 
1400	 0.457976508275305 
1401	 0.457611628993516 
1402	 0.457110885652379 
1403	 0.456557325726199 
1404	 0.455854602503054 
1405	 0.455162368685148 
1406	 0.454456023403432 
1407	 0.453649817205275 
1408	 0.45273856249154 
1409	 0.451851937071409 
1410	 0.450870716221449 
1411	 0.449958640736694 
1412	 0.449064492135243 
1413	 0.448211312607037 
1414	 0.447396583809454 
1415	 0.446586790466651 
1416	 0.445797213422774 
1417	 0.445024799896912 
1418	 0.444255744076355 
1419	 0.443512552788979 
1420	 0.442784590703997 
1421	 0.442107059537891 
1422	 0.441477086518668 
1423	 0.440840009858724 
1424	 0.440235387405049 
1425	 0.439648207656685 
1426	 0.439022210594197 
1427	 0.438413365661754 
1428	 0.437787120694823 
1429	 0.437168728879025 
1430	 0.436532872096677 
1431	 0.435895023609748 
1432	 0.435214957347326 
1433	 0.434520973688849 
1434	 0.433785482078285 
1435	 0.433013990849695 
1436	 0.432219225992761 
1437	 0.431373666597016 
1438	 0.430570804990757 
1439	 0.429746137382882 
1440	 0.428950642110463 
1441	 0.428139920233241 
1442	 0.427436502679613 
1443	 0.42670446957475 
1444	 0.426170656900527 
1445	 0.425743218436349 
1446	 0.425474496266371 
1447	 0.42529692642221 
1448	 0.425359114890095 
1449	 0.425594356948256 
1450	 0.426019337381329 
1451	 0.426726401080001 
1452	 0.427461564913059 
1453	 0.428365021780631 
1454	 0.429300572162335 
1455	 0.430360611190232 
1456	 0.431393885236449 
1457	 0.43251450696927 
1458	 0.433578650070752 
1459	 0.434602696646543 
1460	 0.435635321418874 
1461	 0.43668819590799 
1462	 0.43768012685658 
1463	 0.438631036385798 
1464	 0.439585417729476 
1465	 0.440483085022123 
1466	 0.441421147940178 
1467	 0.442327092950662 
1468	 0.443192518327428 
1469	 0.443994913440241 
1470	 0.444762752009469 
1471	 0.445560277102421 
1472	 0.446343563688515 
1473	 0.447145974693694 
1474	 0.448000826741242 
1475	 0.448739122728071 
1476	 0.449454090973378 
1477	 0.450107073829789 
1478	 0.450695837437778 
1479	 0.451211361911272 
1480	 0.451658530143673 
1481	 0.452100385151663 
1482	 0.452455069921232 
1483	 0.452837561698574 
1484	 0.453266272021418 
1485	 0.453593128443186 
1486	 0.45382606642898 
1487	 0.454117160550698 
1488	 0.45432858883694 
1489	 0.454663369164275 
1490	 0.455089709323926 
1491	 0.455507085984081 
1492	 0.455951816675461 
1493	 0.456450784815568 
1494	 0.456939185947721 
1495	 0.457530100955712 
1496	 0.458254003527341 
1497	 0.458932267547255 
1498	 0.459640372019737 
1499	 0.460376128243157 
1500	 0.461108076128423 
1501	 0.46186208872764 
1502	 0.462696770487631 
1503	 0.463469121040605 
1504	 0.464244417196348 
1505	 0.464963599759693 
1506	 0.465652428573366 
1507	 0.466291039793615 
1508	 0.466879675916638 
1509	 0.46742729319504 
1510	 0.467897673739878 
1511	 0.468381495294931 
1512	 0.468866556202296 
1513	 0.469296185788061 
1514	 0.469682080293055 
1515	 0.470077983183159 
1516	 0.470459350450164 
1517	 0.47078854063637 
1518	 0.471129001333384 
1519	 0.471415291046768 
1520	 0.471638627834181 
1521	 0.471795488638953 
1522	 0.471981161135243 
1523	 0.472145870530132 
1524	 0.472298174581434 
1525	 0.472439873625474 
1526	 0.472567689808313 
1527	 0.472669624846185 
1528	 0.472789474164727 
1529	 0.472904966009754 
1530	 0.473029969793486 
1531	 0.473176729278673 
1532	 0.473272319713349 
1533	 0.473344658367641 
1534	 0.473430935934775 
1535	 0.473477582036966 
1536	 0.47358081964241 
1537	 0.473698964087546 
1538	 0.473876436684083 
1539	 0.474086476893997 
1540	 0.474332506628065 
1541	 0.474630420356574 
1542	 0.474952177356375 
1543	 0.47527362571563 
1544	 0.47569485604885 
1545	 0.476220367544271 
1546	 0.476690957505897 
1547	 0.477201870638601 
1548	 0.477705226227845 
1549	 0.478155386902705 
1550	 0.478690824295514 
1551	 0.479319354563004 
1552	 0.479869824954436 
1553	 0.480396457872101 
1554	 0.480969398331838 
1555	 0.481547270099242 
1556	 0.482101048907762 
1557	 0.482697362834587 
1558	 0.483249795964209 
1559	 0.483761468712037 
1560	 0.484245049204077 
1561	 0.484696495302072 
1562	 0.4851788813872 
1563	 0.485631996054175 
1564	 0.486096427179946 
1565	 0.486610744432761 
1566	 0.487084081508899 
1567	 0.487518415588952 
1568	 0.487961243083494 
1569	 0.488412156601852 
1570	 0.48884197479195 
1571	 0.489253558367583 
1572	 0.489660168782198 
1573	 0.490046662243093 
1574	 0.490448171521256 
1575	 0.490833511803653 
1576	 0.491253498332692 
1577	 0.491705392614747 
1578	 0.492145000341247 
1579	 0.492630056078369 
1580	 0.493047775600918 
1581	 0.493428582591772 
1582	 0.493799545243172 
1583	 0.49409755528555 
1584	 0.494458099551227 
1585	 0.4948366753506 
1586	 0.495229518780582 
1587	 0.495673395805252 
1588	 0.496083556263915 
1589	 0.49649237564914 
1590	 0.49688476317962 
1591	 0.497265280874951 
1592	 0.497631723588707 
1593	 0.497955485111817 
1594	 0.498323929076592 
1595	 0.498722805524847 
1596	 0.499085748007896 
1597	 0.499441361542875 
1598	 0.499819847487212 
1599	 0.500176615733699 
1600	 0.500553359235258 
1601	 0.500975823825613 
1602	 0.501382602864017 
1603	 0.501784748189216 
1604	 0.502170061513491 
1605	 0.50257287042515 
1606	 0.502938691048641 
1607	 0.503248773101227 
1608	 0.503588714362066 
1609	 0.503919478373516 
1610	 0.504258467664495 
1611	 0.504638292218954 
1612	 0.504976776546769 
1613	 0.505294168191009 
1614	 0.505601538364688 
1615	 0.505858091073955 
1616	 0.506160484757232 
1617	 0.506534128911866 
1618	 0.506814819777536 
1619	 0.507060343793003 
1620	 0.507299734716356 
1621	 0.50743376282056 
1622	 0.507638648817532 
1623	 0.507918461376368 
1624	 0.508156596005175 
1625	 0.508375291778598 
1626	 0.508620133895975 
1627	 0.508896443195715 
1628	 0.50910378992157 
1629	 0.509296177011624 
1630	 0.509477441811294 
1631	 0.509556721223306 
1632	 0.509721109004519 
1633	 0.509965932769484 
1634	 0.510163166508368 
1635	 0.510377010233662 
1636	 0.510563653131041 
1637	 0.510672222456289 
1638	 0.510857163414826 
1639	 0.511131677909462 
1640	 0.511307833162069 
1641	 0.51147652107977 
1642	 0.511611222607259 
1643	 0.51164425206573 
1644	 0.511717316918832 
1645	 0.511817708499761 
1646	 0.511893027392653 
1647	 0.511939449374025 
1648	 0.511997405386914 
1649	 0.512106435211082 
1650	 0.512126392243196 
1651	 0.512118923913536 
1652	 0.512064075376601 
1653	 0.511881191082778 
1654	 0.511764827402917 
1655	 0.511709188002171 
1656	 0.511559976206179 
1657	 0.511409585338434 
1658	 0.51117929264866 
1659	 0.510860659909092 
1660	 0.510501379922852 
1661	 0.51010865637469 
1662	 0.509655515024056 
1663	 0.509103363168964 
1664	 0.508540594721408 
1665	 0.50798540390046 
1666	 0.507303311331291 
1667	 0.5065970054538 
1668	 0.505749222007675 
1669	 0.50475565916994 
1670	 0.503691254632346 
1671	 0.502463934766801 
1672	 0.501289197084196 
1673	 0.500130183796786 
1674	 0.498819291986508 
1675	 0.497483738346042 
1676	 0.49602144619277 
1677	 0.494403899029339 
1678	 0.492739363528694 
1679	 0.490987751104695 
1680	 0.489196373386424 
1681	 0.487358822082593 
1682	 0.485354536558524 
1683	 0.483301135980871 
1684	 0.48110160620277 
1685	 0.478719580949344 
1686	 0.47628095457218 
1687	 0.473719877923471 
1688	 0.471089832207775 
1689	 0.46833386026067 
1690	 0.46555562622348 
1691	 0.462730435258404 
1692	 0.459916508463886 
1693	 0.457111495142553 
1694	 0.454179714422814 
1695	 0.451157238075946 
1696	 0.448089298960302 
1697	 0.444954704102987 
1698	 0.441676396176275 
1699	 0.438354831580837 
1700	 0.434971143707519 
1701	 0.431387809848901 
1702	 0.42798710528721 
1703	 0.424527370516908 
1704	 0.421267672408907 
1705	 0.418081403143259 
1706	 0.414849613773626 
1707	 0.412161471350115 
1708	 0.409560955223306 
1709	 0.407096975879625 
1710	 0.404892557957504 
1711	 0.402593808353518 
1712	 0.400512570835569 
1713	 0.398513380372843 
1714	 0.396480128166825 
1715	 0.394763410483453 
1716	 0.393004184605437 
1717	 0.391301289927698 
1718	 0.389851838900225 
1719	 0.388387230486497 
1720	 0.387046159011551 
1721	 0.385846286847653 
1722	 0.384746301491481 
1723	 0.383815867502769 
1724	 0.382964114349389 
1725	 0.38221102617731 
1726	 0.381605743315225 
1727	 0.38127579733242 
1728	 0.381309127453116 
1729	 0.381698479333609 
1730	 0.382441529229925 
1731	 0.383388924763833 
1732	 0.38458144675955 
1733	 0.385945143396242 
1734	 0.387561823795496 
1735	 0.389449506040786 
1736	 0.391289379322247 
1737	 0.393109717130719 
1738	 0.394749619297896 
1739	 0.396080747315264 
1740	 0.397272881014685 
1741	 0.398136072156582 
1742	 0.398677623325481 
1743	 0.399041977677745 
1744	 0.399057868574705 
1745	 0.399051203620788 
1746	 0.398855975658366 
1747	 0.398661518675539 
1748	 0.398376667813757 
1749	 0.398055619093948 
1750	 0.397614274338005 
1751	 0.397262789441174 
1752	 0.396859686976076 
1753	 0.396664029817668 
1754	 0.396574065813445 
1755	 0.396602997751122 
1756	 0.396729332480278 
1757	 0.397039073146775 
1758	 0.397502283771197 
1759	 0.398129100263885 
1760	 0.398919616685926 
1761	 0.399859080615266 
1762	 0.400888472238435 
1763	 0.402156856485941 
1764	 0.403637154905819 
1765	 0.405348232658098 
1766	 0.407344258678649 
1767	 0.409285909648838 
1768	 0.411367395126868 
1769	 0.413555133096893 
1770	 0.415552155385179 
1771	 0.417709660762962 
1772	 0.419844646101205 
1773	 0.42182620423781 
1774	 0.423897389700319 
1775	 0.425835897441991 
1776	 0.427654628042237 
1777	 0.429382013926 
1778	 0.430866918272734 
1779	 0.432145170522994 
1780	 0.433362846661544 
1781	 0.434607380973447 
1782	 0.435802218264125 
1783	 0.436974389180339 
1784	 0.438159247054679 
1785	 0.438966855065211 
1786	 0.439841183372459 
1787	 0.440747328778 
1788	 0.441545162422048 
1789	 0.442321157135564 
1790	 0.4430687672665 
1791	 0.443722718399847 
1792	 0.444345358031877 
1793	 0.444902174939785 
1794	 0.445409473452362 
1795	 0.445943133922955 
1796	 0.446440062863867 
1797	 0.446969422584543 
1798	 0.44746531359574 
1799	 0.448008391374128 
1800	 0.448638311118432 
1801	 0.446144170589789 
1802	 0.446664632305125 
1803	 0.447207089832064 
1804	 0.4477461446566 
1805	 0.4483235663013 
1806	 0.448812711959813 
1807	 0.449284794051566 
1808	 0.449743588062462 
1809	 0.450115145981527 
1810	 0.450536130819321 
1811	 0.450983944040708 
1812	 0.451451555797635 
1813	 0.451922985982306 
1814	 0.452418032497049 
1815	 0.452917875867817 
1816	 0.45335967882533 
1817	 0.453859776728921 
1818	 0.454341856676128 
1819	 0.454870421206868 
1820	 0.455469714208712 
1821	 0.456045320847506 
1822	 0.45664387357919 
1823	 0.457219475789376 
1824	 0.457739156848938 
1825	 0.458208882329869 
1826	 0.458686715428697 
1827	 0.459105989632112 
1828	 0.45956315440937 
1829	 0.460062399387274 
1830	 0.460513050047432 
1831	 0.46093329798256 
1832	 0.461351767441928 
1833	 0.461777634601367 
1834	 0.462166798530791 
1835	 0.462676138195789 
1836	 0.463181967089444 
1837	 0.463639651472554 
1838	 0.464102094970869 
1839	 0.464574355141597 
1840	 0.464978134646849 
1841	 0.465440580404923 
1842	 0.46595484880961 
1843	 0.466475717673863 
1844	 0.466950148601363 
1845	 0.467377503197931 
1846	 0.46781692545927 
1847	 0.468206093829513 
1848	 0.468501042837872 
1849	 0.468727415789462 
1850	 0.468954747468201 
1851	 0.469104214730067 
1852	 0.469237910501982 
1853	 0.469430170608617 
1854	 0.469598306220443 
1855	 0.469658856188611 
1856	 0.469561004350653 
1857	 0.46941977705699 
1858	 0.469253413910752 
1859	 0.469013064468331 
1860	 0.468716835285142 
1861	 0.468397325966221 
1862	 0.468029671878999 
1863	 0.467577713192192 
1864	 0.467144969475449 
1865	 0.466736644137527 
1866	 0.466246738760938 
1867	 0.465585450134727 
1868	 0.464823925096949 
1869	 0.463947440215036 
1870	 0.463015731496519 
1871	 0.462012085157504 
1872	 0.460949189758309 
1873	 0.459826284429223 
1874	 0.458646216233144 
1875	 0.457396886488965 
1876	 0.455975535457615 
1877	 0.454553222136684 
1878	 0.452998469019989 
1879	 0.451245793080239 
1880	 0.449557530565798 
1881	 0.447731176578497 
1882	 0.445787433470968 
1883	 0.44374370073911 
1884	 0.441608595103315 
1885	 0.439266914275152 
1886	 0.436960441641472 
1887	 0.434463673892475 
1888	 0.431845942871484 
1889	 0.429383600034542 
1890	 0.426715296920853 
1891	 0.424025222278837 
1892	 0.421401677489041 
1893	 0.418665292493815 
1894	 0.415777451195877 
1895	 0.41295591790647 
1896	 0.410151962328511 
1897	 0.407325155010617 
1898	 0.404630081351529 
1899	 0.401876546919075 
1900	 0.399188455831393 
1901	 0.396559215151168 
1902	 0.393851412337201 
1903	 0.391353314921107 
1904	 0.388913251274511 
1905	 0.386516930692089 
1906	 0.384202695588394 
1907	 0.382134497024862 
1908	 0.380014251338257 
1909	 0.377941913509391 
1910	 0.376007750606019 
1911	 0.374078246653882 
1912	 0.372293344222442 
1913	 0.370583531279697 
1914	 0.368927377930522 
1915	 0.367325203551507 
1916	 0.36582688885485 
1917	 0.364239606016685 
1918	 0.362730349891878 
1919	 0.361256045666644 
1920	 0.359648418120281 
1921	 0.358188834127439 
1922	 0.356725281918132 
1923	 0.355274787046276 
1924	 0.354036664544882 
1925	 0.352717164193213 
1926	 0.351414206223646 
1927	 0.350138643544144 
1928	 0.348881446106817 
1929	 0.347574216689987 
1930	 0.346391941215545 
1931	 0.345274539046886 
1932	 0.344172545222322 
1933	 0.34317723478852 
1934	 0.342361083802465 
1935	 0.341636848918768 
1936	 0.340937303049023 
1937	 0.340348179177357 
1938	 0.339812807526691 
1939	 0.33941869245253 
1940	 0.339077290238828 
1941	 0.339006165860186 
1942	 0.33905089151107 
1943	 0.339141367831485 
1944	 0.339326945292738 
1945	 0.339527056570754 
1946	 0.339922355836375 
1947	 0.340395279150799 
1948	 0.34085075650991 
1949	 0.341523907167546 
1950	 0.342244978182689 
1951	 0.342958289805727 
1952	 0.343846916617765 
1953	 0.344909767794833 
1954	 0.346019259392284 
1955	 0.347252099687867 
1956	 0.348490245599952 
1957	 0.349727362788882 
1958	 0.351033378803775 
1959	 0.35225785911065 
1960	 0.353436989693718 
1961	 0.354519856771576 
1962	 0.355545103104086 
1963	 0.356479004059302 
1964	 0.357348028475692 
1965	 0.358095456862004 
1966	 0.358710579689079 
1967	 0.359331932431883 
1968	 0.359931976048454 
1969	 0.360486916201157 
1970	 0.361137487345019 
1971	 0.36175020663992 
1972	 0.362251236533029 
1973	 0.362754602835605 
1974	 0.363299465907619 
1975	 0.363798915558075 
1976	 0.364430209964163 
1977	 0.365150799841873 
1978	 0.365879716666612 
1979	 0.366667159210891 
1980	 0.367515150392265 
1981	 0.368305957753699 
1982	 0.369099012132646 
1983	 0.369987476518372 
1984	 0.370873735600975 
1985	 0.371773522625097 
1986	 0.372683056217367 
1987	 0.373626255960211 
1988	 0.374448353623342 
1989	 0.37554100419092 
1990	 0.376754558035509 
1991	 0.37809321070631 
1992	 0.37961330320493 
1993	 0.381240199277794 
1994	 0.382819551888378 
1995	 0.384480148942473 
1996	 0.386140124633693 
1997	 0.387815666681425 
1998	 0.389533832207521 
1999	 0.391325347774778 
2000	 0.393023428069516 
2001	 0.394780693665203 
2002	 0.396402432670427 
2003	 0.397964060425208 
2004	 0.399480372227943 
2005	 0.400875807840404 
2006	 0.402258385907628 
2007	 0.403669412711459 
2008	 0.404910635062887 
2009	 0.406091663613821 
2010	 0.407229554791329 
2011	 0.408164558840861 
2012	 0.409096802222709 
2013	 0.409915487120386 
2014	 0.41058105801279 
2015	 0.411306930200801 
2016	 0.411969348020436 
2017	 0.412622472991014 
2018	 0.413369362589514 
2019	 0.413967280743126 
2020	 0.414457874271746 
2021	 0.414945144514642 
2022	 0.415336744573318 
2023	 0.415550622078637 
2024	 0.415816735156622 
2025	 0.416024777510713 
2026	 0.416200468352099 
2027	 0.416364694836651 
2028	 0.416463211972173 
2029	 0.416494360738255 
2030	 0.416505763298719 
2031	 0.416425745958146 
2032	 0.416402740748163 
2033	 0.416380653518002 
2034	 0.416341035419607 
2035	 0.416294393761437 
2036	 0.41630347154778 
2037	 0.416251464800599 
2038	 0.416184300438396 
2039	 0.416071431716827 
2040	 0.415922650740709 
2041	 0.415781489627024 
2042	 0.415569115520546 
2043	 0.415432000813472 
2044	 0.415348365021377 
2045	 0.415220517259996 
2046	 0.415074442731649 
2047	 0.414981796941766 
2048	 0.414904313782426 
2049	 0.4148336232671 
2050	 0.414855708257257 
2051	 0.414775414129143 
2052	 0.414644774789547 
2053	 0.414537733499954 
2054	 0.41443421321979 
2055	 0.414340696672341 
2056	 0.414215270302466 
2057	 0.414063638914133 
2058	 0.41392827647854 
2059	 0.413749719253512 
2060	 0.413606819761233 
2061	 0.413536275635295 
2062	 0.413435636260353 
2063	 0.413278746342026 
2064	 0.413179351253387 
2065	 0.413143142097723 
2066	 0.413048291482911 
2067	 0.412941626227754 
2068	 0.412852706479694 
2069	 0.412736949328506 
2070	 0.412570866180037 
2071	 0.412430757946339 
2072	 0.412304100331722 
2073	 0.41218983214901 
2074	 0.41206805105782 
2075	 0.411936388272069 
2076	 0.411849788712405 
2077	 0.41169607374828 
2078	 0.411457506650523 
2079	 0.411290580556342 
2080	 0.411168092980002 
2081	 0.410989046453956 
2082	 0.410799920047886 
2083	 0.410640787266367 
2084	 0.41040239233363 
2085	 0.410105215138269 
2086	 0.409908031736837 
2087	 0.409784002976371 
2088	 0.409584726102395 
2089	 0.409399310871328 
2090	 0.409196731024871 
2091	 0.40897735151436 
2092	 0.408707422357368 
2093	 0.408406345758912 
2094	 0.408117864319708 
2095	 0.407775409102517 
2096	 0.407449377881724 
2097	 0.407160946440594 
2098	 0.406848969472293 
2099	 0.406528644692611 
2100	 0.406151606778569 
2101	 0.405823844759228 
2102	 0.405547076684836 
2103	 0.405181245146838 
2104	 0.404773960306961 
2105	 0.404386757365585 
2106	 0.403969545378366 
2107	 0.403525673887532 
2108	 0.403121843604978 
2109	 0.402641844291734 
2110	 0.402075216085496 
2111	 0.40151532357272 
2112	 0.400930599769388 
2113	 0.400334029460852 
2114	 0.399651169380538 
2115	 0.3990582741585 
2116	 0.39852312983183 
2117	 0.397979915376706 
2118	 0.39741623852814 
2119	 0.396921739949765 
2120	 0.396318088496244 
2121	 0.395585003904686 
2122	 0.394996956154021 
2123	 0.394391265947306 
2124	 0.393904709650795 
2125	 0.393554530779167 
2126	 0.393153176632671 
2127	 0.3927866332783 
2128	 0.392444126268145 
2129	 0.392047157217032 
2130	 0.391778579283678 
2131	 0.391623672393013 
2132	 0.391456297450344 
2133	 0.391331254895929 
2134	 0.391303473768959 
2135	 0.391162620594102 
2136	 0.390992378482813 
2137	 0.390853236960168 
2138	 0.39069723603289 
2139	 0.390552757198136 
2140	 0.39041636586116 
2141	 0.390316003734154 
2142	 0.390196750915704 
2143	 0.390151893644778 
2144	 0.390196375463384 
2145	 0.390190398310253 
2146	 0.390224957866305 
2147	 0.390207908448475 
2148	 0.390103510145636 
2149	 0.390102229831858 
2150	 0.390067051978545 
2151	 0.390152650584051 
2152	 0.390426059275382 
2153	 0.39062822991706 
2154	 0.390736323030767 
2155	 0.390831773622814 
2156	 0.390789477215071 
2157	 0.390519735584598 
2158	 0.39043730044152 
2159	 0.390403391152084 
2160	 0.390276337277799 
2161	 0.390139893434304 
2162	 0.390033675823514 
2163	 0.389883537090918 
2164	 0.389726286319224 
2165	 0.389608802524514 
2166	 0.389468888214702 
2167	 0.389300949004371 
2168	 0.389100728437666 
2169	 0.388930183401806 
2170	 0.388696904963676 
2171	 0.38829429567565 
2172	 0.388018490115674 
2173	 0.387755543750465 
2174	 0.387594281110232 
2175	 0.387418343649038 
2176	 0.387289169470532 
2177	 0.387185854121195 
2178	 0.387100922954097 
2179	 0.38700565818882 
2180	 0.386974423765597 
2181	 0.386873213870145 
2182	 0.386744364666068 
2183	 0.386580995218372 
2184	 0.386354300675596 
2185	 0.386198616179778 
2186	 0.386076088994828 
2187	 0.385877305606168 
2188	 0.385747203889232 
2189	 0.385477150740374 
2190	 0.385016160522485 
2191	 0.3846343167621 
2192	 0.384224968709539 
2193	 0.383827995038945 
2194	 0.383440734363324 
2195	 0.383086692191574 
2196	 0.382757013113528 
2197	 0.382409151510794 
2198	 0.382104482417438 
2199	 0.381777318371257 
2200	 0.381275763489024 
2201	 0.380650976131499 
2202	 0.380035079493906 
2203	 0.379282121543603 
2204	 0.378616638994894 
2205	 0.377995228862015 
2206	 0.377329132103105 
2207	 0.376627645333284 
2208	 0.375940307414285 
2209	 0.375279600144579 
2210	 0.374554379083359 
2211	 0.373829291246992 
2212	 0.373050741952035 
2213	 0.372136468067341 
2214	 0.371334398618504 
2215	 0.370538268419678 
2216	 0.36978448950623 
2217	 0.369078692666372 
2218	 0.368438819124813 
2219	 0.367945809986686 
2220	 0.367311947764119 
2221	 0.366697480005508 
2222	 0.36598727669202 
2223	 0.36515065115197 
2224	 0.364389530501372 
2225	 0.363774308825217 
2226	 0.363131639189803 
2227	 0.362396993612497 
2228	 0.361720674668409 
2229	 0.360791510551922 
2230	 0.359670502901453 
2231	 0.358560379467081 
2232	 0.357371165303306 
2233	 0.356057072730603 
2234	 0.354725897926113 
2235	 0.353162116845955 
2236	 0.351396234282318 
2237	 0.349563617947365 
2238	 0.34757151915411 
2239	 0.345513002816614 
2240	 0.343371830155178 
2241	 0.341071269678178 
2242	 0.338742715128174 
2243	 0.33611750322916 
2244	 0.33321135931729 
2245	 0.330270256616353 
2246	 0.327020083719215 
2247	 0.323827108432989 
2248	 0.320622008467943 
2249	 0.317360435647675 
2250	 0.314064085703318 
2251	 0.31073632940825 
2252	 0.307153657696132 
2253	 0.303719361272462 
2254	 0.300194001443729 
2255	 0.2965760644137 
2256	 0.293284996104657 
2257	 0.289840461764951 
2258	 0.286440199118019 
2259	 0.283110967590871 
2260	 0.279686947607242 
2261	 0.276141214268109 
2262	 0.272809512403442 
2263	 0.269457015439755 
2264	 0.266302618692971 
2265	 0.263330345522978 
2266	 0.26043790098016 
2267	 0.257776943062654 
2268	 0.254947825882609 
2269	 0.252139055444662 
2270	 0.249359083139178 
2271	 0.246422878377298 
2272	 0.243699543256935 
2273	 0.241100974663301 
2274	 0.238590958826706 
2275	 0.236354708787273 
2276	 0.233896082289975 
2277	 0.231470663753302 
2278	 0.22894304470057 
2279	 0.226095073086252 
2280	 0.223453350496807 
2281	 0.220992184821376 
2282	 0.218372764703196 
2283	 0.215824312421431 
2284	 0.213140623786361 
2285	 0.210067161042954 
2286	 0.206982928857789 
2287	 0.20383976699931 
2288	 0.200612820783735 
2289	 0.197553447943251 
2290	 0.19434883991908 
2291	 0.191173051643531 
2292	 0.187974525686592 
2293	 0.184518403155766 
2294	 0.181373708419177 
2295	 0.178097077449628 
2296	 0.174705043112246 
2297	 0.171745812737526 
2298	 0.168926818059775 
2299	 0.166449726180085 
2300	 0.16434611006419 
2301	 0.162414962345884 
2302	 0.160678869798452 
2303	 0.159391219836675 
2304	 0.158365811371975 
2305	 0.157804933063008 
2306	 0.157692084410428 
2307	 0.157948957554526 
2308	 0.158700734492576 
2309	 0.159662583764027 
2310	 0.160947598158651 
2311	 0.162685873914585 
2312	 0.164842038868847 
2313	 0.1671716450979 
2314	 0.170165880640962 
2315	 0.172885134621884 
2316	 0.175667570587946 
2317	 0.178420707221426 
2318	 0.181366931391382 
2319	 0.18388516612039 
2320	 0.186292534790228 
2321	 0.188402778538382 
2322	 0.190224114422254 
2323	 0.191662602089637 
2324	 0.192818099122653 
2325	 0.193698450491177 
2326	 0.194068022919145 
2327	 0.194402420966675 
2328	 0.194521118252567 
2329	 0.194531060360323 
2330	 0.194471587551661 
2331	 0.194062331509748 
2332	 0.193460755290616 
2333	 0.192728282376857 
2334	 0.191583753576474 
2335	 0.190218019202721 
2336	 0.188637103488869 
2337	 0.186927503933844 
2338	 0.185272734674023 
2339	 0.183492016876944 
2340	 0.181778462923881 
2341	 0.180023349116288 
2342	 0.178002364073441 
2343	 0.17619160233452 
2344	 0.174639312696824 
2345	 0.173212384764366 
2346	 0.172337073458876 
2347	 0.171934743964996 
2348	 0.17166895349414 
2349	 0.171757546690131 
2350	 0.172201448631561 
2351	 0.173099210795505 
2352	 0.174612728743835 
2353	 0.176581736307697 
2354	 0.178498571850964 
2355	 0.180437243879462 
2356	 0.182378073235707 
2357	 0.183950925513904 
2358	 0.185512360424226 
2359	 0.186904737093492 
2360	 0.187686353866005 
2361	 0.188251263338131 
2362	 0.18870461176118 
2363	 0.188722119271757 
2364	 0.188658253917895 
2365	 0.188700357320895 
2366	 0.188559598127371 
2367	 0.188371195500264 
2368	 0.188152801149748 
2369	 0.187741198114774 
2370	 0.187550856017499 
2371	 0.187406682956378 
2372	 0.187233202353898 
2373	 0.187273999932925 
2374	 0.187187564108737 
2375	 0.186951586620324 
2376	 0.186879766501141 
2377	 0.187019827869395 
2378	 0.186930163026387 
2379	 0.186977690322296 
2380	 0.187101288038012 
2381	 0.186677938695035 
2382	 0.186543325647092 
2383	 0.18655928561385 
2384	 0.186461293899635 
2385	 0.186437995567802 
2386	 0.186269851947781 
2387	 0.185837798880727 
2388	 0.185685448685468 
2389	 0.185501354658063 
2390	 0.185535226852234 
2391	 0.185985177301707 
2392	 0.1861987301468 
2393	 0.186402691761285 
2394	 0.186523714452222 
2395	 0.186448301642894 
2396	 0.186453864104377 
2397	 0.18645066523549 
2398	 0.186538960058002 
2399	 0.186768033453624 
2400	 0.18694966337971 
2401	 0.187179965560701 
2402	 0.186895535090176 
2403	 0.186837646234616 
2404	 0.186409049604665 
2405	 0.186142943904985 
2406	 0.186363303797487 
2407	 0.186427880077494 
2408	 0.186541732834479 
2409	 0.186821479384514 
2410	 0.18689247099868 
2411	 0.186516797121169 
2412	 0.18622717767703 
2413	 0.186059448017709 
2414	 0.185865825573907 
2415	 0.186284263716086 
2416	 0.186799843182496 
2417	 0.187245484013627 
2418	 0.187880818871625 
2419	 0.18782812417111 
2420	 0.18767206733183 
2421	 0.187956528395181 
2422	 0.188192253372758 
2423	 0.188672972236269 
2424	 0.189063995669454 
2425	 0.188861537128862 
2426	 0.188425562687754 
2427	 0.188168847576856 
2428	 0.18809077247952 
2429	 0.188294962531353 
2430	 0.188542319004488 
2431	 0.188433389336 
2432	 0.188293578408297 
2433	 0.18785987168152 
2434	 0.187370938668963 
2435	 0.187332236869816 
2436	 0.187272007917959 
2437	 0.187126589773502 
2438	 0.187234299098553 
2439	 0.187264748960745 
2440	 0.187304574739421 
2441	 0.187932488817678 
2442	 0.188339563003089 
2443	 0.188044906896234 
2444	 0.187319534345084 
2445	 0.187223957395937 
2446	 0.186981379924322 
2447	 0.186719056009838 
2448	 0.188097653115177 
2449	 0.188164803158843 
2450	 0.187336690566974 
2451	 0.187605318194033 
2452	 0.187001330013448 
2453	 0.18586487931735 
2454	 0.186109499759569 
2455	 0.186546889882033 
2456	 0.186334071527598 
2457	 0.186757506769044 
2458	 0.186710819917826 
2459	 0.186162325878821 
2460	 0.185646216598782 
2461	 0.185285763047408 
2462	 0.185398614294928 
2463	 0.185007875430093 
2464	 0.185247188157817 
2465	 0.185476811290434 
2466	 0.185049990032453 
2467	 0.185765002859683 
2468	 0.186134205870355 
2469	 0.186346481883601 
2470	 0.186946599403357 
2471	 0.186542268468321 
2472	 0.186248431286105 
2473	 0.186029912695046 
2474	 0.186259193651144 
2475	 0.187277193799116 
2476	 0.187711343046602 
2477	 0.188390373995193 
2478	 0.188840490173873 
2479	 0.188352514661164 
2480	 0.189157846633429 
2481	 0.189242543880168 
2482	 0.189098424929405 
2483	 0.189274482677587 
2484	 0.189141889081574 
2485	 0.189240632771662 
2486	 0.189134202201427 
2487	 0.190159546424718 
2488	 0.191405241503773 
2489	 0.192254940216069 
2490	 0.194165403455501 
2491	 0.195620232738356 
2492	 0.196450009085845 
2493	 0.197070145717934 
2494	 0.196976662629763 
2495	 0.196629902700461 
2496	 0.196144546541244 
2497	 0.197464354069285 
2498	 0.199142831290158 
2499	 0.199063128675874 
2500	 0.199600270743637 
