Wavelength	Tablay400075.asd
350	 0.310559640804155 
351	 0.249330228219214 
352	 0.222171398768465 
353	 0.250389684690184 
354	 0.218332016152456 
355	 0.241110004688183 
356	 0.266782967514476 
357	 0.24394016565537 
358	 0.202216593900875 
359	 0.171402289415703 
360	 0.184848352220115 
361	 0.24841583804111 
362	 0.221765505184854 
363	 0.160238886093305 
364	 0.133122388836423 
365	 0.162809428147762 
366	 0.178666733015579 
367	 0.187638200790872 
368	 0.206829220698681 
369	 0.233539171047423 
370	 0.18972063974414 
371	 0.122718952808493 
372	 0.146574471923492 
373	 0.1708680329046 
374	 0.162804318221456 
375	 0.118115833114839 
376	 6.89161188611081E-02 
377	 0.105899233933993 
378	 0.165534544182305 
379	 0.172862155560296 
380	 0.115608109255828 
381	 8.08511646253303E-02 
382	 9.10469392565984E-02 
383	 0.113468316574952 
384	 0.126812714242535 
385	 0.143064198175158 
386	 0.154657979150673 
387	 0.121956667653924 
388	 9.56247510524725E-02 
389	 9.39973868575336E-02 
390	 0.113481544161904 
391	 0.124171674744753 
392	 0.118461586602106 
393	 9.52145557038981E-02 
394	 6.18812299439112E-02 
395	 6.55683066682269E-02 
396	 0.077862222681405 
397	 7.81120824488329E-02 
398	 7.40764169502208E-02 
399	 8.33994250817384E-02 
400	 9.17001497192417E-02 
401	 8.41526765121563E-02 
402	 7.74666126901126E-02 
403	 6.30229353977757E-02 
404	 5.40135084500281E-02 
405	 7.58073388751103E-02 
406	 7.97091352468846E-02 
407	 0.074833100908632 
408	 7.04322428597227E-02 
409	 5.86943704392696E-02 
410	 5.80421108815964E-02 
411	 6.63541743175425E-02 
412	 7.32674124555024E-02 
413	 6.41894963388919E-02 
414	 6.08413222293044E-02 
415	 6.68054912799799E-02 
416	 6.81487496126635E-02 
417	 6.34625715299507E-02 
418	 0.055562347413161 
419	 0.049947188970529 
420	 5.78381993355046E-02 
421	 5.40056514301622E-02 
422	 4.55184882525751E-02 
423	 4.86922082375376E-02 
424	 0.049246433742345 
425	 4.78569218229644E-02 
426	 0.046968693127198 
427	 4.96131490758561E-02 
428	 5.14026346047092E-02 
429	 0.049499134652586 
430	 4.49747135214746E-02 
431	 4.88492504337045E-02 
432	 5.29750379462424E-02 
433	 5.27069491229136E-02 
434	 4.68938506197123E-02 
435	 4.45513024647747E-02 
436	 4.48877216306555E-02 
437	 4.57480498681954E-02 
438	 4.47612068704604E-02 
439	 4.44641828044241E-02 
440	 4.41948773781646E-02 
441	 4.31906512340893E-02 
442	 4.39914966636254E-02 
443	 4.47345575755105E-02 
444	 4.46382340608755E-02 
445	 4.39471144567504E-02 
446	 4.36237921968274E-02 
447	 4.26234730460878E-02 
448	 4.15053396846435E-02 
449	 4.55887119934642E-02 
450	 4.56781577971849E-02 
451	 4.35860064918948E-02 
452	 4.41165734421365E-02 
453	 4.34272236181249E-02 
454	 4.18966705049078E-02 
455	 4.08591385919104E-02 
456	 4.22663582325308E-02 
457	 4.26044648316969E-02 
458	 4.20672201069005E-02 
459	 4.10927119558321E-02 
460	 3.75867321792802E-02 
461	 3.90624399956209E-02 
462	 4.28260716656883E-02 
463	 4.15879827480341E-02 
464	 3.97286022973217E-02 
465	 0.039683870251462 
466	 4.10651799321486E-02 
467	 3.95824374196449E-02 
468	 4.02059511468427E-02 
469	 4.07430891627861E-02 
470	 3.87593322659564E-02 
471	 3.91260567038495E-02 
472	 4.01959552139036E-02 
473	 4.03171636873148E-02 
474	 3.83258375053951E-02 
475	 3.80158144943867E-02 
476	 3.81067126284843E-02 
477	 3.76336776849832E-02 
478	 3.80979152072812E-02 
479	 3.91503136677347E-02 
480	 3.86041270755253E-02 
481	 3.50241510100512E-02 
482	 3.54458323443526E-02 
483	 3.69178897406817E-02 
484	 3.76932406212664E-02 
485	 3.81860342758939E-02 
486	 3.78550627607325E-02 
487	 3.69636364140845E-02 
488	 3.60701912232029E-02 
489	 3.59910380342221E-02 
490	 3.62674653734419E-02 
491	 0.03613618994852 
492	 3.50067392575833E-02 
493	 3.53936259214759E-02 
494	 3.62401679336336E-02 
495	 3.65995292061816E-02 
496	 3.63707253715592E-02 
497	 3.61873086833264E-02 
498	 3.60352162809678E-02 
499	 3.57781442810627E-02 
500	 3.57449401969402E-02 
501	 3.54827790603726E-02 
502	 3.51592261865823E-02 
503	 3.54145918876666E-02 
504	 0.035087977280726 
505	 0.034739970376029 
506	 3.49316633666458E-02 
507	 3.56883985739376E-02 
508	 3.52658641430414E-02 
509	 3.44492608761421E-02 
510	 3.47890578960555E-02 
511	 3.46596764859369E-02 
512	 3.43228064368002E-02 
513	 3.41131795687338E-02 
514	 3.42486433832656E-02 
515	 3.43713685664174E-02 
516	 3.46486113243406E-02 
517	 3.49597094294967E-02 
518	 3.35715529662529E-02 
519	 3.30638497806085E-02 
520	 3.35617571679837E-02 
521	 3.35484921859164E-02 
522	 3.36463513094798E-02 
523	 0.033867834594117 
524	 3.40317313060829E-02 
525	 3.36811261162135E-02 
526	 3.34214606589032E-02 
527	 3.34144582203709E-02 
528	 3.35957259703614E-02 
529	 3.36891043960069E-02 
530	 3.33961110255016E-02 
531	 3.29816284795789E-02 
532	 3.32561971620592E-02 
533	 3.39333332304008E-02 
534	 3.38597393019318E-02 
535	 3.27176329609965E-02 
536	 3.30049005166678E-02 
537	 3.34430007230268E-02 
538	 3.35412538154855E-02 
539	 3.33318716649769E-02 
540	 3.34271140000411E-02 
541	 3.33048821233391E-02 
542	 3.29260200000614E-02 
543	 3.32342696139422E-02 
544	 3.33590491158978E-02 
545	 3.31404076133398E-02 
546	 3.27683185526249E-02 
547	 3.29132785049206E-02 
548	 3.32726123449379E-02 
549	 3.34414836191578E-02 
550	 3.30280993616261E-02 
551	 3.29804849502155E-02 
552	 3.30464307665806E-02 
553	 3.29521296940087E-02 
554	 3.29479996863804E-02 
555	 3.30113595702382E-02 
556	 3.30330545219009E-02 
557	 3.29286325858478E-02 
558	 3.31829155110401E-02 
559	 3.32678730612641E-02 
560	 0.033110657110663 
561	 3.33888434998073E-02 
562	 3.35964504417634E-02 
563	 3.37054150947373E-02 
564	 0.033769383575262 
565	 3.36032766018515E-02 
566	 3.37412894614559E-02 
567	 3.39915783945152E-02 
568	 3.37247267363061E-02 
569	 3.41655006284874E-02 
570	 3.46285561895762E-02 
571	 3.45734296584843E-02 
572	 3.43025232388962E-02 
573	 3.43478320678337E-02 
574	 0.034749770907987 
575	 3.53024207071869E-02 
576	 3.57852217601656E-02 
577	 0.036129104260631 
578	 3.63894168095348E-02 
579	 3.67378674451796E-02 
580	 3.69649491767797E-02 
581	 3.72742022480948E-02 
582	 3.78072298030099E-02 
583	 3.82044598188725E-02 
584	 3.87982969074798E-02 
585	 3.96599109128104E-02 
586	 0.040616312645531 
587	 4.08207488643494E-02 
588	 4.11710384520768E-02 
589	 4.20694784047775E-02 
590	 4.27734023396554E-02 
591	 4.37358680461559E-02 
592	 4.48261817832912E-02 
593	 4.58213976277174E-02 
594	 4.68539954296198E-02 
595	 4.79304074492784E-02 
596	 4.91639881620084E-02 
597	 5.07192033660203E-02 
598	 5.19578823198102E-02 
599	 5.32639815261524E-02 
600	 5.49963748588755E-02 
601	 5.70109751566366E-02 
602	 5.90912752985133E-02 
603	 6.13215036907882E-02 
604	 6.38434216054083E-02 
605	 6.61773662673435E-02 
606	 0.068944494379626 
607	 7.22165897900054E-02 
608	 7.52824573885703E-02 
609	 7.86652834555601E-02 
610	 8.24339315662487E-02 
611	 8.65083521910008E-02 
612	 0.090636025032921 
613	 9.50625259413542E-02 
614	 9.98092471015031E-02 
615	 0.104764218005752 
616	 0.109909899421585 
617	 0.115236969383739 
618	 0.120750435601129 
619	 0.126477154910073 
620	 0.132363157768967 
621	 0.13841951231616 
622	 0.144637751871328 
623	 0.150786900243607 
624	 0.15711369710857 
625	 0.163601707188549 
626	 0.169977476335973 
627	 0.176241379932823 
628	 0.182377382219362 
629	 0.188443217693594 
630	 0.194702028685166 
631	 0.200639526836366 
632	 0.206184692557517 
633	 0.211516275735357 
634	 0.217085111508483 
635	 0.222427301085357 
636	 0.227327519117982 
637	 0.231954273842772 
638	 0.236215899073795 
639	 0.240407719186607 
640	 0.244672177711821 
641	 0.248381443494774 
642	 0.251880061327143 
643	 0.255199343486316 
644	 0.258222446686643 
645	 0.261261847928323 
646	 0.26417829329288 
647	 0.266802208432946 
648	 0.268993058239336 
649	 0.27140548479577 
650	 0.273736775361656 
651	 0.275606026659253 
652	 0.277664364475466 
653	 0.279550439669972 
654	 0.281213991350286 
655	 0.282858254487873 
656	 0.284230297390924 
657	 0.285520109025952 
658	 0.286874362378168 
659	 0.288229577465791 
660	 0.289337003531966 
661	 0.290321517272557 
662	 0.291416896856538 
663	 0.292578468033633 
664	 0.293627783152202 
665	 0.294521982812193 
666	 0.295364552368635 
667	 0.29615730443934 
668	 0.296912215295071 
669	 0.297634268117732 
670	 0.298287952998188 
671	 0.299129103009721 
672	 0.299917362163604 
673	 0.300319140237876 
674	 0.301015142770814 
675	 0.301699023361267 
676	 0.30226428857251 
677	 0.302940428064418 
678	 0.303378594153047 
679	 0.303775488302971 
680	 0.304307402856141 
681	 0.304674893006469 
682	 0.305152294966641 
683	 0.305739912129764 
684	 0.306286445233086 
685	 0.306763862717486 
686	 0.307102934377949 
687	 0.307367405232863 
688	 0.307802382076428 
689	 0.308199688128364 
690	 0.308563464061959 
691	 0.308942935757186 
692	 0.309342520332709 
693	 0.309748563646426 
694	 0.310115136300195 
695	 0.310393922761043 
696	 0.31069223476014 
697	 0.311047911677491 
698	 0.311440117765261 
699	 0.311778169565491 
700	 0.312049941529106 
701	 0.312317983586575 
702	 0.31263273978274 
703	 0.312901134099896 
704	 0.31317135296199 
705	 0.313497609831689 
706	 0.313906536049216 
707	 0.314133486617666 
708	 0.31435461669979 
709	 0.314620737655902 
710	 0.31466152348067 
711	 0.314953445164609 
712	 0.315315607250288 
713	 0.315504189427084 
714	 0.315875948026582 
715	 0.316179885314724 
716	 0.316382402759128 
717	 0.316607307185477 
718	 0.316760532821707 
719	 0.317013459190364 
720	 0.317363864685788 
721	 0.317453053699033 
722	 0.31778688649377 
723	 0.318159863198257 
724	 0.31829287381814 
725	 0.318500873123756 
726	 0.318799288944839 
727	 0.319130365087368 
728	 0.319391259945588 
729	 0.319562518045901 
730	 0.319715850796136 
731	 0.319895569328598 
732	 0.320075557927538 
733	 0.32035176602874 
734	 0.320641557888994 
735	 0.320867823333296 
736	 0.321191931428335 
737	 0.321425695124381 
738	 0.321615589483678 
739	 0.321932847844183 
740	 0.32213277261136 
741	 0.322372482056249 
742	 0.322693588072515 
743	 0.322898863650952 
744	 0.323065800735803 
745	 0.323244392488726 
746	 0.32348195732615 
747	 0.323851840157529 
748	 0.324105414407361 
749	 0.324313372246314 
750	 0.324687664557119 
751	 0.324957395411019 
752	 0.325220909604045 
753	 0.3255086892994 
754	 0.325719893206205 
755	 0.326097738960823 
756	 0.326519725709298 
757	 0.326848897141041 
758	 0.327169651790547 
759	 0.327414563382589 
760	 0.327643254977004 
761	 0.327957871621081 
762	 0.328317155561088 
763	 0.328713156346114 
764	 0.329097419527439 
765	 0.329389105583502 
766	 0.3297297806299 
767	 0.330064646722276 
768	 0.330357953714512 
769	 0.330706468670803 
770	 0.331047474524092 
771	 0.331421839564533 
772	 0.331854380752987 
773	 0.332110392632544 
774	 0.33240412365771 
775	 0.332769459874282 
776	 0.333085637997654 
777	 0.333408764191411 
778	 0.333814137601705 
779	 0.334273091854281 
780	 0.334581228266478 
781	 0.334847301682298 
782	 0.335215548813739 
783	 0.335729295099811 
784	 0.336051976917106 
785	 0.336416535990111 
786	 0.336789802329478 
787	 0.337025978001859 
788	 0.337365760507393 
789	 0.337705778595461 
790	 0.338018271034917 
791	 0.338397356956594 
792	 0.338738385368582 
793	 0.339096388923798 
794	 0.339511812926679 
795	 0.339920823436451 
796	 0.34023359127227 
797	 0.340494781926581 
798	 0.340792939408713 
799	 0.341127888291354 
800	 0.341524751247759 
801	 0.341914186008666 
802	 0.342190029441644 
803	 0.342649792949397 
804	 0.342991547983976 
805	 0.343157119824059 
806	 0.343558711374844 
807	 0.343921243919951 
808	 0.344286160390585 
809	 0.344688119577241 
810	 0.344916310702819 
811	 0.345079759654358 
812	 0.345347782869859 
813	 0.345819623698895 
814	 0.346071381467294 
815	 0.346264566351863 
816	 0.346527267396004 
817	 0.346900343556712 
818	 0.347176847580917 
819	 0.347431787251985 
820	 0.347711307955146 
821	 0.347939594242057 
822	 0.348261990597433 
823	 0.348493896334803 
824	 0.348547144239235 
825	 0.34891938018883 
826	 0.349105030077665 
827	 0.349217489027677 
828	 0.34956750006682 
829	 0.349829067460526 
830	 0.349954051337793 
831	 0.350059297858032 
832	 0.350354311684488 
833	 0.350578769041144 
834	 0.350770668485089 
835	 0.350981413103232 
836	 0.351214128872421 
837	 0.351384246772122 
838	 0.351498035240868 
839	 0.351588838185558 
840	 0.351666604688119 
841	 0.351967332925434 
842	 0.35222924665299 
843	 0.352165571116157 
844	 0.352446453974794 
845	 0.352595551358986 
846	 0.3525862175924 
847	 0.352729680924103 
848	 0.35290901178882 
849	 0.353051730639349 
850	 0.35315563451763 
851	 0.353296820211583 
852	 0.353364030579708 
853	 0.353480285719279 
854	 0.353684193959714 
855	 0.353738745502773 
856	 0.353797150698919 
857	 0.353861542497157 
858	 0.353916683232433 
859	 0.354056985852113 
860	 0.354172376620989 
861	 0.354297251894581 
862	 0.354495647023738 
863	 0.354543651704346 
864	 0.354526487632551 
865	 0.35454215531248 
866	 0.354651421325108 
867	 0.35462491076714 
868	 0.354672155417208 
869	 0.354836401973475 
870	 0.354864209722818 
871	 0.35496314525514 
872	 0.355022079619916 
873	 0.354949575660348 
874	 0.354828365743924 
875	 0.354916363273417 
876	 0.355102591035989 
877	 0.355189251560882 
878	 0.355142847341606 
879	 0.355217422751839 
880	 0.355205497147273 
881	 0.354875243253965 
882	 0.355144267686415 
883	 0.355341914643029 
884	 0.355269867164959 
885	 0.35517503590158 
886	 0.35514339450936 
887	 0.35527129644167 
888	 0.355402001408877 
889	 0.355153042042849 
890	 0.355053597090663 
891	 0.355101115677832 
892	 0.355224591589945 
893	 0.355414393899014 
894	 0.355346381136759 
895	 0.355237209898611 
896	 0.355306156241613 
897	 0.355414711825283 
898	 0.355352196226197 
899	 0.355293209412999 
900	 0.355417696984327 
901	 0.35535883315679 
902	 0.355428546586512 
903	 0.355572559728916 
904	 0.355579914876342 
905	 0.35547841687731 
906	 0.355517983250464 
907	 0.35563062653529 
908	 0.355576072928101 
909	 0.355730126982992 
910	 0.355851600824196 
911	 0.355882733370449 
912	 0.355987424928193 
913	 0.355933913219343 
914	 0.355941543415917 
915	 0.356096752130211 
916	 0.356219775531418 
917	 0.356389201209267 
918	 0.356401978193222 
919	 0.356284651067558 
920	 0.356560881685754 
921	 0.356561447352209 
922	 0.35647231279593 
923	 0.356567260023039 
924	 0.356752215829304 
925	 0.356961790445202 
926	 0.357046003694864 
927	 0.356986879069443 
928	 0.35728012366453 
929	 0.357296699014326 
930	 0.357211664207197 
931	 0.357416708088142 
932	 0.357653933100574 
933	 0.357780220458384 
934	 0.357828400789522 
935	 0.357913310097529 
936	 0.357977325695075 
937	 0.358121677227052 
938	 0.35834857490253 
939	 0.358567959150752 
940	 0.358617628214285 
941	 0.358708822294775 
942	 0.358845228195475 
943	 0.358873512910361 
944	 0.359161050958436 
945	 0.359476373147678 
946	 0.359540798309118 
947	 0.359218345579094 
948	 0.359526074651863 
949	 0.359937141573928 
950	 0.359982651545845 
951	 0.35965642584136 
952	 0.35998595196372 
953	 0.360196623079423 
954	 0.359975139964251 
955	 0.360135849425708 
956	 0.360255093437504 
957	 0.360488372616492 
958	 0.360791883669098 
959	 0.360636379945011 
960	 0.360860095692354 
961	 0.36119612074438 
962	 0.361240651913008 
963	 0.360869343432336 
964	 0.361288879680894 
965	 0.361664307297033 
966	 0.361399050712444 
967	 0.361672519117244 
968	 0.361917569332765 
969	 0.36199651469781 
970	 0.362013288626769 
971	 0.362383912368975 
972	 0.362477373148594 
973	 0.362416758425539 
974	 0.362499309609051 
975	 0.36281591558682 
976	 0.362971021341645 
977	 0.362975750148225 
978	 0.362961341192002 
979	 0.362933691083326 
980	 0.363160895112046 
981	 0.363317960333753 
982	 0.363169979052358 
983	 0.363448391770591 
984	 0.363503053918809 
985	 0.363480312276283 
986	 0.363622759093524 
987	 0.363503993239781 
988	 0.363473650487501 
989	 0.363765552198228 
990	 0.364302377613146 
991	 0.364199140594527 
992	 0.364222406854291 
993	 0.364375394453926 
994	 0.36449366168316 
995	 0.364909486645585 
996	 0.364809630044751 
997	 0.364791235659822 
998	 0.365359804349225 
999	 0.364898869436848 
1000	 0.365157155681551 
1001	 0.366516225413705 
1002	 0.366657681810765 
1003	 0.366852719776719 
1004	 0.366967643082004 
1005	 0.366792846050918 
1006	 0.366908228805741 
1007	 0.367242271565629 
1008	 0.367408971384178 
1009	 0.367551152897941 
1010	 0.367665654947788 
1011	 0.367791704815575 
1012	 0.367872140442262 
1013	 0.367884451679421 
1014	 0.367926534000682 
1015	 0.367952433904345 
1016	 0.367887134013215 
1017	 0.368176157992506 
1018	 0.36823630258133 
1019	 0.368227683384972 
1020	 0.368413978214409 
1021	 0.368476752750921 
1022	 0.36839734265142 
1023	 0.368452445528403 
1024	 0.368590611861488 
1025	 0.368661093606743 
1026	 0.368662534860848 
1027	 0.368745343276479 
1028	 0.368881888959517 
1029	 0.368954036358342 
1030	 0.369120671850131 
1031	 0.369473442395954 
1032	 0.369599754254966 
1033	 0.369596851382759 
1034	 0.369721135536481 
1035	 0.36964197498553 
1036	 0.369714411313106 
1037	 0.369983519611425 
1038	 0.370175857114043 
1039	 0.370290392415889 
1040	 0.370447594960808 
1041	 0.370714878290559 
1042	 0.370781322833946 
1043	 0.370691424938159 
1044	 0.370779473942819 
1045	 0.370893870690753 
1046	 0.37077393796978 
1047	 0.370801728830224 
1048	 0.370950014350533 
1049	 0.37112643267916 
1050	 0.371305856761049 
1051	 0.371357293967023 
1052	 0.371418842596102 
1053	 0.371462826466686 
1054	 0.371350120553225 
1055	 0.371326022265836 
1056	 0.371328043276096 
1057	 0.371430796538297 
1058	 0.371579491021957 
1059	 0.37171559693313 
1060	 0.371864399051563 
1061	 0.372065457718461 
1062	 0.372109604475485 
1063	 0.37191184313796 
1064	 0.371833839325323 
1065	 0.371764848520579 
1066	 0.371540557787494 
1067	 0.371520875050305 
1068	 0.371620380395767 
1069	 0.37158929959084 
1070	 0.371632906901903 
1071	 0.37178445964872 
1072	 0.371863667076843 
1073	 0.371742263134517 
1074	 0.371646687560566 
1075	 0.371389043391612 
1076	 0.371204229945369 
1077	 0.3711769863602 
1078	 0.371205566660765 
1079	 0.371374597036554 
1080	 0.371428937473016 
1081	 0.37148930331792 
1082	 0.371533990220981 
1083	 0.371494599958538 
1084	 0.371521438413702 
1085	 0.371448689669608 
1086	 0.371417158227468 
1087	 0.371371085365839 
1088	 0.371409885399395 
1089	 0.371447950307855 
1090	 0.371539590219802 
1091	 0.371620086618259 
1092	 0.371633372069782 
1093	 0.371668252867093 
1094	 0.37169120869551 
1095	 0.371718225797837 
1096	 0.371850795480533 
1097	 0.371948527272928 
1098	 0.37206875383668 
1099	 0.372158823486471 
1100	 0.372069220991261 
1101	 0.37210992304423 
1102	 0.372193741144695 
1103	 0.372256964847045 
1104	 0.372318257831279 
1105	 0.372574652167641 
1106	 0.372731291104407 
1107	 0.372865358450656 
1108	 0.373066196962767 
1109	 0.373139863270387 
1110	 0.373284585743783 
1111	 0.3734281649548 
1112	 0.373524930831973 
1113	 0.373722135337391 
1114	 0.373935031027982 
1115	 0.374104564340502 
1116	 0.374287401425723 
1117	 0.37453857464187 
1118	 0.374760916034886 
1119	 0.374897874855118 
1120	 0.375118420227312 
1121	 0.375396267533318 
1122	 0.375702430801008 
1123	 0.375891671783923 
1124	 0.376098284634862 
1125	 0.376364511628942 
1126	 0.376535712316299 
1127	 0.376714199025683 
1128	 0.377014818297635 
1129	 0.377301674653823 
1130	 0.37753856275009 
1131	 0.377751452821951 
1132	 0.377928309098555 
1133	 0.378105544949153 
1134	 0.378277479352873 
1135	 0.378435557215104 
1136	 0.378619316736359 
1137	 0.378827057274835 
1138	 0.379039652869496 
1139	 0.37919085540086 
1140	 0.379363362313288 
1141	 0.37950161239199 
1142	 0.379555839819369 
1143	 0.37962505308362 
1144	 0.379774364384102 
1145	 0.379996218323057 
1146	 0.380163934225697 
1147	 0.380237534060477 
1148	 0.380349636520384 
1149	 0.380418727712394 
1150	 0.380444441591083 
1151	 0.380525372663848 
1152	 0.380572143907637 
1153	 0.380565470607136 
1154	 0.380601688868721 
1155	 0.380651385019555 
1156	 0.380694501458501 
1157	 0.38076492298011 
1158	 0.380791441231495 
1159	 0.380799146068882 
1160	 0.380814459190051 
1161	 0.380786017031241 
1162	 0.380702575544804 
1163	 0.380673959971395 
1164	 0.380678707008951 
1165	 0.380656056138259 
1166	 0.380634406710576 
1167	 0.380527998816553 
1168	 0.380364866113185 
1169	 0.380270764244875 
1170	 0.380200016059475 
1171	 0.380124753772512 
1172	 0.380093137305518 
1173	 0.380008702513847 
1174	 0.379888139684585 
1175	 0.379782286626984 
1176	 0.379691147342147 
1177	 0.379568064598149 
1178	 0.3794328849447 
1179	 0.379254109888021 
1180	 0.379130492015668 
1181	 0.379039208622194 
1182	 0.378996824374523 
1183	 0.378967835915454 
1184	 0.378914331083673 
1185	 0.378886281257781 
1186	 0.378813705415682 
1187	 0.3787175243915 
1188	 0.378661221954606 
1189	 0.37854943914089 
1190	 0.378520677866866 
1191	 0.37858181416445 
1192	 0.37861402278797 
1193	 0.378658849570336 
1194	 0.378721904143928 
1195	 0.378797873042581 
1196	 0.378866118558144 
1197	 0.378926854186724 
1198	 0.379035467553079 
1199	 0.379122963117529 
1200	 0.379248659914611 
1201	 0.37939257823526 
1202	 0.3795448293079 
1203	 0.379710222024018 
1204	 0.37983169921772 
1205	 0.379997980502074 
1206	 0.380135129777819 
1207	 0.380401588593468 
1208	 0.380732135920568 
1209	 0.381100278365108 
1210	 0.381548258015071 
1211	 0.382027876323126 
1212	 0.382519079654204 
1213	 0.3830872356552 
1214	 0.383728872724558 
1215	 0.384427252946018 
1216	 0.385245312920093 
1217	 0.385996676885588 
1218	 0.38677955036154 
1219	 0.387531748518493 
1220	 0.388290705884929 
1221	 0.389025769283405 
1222	 0.389805876687022 
1223	 0.39063728618055 
1224	 0.391405230018894 
1225	 0.392133005924686 
1226	 0.392888442113992 
1227	 0.393657901152137 
1228	 0.39437939158873 
1229	 0.395099063857515 
1230	 0.39578613256569 
1231	 0.396420507657428 
1232	 0.39706494503699 
1233	 0.397733037929446 
1234	 0.398332729907549 
1235	 0.398857698881271 
1236	 0.399416129974773 
1237	 0.399957669184765 
1238	 0.400491433641034 
1239	 0.40099633808226 
1240	 0.401606654979438 
1241	 0.402111628756404 
1242	 0.40257343079874 
1243	 0.403099330025499 
1244	 0.403667020161749 
1245	 0.404136317322104 
1246	 0.404608826968163 
1247	 0.405037468574804 
1248	 0.405341724857612 
1249	 0.40576346176796 
1250	 0.406226493733804 
1251	 0.406685852604861 
1252	 0.407191308437925 
1253	 0.407672438226652 
1254	 0.408158680191141 
1255	 0.408625573375003 
1256	 0.409088534350871 
1257	 0.409533673291034 
1258	 0.409938718194689 
1259	 0.410376346793322 
1260	 0.410831275435019 
1261	 0.411267580921074 
1262	 0.411718018462213 
1263	 0.412148386118415 
1264	 0.41257416939198 
1265	 0.41297891451884 
1266	 0.41338955437176 
1267	 0.413818827447551 
1268	 0.414191262893173 
1269	 0.414531478133104 
1270	 0.414873829632262 
1271	 0.41518445105369 
1272	 0.415499675171247 
1273	 0.415788782264095 
1274	 0.416128490367028 
1275	 0.416502800821134 
1276	 0.416837041041427 
1277	 0.417192821591174 
1278	 0.417527972285856 
1279	 0.41781451553662 
1280	 0.418116565565399 
1281	 0.418456161370419 
1282	 0.418751041732056 
1283	 0.41903332342559 
1284	 0.419273996104709 
1285	 0.419482235420284 
1286	 0.419642640015729 
1287	 0.419833225888844 
1288	 0.419985883494978 
1289	 0.420198316910915 
1290	 0.420487961070854 
1291	 0.420653879776646 
1292	 0.420760231736633 
1293	 0.420927039498636 
1294	 0.42104938886964 
1295	 0.42119937568641 
1296	 0.421441307797862 
1297	 0.421597671912626 
1298	 0.421658394614116 
1299	 0.421794836542091 
1300	 0.421961961751905 
1301	 0.422108007677654 
1302	 0.422263915645255 
1303	 0.422428938984914 
1304	 0.422607086174555 
1305	 0.422747222920733 
1306	 0.422864682867743 
1307	 0.423008568402741 
1308	 0.423136682514482 
1309	 0.423254572734122 
1310	 0.423401637358375 
1311	 0.423603436817545 
1312	 0.423743577812682 
1313	 0.423823113597867 
1314	 0.424011123096712 
1315	 0.424220876752709 
1316	 0.424455511367197 
1317	 0.424797890648211 
1318	 0.425033945087325 
1319	 0.425209426777391 
1320	 0.425431600026371 
1321	 0.425632581568867 
1322	 0.425857856712014 
1323	 0.426128073302128 
1324	 0.426371699248114 
1325	 0.426629621459366 
1326	 0.42683918170813 
1327	 0.426989020190368 
1328	 0.427189923201618 
1329	 0.427348107622081 
1330	 0.427571914087349 
1331	 0.427895595848266 
1332	 0.428175666655002 
1333	 0.428463999231756 
1334	 0.428751616445784 
1335	 0.428997293692292 
1336	 0.429204497887855 
1337	 0.429437366013675 
1338	 0.429670080198134 
1339	 0.429871737904108 
1340	 0.430077351949358 
1341	 0.430243764008187 
1342	 0.430362662363346 
1343	 0.430503034215241 
1344	 0.4306507736184 
1345	 0.430762360231048 
1346	 0.430854055550086 
1347	 0.430947896305144 
1348	 0.431019689243625 
1349	 0.431092676112095 
1350	 0.431186155520221 
1351	 0.431237793078148 
1352	 0.431244319892366 
1353	 0.431276468242654 
1354	 0.431301417157551 
1355	 0.431328460787001 
1356	 0.431359924477478 
1357	 0.431402726513837 
1358	 0.431450761910502 
1359	 0.431494752416839 
1360	 0.431590084317194 
1361	 0.431610087264952 
1362	 0.431622654531757 
1363	 0.431632434621583 
1364	 0.431583845800851 
1365	 0.431486379433493 
1366	 0.431417738863028 
1367	 0.431336505951104 
1368	 0.431213068971622 
1369	 0.431092554211514 
1370	 0.43093664293507 
1371	 0.430710846497186 
1372	 0.430527615334996 
1373	 0.430389065894431 
1374	 0.430164424418494 
1375	 0.429906856801495 
1376	 0.429632527350174 
1377	 0.42927531800272 
1378	 0.428968240739887 
1379	 0.428689123907118 
1380	 0.42838445198325 
1381	 0.42806945131143 
1382	 0.427761064222259 
1383	 0.42748897097092 
1384	 0.427127701336114 
1385	 0.426711541766908 
1386	 0.426322239213749 
1387	 0.425846608286215 
1388	 0.425442885637305 
1389	 0.425077850398586 
1390	 0.424754724718063 
1391	 0.424514725956761 
1392	 0.424193017419311 
1393	 0.423992268872421 
1394	 0.423853625095234 
1395	 0.423641841053343 
1396	 0.423470472913467 
1397	 0.423186005749922 
1398	 0.422841683266989 
1399	 0.42244697644732 
1400	 0.422031940029842 
1401	 0.421471039317699 
1402	 0.420839490491262 
1403	 0.420085099329065 
1404	 0.419177398248221 
1405	 0.418267535656026 
1406	 0.41730701796289 
1407	 0.416249350227793 
1408	 0.41508067925195 
1409	 0.413938203092277 
1410	 0.41272870245817 
1411	 0.411514583332437 
1412	 0.41028122914616 
1413	 0.409088504080246 
1414	 0.407863305151239 
1415	 0.406673046617218 
1416	 0.405526464826116 
1417	 0.404399057842357 
1418	 0.403269564909361 
1419	 0.402168143761678 
1420	 0.401104455597025 
1421	 0.400065363295822 
1422	 0.399078690584866 
1423	 0.398050996984314 
1424	 0.396984344623723 
1425	 0.39596947205769 
1426	 0.395075722663384 
1427	 0.394146510732014 
1428	 0.393267158553232 
1429	 0.392495236098281 
1430	 0.391638626014113 
1431	 0.390743156170023 
1432	 0.389797917392656 
1433	 0.388876662994269 
1434	 0.387822685818325 
1435	 0.38665071535711 
1436	 0.385482931213133 
1437	 0.384249735993969 
1438	 0.383042574280861 
1439	 0.381809743214778 
1440	 0.380577591363208 
1441	 0.379261234260188 
1442	 0.378130434918974 
1443	 0.376929005452592 
1444	 0.376079899638093 
1445	 0.375387344545397 
1446	 0.374996799538302 
1447	 0.374812752417709 
1448	 0.374962873044746 
1449	 0.375429332638556 
1450	 0.376122912590268 
1451	 0.377238690769628 
1452	 0.378345110883464 
1453	 0.379723509754787 
1454	 0.381008181987423 
1455	 0.382364525528909 
1456	 0.383655479586585 
1457	 0.38494938724469 
1458	 0.386184025179046 
1459	 0.387394081361017 
1460	 0.388531512066821 
1461	 0.389609794312123 
1462	 0.390626571318569 
1463	 0.391549059936725 
1464	 0.39246463989737 
1465	 0.393353155389363 
1466	 0.394192813834868 
1467	 0.394966529088574 
1468	 0.39573883557571 
1469	 0.396436372000439 
1470	 0.397090037569312 
1471	 0.397749183641714 
1472	 0.398380396115738 
1473	 0.399034686749298 
1474	 0.399704728661144 
1475	 0.400315512873885 
1476	 0.400941828359815 
1477	 0.401479591978838 
1478	 0.401960949631458 
1479	 0.402369056706138 
1480	 0.402733021139356 
1481	 0.403005689307994 
1482	 0.403174813227863 
1483	 0.403329585005145 
1484	 0.403387910933317 
1485	 0.403504231409296 
1486	 0.403601335139327 
1487	 0.40371792318218 
1488	 0.40382092308554 
1489	 0.404004261252527 
1490	 0.404172064019917 
1491	 0.404474639022258 
1492	 0.404842740752061 
1493	 0.405347313420017 
1494	 0.405953523139378 
1495	 0.406669054955659 
1496	 0.40758165783198 
1497	 0.408449552501323 
1498	 0.409389119438369 
1499	 0.410333554777232 
1500	 0.411293908818192 
1501	 0.412258101484165 
1502	 0.413279178468341 
1503	 0.414248418581735 
1504	 0.415224168524062 
1505	 0.416131481256063 
1506	 0.417018805892779 
1507	 0.41783041366354 
1508	 0.418538590089617 
1509	 0.419255207471476 
1510	 0.419966740812888 
1511	 0.420592656011495 
1512	 0.421195520367659 
1513	 0.421724693037737 
1514	 0.422130833239607 
1515	 0.422537927552131 
1516	 0.422886696300154 
1517	 0.423249532812759 
1518	 0.423623961097551 
1519	 0.42395195852909 
1520	 0.424285676110692 
1521	 0.424559710959809 
1522	 0.424781965850443 
1523	 0.424968643810669 
1524	 0.425139204760728 
1525	 0.425270124543386 
1526	 0.425416481786927 
1527	 0.425551268707796 
1528	 0.425675578804608 
1529	 0.425815382076644 
1530	 0.425879733669977 
1531	 0.425877056206432 
1532	 0.425948295721781 
1533	 0.426005899027898 
1534	 0.426074675372274 
1535	 0.42617278153817 
1536	 0.426305073387151 
1537	 0.426400323869287 
1538	 0.426611370574993 
1539	 0.426908362097263 
1540	 0.427240247207989 
1541	 0.427630139989112 
1542	 0.428041762923458 
1543	 0.428491440840852 
1544	 0.429004083313659 
1545	 0.429552202028211 
1546	 0.430154058767703 
1547	 0.430835105171089 
1548	 0.431528608597494 
1549	 0.432274188643675 
1550	 0.432997249862963 
1551	 0.433750032879207 
1552	 0.434487991376024 
1553	 0.435216173942363 
1554	 0.435938012752348 
1555	 0.436680619162872 
1556	 0.437378515592217 
1557	 0.43804837392003 
1558	 0.438704227797508 
1559	 0.439315097715862 
1560	 0.439962725033324 
1561	 0.440603100580313 
1562	 0.441266127889444 
1563	 0.442003985641814 
1564	 0.442634431294196 
1565	 0.443204716829078 
1566	 0.443802464010263 
1567	 0.444353000581241 
1568	 0.444916178053113 
1569	 0.445509055996809 
1570	 0.446086337233495 
1571	 0.446637898505198 
1572	 0.447189806099386 
1573	 0.447772603095324 
1574	 0.448304923240278 
1575	 0.448779193452328 
1576	 0.449288471768841 
1577	 0.449777093125936 
1578	 0.450299976111214 
1579	 0.450901081072633 
1580	 0.451407635354853 
1581	 0.451873973994749 
1582	 0.452342878484907 
1583	 0.452739914657858 
1584	 0.453178995743857 
1585	 0.453652674754337 
1586	 0.454115654406247 
1587	 0.454560058784928 
1588	 0.455036070104495 
1589	 0.455579386161618 
1590	 0.456033229907719 
1591	 0.456423511666117 
1592	 0.456872095589898 
1593	 0.457281494174412 
1594	 0.457726088801356 
1595	 0.458272423013679 
1596	 0.45874388846163 
1597	 0.459137838861101 
1598	 0.45959555630577 
1599	 0.460087886417889 
1600	 0.460545962024625 
1601	 0.461040815030356 
1602	 0.461482550222018 
1603	 0.461827932162938 
1604	 0.462243559682862 
1605	 0.462703936714787 
1606	 0.463125094092238 
1607	 0.463553085509796 
1608	 0.463976240840523 
1609	 0.464364021066663 
1610	 0.46475942025502 
1611	 0.465187175562056 
1612	 0.465577948967928 
1613	 0.465931440875205 
1614	 0.466296207041188 
1615	 0.466696331205481 
1616	 0.467020108344232 
1617	 0.467273262553205 
1618	 0.467558943801013 
1619	 0.467832825226917 
1620	 0.468063196460001 
1621	 0.468286116184729 
1622	 0.468524277989064 
1623	 0.468687654696721 
1624	 0.468912217459641 
1625	 0.469266511118166 
1626	 0.469499861825951 
1627	 0.469670302983941 
1628	 0.469841678482405 
1629	 0.469915123253255 
1630	 0.470053853455075 
1631	 0.470238108632833 
1632	 0.470421644948446 
1633	 0.470636971903122 
1634	 0.470823573102468 
1635	 0.470996717581998 
1636	 0.471179539059894 
1637	 0.471378242493522 
1638	 0.471533357545858 
1639	 0.4716761935232 
1640	 0.47180550407404 
1641	 0.471841635072908 
1642	 0.471965276499848 
1643	 0.472164244722669 
1644	 0.472313198079368 
1645	 0.472527499733954 
1646	 0.472656986042917 
1647	 0.472691130314245 
1648	 0.47274085610115 
1649	 0.47280120737065 
1650	 0.472776097326932 
1651	 0.472723173837178 
1652	 0.472613061557877 
1653	 0.472414022891321 
1654	 0.472195902925714 
1655	 0.471923785926233 
1656	 0.471651623991738 
1657	 0.471384618024063 
1658	 0.471027825519919 
1659	 0.470624785138148 
1660	 0.470204367724722 
1661	 0.469711480623067 
1662	 0.469196071016814 
1663	 0.468679918992236 
1664	 0.468102186601164 
1665	 0.467520232323654 
1666	 0.466790253427794 
1667	 0.465949318553149 
1668	 0.465094924289581 
1669	 0.464114314172781 
1670	 0.463140761115379 
1671	 0.462221671993344 
1672	 0.461139583104416 
1673	 0.459995473722322 
1674	 0.458700928973652 
1675	 0.457241314151332 
1676	 0.455772225996183 
1677	 0.454178446810456 
1678	 0.452602122560101 
1679	 0.450993153657504 
1680	 0.449357296983681 
1681	 0.447767618593717 
1682	 0.44597295401996 
1683	 0.444042373082372 
1684	 0.442157020490382 
1685	 0.440169844009459 
1686	 0.438158952325672 
1687	 0.436179616119793 
1688	 0.434089657114587 
1689	 0.431868684614981 
1690	 0.429630284873564 
1691	 0.427431294990408 
1692	 0.425107222940297 
1693	 0.422647146205724 
1694	 0.420246699371585 
1695	 0.417787695141697 
1696	 0.415253566113395 
1697	 0.412750794906911 
1698	 0.410092790619341 
1699	 0.407300226251919 
1700	 0.404574717306712 
1701	 0.401754064100229 
1702	 0.399067408841 
1703	 0.396378429458723 
1704	 0.393811702808865 
1705	 0.391310181740161 
1706	 0.388870048923199 
1707	 0.386712865764635 
1708	 0.38467823315452 
1709	 0.382784589535866 
1710	 0.381077558656664 
1711	 0.379383789154837 
1712	 0.377773809591762 
1713	 0.376158084351924 
1714	 0.374612610987742 
1715	 0.373230921426349 
1716	 0.371904829939547 
1717	 0.370665833916779 
1718	 0.369388096322506 
1719	 0.368095466531824 
1720	 0.3668575930752 
1721	 0.365719653463791 
1722	 0.364761211299358 
1723	 0.363909884210803 
1724	 0.363078888685443 
1725	 0.362324394070351 
1726	 0.361700298257741 
1727	 0.361223862553413 
1728	 0.360927535428685 
1729	 0.360958064470117 
1730	 0.361294715308081 
1731	 0.361747346939267 
1732	 0.362533441081315 
1733	 0.363447019280499 
1734	 0.364379332993484 
1735	 0.365463797556853 
1736	 0.366499947897629 
1737	 0.367481829255064 
1738	 0.368307616336914 
1739	 0.368943599295937 
1740	 0.36941987396547 
1741	 0.369734211600171 
1742	 0.369857979247509 
1743	 0.369905548137894 
1744	 0.369768771684383 
1745	 0.369646329320839 
1746	 0.369430362702885 
1747	 0.369234195883643 
1748	 0.368918080443977 
1749	 0.368784285890751 
1750	 0.368737932133068 
1751	 0.368742266499882 
1752	 0.368826253083344 
1753	 0.369056821775806 
1754	 0.369294319317172 
1755	 0.369771320998167 
1756	 0.370495654309019 
1757	 0.371264256907589 
1758	 0.372141798368895 
1759	 0.373083547296013 
1760	 0.374150444447504 
1761	 0.375442389376086 
1762	 0.376785937176132 
1763	 0.378153235456495 
1764	 0.379662891304278 
1765	 0.381244527117396 
1766	 0.382999344480431 
1767	 0.384951321540464 
1768	 0.386936607759064 
1769	 0.388830486006743 
1770	 0.390557313305989 
1771	 0.392244896677492 
1772	 0.393936106286804 
1773	 0.395550687221368 
1774	 0.397127675216769 
1775	 0.398633567380415 
1776	 0.400036009884864 
1777	 0.401365830353293 
1778	 0.402568128699183 
1779	 0.403642901316569 
1780	 0.404660082722333 
1781	 0.405689097594444 
1782	 0.406827433571443 
1783	 0.407926201133317 
1784	 0.408848700929492 
1785	 0.409680857891683 
1786	 0.410498617628294 
1787	 0.41127954865399 
1788	 0.412023198114282 
1789	 0.412698038097909 
1790	 0.41332590728605 
1791	 0.413862262114444 
1792	 0.414510083186089 
1793	 0.415227301509258 
1794	 0.415929648274263 
1795	 0.416604365263651 
1796	 0.417302697885082 
1797	 0.417893162625546 
1798	 0.418464737761604 
1799	 0.419093491915076 
1800	 0.419699494684159 
1801	 0.409850340189315 
1802	 0.410417160323504 
1803	 0.410936500290067 
1804	 0.411304947386727 
1805	 0.411743565597253 
1806	 0.412243699893333 
1807	 0.412811801621261 
1808	 0.413329770602011 
1809	 0.413933794650932 
1810	 0.414401937774827 
1811	 0.414802507827688 
1812	 0.415189373115386 
1813	 0.415465072882255 
1814	 0.415822882527826 
1815	 0.416155827351681 
1816	 0.416483082758145 
1817	 0.41693308784951 
1818	 0.417478708492153 
1819	 0.417983753613301 
1820	 0.418597367554352 
1821	 0.419125586143799 
1822	 0.419594262954055 
1823	 0.420073693038522 
1824	 0.420575431758991 
1825	 0.421097827260626 
1826	 0.421565906147915 
1827	 0.42203311375422 
1828	 0.422443041490926 
1829	 0.422795472517007 
1830	 0.423156453211181 
1831	 0.423472869303407 
1832	 0.423837952677758 
1833	 0.424211019872604 
1834	 0.424587972835581 
1835	 0.42491050529518 
1836	 0.425275813316784 
1837	 0.425644907495344 
1838	 0.42600942747549 
1839	 0.426314982470303 
1840	 0.426628761088858 
1841	 0.426924811975258 
1842	 0.427165454792595 
1843	 0.427418663916187 
1844	 0.427666643497447 
1845	 0.427904839312725 
1846	 0.428131903861295 
1847	 0.428312046621014 
1848	 0.428453094155639 
1849	 0.42859865557429 
1850	 0.428675987255612 
1851	 0.428689725803615 
1852	 0.428682003930679 
1853	 0.428619041025228 
1854	 0.428457556360848 
1855	 0.428219694773788 
1856	 0.427912726360827 
1857	 0.427548448426707 
1858	 0.427205215691619 
1859	 0.42681174128992 
1860	 0.426420504488775 
1861	 0.425889354663796 
1862	 0.425299115523389 
1863	 0.424634076277756 
1864	 0.423846926034114 
1865	 0.422997501677937 
1866	 0.422109728401 
1867	 0.421055392025463 
1868	 0.419936317444794 
1869	 0.418827871221754 
1870	 0.417603946902282 
1871	 0.416338497459455 
1872	 0.414976819663771 
1873	 0.413542031170596 
1874	 0.411982094304606 
1875	 0.41039633052321 
1876	 0.408636417382308 
1877	 0.406792814767338 
1878	 0.404804953983338 
1879	 0.402674548954352 
1880	 0.400618638533838 
1881	 0.398443845821221 
1882	 0.396189149708625 
1883	 0.393896944735872 
1884	 0.391479035927277 
1885	 0.388691617675362 
1886	 0.38595530793656 
1887	 0.383121746111893 
1888	 0.380046321995477 
1889	 0.377169569022807 
1890	 0.37411194082315 
1891	 0.370958679902818 
1892	 0.367881476349586 
1893	 0.364669811037525 
1894	 0.36131530465022 
1895	 0.35806830911867 
1896	 0.354738144341462 
1897	 0.351361656809501 
1898	 0.3482354630602 
1899	 0.345011529158747 
1900	 0.341924748341115 
1901	 0.338978151502279 
1902	 0.335902264548814 
1903	 0.332997113628633 
1904	 0.330107292576499 
1905	 0.327204833483382 
1906	 0.32436425282187 
1907	 0.321790362649513 
1908	 0.319183092956654 
1909	 0.316709564714162 
1910	 0.314372021859788 
1911	 0.311948293954375 
1912	 0.309649439651824 
1913	 0.307392520508365 
1914	 0.305113086375968 
1915	 0.302939327888773 
1916	 0.300868858338448 
1917	 0.298792295405928 
1918	 0.296765817544403 
1919	 0.294749133778328 
1920	 0.292596116947158 
1921	 0.290532191380627 
1922	 0.288445269258644 
1923	 0.286339347940694 
1924	 0.284429821847176 
1925	 0.282450382562304 
1926	 0.280487287411045 
1927	 0.278575594831372 
1928	 0.276640632805455 
1929	 0.274639001856909 
1930	 0.272741595226789 
1931	 0.270899919958339 
1932	 0.269080921380323 
1933	 0.267515065355476 
1934	 0.266095436644908 
1935	 0.264844945789105 
1936	 0.263859535371423 
1937	 0.262971884998733 
1938	 0.26223143384802 
1939	 0.26166075171352 
1940	 0.261255065278678 
1941	 0.260952806140185 
1942	 0.260821638392076 
1943	 0.260851483392437 
1944	 0.260946258164637 
1945	 0.261182901674374 
1946	 0.261676569030379 
1947	 0.262225859167999 
1948	 0.262991442031919 
1949	 0.263978745278415 
1950	 0.265021875134608 
1951	 0.266150097606709 
1952	 0.267482700820435 
1953	 0.268946865137234 
1954	 0.270554622032471 
1955	 0.272405367952431 
1956	 0.274287781764491 
1957	 0.276219392112635 
1958	 0.278204272841515 
1959	 0.280003331976179 
1960	 0.281733314336612 
1961	 0.283327566884548 
1962	 0.284793447993342 
1963	 0.286111295637895 
1964	 0.28731950773316 
1965	 0.288377151093802 
1966	 0.289285300969207 
1967	 0.290052333510529 
1968	 0.290723380522142 
1969	 0.291390219494075 
1970	 0.291972542132221 
1971	 0.292632936952076 
1972	 0.293351098094829 
1973	 0.294061626368263 
1974	 0.294842793186261 
1975	 0.295729548217098 
1976	 0.296570950571094 
1977	 0.297412019597838 
1978	 0.298290956988306 
1979	 0.29916389721078 
1980	 0.300070005328003 
1981	 0.301111205277551 
1982	 0.302167367682338 
1983	 0.303279524971936 
1984	 0.304453352052592 
1985	 0.305623686996762 
1986	 0.306881027672587 
1987	 0.308200485663506 
1988	 0.309503330354461 
1989	 0.311059851183702 
1990	 0.312721252948659 
1991	 0.314534348530649 
1992	 0.316558921076328 
1993	 0.318755413243969 
1994	 0.32085239525209 
1995	 0.323154332867208 
1996	 0.325449853504888 
1997	 0.327815475467395 
1998	 0.330232098642353 
1999	 0.332784938917853 
2000	 0.335145770633822 
2001	 0.337550759498577 
2002	 0.339802677389505 
2003	 0.341980538289319 
2004	 0.344026216508792 
2005	 0.345945663516515 
2006	 0.347765617002082 
2007	 0.349475225676387 
2008	 0.351001063789865 
2009	 0.3525273412386 
2010	 0.354083423813011 
2011	 0.355357313115782 
2012	 0.356587393957207 
2013	 0.357653165705456 
2014	 0.358453784260578 
2015	 0.359328963050693 
2016	 0.360152596671695 
2017	 0.360902948275187 
2018	 0.361700238499757 
2019	 0.362317173136113 
2020	 0.362777805262729 
2021	 0.363187709242394 
2022	 0.363543326896926 
2023	 0.363756786754456 
2024	 0.363958559010866 
2025	 0.364161969377468 
2026	 0.364243453198826 
2027	 0.364178862189484 
2028	 0.364171196802442 
2029	 0.364141835291737 
2030	 0.364057173908938 
2031	 0.363963064951964 
2032	 0.363835515666999 
2033	 0.363561045188336 
2034	 0.36339378652423 
2035	 0.36328110094579 
2036	 0.363192233779903 
2037	 0.363011807044754 
2038	 0.362825021944501 
2039	 0.362614913394067 
2040	 0.362277878405461 
2041	 0.362072509332834 
2042	 0.361956389613268 
2043	 0.361787893047568 
2044	 0.361609496354607 
2045	 0.361454862489949 
2046	 0.361307530438812 
2047	 0.361160464393664 
2048	 0.36104727872751 
2049	 0.360915185603574 
2050	 0.360796628475059 
2051	 0.360613538504715 
2052	 0.360428298808634 
2053	 0.360242471853058 
2054	 0.360104758029548 
2055	 0.359974264837269 
2056	 0.359894211599598 
2057	 0.359873778067682 
2058	 0.359842057805665 
2059	 0.359847165957804 
2060	 0.359794938020533 
2061	 0.359732165926506 
2062	 0.359674739629055 
2063	 0.359567834908205 
2064	 0.359500759431263 
2065	 0.359464508894976 
2066	 0.35941628387683 
2067	 0.359385484975705 
2068	 0.359438586547143 
2069	 0.359406165090365 
2070	 0.35938515005296 
2071	 0.359289742824288 
2072	 0.359101458519957 
2073	 0.358973189637169 
2074	 0.358797579747117 
2075	 0.358707081198953 
2076	 0.358740216644528 
2077	 0.358645166152199 
2078	 0.35852801309283 
2079	 0.358400263829394 
2080	 0.358210455124187 
2081	 0.357997753932243 
2082	 0.357753255831943 
2083	 0.357551024120825 
2084	 0.357329176244177 
2085	 0.357013058187128 
2086	 0.356767525495636 
2087	 0.356573718757875 
2088	 0.356337396340283 
2089	 0.356125859574942 
2090	 0.355830930606258 
2091	 0.355460426844256 
2092	 0.355129494019307 
2093	 0.354785302852841 
2094	 0.354407420495022 
2095	 0.354028144905836 
2096	 0.353644890221836 
2097	 0.35324013780373 
2098	 0.352775672137727 
2099	 0.352362369464186 
2100	 0.351998055981757 
2101	 0.351561687880417 
2102	 0.351117756962334 
2103	 0.350607681447077 
2104	 0.349999210018071 
2105	 0.349484687036326 
2106	 0.348997057060462 
2107	 0.348428921486992 
2108	 0.347911073239625 
2109	 0.347310480571268 
2110	 0.34654109717354 
2111	 0.345876694093755 
2112	 0.34526966797479 
2113	 0.344613616504221 
2114	 0.343945054428916 
2115	 0.34329510043925 
2116	 0.3426718841933 
2117	 0.341971457971587 
2118	 0.341265609841074 
2119	 0.34056837646669 
2120	 0.339847354210396 
2121	 0.339057215784703 
2122	 0.338315376688252 
2123	 0.337575809542374 
2124	 0.336868527204189 
2125	 0.336161502027214 
2126	 0.33550271446082 
2127	 0.334960493184814 
2128	 0.334313031876647 
2129	 0.333596744639014 
2130	 0.332941300876982 
2131	 0.332219579479383 
2132	 0.331573196513259 
2133	 0.331055287403303 
2134	 0.330487086793477 
2135	 0.329826340196252 
2136	 0.329298596914033 
2137	 0.328724413035705 
2138	 0.328101288394651 
2139	 0.327567046685547 
2140	 0.327078306994147 
2141	 0.326624651585089 
2142	 0.326205820420906 
2143	 0.325826022679907 
2144	 0.32552771861428 
2145	 0.325181838562975 
2146	 0.324845673298517 
2147	 0.32450968429302 
2148	 0.324109150969721 
2149	 0.323814736951793 
2150	 0.323622822279435 
2151	 0.323376096371372 
2152	 0.323129192073591 
2153	 0.322932326053209 
2154	 0.322758135317156 
2155	 0.322549650627081 
2156	 0.3223530128209 
2157	 0.322249168336989 
2158	 0.3220020790055 
2159	 0.321587072385897 
2160	 0.321399298990752 
2161	 0.321325876829314 
2162	 0.321109232983264 
2163	 0.320941308112463 
2164	 0.320745745290951 
2165	 0.320412981710959 
2166	 0.320148658179458 
2167	 0.319951453533439 
2168	 0.319742366761827 
2169	 0.319435866325578 
2170	 0.319263999665961 
2171	 0.31923636335466 
2172	 0.31916310302678 
2173	 0.319130024736047 
2174	 0.319104028583137 
2175	 0.318994048329235 
2176	 0.318885815339655 
2177	 0.318828886835904 
2178	 0.318785586820236 
2179	 0.318738335124967 
2180	 0.318746669386546 
2181	 0.318696492552688 
2182	 0.318566597810424 
2183	 0.318548032988328 
2184	 0.318608079048823 
2185	 0.318574784827184 
2186	 0.318568928520172 
2187	 0.318523042701167 
2188	 0.318343125605817 
2189	 0.318269823084623 
2190	 0.318344610258268 
2191	 0.318251524407299 
2192	 0.31803337771591 
2193	 0.317925903458375 
2194	 0.317856647479834 
2195	 0.317665300845218 
2196	 0.317513055839703 
2197	 0.31731998330738 
2198	 0.316824584201389 
2199	 0.316378837154697 
2200	 0.316054635405623 
2201	 0.315804041649536 
2202	 0.315483664856078 
2203	 0.315242352994823 
2204	 0.314879760523494 
2205	 0.314394459545822 
2206	 0.313981234459107 
2207	 0.313605193199852 
2208	 0.313159267734053 
2209	 0.312685663573603 
2210	 0.312201277764648 
2211	 0.311633507961415 
2212	 0.311139562722055 
2213	 0.310650399320901 
2214	 0.310215699742209 
2215	 0.309777083809577 
2216	 0.309451711434716 
2217	 0.309268453650792 
2218	 0.309032440978902 
2219	 0.308814599516127 
2220	 0.308666467408647 
2221	 0.308524910892929 
2222	 0.308408496841787 
2223	 0.308443420468074 
2224	 0.308378208824191 
2225	 0.308195453541917 
2226	 0.307957937262298 
2227	 0.30772135514784 
2228	 0.307442545523635 
2229	 0.307096893344239 
2230	 0.306774118670654 
2231	 0.306280568146854 
2232	 0.305688775058051 
2233	 0.304930222891602 
2234	 0.304057679321335 
2235	 0.303038195068911 
2236	 0.301841217396555 
2237	 0.300551578848999 
2238	 0.299102814362326 
2239	 0.297611686594808 
2240	 0.296053423636365 
2241	 0.294322592904955 
2242	 0.292526593503557 
2243	 0.290556863243333 
2244	 0.288342129953796 
2245	 0.286096025543702 
2246	 0.283711209759204 
2247	 0.281269167879311 
2248	 0.278738821405061 
2249	 0.276139412143551 
2250	 0.273455130058917 
2251	 0.270751673773699 
2252	 0.267832508518213 
2253	 0.265023311187674 
2254	 0.261939933870263 
2255	 0.258702283228963 
2256	 0.255709429422152 
2257	 0.252655975841842 
2258	 0.249882540304444 
2259	 0.247459635031387 
2260	 0.244804043664289 
2261	 0.242182774922694 
2262	 0.239552637984438 
2263	 0.236737340733395 
2264	 0.234242618234325 
2265	 0.23191890453495 
2266	 0.229629110995189 
2267	 0.22758462412748 
2268	 0.22540465187956 
2269	 0.22324345811006 
2270	 0.22104128931473 
2271	 0.21870414746624 
2272	 0.216538686350186 
2273	 0.21435637126613 
2274	 0.212345391785095 
2275	 0.210628011873956 
2276	 0.208749947686852 
2277	 0.206908857826139 
2278	 0.205045104422974 
2279	 0.203101267137338 
2280	 0.201137171377492 
2281	 0.199224406958396 
2282	 0.197182250577635 
2283	 0.195034253500148 
2284	 0.192877596703079 
2285	 0.190520485689647 
2286	 0.188309688829964 
2287	 0.186024687528482 
2288	 0.183539596408263 
2289	 0.181163084294707 
2290	 0.178739219621353 
2291	 0.176228517270913 
2292	 0.173767434430691 
2293	 0.171420115935174 
2294	 0.169108330413462 
2295	 0.16684808738195 
2296	 0.164809341506285 
2297	 0.163003837924873 
2298	 0.161282080867866 
2299	 0.159919899548223 
2300	 0.158949773122161 
2301	 0.158095457993101 
2302	 0.157426672970948 
2303	 0.1570847326067 
2304	 0.15695593634174 
2305	 0.157158845739899 
2306	 0.157769459749191 
2307	 0.158530135744732 
2308	 0.159565304674014 
2309	 0.160816753406349 
2310	 0.162317153004703 
2311	 0.163950189257966 
2312	 0.165928699864963 
2313	 0.167838034981055 
2314	 0.169861055988695 
2315	 0.171963620532774 
2316	 0.174085405913328 
2317	 0.17632448712256 
2318	 0.178981648112499 
2319	 0.181075490259108 
2320	 0.183131208590847 
2321	 0.184760527194614 
2322	 0.185905335877917 
2323	 0.186880615485649 
2324	 0.18755950820295 
2325	 0.188079763801046 
2326	 0.188357498278657 
2327	 0.188385795218138 
2328	 0.188094632369331 
2329	 0.187802488077745 
2330	 0.187384988809557 
2331	 0.186716194406125 
2332	 0.186004525440396 
2333	 0.184897429809682 
2334	 0.183367348332109 
2335	 0.181966629779951 
2336	 0.180548469509358 
2337	 0.179135418436456 
2338	 0.177790569485921 
2339	 0.176325961904602 
2340	 0.17486216024475 
2341	 0.173307139979361 
2342	 0.171816398691393 
2343	 0.170493758062468 
2344	 0.169358977317239 
2345	 0.168578237726 
2346	 0.168055414183547 
2347	 0.167974065435721 
2348	 0.168045250361483 
2349	 0.168446813037511 
2350	 0.169412513476343 
2351	 0.170279491377701 
2352	 0.171352130946899 
2353	 0.172857834879012 
2354	 0.174152772687749 
2355	 0.175521136132844 
2356	 0.177028603811922 
2357	 0.178302641724078 
2358	 0.179610891459068 
2359	 0.180683855546349 
2360	 0.181331594256288 
2361	 0.181832707775004 
2362	 0.181932954838877 
2363	 0.181843978515252 
2364	 0.181840368725599 
2365	 0.181384449311622 
2366	 0.180859555154839 
2367	 0.18067534673144 
2368	 0.180459092357977 
2369	 0.180427365076967 
2370	 0.180523752520686 
2371	 0.180404472813244 
2372	 0.180489479356768 
2373	 0.180466145106761 
2374	 0.180145882864715 
2375	 0.180116247574525 
2376	 0.179823705798555 
2377	 0.179375484588822 
2378	 0.179316771322332 
2379	 0.179054441649883 
2380	 0.178678060497619 
2381	 0.178540029187742 
2382	 0.178309312982683 
2383	 0.177982250019391 
2384	 0.17782660135272 
2385	 0.17759066214254 
2386	 0.177657484158628 
2387	 0.178156270045419 
2388	 0.178197672367832 
2389	 0.178311460584016 
2390	 0.178366251576781 
2391	 0.178077189528685 
2392	 0.177692714247573 
2393	 0.177257510190184 
2394	 0.176992532241332 
2395	 0.176575597316564 
2396	 0.176419019073286 
2397	 0.176513083602823 
2398	 0.176542643603323 
2399	 0.176644991745079 
2400	 0.176592444298944 
2401	 0.17665923602836 
2402	 0.176501689400685 
2403	 0.176162833414984 
2404	 0.175874491456475 
2405	 0.175823123409723 
2406	 0.175705449883681 
2407	 0.175572594660744 
2408	 0.175547250660514 
2409	 0.175428411023035 
2410	 0.175322253071888 
2411	 0.175082346478132 
2412	 0.174786026113868 
2413	 0.174724475301302 
2414	 0.174621526424791 
2415	 0.174120937197154 
2416	 0.173651035824518 
2417	 0.173291086736697 
2418	 0.172909634222471 
2419	 0.173077010021421 
2420	 0.173687147222402 
2421	 0.174172522479569 
2422	 0.174456628011916 
2423	 0.174585277318194 
2424	 0.174506483755929 
2425	 0.174331341317615 
2426	 0.174154849349352 
2427	 0.174172910528915 
2428	 0.174453793423775 
2429	 0.174310086730066 
2430	 0.174018138878083 
2431	 0.173774337876714 
2432	 0.172948685184894 
2433	 0.172523151734175 
2434	 0.172709030884999 
2435	 0.172747203056254 
2436	 0.172879833377297 
2437	 0.172852291599187 
2438	 0.172442110268229 
2439	 0.172257998486578 
2440	 0.171994281471184 
2441	 0.171562308771181 
2442	 0.171479708180396 
2443	 0.171406457775225 
2444	 0.171452068397635 
2445	 0.171710110793609 
2446	 0.171903690010665 
2447	 0.171841073064036 
2448	 0.171536090894037 
2449	 0.17097206914664 
2450	 0.170317427594459 
2451	 0.169424114284786 
2452	 0.168556972925753 
2453	 0.168534814387375 
2454	 0.168317089860962 
2455	 0.168139199390507 
2456	 0.168549728565568 
2457	 0.168552977161453 
2458	 0.168386148902113 
2459	 0.168049625543585 
2460	 0.167056103759856 
2461	 0.165973657191136 
2462	 0.165422432769797 
2463	 0.164773501306302 
2464	 0.164256959209978 
2465	 0.164286507412291 
2466	 0.164367520472511 
2467	 0.164413230955868 
2468	 0.163988341583556 
2469	 0.163117718031149 
2470	 0.162242976430643 
2471	 0.161768124822328 
2472	 0.162148329895921 
2473	 0.163302428030007 
2474	 0.163583776301064 
2475	 0.162753200509684 
2476	 0.162269098226068 
2477	 0.161947741055674 
2478	 0.162001326574004 
2479	 0.162267837867668 
2480	 0.163134561758379 
2481	 0.162924923606348 
2482	 0.161313487834229 
2483	 0.16182706396113 
2484	 0.162346401486828 
2485	 0.162826165524024 
2486	 0.163098424872473 
2487	 0.163347235123735 
2488	 0.162963879968447 
2489	 0.162591242457316 
2490	 0.16266005986013 
2491	 0.163553591320823 
2492	 0.164000789533625 
2493	 0.165004623864687 
2494	 0.16708818063822 
2495	 0.167007681761323 
2496	 0.166880134204206 
2497	 0.166942122291467 
2498	 0.166147727608841 
2499	 0.166387205858543 
2500	 0.16735164770964 
