Wavelength	Tablay400042.asd
350	 0.251629100961176 
351	 0.296790110573729 
352	 0.245503327123839 
353	 0.143079537947443 
354	 0.174301766593705 
355	 0.22692266853001 
356	 0.265317846814467 
357	 0.258022288910819 
358	 0.118744926258911 
359	 0.144396298233294 
360	 0.259409855780844 
361	 0.223232534078595 
362	 0.154074988635956 
363	 0.117768316108833 
364	 0.146537928440482 
365	 0.214174730048647 
366	 0.187827626361681 
367	 0.134915641637647 
368	 0.136087960263458 
369	 0.136796584805141 
370	 0.139895237386106 
371	 0.147113464796417 
372	 0.156987699173449 
373	 0.158991995680796 
374	 0.137618776087646 
375	 0.115372153952846 
376	 0.174198598961237 
377	 0.152315795493721 
378	 0.118565772803225 
379	 0.145821531507206 
380	 0.13249560640598 
381	 0.119653735105171 
382	 0.10680575368035 
383	 7.14766927459621E-02 
384	 8.71374937400063E-02 
385	 0.121659156941367 
386	 0.140079878013566 
387	 0.110588329273158 
388	 0.10951090470498 
389	 0.118519311195743 
390	 0.111417948885033 
391	 0.124071255065989 
392	 0.109787748067357 
393	 8.88909211781984E-02 
394	 0.115420647072362 
395	 0.121280646956076 
396	 0.117213376551988 
397	 0.115556412287962 
398	 0.1112057177943 
399	 0.112019923438405 
400	 0.104108068301191 
401	 8.10599199539172E-02 
402	 8.86417333249518E-02 
403	 9.40787187481349E-02 
404	 9.00741147971741E-02 
405	 9.02064725255605E-02 
406	 0.10505058389974 
407	 0.119579227677195 
408	 0.118318183764356 
409	 8.45715358195823E-02 
410	 6.81276295551977E-02 
411	 8.13582622461843E-02 
412	 0.110015727028852 
413	 9.14976544964421E-02 
414	 7.92639808179834E-02 
415	 8.77605490767275E-02 
416	 9.19952529870521E-02 
417	 8.78201617968436E-02 
418	 8.56668145997319E-02 
419	 9.07592502519147E-02 
420	 9.15067844273414E-02 
421	 8.43864285033089E-02 
422	 7.71018094014869E-02 
423	 8.00897250873443E-02 
424	 8.80418075844103E-02 
425	 8.96088577044265E-02 
426	 8.43149060824497E-02 
427	 8.34758775707017E-02 
428	 8.35698894329151E-02 
429	 8.20777095742179E-02 
430	 7.95003055047669E-02 
431	 8.58907274911599E-02 
432	 8.47233512549688E-02 
433	 7.82873289162834E-02 
434	 7.79897130641009E-02 
435	 7.89372983946196E-02 
436	 7.84385702572144E-02 
437	 7.65767970660174E-02 
438	 7.71516556790607E-02 
439	 7.68349178080996E-02 
440	 0.07626505406356 
441	 7.70392698483574E-02 
442	 8.06527724792397E-02 
443	 8.02596704770542E-02 
444	 7.59462925870171E-02 
445	 7.32373912016017E-02 
446	 7.07317740348741E-02 
447	 7.16032598606014E-02 
448	 7.62729081227063E-02 
449	 7.89559181005268E-02 
450	 7.63049937568654E-02 
451	 7.28303178899431E-02 
452	 7.44490581780866E-02 
453	 7.50105440662527E-02 
454	 7.40988714118594E-02 
455	 7.27622527862515E-02 
456	 7.31374997983595E-02 
457	 7.40873711443429E-02 
458	 7.45948635597788E-02 
459	 7.39023657688816E-02 
460	 0.071384352367678 
461	 7.20216953990824E-02 
462	 0.074225118694032 
463	 7.34296530794898E-02 
464	 7.29390853155786E-02 
465	 7.13595291253564E-02 
466	 6.92207368377264E-02 
467	 7.06058549868462E-02 
468	 7.23669800064676E-02 
469	 7.21279048375506E-02 
470	 0.069449450313763 
471	 0.070206387944304 
472	 0.072200312272449 
473	 7.30376880165315E-02 
474	 7.08377404607846E-02 
475	 7.04960507597567E-02 
476	 7.12756598727956E-02 
477	 7.19167283101547E-02 
478	 7.23239075960324E-02 
479	 7.02971415075601E-02 
480	 6.89180179273111E-02 
481	 7.17153301199512E-02 
482	 7.21510340380104E-02 
483	 7.13599304642272E-02 
484	 7.08491572671672E-02 
485	 7.18259382554648E-02 
486	 6.97903278868302E-02 
487	 6.81080773745094E-02 
488	 6.95950958985486E-02 
489	 7.03680826916989E-02 
490	 6.91199690812674E-02 
491	 6.74647421632786E-02 
492	 6.82145433382642E-02 
493	 6.80983391630192E-02 
494	 6.81735521633813E-02 
495	 6.85589723410689E-02 
496	 0.06686488945325 
497	 6.82001816088475E-02 
498	 6.93444357688909E-02 
499	 6.67901284720202E-02 
500	 6.74819381094452E-02 
501	 6.79198503085994E-02 
502	 6.73112162542742E-02 
503	 6.74570981621132E-02 
504	 6.79377179085121E-02 
505	 6.81054044271381E-02 
506	 6.77075334676392E-02 
507	 6.74292586315471E-02 
508	 6.78001839871481E-02 
509	 6.78950814458447E-02 
510	 6.67123386173494E-02 
511	 0.067535729375722 
512	 0.067937018163492 
513	 6.72722845955639E-02 
514	 6.77179948593247E-02 
515	 6.77598638008929E-02 
516	 6.73074815175223E-02 
517	 6.67355069919106E-02 
518	 0.066750592711922 
519	 6.67488557323006E-02 
520	 6.65259973345137E-02 
521	 0.066206804784833 
522	 6.61414256160608E-02 
523	 6.65846497930022E-02 
524	 6.72931798089731E-02 
525	 6.71243249985934E-02 
526	 6.66200558772763E-02 
527	 6.64915091796091E-02 
528	 6.71880658574675E-02 
529	 6.74338934634116E-02 
530	 6.70280714048141E-02 
531	 6.64483779682797E-02 
532	 6.67499383723197E-02 
533	 6.73727052229221E-02 
534	 6.76054642117372E-02 
535	 6.72364056497209E-02 
536	 0.067517295597338 
537	 6.79022197987452E-02 
538	 6.80764032480007E-02 
539	 6.79155170819709E-02 
540	 6.77136578311945E-02 
541	 0.067983303283853 
542	 6.85477289179754E-02 
543	 0.068090289165967 
544	 6.82016555247008E-02 
545	 6.86896813567154E-02 
546	 6.89191735894025E-02 
547	 6.88267959177401E-02 
548	 6.90056184100703E-02 
549	 6.94134054371087E-02 
550	 6.94721824317423E-02 
551	 6.98025881486986E-02 
552	 7.02348759715372E-02 
553	 7.05190812285173E-02 
554	 7.04917664698458E-02 
555	 7.09222517986839E-02 
556	 7.16527231217699E-02 
557	 7.21007014875101E-02 
558	 7.21954588336537E-02 
559	 7.24374592999061E-02 
560	 7.30993577971045E-02 
561	 7.40725475340799E-02 
562	 7.45711965277778E-02 
563	 7.48194648827611E-02 
564	 7.52020695481377E-02 
565	 7.54751010427733E-02 
566	 7.58841163694581E-02 
567	 7.63913766178071E-02 
568	 0.076779320212639 
569	 7.74673885299389E-02 
570	 7.80161940051561E-02 
571	 7.82509795873978E-02 
572	 7.87678025431946E-02 
573	 7.96095438844233E-02 
574	 0.080507642690444 
575	 8.11481694672636E-02 
576	 8.18572588397621E-02 
577	 8.25501234915155E-02 
578	 8.32189520637593E-02 
579	 8.39665078929131E-02 
580	 8.46518299645588E-02 
581	 8.52901486390617E-02 
582	 8.59461358247615E-02 
583	 8.67174017403582E-02 
584	 8.74165239130713E-02 
585	 8.81760841318636E-02 
586	 8.92405370099841E-02 
587	 9.00179061813822E-02 
588	 0.090892137863925 
589	 9.19506737735312E-02 
590	 9.25924273186225E-02 
591	 9.35315927508481E-02 
592	 9.46298724645628E-02 
593	 9.55701165910696E-02 
594	 9.64900229414049E-02 
595	 9.72600270384703E-02 
596	 9.80302949919869E-02 
597	 9.91447523665257E-02 
598	 9.98992894224797E-02 
599	 0.100607962812835 
600	 0.101598530657508 
601	 0.102859766201976 
602	 0.103580414929296 
603	 0.104171647453542 
604	 0.105378307733944 
605	 0.106143170127862 
606	 0.107046094852557 
607	 0.108218181502661 
608	 0.109082118620018 
609	 0.10986052233701 
610	 0.11068024675896 
611	 0.111567743028557 
612	 0.112244137428983 
613	 0.113032213014972 
614	 0.114000428678997 
615	 0.115013677347044 
616	 0.11570752529891 
617	 0.116295539659485 
618	 0.116962502146394 
619	 0.117691442032827 
620	 0.118588946606147 
621	 0.119455529928932 
622	 0.120088403856659 
623	 0.12076559448468 
624	 0.121517569551528 
625	 0.12234687330904 
626	 0.123229466845742 
627	 0.12395801665689 
628	 0.124536082556067 
629	 0.125065297020557 
630	 0.125760511308653 
631	 0.126580960359786 
632	 0.127331834250338 
633	 0.127836985444741 
634	 0.128606788996344 
635	 0.129337968264068 
636	 0.129916695529128 
637	 0.130542207250152 
638	 0.131242933121517 
639	 0.131919037051548 
640	 0.132503251387639 
641	 0.133159026735129 
642	 0.133754817354228 
643	 0.134407455795065 
644	 0.13530429180796 
645	 0.135747930346239 
646	 0.136261609750638 
647	 0.137087533482258 
648	 0.137777003502018 
649	 0.138363022196926 
650	 0.138974040037979 
651	 0.139709187679962 
652	 0.140369763014179 
653	 0.140969501900501 
654	 0.141565694349715 
655	 0.142235596627922 
656	 0.142883133209362 
657	 0.143551974221233 
658	 0.144240824401063 
659	 0.14480017513089 
660	 0.145392213213238 
661	 0.146040753593139 
662	 0.146714519289502 
663	 0.14738012903035 
664	 0.148113955662934 
665	 0.148869670514531 
666	 0.149487522341941 
667	 0.150242948077004 
668	 0.150967843974228 
669	 0.151565446666368 
670	 0.152352646485654 
671	 0.153125681079614 
672	 0.153868929721814 
673	 0.154633588983196 
674	 0.155303488961993 
675	 0.156030359624905 
676	 0.156862721597555 
677	 0.15769855846981 
678	 0.158398592298718 
679	 0.159077146396877 
680	 0.159851993995909 
681	 0.160648417565388 
682	 0.16150061244175 
683	 0.162382583924783 
684	 0.163224156190841 
685	 0.163872680309081 
686	 0.164584771275433 
687	 0.165466972090545 
688	 0.166362539924559 
689	 0.1672601562466 
690	 0.168132391456014 
691	 0.168965458046426 
692	 0.169780541986859 
693	 0.170553860638553 
694	 0.171345417603911 
695	 0.172243004839671 
696	 0.173094999494586 
697	 0.173935701336929 
698	 0.174789398686821 
699	 0.175629728631152 
700	 0.176458389825284 
701	 0.177306187011874 
702	 0.178204422949255 
703	 0.179170707524889 
704	 0.179979196630191 
705	 0.180723976120644 
706	 0.181682305009734 
707	 0.182596749733354 
708	 0.183342270305899 
709	 0.18397370888632 
710	 0.184801317555278 
711	 0.185763051811938 
712	 0.186617411685407 
713	 0.187225276469562 
714	 0.188068339750381 
715	 0.188957998786516 
716	 0.189774389646366 
717	 0.190475619960724 
718	 0.191164722058896 
719	 0.191892107135975 
720	 0.192627407077015 
721	 0.193211929195681 
722	 0.193953815621085 
723	 0.194720892829595 
724	 0.195323355902429 
725	 0.195908847325103 
726	 0.196513814747604 
727	 0.197126485319652 
728	 0.197703830963783 
729	 0.198268187064299 
730	 0.198776225976109 
731	 0.19925246041616 
732	 0.199847848107153 
733	 0.200291728827019 
734	 0.200677104720833 
735	 0.201138990774452 
736	 0.201542228879722 
737	 0.201914655610103 
738	 0.20227869487327 
739	 0.202642831147112 
740	 0.202937022550026 
741	 0.203269640651975 
742	 0.203654494459612 
743	 0.203938954940059 
744	 0.204108311462243 
745	 0.204278452299426 
746	 0.204529784466754 
747	 0.2047015188967 
748	 0.204793575261947 
749	 0.204856390202459 
750	 0.204964360046882 
751	 0.205134427324713 
752	 0.205194082038756 
753	 0.205140946443804 
754	 0.205207504318401 
755	 0.205182967880453 
756	 0.205096071715817 
757	 0.205018208460616 
758	 0.204985099880721 
759	 0.204893347474583 
760	 0.204737252495907 
761	 0.204576088720086 
762	 0.20454502332348 
763	 0.204434838551794 
764	 0.204197032677365 
765	 0.203980461371724 
766	 0.20384427618771 
767	 0.203680186954423 
768	 0.203433379788463 
769	 0.203261596434862 
770	 0.202994584900261 
771	 0.202721686261384 
772	 0.202553428589976 
773	 0.202213206542659 
774	 0.201915365691502 
775	 0.201638294699961 
776	 0.201188475035896 
777	 0.200896287017889 
778	 0.20064413494065 
779	 0.200329401567406 
780	 0.199990578276612 
781	 0.199609106096023 
782	 0.199191124109806 
783	 0.198778148810287 
784	 0.198525366468396 
785	 0.198161471027329 
786	 0.197651310616933 
787	 0.19713442925561 
788	 0.196873627279286 
789	 0.196642246518509 
790	 0.196266803338475 
791	 0.195712716770519 
792	 0.195272715926938 
793	 0.194937163140079 
794	 0.194612240041147 
795	 0.194177305391664 
796	 0.193718306311621 
797	 0.193265127429174 
798	 0.192838235104422 
799	 0.192519073266159 
800	 0.192092201796109 
801	 0.19160594888346 
802	 0.191287542558033 
803	 0.190907440227317 
804	 0.190450037556509 
805	 0.189992086379724 
806	 0.189696604938174 
807	 0.189345473840178 
808	 0.188968559075114 
809	 0.188623828688733 
810	 0.188265415952189 
811	 0.187810970125364 
812	 0.187382080933981 
813	 0.187121165323333 
814	 0.186728771884128 
815	 0.186342284203142 
816	 0.186033375182759 
817	 0.185776323846071 
818	 0.185401384766542 
819	 0.185000069682463 
820	 0.184669221640501 
821	 0.184440981135487 
822	 0.184219972787133 
823	 0.183932474234836 
824	 0.183587510185471 
825	 0.183433484094239 
826	 0.183089471300056 
827	 0.182672727869729 
828	 0.182461395115893 
829	 0.182190618524267 
830	 0.182001804700363 
831	 0.181862523051015 
832	 0.181590104566238 
833	 0.181287962059621 
834	 0.181019574525118 
835	 0.180802695089754 
836	 0.180592514479351 
837	 0.180468168490638 
838	 0.180316545325408 
839	 0.180072238002153 
840	 0.17993501121622 
841	 0.179794770530789 
842	 0.179630517710061 
843	 0.179452105172418 
844	 0.179210239104069 
845	 0.179227691686996 
846	 0.179338045171815 
847	 0.179083231111325 
848	 0.178843608149414 
849	 0.178745069526721 
850	 0.178753603453353 
851	 0.178682964925811 
852	 0.178639980428173 
853	 0.178561838108459 
854	 0.178432341903057 
855	 0.178394253255352 
856	 0.178435788572278 
857	 0.178463687244472 
858	 0.178417656441355 
859	 0.178464087233008 
860	 0.178463438020576 
861	 0.178468818463164 
862	 0.178590672441445 
863	 0.17864444080836 
864	 0.178725706836898 
865	 0.178813760271552 
866	 0.17879344646906 
867	 0.178780910969829 
868	 0.178903148395159 
869	 0.179123135691307 
870	 0.179197485019551 
871	 0.179382841794151 
872	 0.179578491953586 
873	 0.179701247774818 
874	 0.179876514880841 
875	 0.180080364024298 
876	 0.180254359231316 
877	 0.180363273527507 
878	 0.18048514952612 
879	 0.180707373251555 
880	 0.180892950167791 
881	 0.180902073909716 
882	 0.181191608801517 
883	 0.181506389694235 
884	 0.181775546356483 
885	 0.182080427736607 
886	 0.182240798786956 
887	 0.182479205696255 
888	 0.182847228738204 
889	 0.183159553913981 
890	 0.183512093796125 
891	 0.183892173542958 
892	 0.184232444921783 
893	 0.184409030490174 
894	 0.184708035874762 
895	 0.185158286866837 
896	 0.185665589936524 
897	 0.186015348248292 
898	 0.186422062326663 
899	 0.186786278114139 
900	 0.187005860120539 
901	 0.187357020625276 
902	 0.187881924152859 
903	 0.188418247778186 
904	 0.188772213895464 
905	 0.189152876818431 
906	 0.189675341925312 
907	 0.190237465629612 
908	 0.190642082092357 
909	 0.191194180301358 
910	 0.191744042466897 
911	 0.192257769014237 
912	 0.192845699144303 
913	 0.19333641541119 
914	 0.193923124200865 
915	 0.19464064233408 
916	 0.195251365943525 
917	 0.195937416620236 
918	 0.196449626810432 
919	 0.196773779581632 
920	 0.197454772607182 
921	 0.198182159618608 
922	 0.198777693455926 
923	 0.199286515214911 
924	 0.200243091056447 
925	 0.200891715572834 
926	 0.20143417970003 
927	 0.20222810003789 
928	 0.2030394089185 
929	 0.203727634345802 
930	 0.204301982064461 
931	 0.204888668401911 
932	 0.205757466216203 
933	 0.206567632803204 
934	 0.207289201656707 
935	 0.208047466594468 
936	 0.208684037279343 
937	 0.209611631387331 
938	 0.210721814386284 
939	 0.211580422824145 
940	 0.212319035418546 
941	 0.213158598483654 
942	 0.214028770854022 
943	 0.214676556249484 
944	 0.215593178311523 
945	 0.216594365223069 
946	 0.217579974458561 
947	 0.218601660128805 
948	 0.219389402341337 
949	 0.22032600188916 
950	 0.22143107241569 
951	 0.222198306762673 
952	 0.222990618677471 
953	 0.223870007723766 
954	 0.224842023968787 
955	 0.225904490735076 
956	 0.227128801689077 
957	 0.228056742967285 
958	 0.228693438212683 
959	 0.229953862462636 
960	 0.231146094667151 
961	 0.232040543208155 
962	 0.232719096569042 
963	 0.233628875879365 
964	 0.234910120327308 
965	 0.235925005335669 
966	 0.236441681215325 
967	 0.237558030613239 
968	 0.238996790107615 
969	 0.24021926593215 
970	 0.240977030858068 
971	 0.241940290460534 
972	 0.242898833956219 
973	 0.243778031239825 
974	 0.244625534575286 
975	 0.245717881017686 
976	 0.246955016569443 
977	 0.248085823406563 
978	 0.248974095192685 
979	 0.249955392700836 
980	 0.250975503670537 
981	 0.252169108278757 
982	 0.253529919034934 
983	 0.254485518983231 
984	 0.255272597815949 
985	 0.256142700948823 
986	 0.257263686924237 
987	 0.258521112869644 
988	 0.25976709858935 
989	 0.26084282709119 
990	 0.261714594785194 
991	 0.262701051450523 
992	 0.263652422540258 
993	 0.264686405732961 
994	 0.26587520220569 
995	 0.266855638836633 
996	 0.26766446461799 
997	 0.26855592050726 
998	 0.269676352533414 
999	 0.270562688119058 
1000	 0.271477504760319 
1001	 0.272611478490824 
1002	 0.273770114395057 
1003	 0.274789041623232 
1004	 0.275710874225579 
1005	 0.276619992599941 
1006	 0.277645119786795 
1007	 0.278537184140205 
1008	 0.279594985210504 
1009	 0.280994182453431 
1010	 0.282014823730471 
1011	 0.282873133068534 
1012	 0.28374301383533 
1013	 0.284348902805032 
1014	 0.285190215692464 
1015	 0.286062561066668 
1016	 0.287097907286947 
1017	 0.288336441310417 
1018	 0.289374037903759 
1019	 0.290340994924466 
1020	 0.291381694513607 
1021	 0.292339985782297 
1022	 0.293263559833836 
1023	 0.294072519302821 
1024	 0.294799705725353 
1025	 0.295550294887758 
1026	 0.296101762255664 
1027	 0.296907496100689 
1028	 0.297924235565986 
1029	 0.298771826940018 
1030	 0.299801882625551 
1031	 0.3006768307791 
1032	 0.301338909640375 
1033	 0.302162706243742 
1034	 0.302940266064175 
1035	 0.30360344621074 
1036	 0.304341532495846 
1037	 0.305170655716902 
1038	 0.305965801841713 
1039	 0.306752308848757 
1040	 0.307467073537352 
1041	 0.30813087077864 
1042	 0.308858549440974 
1043	 0.309531695367329 
1044	 0.310273220377639 
1045	 0.311201773184736 
1046	 0.311906425637243 
1047	 0.31232291744263 
1048	 0.312957101712869 
1049	 0.313596832816241 
1050	 0.314285987151232 
1051	 0.315240491277696 
1052	 0.315972267783616 
1053	 0.316685532385171 
1054	 0.317351699800171 
1055	 0.31804050312804 
1056	 0.318703419912378 
1057	 0.319392555406324 
1058	 0.320146726099944 
1059	 0.320668877823684 
1060	 0.321303019382053 
1061	 0.321970643114775 
1062	 0.322645849925716 
1063	 0.323387243109598 
1064	 0.324218054428769 
1065	 0.325016926799978 
1066	 0.325562521627227 
1067	 0.32616657736722 
1068	 0.326813351001973 
1069	 0.32745378225825 
1070	 0.328180125686176 
1071	 0.329128274190983 
1072	 0.329909034105433 
1073	 0.330509254334766 
1074	 0.331146417163201 
1075	 0.331699554397532 
1076	 0.33234233304093 
1077	 0.333174354724695 
1078	 0.333972601908655 
1079	 0.334722793162054 
1080	 0.335505513545697 
1081	 0.336044529200708 
1082	 0.336471545542674 
1083	 0.337023972522783 
1084	 0.337714482523485 
1085	 0.338573126042921 
1086	 0.339350574808906 
1087	 0.340193051208165 
1088	 0.340972951233151 
1089	 0.341631033248709 
1090	 0.342212013518292 
1091	 0.34279340949779 
1092	 0.343257261234284 
1093	 0.343798651832314 
1094	 0.344467218131989 
1095	 0.345064431948559 
1096	 0.345622110496953 
1097	 0.346234902887313 
1098	 0.346812209228969 
1099	 0.347433823868177 
1100	 0.348133003094757 
1101	 0.348728546097589 
1102	 0.349255576251265 
1103	 0.349814570059553 
1104	 0.350324273132601 
1105	 0.350955905761302 
1106	 0.351697786246843 
1107	 0.352313307214637 
1108	 0.352833262422939 
1109	 0.353311632614313 
1110	 0.353725873386305 
1111	 0.354125098120726 
1112	 0.354570108865805 
1113	 0.355129754673495 
1114	 0.355631883571857 
1115	 0.356129895899984 
1116	 0.356763074531519 
1117	 0.3572398612238 
1118	 0.357731823214096 
1119	 0.3582618302572 
1120	 0.358709416896731 
1121	 0.359050836764974 
1122	 0.359512484749549 
1123	 0.359951753893334 
1124	 0.36030103463285 
1125	 0.360916392031813 
1126	 0.361449619287354 
1127	 0.361866046090373 
1128	 0.362415184903522 
1129	 0.362803004317356 
1130	 0.363129964840028 
1131	 0.363478875443333 
1132	 0.363795322352203 
1133	 0.364144865678058 
1134	 0.36453786951674 
1135	 0.364986612552559 
1136	 0.365591470534694 
1137	 0.366031672767477 
1138	 0.366427971945063 
1139	 0.366820045193614 
1140	 0.367121963723467 
1141	 0.367495075751995 
1142	 0.367924495042619 
1143	 0.368335546932634 
1144	 0.368773674776219 
1145	 0.369202110305374 
1146	 0.369582464906582 
1147	 0.369975407070786 
1148	 0.370438402904505 
1149	 0.370827415444349 
1150	 0.371120397572768 
1151	 0.371473054304448 
1152	 0.371807751932985 
1153	 0.372084561926385 
1154	 0.372386531743761 
1155	 0.372701922833001 
1156	 0.373037953298291 
1157	 0.373359116735258 
1158	 0.373682001580163 
1159	 0.374040142322608 
1160	 0.374436801560037 
1161	 0.374726674579949 
1162	 0.375015761774545 
1163	 0.375392799615882 
1164	 0.375758202500842 
1165	 0.376058156772224 
1166	 0.37641279305687 
1167	 0.376792648194591 
1168	 0.37708828649862 
1169	 0.377398896794947 
1170	 0.377763750927793 
1171	 0.378065497659255 
1172	 0.378304898004215 
1173	 0.378572840181122 
1174	 0.378812899890482 
1175	 0.37909250477589 
1176	 0.379378455633571 
1177	 0.379668627782579 
1178	 0.379980127525518 
1179	 0.380354251695356 
1180	 0.380604972797646 
1181	 0.380875566726917 
1182	 0.381081183202821 
1183	 0.381219991714341 
1184	 0.381523184523324 
1185	 0.381823957702222 
1186	 0.382124052373704 
1187	 0.382518053748561 
1188	 0.382802798624259 
1189	 0.382995366842875 
1190	 0.383271468544649 
1191	 0.383539792959928 
1192	 0.38383598185454 
1193	 0.384185270215481 
1194	 0.384496972953632 
1195	 0.384788536110924 
1196	 0.385107058317228 
1197	 0.385405571764788 
1198	 0.385781373537388 
1199	 0.386166955032062 
1200	 0.386521238829137 
1201	 0.386932788294406 
1202	 0.387330954422115 
1203	 0.387718700020688 
1204	 0.388090731058062 
1205	 0.388462008997652 
1206	 0.388792915656649 
1207	 0.38921680613673 
1208	 0.389663393671338 
1209	 0.390135879336231 
1210	 0.390651625828465 
1211	 0.391184668301863 
1212	 0.391761874155736 
1213	 0.392340441151298 
1214	 0.392967864007795 
1215	 0.393569629689338 
1216	 0.394128944269953 
1217	 0.394710170158787 
1218	 0.395286438910868 
1219	 0.395913367787736 
1220	 0.396506003860148 
1221	 0.397182213123909 
1222	 0.397870188007133 
1223	 0.398549169470509 
1224	 0.399274122482931 
1225	 0.40006390601217 
1226	 0.40077114906397 
1227	 0.401493895901291 
1228	 0.402162364457546 
1229	 0.402749025613667 
1230	 0.403387044223761 
1231	 0.404052594960556 
1232	 0.40465702022355 
1233	 0.405267891369945 
1234	 0.405814060695679 
1235	 0.406254169028129 
1236	 0.406753332809252 
1237	 0.407245864677514 
1238	 0.407743161321367 
1239	 0.408241153870324 
1240	 0.408773986683939 
1241	 0.409360737233709 
1242	 0.40991722928611 
1243	 0.410414079319899 
1244	 0.410897357015605 
1245	 0.411399642701961 
1246	 0.411840132421615 
1247	 0.412322627301555 
1248	 0.41287820118248 
1249	 0.413377307628622 
1250	 0.41383586798854 
1251	 0.414281147717141 
1252	 0.414744298335337 
1253	 0.415156637046875 
1254	 0.415469788356674 
1255	 0.415879620487036 
1256	 0.416326252530415 
1257	 0.416750945620785 
1258	 0.417257071319444 
1259	 0.417676185353585 
1260	 0.41802133803328 
1261	 0.418373264936447 
1262	 0.418696867054376 
1263	 0.418986607962519 
1264	 0.419334920513073 
1265	 0.419694186946607 
1266	 0.420062737960924 
1267	 0.420498443018918 
1268	 0.420828484213896 
1269	 0.421107709855652 
1270	 0.421410036192539 
1271	 0.421601615246575 
1272	 0.421964059232274 
1273	 0.422459946780725 
1274	 0.422869341389895 
1275	 0.423346728262955 
1276	 0.423757216556023 
1277	 0.424057158558491 
1278	 0.424425392003984 
1279	 0.424810052735414 
1280	 0.425216143814798 
1281	 0.425654665743527 
1282	 0.42608744819539 
1283	 0.426555858902352 
1284	 0.426990798636235 
1285	 0.427411539945621 
1286	 0.427810226436236 
1287	 0.428240894411308 
1288	 0.42865510587548 
1289	 0.429107933197748 
1290	 0.429600041743276 
1291	 0.430070704075733 
1292	 0.43055025890227 
1293	 0.431017996128523 
1294	 0.431455516530347 
1295	 0.431950626021914 
1296	 0.432478903832936 
1297	 0.432985399428625 
1298	 0.433523158138161 
1299	 0.434039658754611 
1300	 0.434540091758258 
1301	 0.43502280121382 
1302	 0.435511648386839 
1303	 0.435972833604984 
1304	 0.436359244075719 
1305	 0.436804253026623 
1306	 0.437284692838675 
1307	 0.437742614981879 
1308	 0.438216606784597 
1309	 0.438698525753138 
1310	 0.439131252901839 
1311	 0.439517868924054 
1312	 0.439932948649104 
1313	 0.440349033823607 
1314	 0.440734593290351 
1315	 0.441107316330329 
1316	 0.441484273568398 
1317	 0.441840817529627 
1318	 0.442196987628285 
1319	 0.442591042001079 
1320	 0.442908558517983 
1321	 0.443153499920284 
1322	 0.443443209091461 
1323	 0.443710703602969 
1324	 0.443993059604808 
1325	 0.444303111197905 
1326	 0.444605604496272 
1327	 0.444899327706476 
1328	 0.44519407343984 
1329	 0.445509759695826 
1330	 0.445800678931644 
1331	 0.446079988588015 
1332	 0.446343743700696 
1333	 0.446570039915954 
1334	 0.446828592910159 
1335	 0.447060924948604 
1336	 0.447276326528397 
1337	 0.447506958078642 
1338	 0.447749697243376 
1339	 0.447953422536066 
1340	 0.448148280224599 
1341	 0.448330485477971 
1342	 0.448500289594336 
1343	 0.448627727812627 
1344	 0.448715645962785 
1345	 0.448844430085343 
1346	 0.448971424428232 
1347	 0.449065028431299 
1348	 0.449197736947039 
1349	 0.449265577652993 
1350	 0.449241812566865 
1351	 0.449263467126842 
1352	 0.449268959311716 
1353	 0.449306932852469 
1354	 0.44937876902752 
1355	 0.449430399862007 
1356	 0.449515828125852 
1357	 0.449562719746286 
1358	 0.449558315922836 
1359	 0.449577669677689 
1360	 0.449591494044043 
1361	 0.449600808960337 
1362	 0.449658381622018 
1363	 0.449727107322157 
1364	 0.449755538975379 
1365	 0.449789966493014 
1366	 0.449784495498082 
1367	 0.44973598849211 
1368	 0.449701085613711 
1369	 0.449683724495925 
1370	 0.449592211716937 
1371	 0.449471338960352 
1372	 0.449322829017781 
1373	 0.44909262564159 
1374	 0.448920955570981 
1375	 0.448762444362884 
1376	 0.448592651432574 
1377	 0.448446837497358 
1378	 0.448265985761463 
1379	 0.448034227242937 
1380	 0.44784983658189 
1381	 0.447704188920263 
1382	 0.447505802379074 
1383	 0.44731480719788 
1384	 0.447093027386419 
1385	 0.446778786009773 
1386	 0.446532883897655 
1387	 0.446352977797674 
1388	 0.446123453423432 
1389	 0.445859607233613 
1390	 0.445641826739547 
1391	 0.445414876176303 
1392	 0.445177807150916 
1393	 0.445037643162508 
1394	 0.444972218936877 
1395	 0.444877182904265 
1396	 0.444811626445233 
1397	 0.444724124647674 
1398	 0.444666523745767 
1399	 0.444507294442678 
1400	 0.444335423961176 
1401	 0.444062580646025 
1402	 0.443688123983768 
1403	 0.443313061287156 
1404	 0.442891324062266 
1405	 0.442446312037773 
1406	 0.441973514438028 
1407	 0.44146268915643 
1408	 0.440894683843326 
1409	 0.440334446954545 
1410	 0.439732398073098 
1411	 0.439165966644029 
1412	 0.438597336648045 
1413	 0.438052188797515 
1414	 0.43751784335398 
1415	 0.437017118653943 
1416	 0.436520774245288 
1417	 0.436074355877734 
1418	 0.435690393089168 
1419	 0.435292037308326 
1420	 0.434915348226609 
1421	 0.434555903363884 
1422	 0.434194077237707 
1423	 0.433850588503673 
1424	 0.4335415128374 
1425	 0.433224391265819 
1426	 0.432923988064724 
1427	 0.432648407600923 
1428	 0.432357932395013 
1429	 0.432098311837507 
1430	 0.431815787658093 
1431	 0.431524103142777 
1432	 0.43123861532131 
1433	 0.430956028730136 
1434	 0.430661172907332 
1435	 0.430389336488439 
1436	 0.430041557870153 
1437	 0.429631624695825 
1438	 0.429274337384685 
1439	 0.428864159232751 
1440	 0.428543118753233 
1441	 0.42830424435851 
1442	 0.428026692247064 
1443	 0.427706771410331 
1444	 0.427519557167499 
1445	 0.427323983426115 
1446	 0.427293146312864 
1447	 0.427385052325722 
1448	 0.427579089349706 
1449	 0.427871157074769 
1450	 0.428279292153667 
1451	 0.428836445856573 
1452	 0.429443813982925 
1453	 0.430164291007244 
1454	 0.430923216278887 
1455	 0.431796541190187 
1456	 0.432628378121123 
1457	 0.433526933025606 
1458	 0.434363718218335 
1459	 0.435159629119376 
1460	 0.435945893494454 
1461	 0.436715136303087 
1462	 0.437455110368098 
1463	 0.438153397085076 
1464	 0.438862703310048 
1465	 0.439532863425615 
1466	 0.440256482947296 
1467	 0.440946419428948 
1468	 0.441608710733399 
1469	 0.442269367329333 
1470	 0.442857704410783 
1471	 0.443495536636753 
1472	 0.444145478214564 
1473	 0.444773179672364 
1474	 0.445415135718971 
1475	 0.446009054482806 
1476	 0.446570596188121 
1477	 0.44712193467761 
1478	 0.447668494927691 
1479	 0.448150369168844 
1480	 0.448576325459435 
1481	 0.449030351917316 
1482	 0.449463757407871 
1483	 0.449869470378534 
1484	 0.45028178335097 
1485	 0.450672623480117 
1486	 0.451000874367026 
1487	 0.451364753605281 
1488	 0.451731684162504 
1489	 0.452128559925186 
1490	 0.452544522495422 
1491	 0.452952630393934 
1492	 0.453348903916593 
1493	 0.453821960548668 
1494	 0.454296044014613 
1495	 0.454835030393219 
1496	 0.45545906671468 
1497	 0.456106877100886 
1498	 0.456848589209612 
1499	 0.457498395332741 
1500	 0.458133134031295 
1501	 0.458782196796139 
1502	 0.459379657229944 
1503	 0.459988967398495 
1504	 0.460678808534979 
1505	 0.461277358987596 
1506	 0.46180310105894 
1507	 0.462327575707669 
1508	 0.462817440718673 
1509	 0.463292681841916 
1510	 0.463756516487296 
1511	 0.464194312000339 
1512	 0.464601548095328 
1513	 0.464999117708526 
1514	 0.465367181467297 
1515	 0.465737651932301 
1516	 0.466104756541189 
1517	 0.466459297941037 
1518	 0.466828244228497 
1519	 0.46715395031007 
1520	 0.467474397451749 
1521	 0.467719862035347 
1522	 0.467931596027277 
1523	 0.468210792477741 
1524	 0.468439644723648 
1525	 0.46866492017103 
1526	 0.468862387825399 
1527	 0.46903713868293 
1528	 0.469196614181544 
1529	 0.469322830121776 
1530	 0.469487742531724 
1531	 0.469653821263167 
1532	 0.469818916445247 
1533	 0.470003284890764 
1534	 0.470179889533425 
1535	 0.470350672966435 
1536	 0.470503117291026 
1537	 0.470644990479611 
1538	 0.470814448699468 
1539	 0.470928815022986 
1540	 0.471186361149338 
1541	 0.471549418543764 
1542	 0.471864495209005 
1543	 0.472237384611759 
1544	 0.472582647707736 
1545	 0.472854723612496 
1546	 0.473259469387728 
1547	 0.473770345987993 
1548	 0.474202169413395 
1549	 0.474658790043432 
1550	 0.475111842031155 
1551	 0.475505066098144 
1552	 0.475963134278529 
1553	 0.476524218692014 
1554	 0.47696530077848 
1555	 0.477333090995567 
1556	 0.477763986594497 
1557	 0.478170805593038 
1558	 0.478591639133113 
1559	 0.479088254346087 
1560	 0.479505867680612 
1561	 0.47985100059884 
1562	 0.480238026372562 
1563	 0.480631165415799 
1564	 0.481007613667039 
1565	 0.481381005817044 
1566	 0.481760951497616 
1567	 0.482117379269187 
1568	 0.482502326136373 
1569	 0.482929889714282 
1570	 0.48331945612799 
1571	 0.483684653609389 
1572	 0.484077129493398 
1573	 0.484485836313753 
1574	 0.484858087922163 
1575	 0.485237956860968 
1576	 0.48559794541545 
1577	 0.485870050475327 
1578	 0.486239575803281 
1579	 0.486708572922704 
1580	 0.487078947085439 
1581	 0.487436584180656 
1582	 0.487798683206532 
1583	 0.488093479639561 
1584	 0.488416988494456 
1585	 0.48879011624155 
1586	 0.489131452591911 
1587	 0.489439951090679 
1588	 0.489755251032943 
1589	 0.490046098711289 
1590	 0.490389160157824 
1591	 0.490778636069452 
1592	 0.49112635900167 
1593	 0.491502077510047 
1594	 0.491844691965486 
1595	 0.492098761566742 
1596	 0.492427415255215 
1597	 0.492796455832057 
1598	 0.493161265194688 
1599	 0.493587622655121 
1600	 0.493952272473682 
1601	 0.494297250763412 
1602	 0.494616452356673 
1603	 0.494885434772411 
1604	 0.495157080250253 
1605	 0.495401424165585 
1606	 0.495656408305659 
1607	 0.495885647042528 
1608	 0.49616511415716 
1609	 0.496511794928808 
1610	 0.496800765132126 
1611	 0.497105468505339 
1612	 0.497366301242301 
1613	 0.497545304124307 
1614	 0.4977572925643 
1615	 0.497968140772071 
1616	 0.498188021424056 
1617	 0.49843540848792 
1618	 0.498646311937684 
1619	 0.498851286505499 
1620	 0.499038965402306 
1621	 0.499207428378171 
1622	 0.4993510800849 
1623	 0.499455767886655 
1624	 0.499574750076419 
1625	 0.499684824443866 
1626	 0.499789906951361 
1627	 0.499915287352835 
1628	 0.500011161667266 
1629	 0.500037180442047 
1630	 0.50012929545896 
1631	 0.500272310840073 
1632	 0.500382156238517 
1633	 0.500493646329887 
1634	 0.500628989720734 
1635	 0.500743145858282 
1636	 0.500872760944139 
1637	 0.501066220111805 
1638	 0.50122558976555 
1639	 0.501361490491328 
1640	 0.501490989762157 
1641	 0.501634679011573 
1642	 0.501728736624751 
1643	 0.501773522259207 
1644	 0.501827727418839 
1645	 0.501817444776247 
1646	 0.501886445143675 
1647	 0.5020701753932 
1648	 0.502138649315988 
1649	 0.50219126860058 
1650	 0.502203276642106 
1651	 0.502113160722989 
1652	 0.502033660970768 
1653	 0.501966394357949 
1654	 0.501867649046885 
1655	 0.501727340140871 
1656	 0.50157468174948 
1657	 0.501409409256788 
1658	 0.501235215900169 
1659	 0.501104801363534 
1660	 0.500836688771316 
1661	 0.500512233546888 
1662	 0.500111974438825 
1663	 0.499557227942423 
1664	 0.499022888126837 
1665	 0.498528674820449 
1666	 0.497867959884354 
1667	 0.497109142988975 
1668	 0.496308706683538 
1669	 0.495372381558413 
1670	 0.494431335767752 
1671	 0.493490346601856 
1672	 0.492460177442335 
1673	 0.491395494702066 
1674	 0.490190607273447 
1675	 0.488862420263891 
1676	 0.487520542605301 
1677	 0.486052007448737 
1678	 0.484617679923089 
1679	 0.483207882386243 
1680	 0.481699130045771 
1681	 0.48015713274406 
1682	 0.478511704921177 
1683	 0.476825885315431 
1684	 0.475026337953477 
1685	 0.47310178432708 
1686	 0.471134163838849 
1687	 0.469039759683654 
1688	 0.466911248852269 
1689	 0.464730700524292 
1690	 0.462515125533223 
1691	 0.46026905817024 
1692	 0.458002081839898 
1693	 0.455706493476737 
1694	 0.453342554490948 
1695	 0.450907425046338 
1696	 0.448433733432938 
1697	 0.445898917340479 
1698	 0.44333886673782 
1699	 0.440738335276077 
1700	 0.438188847963145 
1701	 0.435598811705326 
1702	 0.433119595055067 
1703	 0.43064402051103 
1704	 0.42830220108445 
1705	 0.426020601851486 
1706	 0.42379160237931 
1707	 0.421870115276593 
1708	 0.420056423183744 
1709	 0.418336766164029 
1710	 0.416821842569257 
1711	 0.41527684700988 
1712	 0.413767726488689 
1713	 0.41235295916282 
1714	 0.411018797804323 
1715	 0.409877198280257 
1716	 0.408776566053199 
1717	 0.407766971731096 
1718	 0.406849837264459 
1719	 0.40585201324858 
1720	 0.404928955238552 
1721	 0.404084947651595 
1722	 0.403270953333237 
1723	 0.402646591267649 
1724	 0.402156238263015 
1725	 0.401783005074551 
1726	 0.401576365147571 
1727	 0.40152727088591 
1728	 0.401627352182844 
1729	 0.401973095008127 
1730	 0.402606460494576 
1731	 0.4033672461562 
1732	 0.404360350522487 
1733	 0.405488922570841 
1734	 0.406627834686605 
1735	 0.407800698242511 
1736	 0.408951408196052 
1737	 0.410042755651433 
1738	 0.411066353470935 
1739	 0.41191801422818 
1740	 0.412714960128017 
1741	 0.413256383061309 
1742	 0.413566119480696 
1743	 0.413740958360071 
1744	 0.413643556942998 
1745	 0.413575343982893 
1746	 0.413395883128749 
1747	 0.413215956878784 
1748	 0.41296584482816 
1749	 0.412775596343483 
1750	 0.412552343004403 
1751	 0.412428099327223 
1752	 0.412329691545759 
1753	 0.412366357777567 
1754	 0.412474822655856 
1755	 0.412698022665622 
1756	 0.413038895661109 
1757	 0.413484016849545 
1758	 0.414063648398742 
1759	 0.414744985037705 
1760	 0.415593746778237 
1761	 0.416612347313051 
1762	 0.417658936937614 
1763	 0.418878263028603 
1764	 0.420230584185605 
1765	 0.421585351447714 
1766	 0.423150681694801 
1767	 0.4248315898502 
1768	 0.426548353135009 
1769	 0.428356656220064 
1770	 0.430069607157185 
1771	 0.431776025653181 
1772	 0.433426075430967 
1773	 0.434915279844463 
1774	 0.436424723035204 
1775	 0.437694057960293 
1776	 0.438864582751757 
1777	 0.440133112380299 
1778	 0.441205769477263 
1779	 0.442247510405191 
1780	 0.443250720650387 
1781	 0.444071203339422 
1782	 0.444890558289299 
1783	 0.445710221224246 
1784	 0.446484873766685 
1785	 0.447181149475386 
1786	 0.447797855347872 
1787	 0.448259496600556 
1788	 0.448827143892356 
1789	 0.449452137298314 
1790	 0.449969288395882 
1791	 0.45047126946021 
1792	 0.451005726246528 
1793	 0.451469285356245 
1794	 0.45193717634888 
1795	 0.45234412114811 
1796	 0.452630897585312 
1797	 0.453009157077731 
1798	 0.453440512143103 
1799	 0.453836820625166 
1800	 0.454249123481758 
1801	 0.453569189681489 
1802	 0.4539167408586 
1803	 0.454294832935785 
1804	 0.454682123692766 
1805	 0.455082831544436 
1806	 0.455482671663757 
1807	 0.455906788652548 
1808	 0.456293555286307 
1809	 0.456696052556503 
1810	 0.457050365189871 
1811	 0.457326852577807 
1812	 0.457669165266753 
1813	 0.458041854763613 
1814	 0.458370565873574 
1815	 0.458687109362981 
1816	 0.459061202051203 
1817	 0.459480136746769 
1818	 0.45992871014532 
1819	 0.460364631783883 
1820	 0.460854391915962 
1821	 0.461333104738449 
1822	 0.461801228659931 
1823	 0.462253376161778 
1824	 0.462696987380944 
1825	 0.463131165593894 
1826	 0.463568650863378 
1827	 0.463965027462826 
1828	 0.464370519434222 
1829	 0.46482745754417 
1830	 0.465222994136619 
1831	 0.465568648572941 
1832	 0.465917939188357 
1833	 0.466221347274338 
1834	 0.466596737113243 
1835	 0.467074026936101 
1836	 0.467447992829862 
1837	 0.467855651833084 
1838	 0.468362286598538 
1839	 0.468705143293842 
1840	 0.46893192038923 
1841	 0.469248782428381 
1842	 0.46954902912659 
1843	 0.46978953027396 
1844	 0.470120790021047 
1845	 0.470429091573035 
1846	 0.470746357457727 
1847	 0.47110158455741 
1848	 0.471419028900152 
1849	 0.471789870984374 
1850	 0.472069136471715 
1851	 0.472316743073481 
1852	 0.472480564694513 
1853	 0.472564212498392 
1854	 0.472614988856192 
1855	 0.472566399536855 
1856	 0.472475320229972 
1857	 0.472393009951348 
1858	 0.472277944939325 
1859	 0.472131374791018 
1860	 0.471946291759042 
1861	 0.47174292384679 
1862	 0.47151914904676 
1863	 0.471266885877477 
1864	 0.470979228724214 
1865	 0.470677647978487 
1866	 0.470303468827049 
1867	 0.469827470938641 
1868	 0.469300542793279 
1869	 0.468638939676345 
1870	 0.467964896923008 
1871	 0.46731208288799 
1872	 0.466508451171678 
1873	 0.465615011847045 
1874	 0.464661089096207 
1875	 0.463613083862116 
1876	 0.46239976967917 
1877	 0.461212956007111 
1878	 0.459911552652078 
1879	 0.45840521957302 
1880	 0.456912898644371 
1881	 0.455329820075229 
1882	 0.453616868932476 
1883	 0.45188127776189 
1884	 0.450079004119397 
1885	 0.448038407569573 
1886	 0.445992092062505 
1887	 0.443724085190088 
1888	 0.441284295317927 
1889	 0.438952637700896 
1890	 0.436369190510331 
1891	 0.433802160897502 
1892	 0.431294579025795 
1893	 0.428609299455128 
1894	 0.425748172345662 
1895	 0.422952938314099 
1896	 0.420105202086032 
1897	 0.417255962412431 
1898	 0.414672715380406 
1899	 0.412045726427781 
1900	 0.409442874193471 
1901	 0.406907692796904 
1902	 0.404280065265873 
1903	 0.401875815166362 
1904	 0.399523128403377 
1905	 0.397241375164448 
1906	 0.395011360377275 
1907	 0.393050903550894 
1908	 0.391027008363558 
1909	 0.389101129499676 
1910	 0.387334577825023 
1911	 0.385506427054781 
1912	 0.383890058196734 
1913	 0.382302864317483 
1914	 0.380728417866312 
1915	 0.379274839309332 
1916	 0.377941021538835 
1917	 0.376545239865419 
1918	 0.375326987081182 
1919	 0.374237870393057 
1920	 0.373132247317596 
1921	 0.372096678350579 
1922	 0.370964694776593 
1923	 0.369834539827897 
1924	 0.36883688394415 
1925	 0.367869586764722 
1926	 0.36695114502406 
1927	 0.366154291033342 
1928	 0.365310545888168 
1929	 0.364455242114255 
1930	 0.363633376630767 
1931	 0.362821122259788 
1932	 0.362180240309067 
1933	 0.361677287712798 
1934	 0.361229014288094 
1935	 0.360956889690096 
1936	 0.360738352156447 
1937	 0.360567765382454 
1938	 0.360446116406229 
1939	 0.360430201177909 
1940	 0.360482450318061 
1941	 0.360644623283399 
1942	 0.360809263837236 
1943	 0.361053238470469 
1944	 0.361338930634587 
1945	 0.361649756744026 
1946	 0.362111209205753 
1947	 0.362633242135147 
1948	 0.363236753738381 
1949	 0.363931401468347 
1950	 0.364671877302996 
1951	 0.365487931345181 
1952	 0.366362002193504 
1953	 0.367289792398975 
1954	 0.368262511470124 
1955	 0.369395741912164 
1956	 0.370571415545265 
1957	 0.371721399059729 
1958	 0.372908506784538 
1959	 0.373964499154197 
1960	 0.374915547484867 
1961	 0.375847426703948 
1962	 0.376729890434905 
1963	 0.377575820670101 
1964	 0.378367073143924 
1965	 0.379131208458256 
1966	 0.379903663381681 
1967	 0.380570861412696 
1968	 0.381092154846703 
1969	 0.381619359139131 
1970	 0.382121270066904 
1971	 0.382634413075479 
1972	 0.383286219100316 
1973	 0.383964378044803 
1974	 0.384622563132275 
1975	 0.385298300380634 
1976	 0.385982309240196 
1977	 0.386684835759823 
1978	 0.387366461915846 
1979	 0.388042197397423 
1980	 0.388675321877538 
1981	 0.389473018340039 
1982	 0.390217250841843 
1983	 0.391031599268756 
1984	 0.391995941052965 
1985	 0.392782271034732 
1986	 0.39353945661295 
1987	 0.394383461317948 
1988	 0.395170785851696 
1989	 0.396132674001655 
1990	 0.397238305728599 
1991	 0.398362678586507 
1992	 0.399585096797461 
1993	 0.400854840700569 
1994	 0.402076309812447 
1995	 0.403388240924583 
1996	 0.404763655084262 
1997	 0.406207240330256 
1998	 0.407630144289577 
1999	 0.409132562260695 
2000	 0.41050630490552 
2001	 0.411903573725197 
2002	 0.413145241239446 
2003	 0.414246969095625 
2004	 0.415378911026321 
2005	 0.416428500108359 
2006	 0.417433393100228 
2007	 0.41842079712299 
2008	 0.419409347388242 
2009	 0.420294285840441 
2010	 0.421123850891383 
2011	 0.421841197839767 
2012	 0.422516423592164 
2013	 0.423126457658456 
2014	 0.423617994871541 
2015	 0.424116149833842 
2016	 0.424617673028046 
2017	 0.42501114530134 
2018	 0.42532188559464 
2019	 0.425610904287434 
2020	 0.425847833771639 
2021	 0.426011793785648 
2022	 0.426148761690051 
2023	 0.426254452134133 
2024	 0.426258598177117 
2025	 0.426258297765694 
2026	 0.426219124891981 
2027	 0.4261147084708 
2028	 0.42604548979026 
2029	 0.425997104227036 
2030	 0.425866562676357 
2031	 0.425727674564679 
2032	 0.425532212369378 
2033	 0.425246811876151 
2034	 0.424956979761267 
2035	 0.42457513876049 
2036	 0.42429952713048 
2037	 0.424060280005967 
2038	 0.423791414747739 
2039	 0.423570016385609 
2040	 0.423446880969323 
2041	 0.423225935755831 
2042	 0.422932429866101 
2043	 0.42274595530112 
2044	 0.422587757339122 
2045	 0.422428210165081 
2046	 0.422346402413983 
2047	 0.422207169564411 
2048	 0.42204253899968 
2049	 0.42186118590229 
2050	 0.421652434226098 
2051	 0.421460928655366 
2052	 0.421244068922153 
2053	 0.421027797205186 
2054	 0.420824117601003 
2055	 0.420640204694903 
2056	 0.420451296758289 
2057	 0.420247896670895 
2058	 0.420068411921575 
2059	 0.419892711789826 
2060	 0.419738542958641 
2061	 0.419607744719736 
2062	 0.419493439953493 
2063	 0.419396053358541 
2064	 0.419317612524932 
2065	 0.419296991760702 
2066	 0.419217298936775 
2067	 0.419120672432256 
2068	 0.418974866295611 
2069	 0.418851766293301 
2070	 0.418664216761885 
2071	 0.418569793431208 
2072	 0.418569134678698 
2073	 0.418470594280265 
2074	 0.418344841158068 
2075	 0.418233239815571 
2076	 0.418070137205834 
2077	 0.417949430290969 
2078	 0.417864328798591 
2079	 0.417771843380171 
2080	 0.417699000569583 
2081	 0.41760430488547 
2082	 0.417529254857846 
2083	 0.417433954713887 
2084	 0.417231206768144 
2085	 0.417028644663522 
2086	 0.416847314037561 
2087	 0.416618992829105 
2088	 0.416447143284281 
2089	 0.416354098918248 
2090	 0.416173404630734 
2091	 0.415976321679068 
2092	 0.41575971307976 
2093	 0.415506185505753 
2094	 0.415258891966502 
2095	 0.414958963826701 
2096	 0.414713112367244 
2097	 0.414542568351419 
2098	 0.414271854535308 
2099	 0.414015749494904 
2100	 0.413744785795534 
2101	 0.413414320244658 
2102	 0.412990043206774 
2103	 0.412622562301102 
2104	 0.412256407605522 
2105	 0.411883026697553 
2106	 0.411474038764669 
2107	 0.411131328511032 
2108	 0.410901468561253 
2109	 0.410501394132939 
2110	 0.410075930742845 
2111	 0.409607931830595 
2112	 0.408960379286877 
2113	 0.408384107618976 
2114	 0.407837785462675 
2115	 0.407289792285594 
2116	 0.406752065539506 
2117	 0.406192074087824 
2118	 0.405631411697778 
2119	 0.405072389237699 
2120	 0.404526716620404 
2121	 0.403965875341203 
2122	 0.403433956682511 
2123	 0.402909955353017 
2124	 0.402428628104096 
2125	 0.401971007075535 
2126	 0.401524895274476 
2127	 0.401099145032707 
2128	 0.400722794760273 
2129	 0.400390281850888 
2130	 0.400041686687272 
2131	 0.399738755159781 
2132	 0.399426966540703 
2133	 0.399059208258496 
2134	 0.3987707428498 
2135	 0.398479152264329 
2136	 0.398195891175356 
2137	 0.398017944464118 
2138	 0.39790847343613 
2139	 0.397779270487779 
2140	 0.397761563379328 
2141	 0.39763876691859 
2142	 0.397423635088786 
2143	 0.397294934413544 
2144	 0.397160212665549 
2145	 0.397076849707934 
2146	 0.397067855216359 
2147	 0.39703536685811 
2148	 0.396971412508012 
2149	 0.396995112336688 
2150	 0.397111105891015 
2151	 0.397169713276698 
2152	 0.397253613401581 
2153	 0.397342625700931 
2154	 0.397411429813319 
2155	 0.397428522853306 
2156	 0.397420351430884 
2157	 0.397423292086343 
2158	 0.397373030689385 
2159	 0.397229768706032 
2160	 0.397131348203434 
2161	 0.397096142646938 
2162	 0.396935717646162 
2163	 0.396651346761451 
2164	 0.396489620291515 
2165	 0.396314838713979 
2166	 0.396149729934672 
2167	 0.396075864059208 
2168	 0.395966919263752 
2169	 0.39582732177599 
2170	 0.395664200298791 
2171	 0.395474813535329 
2172	 0.395328707018415 
2173	 0.395163207362522 
2174	 0.395017135228506 
2175	 0.394898244027226 
2176	 0.394898799476837 
2177	 0.394768831588502 
2178	 0.394579671391997 
2179	 0.394440386034415 
2180	 0.394273014610438 
2181	 0.394126654179019 
2182	 0.394019603907406 
2183	 0.39387901428122 
2184	 0.393721407587136 
2185	 0.393561452153101 
2186	 0.393403142762188 
2187	 0.393237871506787 
2188	 0.393108884818801 
2189	 0.392884837130959 
2190	 0.392530351169362 
2191	 0.392294262309079 
2192	 0.392132110633039 
2193	 0.391851883260582 
2194	 0.391612601333178 
2195	 0.391316161088562 
2196	 0.39090648059188 
2197	 0.390388884070168 
2198	 0.390052822357564 
2199	 0.389780264908326 
2200	 0.389430574225404 
2201	 0.389144615203811 
2202	 0.388684951712451 
2203	 0.388084186060211 
2204	 0.387580561810018 
2205	 0.387009434940444 
2206	 0.386511243422682 
2207	 0.386087193471308 
2208	 0.38563127907685 
2209	 0.385222730789587 
2210	 0.384709386355767 
2211	 0.3841724062423 
2212	 0.383588037242348 
2213	 0.382812491457129 
2214	 0.382226756009103 
2215	 0.381719884338739 
2216	 0.38122070194146 
2217	 0.380891258069947 
2218	 0.380420061032987 
2219	 0.379853193552465 
2220	 0.379321888546104 
2221	 0.378700323584769 
2222	 0.378164755084331 
2223	 0.377742574491766 
2224	 0.377277173229222 
2225	 0.376785039825966 
2226	 0.376202875900335 
2227	 0.37555813991425 
2228	 0.374856111605572 
2229	 0.373997179953831 
2230	 0.373043415088944 
2231	 0.372019809020536 
2232	 0.370831004782802 
2233	 0.369608060294986 
2234	 0.368467146212235 
2235	 0.366966469383 
2236	 0.365217717219545 
2237	 0.363443223589013 
2238	 0.361345007314956 
2239	 0.359393545929812 
2240	 0.357584160750035 
2241	 0.355487543093028 
2242	 0.353407041470125 
2243	 0.351004826406118 
2244	 0.348223662154001 
2245	 0.345471494639868 
2246	 0.342465030519972 
2247	 0.339504892598618 
2248	 0.336520201015463 
2249	 0.33350399826402 
2250	 0.330513025022699 
2251	 0.327428593879754 
2252	 0.3240867266911 
2253	 0.320950374347295 
2254	 0.317574285855916 
2255	 0.314225752808256 
2256	 0.31126421454912 
2257	 0.308129864525007 
2258	 0.305187543247859 
2259	 0.302506146705279 
2260	 0.299571259185964 
2261	 0.296501861762335 
2262	 0.293666339392135 
2263	 0.290768487943561 
2264	 0.288092163616429 
2265	 0.285659831695795 
2266	 0.283251231806204 
2267	 0.280973074495406 
2268	 0.278638722725803 
2269	 0.276374297608294 
2270	 0.274188109614996 
2271	 0.271918931745002 
2272	 0.269833865336823 
2273	 0.268046143796102 
2274	 0.266048215296484 
2275	 0.264015106244545 
2276	 0.262042895894332 
2277	 0.260034504911022 
2278	 0.258007770202695 
2279	 0.255993112599467 
2280	 0.254017793091278 
2281	 0.25212023108298 
2282	 0.250010513307373 
2283	 0.247879697445054 
2284	 0.245664976532045 
2285	 0.24306694785691 
2286	 0.240740869098887 
2287	 0.238418312925426 
2288	 0.235925843366484 
2289	 0.233619815292271 
2290	 0.231143012683236 
2291	 0.228769826500675 
2292	 0.226530745785894 
2293	 0.224055579910833 
2294	 0.221572936497212 
2295	 0.219018194531414 
2296	 0.2166534998135 
2297	 0.21468317184737 
2298	 0.213057620457808 
2299	 0.21146156008808 
2300	 0.210125838639083 
2301	 0.208974872107837 
2302	 0.207807676609517 
2303	 0.207259264085979 
2304	 0.207146444951865 
2305	 0.207285343314374 
2306	 0.207879037750752 
2307	 0.208647571821531 
2308	 0.209675546153923 
2309	 0.210996855828447 
2310	 0.212682425339258 
2311	 0.214451778267107 
2312	 0.216624679691182 
2313	 0.21869267174875 
2314	 0.220875546773856 
2315	 0.222997789845746 
2316	 0.225135595981259 
2317	 0.227191548094348 
2318	 0.229414094897032 
2319	 0.231194761890393 
2320	 0.232813185567205 
2321	 0.234154080907044 
2322	 0.235037962274847 
2323	 0.235888951959948 
2324	 0.236592181158682 
2325	 0.237136061467226 
2326	 0.237576137802738 
2327	 0.237759118452258 
2328	 0.237733830547457 
2329	 0.237503370782401 
2330	 0.237007047142829 
2331	 0.236328976559916 
2332	 0.235480618343591 
2333	 0.234516569938734 
2334	 0.233580317384352 
2335	 0.232460900894829 
2336	 0.230999519837432 
2337	 0.229490126939764 
2338	 0.2279279386206 
2339	 0.226340337633515 
2340	 0.225031982931919 
2341	 0.223637516397718 
2342	 0.222167897890885 
2343	 0.22081594194663 
2344	 0.219642574496373 
2345	 0.218830596836071 
2346	 0.218459023262345 
2347	 0.218474303718618 
2348	 0.218710075406545 
2349	 0.219340982744411 
2350	 0.219999920067762 
2351	 0.220935387293897 
2352	 0.222413801231746 
2353	 0.223951022382675 
2354	 0.225592132227401 
2355	 0.227186564941053 
2356	 0.228258801133863 
2357	 0.229264357047022 
2358	 0.230387708467411 
2359	 0.231303291044506 
2360	 0.232043847224982 
2361	 0.232500336664904 
2362	 0.232773094108463 
2363	 0.232750171921997 
2364	 0.232826563338956 
2365	 0.233007886676357 
2366	 0.233138030028254 
2367	 0.233342881298308 
2368	 0.233161994488234 
2369	 0.233020848971884 
2370	 0.232911767014229 
2371	 0.232573262702251 
2372	 0.23253106549154 
2373	 0.23252276124084 
2374	 0.232265147329914 
2375	 0.232004881843191 
2376	 0.231819084185027 
2377	 0.231859890992441 
2378	 0.231965838685892 
2379	 0.232027657241526 
2380	 0.231931057905764 
2381	 0.231733851975791 
2382	 0.23164178900935 
2383	 0.231479786967562 
2384	 0.231379174895849 
2385	 0.231276451933186 
2386	 0.231529726159851 
2387	 0.232096857422414 
2388	 0.232448173753401 
2389	 0.233193105144288 
2390	 0.233295221625691 
2391	 0.232665599199571 
2392	 0.232684004485671 
2393	 0.232790402716741 
2394	 0.232863811365067 
2395	 0.233313329122589 
2396	 0.233124477931707 
2397	 0.232484038753491 
2398	 0.232202435078864 
2399	 0.231632427150473 
2400	 0.231696760887692 
2401	 0.232455458371274 
2402	 0.232427883437307 
2403	 0.232596645764413 
2404	 0.232754958581236 
2405	 0.232404751457234 
2406	 0.232294827297967 
2407	 0.232398333138265 
2408	 0.23239701191123 
2409	 0.23246489612057 
2410	 0.232363065715738 
2411	 0.232265673440254 
2412	 0.232034666616028 
2413	 0.231722355753368 
2414	 0.231744901452826 
2415	 0.231816982919554 
2416	 0.232040976408545 
2417	 0.23233879364265 
2418	 0.232313436005368 
2419	 0.231864802063035 
2420	 0.23115698608255 
2421	 0.230631399150632 
2422	 0.230482406441672 
2423	 0.23094891672397 
2424	 0.231598156893035 
2425	 0.231740903824743 
2426	 0.232066196074061 
2427	 0.232365142117708 
2428	 0.231771199857143 
2429	 0.231218742314744 
2430	 0.230867108437132 
2431	 0.23019068199624 
2432	 0.23009225323619 
2433	 0.230036481585185 
2434	 0.229381247162235 
2435	 0.228888508275406 
2436	 0.228619647018623 
2437	 0.228846268601036 
2438	 0.229402815201216 
2439	 0.22977526845422 
2440	 0.230066588636879 
2441	 0.229832497964226 
2442	 0.22886011355033 
2443	 0.228421530415734 
2444	 0.228295350305062 
2445	 0.227821501485217 
2446	 0.228303755713795 
2447	 0.228693122696465 
2448	 0.227756536972398 
2449	 0.227261241671808 
2450	 0.226796811829131 
2451	 0.225544502380072 
2452	 0.225174560548529 
2453	 0.225115582317656 
2454	 0.224601974183408 
2455	 0.22445731899864 
2456	 0.225082661754222 
2457	 0.225443795385268 
2458	 0.224953862508599 
2459	 0.22439808485274 
2460	 0.222685938639388 
2461	 0.221290034619175 
2462	 0.221278194288748 
2463	 0.221257612326255 
2464	 0.221642374146655 
2465	 0.221390825582586 
2466	 0.220841308149263 
2467	 0.220715198775771 
2468	 0.220171747246566 
2469	 0.219806799504216 
2470	 0.219673878232203 
2471	 0.219425396507965 
2472	 0.219547445567044 
2473	 0.220120996929306 
2474	 0.220294436505749 
2475	 0.220315033340491 
2476	 0.220432093898487 
2477	 0.220212270873063 
2478	 0.219773406634915 
2479	 0.219211520678587 
2480	 0.2195330015972 
2481	 0.22000705267378 
2482	 0.221309702527196 
2483	 0.222183604659445 
2484	 0.221348681575398 
2485	 0.220527091449705 
2486	 0.220535838517429 
2487	 0.220354830271884 
2488	 0.221126757402521 
2489	 0.222181022143046 
2490	 0.223281955694261 
2491	 0.223731365979561 
2492	 0.223308657677482 
2493	 0.222992794754543 
2494	 0.221315384756524 
2495	 0.22085635571988 
2496	 0.221707623718033 
2497	 0.222297817449448 
2498	 0.224232168069532 
2499	 0.22466605461711 
2500	 0.224757478357374 
