Wavelength	Tablay400058.asd
350	 0.287146286753636 
351	 0.239386681339551 
352	 0.140940400361901 
353	 0.119275586158357 
354	 0.230647636895623 
355	 0.210832755134177 
356	 0.164105195142372 
357	 0.193912631325602 
358	 0.160335571723523 
359	 0.174522187850299 
360	 0.211529678034968 
361	 0.183959786228567 
362	 0.14927468680012 
363	 0.153333258546932 
364	 0.172711522736717 
365	 9.82271354318545E-02 
366	 0.104689364265097 
367	 0.145972400399009 
368	 0.147893964689195 
369	 0.164439571082882 
370	 0.150446219307491 
371	 0.118835346249507 
372	 0.117216685655285 
373	 0.161508318895646 
374	 0.159434945541123 
375	 0.10171476985021 
376	 0.102560613813787 
377	 0.104293305236265 
378	 0.116767190476416 
379	 0.140809314509557 
380	 9.88754002537548E-02 
381	 8.97309395813958E-02 
382	 0.113571050303617 
383	 0.109307239696102 
384	 0.113969106117507 
385	 0.107053625734891 
386	 8.41035147282884E-02 
387	 7.48030698403351E-02 
388	 0.066209135523022 
389	 7.26669789719604E-02 
390	 9.78046819013022E-02 
391	 8.53829267256086E-02 
392	 8.85347779179858E-02 
393	 9.82928683352921E-02 
394	 7.06868212621227E-02 
395	 5.41070057080683E-02 
396	 7.93177036007754E-02 
397	 0.121940759332112 
398	 7.35856787166169E-02 
399	 0.062539516667397 
400	 8.43911458987111E-02 
401	 0.098940855903588 
402	 9.51871502776427E-02 
403	 7.95868857728683E-02 
404	 6.87154854514496E-02 
405	 8.07833612919237E-02 
406	 0.088493013370223 
407	 8.86568321100906E-02 
408	 8.39673094268414E-02 
409	 7.98180260488561E-02 
410	 7.94548120745179E-02 
411	 8.12304032615539E-02 
412	 8.18941024095499E-02 
413	 8.10741571951146E-02 
414	 0.065847929005134 
415	 5.30810380093964E-02 
416	 8.10956900572891E-02 
417	 7.78288799644757E-02 
418	 6.69693864413825E-02 
419	 7.03921146114871E-02 
420	 7.06683318233478E-02 
421	 6.26069235516594E-02 
422	 0.057240815452396 
423	 6.71115881441428E-02 
424	 0.069082912616234 
425	 6.62550615083769E-02 
426	 6.28217174403141E-02 
427	 6.16431618462627E-02 
428	 6.13889679571283E-02 
429	 6.12813245571516E-02 
430	 6.06915710735374E-02 
431	 5.87471821503074E-02 
432	 5.98837094780011E-02 
433	 6.10850706111554E-02 
434	 5.69287110059558E-02 
435	 0.057773358119016 
436	 6.05286670875618E-02 
437	 6.19837444333119E-02 
438	 6.11103273452974E-02 
439	 5.90664891905975E-02 
440	 0.058417509387686 
441	 6.06709057424088E-02 
442	 6.24564740005322E-02 
443	 0.061060477899182 
444	 0.05757900705343 
445	 5.58005432239889E-02 
446	 5.40522981652041E-02 
447	 5.45624365048928E-02 
448	 5.75964079558679E-02 
449	 0.058636155226289 
450	 5.65812779725995E-02 
451	 5.51159149769857E-02 
452	 5.81220103774003E-02 
453	 5.89365171313104E-02 
454	 5.80050494066655E-02 
455	 5.65106119763126E-02 
456	 0.055826109286602 
457	 5.46266770553285E-02 
458	 5.41507220874792E-02 
459	 5.48813654514351E-02 
460	 5.35771474680987E-02 
461	 5.24740953276449E-02 
462	 5.29762230599354E-02 
463	 0.055331291578178 
464	 5.45678018400522E-02 
465	 5.30229570274234E-02 
466	 5.22903840714818E-02 
467	 5.15907390429749E-02 
468	 5.18428569772469E-02 
469	 5.27619028013774E-02 
470	 5.36978797324032E-02 
471	 5.42702731810085E-02 
472	 5.32931858254366E-02 
473	 5.19574889751638E-02 
474	 5.28706379167986E-02 
475	 5.15119432183463E-02 
476	 5.05166783248856E-02 
477	 5.16786671238808E-02 
478	 5.29482399961907E-02 
479	 5.27151820564834E-02 
480	 5.17638342918085E-02 
481	 5.15679776178003E-02 
482	 0.050946349420333 
483	 5.06698627457732E-02 
484	 5.10358116915984E-02 
485	 5.16742510446892E-02 
486	 5.02756592115569E-02 
487	 4.93818405005908E-02 
488	 5.06694957668481E-02 
489	 4.99155405683187E-02 
490	 4.94633411345136E-02 
491	 4.96730001318641E-02 
492	 0.049769195675791 
493	 0.049741428827403 
494	 4.97954845719072E-02 
495	 4.99021747719102E-02 
496	 4.95751821883582E-02 
497	 4.95916887503246E-02 
498	 4.99129243061927E-02 
499	 5.01898854199342E-02 
500	 4.99538942130945E-02 
501	 4.94952021480859E-02 
502	 0.049350101763252 
503	 5.00841817458485E-02 
504	 4.92200359120395E-02 
505	 4.85340299401585E-02 
506	 4.92382599297407E-02 
507	 4.95363966387903E-02 
508	 4.95484177768604E-02 
509	 4.93632357520976E-02 
510	 4.91143000204675E-02 
511	 4.89627804152947E-02 
512	 4.87443212314401E-02 
513	 4.85218498641625E-02 
514	 4.86816804144878E-02 
515	 4.85408886467106E-02 
516	 0.048489297822544 
517	 4.88261788623454E-02 
518	 4.86215545028665E-02 
519	 4.80279543860769E-02 
520	 4.78139585282033E-02 
521	 0.04886084453902 
522	 4.83591055418983E-02 
523	 4.80540118534925E-02 
524	 4.88742107973426E-02 
525	 4.89823922084581E-02 
526	 0.048910431655297 
527	 4.86951801917491E-02 
528	 4.83473413986416E-02 
529	 4.83987455756409E-02 
530	 4.86131982993072E-02 
531	 4.88460746172841E-02 
532	 4.90996592593616E-02 
533	 0.049337967857153 
534	 4.90789702172853E-02 
535	 0.048331742956724 
536	 4.87328600508927E-02 
537	 4.91888553755426E-02 
538	 4.92955487609454E-02 
539	 4.91176385893718E-02 
540	 4.92072238593831E-02 
541	 4.93263135854204E-02 
542	 4.93390635526796E-02 
543	 4.94106241044174E-02 
544	 4.96689675301245E-02 
545	 4.99016196502647E-02 
546	 4.98858971223347E-02 
547	 4.97970785299849E-02 
548	 5.01163189783422E-02 
549	 5.05948735012964E-02 
550	 5.04218248368446E-02 
551	 5.09138685474018E-02 
552	 5.14765393232048E-02 
553	 5.16666652901314E-02 
554	 5.23438456014557E-02 
555	 5.28329439160145E-02 
556	 0.053144642984653 
557	 5.35757718247722E-02 
558	 5.39848685723511E-02 
559	 5.43314507543309E-02 
560	 5.47333368345621E-02 
561	 0.055520584614906 
562	 5.59372121203073E-02 
563	 5.63817002637044E-02 
564	 0.057279882144639 
565	 5.79239694350241E-02 
566	 0.058532697030208 
567	 5.92051586990365E-02 
568	 5.99648987362216E-02 
569	 6.12235647943386E-02 
570	 6.23350577008617E-02 
571	 6.30759882125248E-02 
572	 6.44263693373229E-02 
573	 6.58316740869348E-02 
574	 6.72299171802539E-02 
575	 6.86745207010192E-02 
576	 6.98583962348275E-02 
577	 7.09816951901537E-02 
578	 7.21755499493128E-02 
579	 7.34522847984256E-02 
580	 7.49171922478323E-02 
581	 7.64073584680438E-02 
582	 7.78258654135793E-02 
583	 7.94635505482791E-02 
584	 8.10940614712125E-02 
585	 8.26408702026098E-02 
586	 8.41602218820535E-02 
587	 8.60122458084163E-02 
588	 8.78513905676534E-02 
589	 8.95182764717637E-02 
590	 9.12855004267281E-02 
591	 9.31151812846303E-02 
592	 9.50752225332937E-02 
593	 9.71736625389718E-02 
594	 0.099063991794223 
595	 0.100950087436609 
596	 0.102774809386386 
597	 0.1042620462016 
598	 0.105611662861056 
599	 0.107173862295781 
600	 0.109022229772857 
601	 0.110514378074941 
602	 0.111915596023583 
603	 0.11342250903528 
604	 0.115138282424965 
605	 0.11672211926826 
606	 0.118098039550542 
607	 0.119373688662116 
608	 0.12083788642383 
609	 0.122117289562114 
610	 0.123275652524447 
611	 0.1244519703986 
612	 0.125641950097609 
613	 0.126782694921746 
614	 0.127785512393483 
615	 0.128588742292656 
616	 0.12951041237291 
617	 0.130464863771484 
618	 0.131361512373944 
619	 0.13220173185188 
620	 0.133025557686865 
621	 0.133789584360305 
622	 0.134476269530929 
623	 0.135300431513778 
624	 0.136297809204135 
625	 0.137165832270631 
626	 0.137373503723401 
627	 0.13793110306904 
628	 0.138710349305456 
629	 0.139421498460007 
630	 0.139941713803173 
631	 0.140427960420435 
632	 0.140944010312277 
633	 0.141493392942282 
634	 0.141970239804155 
635	 0.142564331566022 
636	 0.143272589736729 
637	 0.143828477022051 
638	 0.144397069449487 
639	 0.144952194547918 
640	 0.145446379965289 
641	 0.145904961893231 
642	 0.146340705022621 
643	 0.146876678745793 
644	 0.147633101342358 
645	 0.148048681598334 
646	 0.148562675034571 
647	 0.149290704094132 
648	 0.149613361441082 
649	 0.150114048882609 
650	 0.150753078696568 
651	 0.151353305467504 
652	 0.152028811826054 
653	 0.152552859172102 
654	 0.152994546334329 
655	 0.153648207848404 
656	 0.154404354196379 
657	 0.155045659593556 
658	 0.155508632552103 
659	 0.156056044555 
660	 0.156908470707846 
661	 0.157783062183618 
662	 0.158328770111182 
663	 0.158996617499723 
664	 0.159748129254128 
665	 0.160521334954466 
666	 0.161261983147211 
667	 0.162062006522793 
668	 0.162820781522874 
669	 0.163504883584072 
670	 0.164349825572983 
671	 0.16518002468312 
672	 0.166004962947909 
673	 0.166892830029819 
674	 0.1676768529789 
675	 0.168566344172957 
676	 0.169563046186696 
677	 0.170391206287454 
678	 0.171279528954852 
679	 0.172220049307954 
680	 0.173174370413227 
681	 0.174182267176313 
682	 0.175204455467493 
683	 0.176251920960723 
684	 0.177344959519686 
685	 0.178333354913801 
686	 0.179291795721301 
687	 0.18024508373803 
688	 0.181110920055665 
689	 0.18224965750888 
690	 0.18346000041261 
691	 0.1845233505199 
692	 0.18572908522412 
693	 0.186832958102111 
694	 0.187869059874294 
695	 0.18903565246315 
696	 0.190301845092564 
697	 0.191496041623451 
698	 0.192558472030773 
699	 0.19362514179536 
700	 0.194824990015199 
701	 0.196103867565456 
702	 0.197355864817107 
703	 0.198520993678513 
704	 0.199669351355748 
705	 0.200876739229406 
706	 0.202185214949843 
707	 0.203284472286282 
708	 0.204334075324276 
709	 0.205466165620352 
710	 0.206655724631686 
711	 0.20783352546792 
712	 0.20903988068836 
713	 0.210284617504942 
714	 0.211305087140183 
715	 0.212409061825375 
716	 0.213583958376855 
717	 0.214598067265633 
718	 0.215580429777128 
719	 0.216615774244596 
720	 0.217700563193671 
721	 0.218692487908997 
722	 0.219590495572868 
723	 0.220405498192998 
724	 0.221202493118148 
725	 0.222222995701626 
726	 0.223177709521387 
727	 0.224012298605546 
728	 0.224833271746996 
729	 0.225450809836587 
730	 0.226003022385831 
731	 0.226602841733968 
732	 0.227253337188171 
733	 0.227840442391893 
734	 0.228318748406664 
735	 0.228721569141093 
736	 0.229284529752776 
737	 0.229704959057473 
738	 0.229981248016213 
739	 0.230293316122727 
740	 0.230474139980469 
741	 0.230567741322044 
742	 0.230654352979459 
743	 0.230831484133005 
744	 0.230825522823308 
745	 0.230704816985614 
746	 0.230590449623413 
747	 0.230432628646095 
748	 0.230264371058574 
749	 0.23013453637459 
750	 0.230057310866496 
751	 0.229722474021356 
752	 0.229395023450358 
753	 0.229163642258893 
754	 0.228818147669181 
755	 0.228484045157632 
756	 0.228065899196154 
757	 0.227527902106453 
758	 0.227162586910806 
759	 0.226600564506532 
760	 0.225934377272995 
761	 0.225425905902742 
762	 0.22489257782828 
763	 0.224331806945046 
764	 0.223670761216162 
765	 0.222774608009909 
766	 0.222080833121921 
767	 0.22145190310658 
768	 0.220726108933648 
769	 0.219952451613699 
770	 0.219235113817694 
771	 0.218506769645394 
772	 0.217662905339996 
773	 0.216741127863116 
774	 0.215932736387744 
775	 0.215187350216141 
776	 0.214286391091543 
777	 0.213533450539923 
778	 0.212783046876131 
779	 0.21195599661757 
780	 0.211200210481848 
781	 0.210279261374258 
782	 0.209362744024887 
783	 0.208622352013915 
784	 0.207819752846799 
785	 0.206998164426335 
786	 0.206180612670335 
787	 0.20537140174859 
788	 0.204519379447266 
789	 0.203612095422401 
790	 0.202704867439427 
791	 0.201915326412162 
792	 0.201120844274585 
793	 0.200377131606794 
794	 0.19968549772704 
795	 0.198831516290838 
796	 0.197949284544911 
797	 0.19713501173209 
798	 0.19643891045315 
799	 0.195758176199608 
800	 0.195036842431469 
801	 0.194258658073703 
802	 0.193459216636441 
803	 0.1928756912679 
804	 0.192199384596678 
805	 0.191364024738611 
806	 0.190762817960097 
807	 0.190042417983926 
808	 0.189311907984313 
809	 0.188705261271285 
810	 0.188090227575652 
811	 0.187423083738371 
812	 0.186756782187811 
813	 0.186175036689324 
814	 0.185653176157408 
815	 0.185043645572973 
816	 0.184406982501563 
817	 0.183962396272168 
818	 0.183444753084775 
819	 0.182873718293609 
820	 0.182316031416311 
821	 0.181837793023172 
822	 0.181430904416983 
823	 0.181013038512603 
824	 0.180523468101894 
825	 0.180027120520954 
826	 0.179548745763911 
827	 0.179133335336504 
828	 0.17880106117674 
829	 0.178412794538752 
830	 0.178013678093043 
831	 0.177611515339137 
832	 0.177181521161199 
833	 0.176830268901645 
834	 0.176488098763838 
835	 0.176116871277017 
836	 0.175766738399021 
837	 0.175560290841629 
838	 0.175336858915047 
839	 0.175001084003402 
840	 0.174856251859394 
841	 0.174635342579488 
842	 0.174342477571875 
843	 0.174082526217765 
844	 0.173857697531111 
845	 0.173696240708505 
846	 0.173515599988269 
847	 0.17320010906878 
848	 0.173059153572101 
849	 0.173016512530317 
850	 0.172956403720937 
851	 0.172789436623211 
852	 0.172766568137627 
853	 0.17266601710577 
854	 0.172434171156982 
855	 0.172591653727484 
856	 0.172473312783245 
857	 0.1722817986885 
858	 0.172337797168064 
859	 0.172344442400708 
860	 0.172289016299106 
861	 0.172230820679351 
862	 0.172255565112387 
863	 0.172338346098053 
864	 0.172464100371351 
865	 0.17256582961991 
866	 0.172560325174242 
867	 0.172635795276463 
868	 0.172727845081131 
869	 0.172777463632336 
870	 0.172788814271473 
871	 0.172967896415692 
872	 0.173206564464883 
873	 0.173377907804302 
874	 0.17347006339111 
875	 0.173719335218011 
876	 0.17397252143692 
877	 0.174075606544253 
878	 0.174342222023286 
879	 0.174562762436391 
880	 0.174696876264526 
881	 0.174822886011224 
882	 0.175145918067064 
883	 0.175407508196915 
884	 0.1756227473736 
885	 0.176007514771424 
886	 0.176439073786659 
887	 0.176818672405753 
888	 0.177080477186868 
889	 0.177220331485414 
890	 0.177627934984437 
891	 0.178068863859657 
892	 0.178418425632458 
893	 0.17893951709875 
894	 0.1791614623006 
895	 0.1794600646837 
896	 0.18012679413156 
897	 0.180698174984461 
898	 0.181074645066954 
899	 0.181433637437532 
900	 0.181960151246553 
901	 0.182418096085283 
902	 0.182904456255157 
903	 0.183443079962862 
904	 0.184006871059113 
905	 0.184518383582955 
906	 0.185036348767596 
907	 0.185639519000707 
908	 0.186363733615701 
909	 0.186887377851565 
910	 0.187403198571799 
911	 0.188045479500688 
912	 0.188818708167 
913	 0.189661076249408 
914	 0.190313494800756 
915	 0.190804565501422 
916	 0.191561146687414 
917	 0.192375388102318 
918	 0.193124400900868 
919	 0.193833147742774 
920	 0.194761497866774 
921	 0.195487213201824 
922	 0.196113771415676 
923	 0.196828455165187 
924	 0.197638519016066 
925	 0.198726287225797 
926	 0.199788917740932 
927	 0.200570739110895 
928	 0.201523963085054 
929	 0.202394484552777 
930	 0.203320524891082 
931	 0.204441403443084 
932	 0.205191903973456 
933	 0.206022948906955 
934	 0.207015924726452 
935	 0.208036180008197 
936	 0.209077849266615 
937	 0.210176031617355 
938	 0.211281880289956 
939	 0.212323030689081 
940	 0.213509572003064 
941	 0.214625550490812 
942	 0.21560591017893 
943	 0.216582190226422 
944	 0.21789628704794 
945	 0.219127909013349 
946	 0.220206238880508 
947	 0.221481667270103 
948	 0.222677130633029 
949	 0.223761850713516 
950	 0.224909125648678 
951	 0.2264327007491 
952	 0.2277172318672 
953	 0.228898241918815 
954	 0.230155181870892 
955	 0.23150930722178 
956	 0.232970379408892 
957	 0.234327096351721 
958	 0.235597014281897 
959	 0.237232738234131 
960	 0.238665426336368 
961	 0.240074812496425 
962	 0.241557470585629 
963	 0.242703574358155 
964	 0.244204049374505 
965	 0.245926677527642 
966	 0.247482396035114 
967	 0.248436528850803 
968	 0.250162215583583 
969	 0.252045012749013 
970	 0.253385989001404 
971	 0.254777623728882 
972	 0.256556977660802 
973	 0.258275299217304 
974	 0.25955442947725 
975	 0.260923905610067 
976	 0.262495184018709 
977	 0.264118104603677 
978	 0.265658439419794 
979	 0.267335396661979 
980	 0.269217079828009 
981	 0.270926787079384 
982	 0.272295262607642 
983	 0.274331893934024 
984	 0.27596538594877 
985	 0.277275027929117 
986	 0.278685192394345 
987	 0.280245966216946 
988	 0.282344610750902 
989	 0.284290567193377 
990	 0.285522436368585 
991	 0.287269143128096 
992	 0.288785549482458 
993	 0.290323566978056 
994	 0.292197664485723 
995	 0.293708252016777 
996	 0.295227097383829 
997	 0.296833165099671 
998	 0.298526542196865 
999	 0.300433450512436 
1000	 0.302128051133041 
1001	 0.30354947440278 
1002	 0.305504887331825 
1003	 0.307377472385097 
1004	 0.308936317416548 
1005	 0.310315556864551 
1006	 0.311836189654803 
1007	 0.313063025585945 
1008	 0.314624089013647 
1009	 0.316623242866148 
1010	 0.318218841330768 
1011	 0.319584145187442 
1012	 0.321120217720932 
1013	 0.322618446054232 
1014	 0.324100088416817 
1015	 0.325639237011227 
1016	 0.327258370249516 
1017	 0.328915077864498 
1018	 0.330190518157258 
1019	 0.331390637215154 
1020	 0.332930790709277 
1021	 0.334251181520926 
1022	 0.335379103837798 
1023	 0.336615136954089 
1024	 0.337856670132914 
1025	 0.339129323987044 
1026	 0.340508202796915 
1027	 0.341739609917541 
1028	 0.34294297812068 
1029	 0.344101469904534 
1030	 0.34515806929742 
1031	 0.346352955799655 
1032	 0.347692320358332 
1033	 0.348863324540185 
1034	 0.350006408858825 
1035	 0.351152704928686 
1036	 0.352302405799206 
1037	 0.353436674394004 
1038	 0.354542549610577 
1039	 0.355667199882181 
1040	 0.356783306886475 
1041	 0.357862533192138 
1042	 0.358975035485507 
1043	 0.360166813409703 
1044	 0.361155767374686 
1045	 0.362338526939291 
1046	 0.363523009103408 
1047	 0.364418138710883 
1048	 0.36545747265998 
1049	 0.366314674138182 
1050	 0.367049160985039 
1051	 0.368159976174817 
1052	 0.369165261101913 
1053	 0.370222478075032 
1054	 0.371425235206464 
1055	 0.372528246052764 
1056	 0.37358011791043 
1057	 0.374658914922356 
1058	 0.375759881800822 
1059	 0.37665904870106 
1060	 0.377732867634614 
1061	 0.378838815185412 
1062	 0.379856682602934 
1063	 0.380904063549204 
1064	 0.381796522463302 
1065	 0.382710478739938 
1066	 0.383554084221723 
1067	 0.38437690351533 
1068	 0.385438667604942 
1069	 0.386321881168867 
1070	 0.387224504765466 
1071	 0.388171681838889 
1072	 0.389183931007892 
1073	 0.389951118568764 
1074	 0.390721574102514 
1075	 0.391510974411503 
1076	 0.392340282194548 
1077	 0.393212086647712 
1078	 0.394119110642071 
1079	 0.395079755266845 
1080	 0.395945581093238 
1081	 0.396753959576154 
1082	 0.397557055092804 
1083	 0.398317614733797 
1084	 0.399100315829488 
1085	 0.399864598820006 
1086	 0.400621618153507 
1087	 0.401356261983725 
1088	 0.40222882489874 
1089	 0.403093583582676 
1090	 0.403823489616992 
1091	 0.404642281185694 
1092	 0.405382287999492 
1093	 0.406005280190491 
1094	 0.406775893914896 
1095	 0.407458991042028 
1096	 0.408083378562604 
1097	 0.408816813633971 
1098	 0.409518002004562 
1099	 0.41031695376625 
1100	 0.411161535962995 
1101	 0.411929921056699 
1102	 0.412740039678151 
1103	 0.413452423531248 
1104	 0.414095328184144 
1105	 0.414691434640903 
1106	 0.415365664427947 
1107	 0.416037744910388 
1108	 0.416810014762261 
1109	 0.417643033091701 
1110	 0.418475550192805 
1111	 0.419334797907813 
1112	 0.420084978119395 
1113	 0.42086146225251 
1114	 0.421666409984498 
1115	 0.422335438257384 
1116	 0.423050008900172 
1117	 0.423781619691273 
1118	 0.424500315832311 
1119	 0.425212951443014 
1120	 0.425924526686004 
1121	 0.426625898646902 
1122	 0.427341126289547 
1123	 0.428061109440819 
1124	 0.428743113569669 
1125	 0.42947731139061 
1126	 0.430214184643009 
1127	 0.430989532129813 
1128	 0.431826768324408 
1129	 0.432634796160019 
1130	 0.433398053800327 
1131	 0.434029209485766 
1132	 0.434584619983452 
1133	 0.43516170429256 
1134	 0.435724372472753 
1135	 0.436349025785397 
1136	 0.4370974672767 
1137	 0.43773161076564 
1138	 0.438314422931984 
1139	 0.438958024821854 
1140	 0.439619051798304 
1141	 0.44017871283285 
1142	 0.440850714734166 
1143	 0.441517184802892 
1144	 0.442041291239122 
1145	 0.442576480601454 
1146	 0.443108053724371 
1147	 0.443597965193169 
1148	 0.444060700061593 
1149	 0.44455318350282 
1150	 0.445050501746804 
1151	 0.445489498270224 
1152	 0.446015191891671 
1153	 0.446677052963464 
1154	 0.447197053846145 
1155	 0.447688712816527 
1156	 0.448172730255908 
1157	 0.448554147582161 
1158	 0.448968370277047 
1159	 0.449422017611083 
1160	 0.449857226363154 
1161	 0.450213395926363 
1162	 0.45064137123871 
1163	 0.45101835779355 
1164	 0.451328819440224 
1165	 0.451651811944007 
1166	 0.451987476133841 
1167	 0.452290910185074 
1168	 0.45260820665791 
1169	 0.452931138052228 
1170	 0.453238548984553 
1171	 0.453549185883631 
1172	 0.453893759158635 
1173	 0.454210798310276 
1174	 0.454546487401937 
1175	 0.454837745559385 
1176	 0.455082610381114 
1177	 0.455324187140379 
1178	 0.455544623625211 
1179	 0.455713005772248 
1180	 0.455994108473677 
1181	 0.456325056277015 
1182	 0.456552542385138 
1183	 0.456761882479987 
1184	 0.456955960405611 
1185	 0.457068491445422 
1186	 0.457263198515017 
1187	 0.457570836945954 
1188	 0.457778182879063 
1189	 0.457914278215688 
1190	 0.458126752393982 
1191	 0.458343583831279 
1192	 0.458539149653498 
1193	 0.458779776771861 
1194	 0.458997616502274 
1195	 0.45920198343936 
1196	 0.459380704865727 
1197	 0.459537615576385 
1198	 0.459706629392651 
1199	 0.459886045236754 
1200	 0.460022969861197 
1201	 0.460258700912059 
1202	 0.460471875858942 
1203	 0.460629501857125 
1204	 0.460857313094479 
1205	 0.461062812266332 
1206	 0.461269819833939 
1207	 0.46146649428648 
1208	 0.461675544115725 
1209	 0.461841142390642 
1210	 0.461932779382546 
1211	 0.462135408756739 
1212	 0.462403050897087 
1213	 0.462618568200616 
1214	 0.462858784271058 
1215	 0.463099176842639 
1216	 0.463248792432754 
1217	 0.463492368790023 
1218	 0.463834965963304 
1219	 0.464180742648652 
1220	 0.464466172156965 
1221	 0.464733590975627 
1222	 0.464841273781778 
1223	 0.46494277183129 
1224	 0.465145196606905 
1225	 0.465359738610476 
1226	 0.465606695680674 
1227	 0.465992992765032 
1228	 0.466223013689537 
1229	 0.466382272245485 
1230	 0.466560061462623 
1231	 0.466656430100516 
1232	 0.466826684410961 
1233	 0.467050818865474 
1234	 0.467232554908746 
1235	 0.467451390246326 
1236	 0.467618723149699 
1237	 0.467732431885777 
1238	 0.467849749793259 
1239	 0.46792853204493 
1240	 0.468006830119456 
1241	 0.468189616488346 
1242	 0.468332281456271 
1243	 0.468479941931805 
1244	 0.468662125266621 
1245	 0.468821251969913 
1246	 0.468960071855068 
1247	 0.46908851418399 
1248	 0.469231898347811 
1249	 0.469352513084029 
1250	 0.469439476453932 
1251	 0.469514558639701 
1252	 0.469579468985436 
1253	 0.469645143925349 
1254	 0.46971411973427 
1255	 0.469738988911135 
1256	 0.469720599108435 
1257	 0.469740027476218 
1258	 0.469740345808933 
1259	 0.469739977182905 
1260	 0.469756569569972 
1261	 0.469800572705186 
1262	 0.469866735950596 
1263	 0.469886263670741 
1264	 0.469932238320561 
1265	 0.470028178815664 
1266	 0.470064394504583 
1267	 0.470035257039689 
1268	 0.470088720171527 
1269	 0.470171243362763 
1270	 0.470241858387857 
1271	 0.470351388342621 
1272	 0.470436339379573 
1273	 0.470467453964809 
1274	 0.470573573757583 
1275	 0.470721469932914 
1276	 0.470866370083783 
1277	 0.471046630353584 
1278	 0.471224862355112 
1279	 0.471425803636408 
1280	 0.471594409186366 
1281	 0.471777022898326 
1282	 0.471923474063699 
1283	 0.472004953110336 
1284	 0.472112223061004 
1285	 0.472220778765909 
1286	 0.472313875470425 
1287	 0.472449294044956 
1288	 0.472644266077728 
1289	 0.472728966668993 
1290	 0.472797828459457 
1291	 0.472827912740396 
1292	 0.472746644425216 
1293	 0.472761377068387 
1294	 0.472828046365555 
1295	 0.47284074528566 
1296	 0.472848336947467 
1297	 0.472859248313286 
1298	 0.472862876970541 
1299	 0.472832704668229 
1300	 0.472818005102533 
1301	 0.472757306288807 
1302	 0.472591621491118 
1303	 0.472503584592587 
1304	 0.472446664217513 
1305	 0.472380450367488 
1306	 0.472360432858735 
1307	 0.472309637689839 
1308	 0.472229500140987 
1309	 0.472153009178956 
1310	 0.472065644353304 
1311	 0.471957563082225 
1312	 0.471890489104705 
1313	 0.471815971612289 
1314	 0.471791352444626 
1315	 0.471831564515543 
1316	 0.47181000351239 
1317	 0.471789064520488 
1318	 0.471760700793944 
1319	 0.471683751207178 
1320	 0.471659634639322 
1321	 0.471679104899157 
1322	 0.471665035057672 
1323	 0.471639716846571 
1324	 0.471637375990208 
1325	 0.471626191777102 
1326	 0.471632872440877 
1327	 0.471632040343175 
1328	 0.471694255706118 
1329	 0.471864006747795 
1330	 0.471919367847974 
1331	 0.47195332478399 
1332	 0.471993246728246 
1333	 0.471972840751099 
1334	 0.471901978027841 
1335	 0.471925880931262 
1336	 0.472014344236963 
1337	 0.47207977038127 
1338	 0.472172437019831 
1339	 0.472217769019517 
1340	 0.472242354870991 
1341	 0.47229580538267 
1342	 0.472340307715071 
1343	 0.472377743259688 
1344	 0.472440472065923 
1345	 0.472489889028511 
1346	 0.472491389307382 
1347	 0.472544099871923 
1348	 0.472663361978762 
1349	 0.472709184891477 
1350	 0.472732262288702 
1351	 0.472757571420191 
1352	 0.472757723550135 
1353	 0.47274312665275 
1354	 0.472696628690938 
1355	 0.472701861384735 
1356	 0.472722815102134 
1357	 0.472727581522881 
1358	 0.472810229184473 
1359	 0.472809548424112 
1360	 0.472750183034742 
1361	 0.472641468807178 
1362	 0.472553282919633 
1363	 0.472513242648167 
1364	 0.472481614439852 
1365	 0.472503590290499 
1366	 0.47247027037018 
1367	 0.472430117624174 
1368	 0.472368580433606 
1369	 0.47229716950338 
1370	 0.472191401323802 
1371	 0.472039533388861 
1372	 0.471926847168165 
1373	 0.471824011146023 
1374	 0.471682476541587 
1375	 0.471534420486827 
1376	 0.471398768883674 
1377	 0.471238201887449 
1378	 0.471070709645364 
1379	 0.470922712973984 
1380	 0.470764327836484 
1381	 0.470570297463828 
1382	 0.470386729960343 
1383	 0.470247733977379 
1384	 0.47005326906006 
1385	 0.469804278580533 
1386	 0.469583144908374 
1387	 0.469339168273833 
1388	 0.469116435164026 
1389	 0.468892764453932 
1390	 0.46871032677021 
1391	 0.468573651121088 
1392	 0.468419192430788 
1393	 0.468227332234359 
1394	 0.46815294508509 
1395	 0.468015848103612 
1396	 0.467850314295334 
1397	 0.467706535478169 
1398	 0.467586530329778 
1399	 0.467419867880912 
1400	 0.467253002511449 
1401	 0.467038788030364 
1402	 0.46677711304145 
1403	 0.466542335209187 
1404	 0.46630161467354 
1405	 0.466026952981651 
1406	 0.465743283900997 
1407	 0.465456053519015 
1408	 0.46513219949788 
1409	 0.464814018397818 
1410	 0.464497297703371 
1411	 0.46419756766496 
1412	 0.463862530821525 
1413	 0.463587015634509 
1414	 0.463366572431576 
1415	 0.463140239072588 
1416	 0.462951706422678 
1417	 0.462741180742632 
1418	 0.462502112719758 
1419	 0.462295845979814 
1420	 0.462107186167843 
1421	 0.461916468862706 
1422	 0.461752697187317 
1423	 0.461585254540269 
1424	 0.461428527265732 
1425	 0.461217936350257 
1426	 0.461073047396686 
1427	 0.46093678630112 
1428	 0.460791465512723 
1429	 0.460671240854808 
1430	 0.460553670409684 
1431	 0.460448217831242 
1432	 0.460310413792442 
1433	 0.46017567757649 
1434	 0.460034179118729 
1435	 0.459869436575456 
1436	 0.459698881018213 
1437	 0.459493894256836 
1438	 0.459377894993854 
1439	 0.459278304611348 
1440	 0.459200564343408 
1441	 0.459214244739126 
1442	 0.45917676580586 
1443	 0.459084037374144 
1444	 0.459061435680974 
1445	 0.459113131782939 
1446	 0.459092181991895 
1447	 0.459039542934325 
1448	 0.459034700976611 
1449	 0.458996761337997 
1450	 0.459003190957235 
1451	 0.459073588510415 
1452	 0.459144763412833 
1453	 0.459233501822316 
1454	 0.459301349205049 
1455	 0.459392656496967 
1456	 0.459469484885868 
1457	 0.459493967678998 
1458	 0.459567981831774 
1459	 0.459669712383733 
1460	 0.459774439501191 
1461	 0.459917184585125 
1462	 0.460037505643138 
1463	 0.460168669977406 
1464	 0.460265305798636 
1465	 0.460317719082697 
1466	 0.460380945405346 
1467	 0.460436837660398 
1468	 0.460584644345828 
1469	 0.460765329476786 
1470	 0.460905264177149 
1471	 0.461025891840534 
1472	 0.461123578213779 
1473	 0.461215402507699 
1474	 0.4612814205363 
1475	 0.461373130789007 
1476	 0.461480566650671 
1477	 0.461547991133559 
1478	 0.461602035475585 
1479	 0.461661637555119 
1480	 0.461679389480474 
1481	 0.461753167276187 
1482	 0.461881503021925 
1483	 0.461952078523638 
1484	 0.46200204022807 
1485	 0.462082728326071 
1486	 0.462160522850102 
1487	 0.462226287278611 
1488	 0.462301778431111 
1489	 0.46239214350841 
1490	 0.462475808675175 
1491	 0.462542595948508 
1492	 0.462621941202894 
1493	 0.462710475875836 
1494	 0.462768954442518 
1495	 0.462850266083249 
1496	 0.462988404612049 
1497	 0.463078900421808 
1498	 0.463138833642971 
1499	 0.463199321434628 
1500	 0.463238351812334 
1501	 0.463294588150497 
1502	 0.463350700460919 
1503	 0.463414564714875 
1504	 0.463478283236502 
1505	 0.463562893575775 
1506	 0.463676722686035 
1507	 0.463763152775297 
1508	 0.463881653684733 
1509	 0.463950486570892 
1510	 0.463957126855015 
1511	 0.463984511986946 
1512	 0.463986479177077 
1513	 0.464005625368097 
1514	 0.464074570598354 
1515	 0.464088572574492 
1516	 0.464045865562087 
1517	 0.464045229011137 
1518	 0.463998198655871 
1519	 0.464014735186182 
1520	 0.464130811381961 
1521	 0.464221462841169 
1522	 0.464284720434573 
1523	 0.464312674524275 
1524	 0.464310874074861 
1525	 0.464228771525871 
1526	 0.464231967472166 
1527	 0.464260430648928 
1528	 0.464268271910026 
1529	 0.464294303437012 
1530	 0.464304227126218 
1531	 0.464306330753742 
1532	 0.464278504515765 
1533	 0.46423403715091 
1534	 0.464208407787535 
1535	 0.464142420791256 
1536	 0.464140990777383 
1537	 0.464205185988658 
1538	 0.464209437695858 
1539	 0.464201706806669 
1540	 0.464207998979363 
1541	 0.464188501344773 
1542	 0.464207532852216 
1543	 0.464246230453984 
1544	 0.464312980992352 
1545	 0.464432955067229 
1546	 0.464474936638638 
1547	 0.464529649369351 
1548	 0.464527502882806 
1549	 0.464428287057453 
1550	 0.464392197561869 
1551	 0.464366344920813 
1552	 0.464339304486366 
1553	 0.464295436130671 
1554	 0.464315380247806 
1555	 0.464377024746336 
1556	 0.46441654922868 
1557	 0.464502027156186 
1558	 0.464552471458143 
1559	 0.464563269419234 
1560	 0.464593009858636 
1561	 0.464646503590054 
1562	 0.464665546084556 
1563	 0.464649874252261 
1564	 0.464664756651483 
1565	 0.464681808324314 
1566	 0.46469500941454 
1567	 0.464734762232348 
1568	 0.464744189456191 
1569	 0.464721378108841 
1570	 0.464716456395467 
1571	 0.46469797842448 
1572	 0.464707780293831 
1573	 0.464722871880275 
1574	 0.464766432532642 
1575	 0.464870259920227 
1576	 0.46491665958006 
1577	 0.464969484617131 
1578	 0.464985495019778 
1579	 0.464937421248376 
1580	 0.464915909454497 
1581	 0.46484999750869 
1582	 0.464868684561622 
1583	 0.464963980414748 
1584	 0.465007642366442 
1585	 0.465086588722587 
1586	 0.465138443151937 
1587	 0.46512017803165 
1588	 0.465150357841683 
1589	 0.465233241625215 
1590	 0.465272922444608 
1591	 0.465317923094528 
1592	 0.465325945386859 
1593	 0.465266185540476 
1594	 0.465255823272589 
1595	 0.465270025927018 
1596	 0.465253100921043 
1597	 0.465223727775878 
1598	 0.465223335666705 
1599	 0.465205568638862 
1600	 0.465203774801395 
1601	 0.465246003138603 
1602	 0.465283277991918 
1603	 0.465340285044437 
1604	 0.465350086580275 
1605	 0.465334591420419 
1606	 0.465332926717039 
1607	 0.465293003656673 
1608	 0.465271458755795 
1609	 0.465268884636013 
1610	 0.46528302667487 
1611	 0.465291307440534 
1612	 0.46531979400557 
1613	 0.465427828156278 
1614	 0.465453692272466 
1615	 0.465441042351288 
1616	 0.465421352217789 
1617	 0.465332072556875 
1618	 0.465277223185162 
1619	 0.465227960896049 
1620	 0.465204940990396 
1621	 0.465212037401613 
1622	 0.465202459420795 
1623	 0.465212143548442 
1624	 0.46520080102627 
1625	 0.465171264409141 
1626	 0.465143514043096 
1627	 0.465139704862136 
1628	 0.465074061672724 
1629	 0.464910594987387 
1630	 0.464845853495256 
1631	 0.464806955836749 
1632	 0.46476532459179 
1633	 0.464824833375748 
1634	 0.464799775912668 
1635	 0.464661741812021 
1636	 0.464608359131827 
1637	 0.464581727974266 
1638	 0.464564122307524 
1639	 0.464647040941945 
1640	 0.464618546295732 
1641	 0.464506943613288 
1642	 0.464425926628836 
1643	 0.464258907955079 
1644	 0.464180640320226 
1645	 0.464220501123949 
1646	 0.464163027505052 
1647	 0.464084905014652 
1648	 0.464013109320459 
1649	 0.463879887527774 
1650	 0.463775305776308 
1651	 0.463709908812763 
1652	 0.463629107652494 
1653	 0.463537337824685 
1654	 0.463430642515731 
1655	 0.463348904775356 
1656	 0.463213651198989 
1657	 0.463005273619072 
1658	 0.462848475735774 
1659	 0.462696297294773 
1660	 0.462521860334195 
1661	 0.462397771992351 
1662	 0.462208454350325 
1663	 0.461932793433118 
1664	 0.461708616579329 
1665	 0.461507439551878 
1666	 0.461247378127854 
1667	 0.460979130030609 
1668	 0.460708491052118 
1669	 0.460401472517692 
1670	 0.460067011826851 
1671	 0.459741561944244 
1672	 0.459367907586941 
1673	 0.458937061316948 
1674	 0.458493342757576 
1675	 0.458042190010938 
1676	 0.457573502284308 
1677	 0.457057065826021 
1678	 0.456547308027039 
1679	 0.456050520702526 
1680	 0.455490573623276 
1681	 0.454914767800873 
1682	 0.454293641684836 
1683	 0.453606215867106 
1684	 0.452919706649707 
1685	 0.45219307242374 
1686	 0.45147985355186 
1687	 0.450766121959373 
1688	 0.450043757682863 
1689	 0.449332705924219 
1690	 0.448558517587436 
1691	 0.447747560607008 
1692	 0.446951944743295 
1693	 0.446171333540069 
1694	 0.445281394604759 
1695	 0.444335990744213 
1696	 0.44336854673454 
1697	 0.442295446329972 
1698	 0.441270980790111 
1699	 0.440264886021476 
1700	 0.439274067907769 
1701	 0.438242060651606 
1702	 0.437313964120945 
1703	 0.436469256690359 
1704	 0.435576917365063 
1705	 0.434689189788403 
1706	 0.433864449574536 
1707	 0.433100205155165 
1708	 0.432457276230617 
1709	 0.431757716301829 
1710	 0.431050749609574 
1711	 0.430441622485984 
1712	 0.429909760799178 
1713	 0.429454360293397 
1714	 0.429044688764396 
1715	 0.428618317678476 
1716	 0.428162682829877 
1717	 0.427729136741591 
1718	 0.427344429832195 
1719	 0.427053010819963 
1720	 0.426793122775844 
1721	 0.426563666091527 
1722	 0.426432107636353 
1723	 0.42620894741221 
1724	 0.425982289023127 
1725	 0.425856161246268 
1726	 0.425638032454823 
1727	 0.425530380328827 
1728	 0.425622396352596 
1729	 0.425801096376595 
1730	 0.426138957459175 
1731	 0.426493059978675 
1732	 0.426808510166318 
1733	 0.427125684180641 
1734	 0.427498151740554 
1735	 0.427933215711639 
1736	 0.428352222092842 
1737	 0.428791645338381 
1738	 0.429078191301736 
1739	 0.429385164640717 
1740	 0.429767627273593 
1741	 0.429962880336824 
1742	 0.430085877433478 
1743	 0.430128108192372 
1744	 0.429968169091298 
1745	 0.42984424604703 
1746	 0.429685675570984 
1747	 0.429555210620621 
1748	 0.429379021466072 
1749	 0.429257268372318 
1750	 0.429176742487039 
1751	 0.429126126136134 
1752	 0.42917028600357 
1753	 0.429140715106904 
1754	 0.429031268457015 
1755	 0.429023335504664 
1756	 0.428958623095536 
1757	 0.429013369797441 
1758	 0.429326323151286 
1759	 0.429603109529281 
1760	 0.429853853678152 
1761	 0.430214396188078 
1762	 0.430494992781695 
1763	 0.43082416725089 
1764	 0.431314066726402 
1765	 0.431788130468497 
1766	 0.432338747431279 
1767	 0.433006067314544 
1768	 0.433609745946907 
1769	 0.434189602105992 
1770	 0.434872324746019 
1771	 0.435464270358245 
1772	 0.435963640571645 
1773	 0.436490422217664 
1774	 0.436971710233554 
1775	 0.437395422699079 
1776	 0.437832600123262 
1777	 0.438384098690664 
1778	 0.438838390310119 
1779	 0.439181030083217 
1780	 0.43963319194978 
1781	 0.440007770113452 
1782	 0.440273513062568 
1783	 0.440544621531623 
1784	 0.440758245907134 
1785	 0.440879700023759 
1786	 0.441025549644467 
1787	 0.441164636196559 
1788	 0.44130818974444 
1789	 0.441493764469636 
1790	 0.441581530905958 
1791	 0.441598440555197 
1792	 0.441670714253593 
1793	 0.441668623006196 
1794	 0.441843997388791 
1795	 0.442004573236439 
1796	 0.442121699471062 
1797	 0.442197658582218 
1798	 0.442223552252426 
1799	 0.442227774393645 
1800	 0.442226692977605 
1801	 0.442575777073941 
1802	 0.442742362189631 
1803	 0.442845069917235 
1804	 0.442914350699364 
1805	 0.442946825823199 
1806	 0.443021907866785 
1807	 0.443109530599148 
1808	 0.443171175559038 
1809	 0.443201278722571 
1810	 0.443300465672095 
1811	 0.443430571846638 
1812	 0.443547631023191 
1813	 0.443734289375625 
1814	 0.443865685588861 
1815	 0.443945303487484 
1816	 0.444026459636297 
1817	 0.4441273752893 
1818	 0.444240104814521 
1819	 0.44433190797558 
1820	 0.444409156873642 
1821	 0.44453068625959 
1822	 0.444630928552263 
1823	 0.444796952985617 
1824	 0.445034319008968 
1825	 0.445123498003683 
1826	 0.445258116548806 
1827	 0.445355101939826 
1828	 0.445502996684597 
1829	 0.445721091203588 
1830	 0.445849102721639 
1831	 0.445920328936601 
1832	 0.446071509390097 
1833	 0.446111533976719 
1834	 0.44617894389778 
1835	 0.446416300993389 
1836	 0.446553346239425 
1837	 0.446738689404309 
1838	 0.447015907400168 
1839	 0.447205214313874 
1840	 0.447358474593373 
1841	 0.447504546796807 
1842	 0.447657441279189 
1843	 0.447688394177344 
1844	 0.447733211970263 
1845	 0.447892007699532 
1846	 0.448007058515754 
1847	 0.448157663853278 
1848	 0.448280025187915 
1849	 0.448381894500799 
1850	 0.448481671711259 
1851	 0.448567127040095 
1852	 0.448675351112763 
1853	 0.44876064681293 
1854	 0.448877019447077 
1855	 0.448917192157725 
1856	 0.448917782510079 
1857	 0.448949696793132 
1858	 0.44893804942612 
1859	 0.448951987021332 
1860	 0.449018986344087 
1861	 0.449016576600656 
1862	 0.448995745863402 
1863	 0.448939280205435 
1864	 0.448835150449959 
1865	 0.448722352273082 
1866	 0.448618662701287 
1867	 0.448578535185107 
1868	 0.44849359786367 
1869	 0.448345546730368 
1870	 0.448260856049904 
1871	 0.448204694193702 
1872	 0.448092524602754 
1873	 0.447983220541714 
1874	 0.44792478591147 
1875	 0.447778790039668 
1876	 0.447516927420091 
1877	 0.447276946930238 
1878	 0.446976692183534 
1879	 0.446571454392496 
1880	 0.446170987301879 
1881	 0.445690147625979 
1882	 0.445141646621641 
1883	 0.444526630346456 
1884	 0.443902799945909 
1885	 0.443235569427666 
1886	 0.44263130840959 
1887	 0.442033048908304 
1888	 0.441316002547664 
1889	 0.440605888704399 
1890	 0.43982830407032 
1891	 0.438975590677518 
1892	 0.438123368670651 
1893	 0.437233892208696 
1894	 0.43629687889552 
1895	 0.435330674694894 
1896	 0.434319016200999 
1897	 0.433305263245531 
1898	 0.432365552517966 
1899	 0.431426439877489 
1900	 0.430588258133228 
1901	 0.429824937058399 
1902	 0.428969416875625 
1903	 0.42816640725057 
1904	 0.427415922304631 
1905	 0.426678271124744 
1906	 0.425965365167848 
1907	 0.425369719285103 
1908	 0.424738203447653 
1909	 0.424035560694438 
1910	 0.423365568687079 
1911	 0.422749213454549 
1912	 0.422251996603795 
1913	 0.421822295714347 
1914	 0.421423424148926 
1915	 0.421002578975541 
1916	 0.420599682282519 
1917	 0.420136393922614 
1918	 0.41971373845923 
1919	 0.419294196565612 
1920	 0.418942437224141 
1921	 0.41865943924379 
1922	 0.418298262417315 
1923	 0.417957435748115 
1924	 0.417636028036077 
1925	 0.417249817955278 
1926	 0.416936392938531 
1927	 0.416683312979804 
1928	 0.416456737710462 
1929	 0.416265396699716 
1930	 0.416056996167102 
1931	 0.41593253162136 
1932	 0.415838383625996 
1933	 0.415671048916251 
1934	 0.415631157229331 
1935	 0.415655567405202 
1936	 0.415672891341998 
1937	 0.415740257982934 
1938	 0.415940549680775 
1939	 0.416033170030393 
1940	 0.416096485299996 
1941	 0.416145767605112 
1942	 0.416226510084598 
1943	 0.416328808785814 
1944	 0.416405515404345 
1945	 0.416528816107258 
1946	 0.416714473557452 
1947	 0.416887717740991 
1948	 0.417169401969646 
1949	 0.417517688151546 
1950	 0.417814175605627 
1951	 0.418069472321912 
1952	 0.418393448228887 
1953	 0.418757401517969 
1954	 0.419093087297523 
1955	 0.41939342003877 
1956	 0.419647221110321 
1957	 0.41996185410305 
1958	 0.420308161819154 
1959	 0.420628745512707 
1960	 0.421040106509377 
1961	 0.421353807173778 
1962	 0.421538156942042 
1963	 0.421774122555187 
1964	 0.421994592697959 
1965	 0.422245599515443 
1966	 0.422521066438141 
1967	 0.42280237043008 
1968	 0.423007382894699 
1969	 0.423251473456187 
1970	 0.423419794210512 
1971	 0.423552895182759 
1972	 0.423771827171637 
1973	 0.424051975039698 
1974	 0.424330614577104 
1975	 0.424661660181944 
1976	 0.424933168562916 
1977	 0.425195582485751 
1978	 0.425470142106855 
1979	 0.425695819783154 
1980	 0.425978745015632 
1981	 0.426352384114349 
1982	 0.426577136414903 
1983	 0.426873756589885 
1984	 0.427344759241388 
1985	 0.427696316375845 
1986	 0.428083565581738 
1987	 0.428409059343763 
1988	 0.428596705076815 
1989	 0.428882516506315 
1990	 0.429212993181583 
1991	 0.429524661061244 
1992	 0.429827201374648 
1993	 0.430254482617694 
1994	 0.430557253383055 
1995	 0.430850798162372 
1996	 0.431286361274361 
1997	 0.431577735070916 
1998	 0.43186778185122 
1999	 0.432165148743853 
2000	 0.432457832683356 
2001	 0.432700047446741 
2002	 0.432945634764638 
2003	 0.43323548674231 
2004	 0.433448914017992 
2005	 0.433503852998662 
2006	 0.433707443938594 
2007	 0.43397683563527 
2008	 0.434207122247487 
2009	 0.43456360785 
2010	 0.435063160535068 
2011	 0.435354902287042 
2012	 0.435573406220418 
2013	 0.43574863161504 
2014	 0.43573951031822 
2015	 0.435860754715619 
2016	 0.436057701274911 
2017	 0.43617038266937 
2018	 0.43627227715701 
2019	 0.436357121317186 
2020	 0.436417616745831 
2021	 0.43640042939805 
2022	 0.436404077059472 
2023	 0.436409038436282 
2024	 0.43629156771139 
2025	 0.436236899284051 
2026	 0.436181746901744 
2027	 0.43612330809138 
2028	 0.436076014788547 
2029	 0.436064472990581 
2030	 0.436003933311668 
2031	 0.435934064161834 
2032	 0.435867573519457 
2033	 0.435761738954116 
2034	 0.435681997136733 
2035	 0.435636917269865 
2036	 0.435537529719607 
2037	 0.435471325128604 
2038	 0.435448914092091 
2039	 0.435379206238989 
2040	 0.435314799450137 
2041	 0.435217789960779 
2042	 0.435031552787 
2043	 0.434961101600009 
2044	 0.434963731164998 
2045	 0.434910812293761 
2046	 0.434880508134964 
2047	 0.434852699272601 
2048	 0.434785086552701 
2049	 0.434738310383528 
2050	 0.434730372628694 
2051	 0.43475601655742 
2052	 0.434671245594151 
2053	 0.434476918485542 
2054	 0.434370533353279 
2055	 0.434211936762714 
2056	 0.434140518138144 
2057	 0.434180152271922 
2058	 0.434143170846399 
2059	 0.434091829072259 
2060	 0.434040187095305 
2061	 0.433955824983151 
2062	 0.433907871114189 
2063	 0.433921571356264 
2064	 0.433869509186756 
2065	 0.43380804052292 
2066	 0.433689254320063 
2067	 0.433635031666465 
2068	 0.433516248265752 
2069	 0.433422447822146 
2070	 0.433367992674615 
2071	 0.433289450230753 
2072	 0.433164375032169 
2073	 0.433101377979852 
2074	 0.433085497705303 
2075	 0.43304110474961 
2076	 0.433015157008469 
2077	 0.432950095064337 
2078	 0.43284584446729 
2079	 0.432774110221728 
2080	 0.432654930295478 
2081	 0.432610751197584 
2082	 0.432600662719303 
2083	 0.432663755613761 
2084	 0.432716054675085 
2085	 0.432749029221728 
2086	 0.432833157480848 
2087	 0.432975087725353 
2088	 0.43299809526076 
2089	 0.433047434649323 
2090	 0.43300606247366 
2091	 0.432745645823895 
2092	 0.432685766919836 
2093	 0.432674084873871 
2094	 0.432697783554515 
2095	 0.432923915563218 
2096	 0.432963299739556 
2097	 0.432894150923053 
2098	 0.432880587273864 
2099	 0.432780873511242 
2100	 0.43262774438844 
2101	 0.43254935377683 
2102	 0.432515767438852 
2103	 0.432477597065054 
2104	 0.432458801061903 
2105	 0.432432892351946 
2106	 0.432443343308258 
2107	 0.432389665853517 
2108	 0.43230258564514 
2109	 0.432208463351446 
2110	 0.432074710491916 
2111	 0.431962029367647 
2112	 0.431854280404754 
2113	 0.43172613931471 
2114	 0.431560047496371 
2115	 0.431440713698805 
2116	 0.431336991691637 
2117	 0.431244181775682 
2118	 0.431139582899689 
2119	 0.431089081847646 
2120	 0.430961298723588 
2121	 0.430763639923776 
2122	 0.430616719834977 
2123	 0.430485079996583 
2124	 0.430310872454291 
2125	 0.430099141424084 
2126	 0.429948037666444 
2127	 0.429767543245918 
2128	 0.429648189501518 
2129	 0.429643328757887 
2130	 0.429581723416666 
2131	 0.429521115407473 
2132	 0.429440016922064 
2133	 0.429327997108555 
2134	 0.42919468608561 
2135	 0.429200292492846 
2136	 0.429148420064026 
2137	 0.429093644242908 
2138	 0.429099275569497 
2139	 0.4290257313377 
2140	 0.428841443633479 
2141	 0.428776663918691 
2142	 0.428782435141302 
2143	 0.42870846641527 
2144	 0.428616412114789 
2145	 0.428566139295961 
2146	 0.428433177983637 
2147	 0.428434416074802 
2148	 0.42863299571413 
2149	 0.42867117254052 
2150	 0.428686998289104 
2151	 0.428684520137709 
2152	 0.428607700657169 
2153	 0.428507957893257 
2154	 0.428403166339411 
2155	 0.428308334524718 
2156	 0.428211736826355 
2157	 0.428061236823773 
2158	 0.427970034267487 
2159	 0.427947361810614 
2160	 0.427858183259145 
2161	 0.427794088276641 
2162	 0.427626516504577 
2163	 0.427358173605318 
2164	 0.427141924550305 
2165	 0.426864264052475 
2166	 0.426647841430659 
2167	 0.426522321352054 
2168	 0.426322785028477 
2169	 0.42613686237883 
2170	 0.425863780033225 
2171	 0.425488716169265 
2172	 0.425147286488771 
2173	 0.424756469067047 
2174	 0.424340462735771 
2175	 0.42407359209007 
2176	 0.423997492865166 
2177	 0.423878553055996 
2178	 0.423909937752098 
2179	 0.423802113005384 
2180	 0.423637188839424 
2181	 0.423474821832496 
2182	 0.423314930801276 
2183	 0.423094076183119 
2184	 0.422804054626314 
2185	 0.422588826496716 
2186	 0.422319049084161 
2187	 0.422133179811833 
2188	 0.422095478812272 
2189	 0.42192100323669 
2190	 0.42168665795029 
2191	 0.421499921002595 
2192	 0.421299564034233 
2193	 0.421067498647359 
2194	 0.420829109255285 
2195	 0.420624939403965 
2196	 0.420385127706868 
2197	 0.420163024475694 
2198	 0.420046955726753 
2199	 0.41981074403743 
2200	 0.419582782654078 
2201	 0.419272675498426 
2202	 0.419082813610217 
2203	 0.418943447446525 
2204	 0.418790400847252 
2205	 0.418726950703098 
2206	 0.418544636565534 
2207	 0.418270290760525 
2208	 0.418055725145752 
2209	 0.417850615733335 
2210	 0.417597876638231 
2211	 0.417361067143864 
2212	 0.417082134447523 
2213	 0.416684281585836 
2214	 0.416389826395672 
2215	 0.41614626025838 
2216	 0.415877065044465 
2217	 0.415665925100626 
2218	 0.415416209614588 
2219	 0.415099536826459 
2220	 0.414831554175441 
2221	 0.414611701600616 
2222	 0.414349451061842 
2223	 0.414008555159723 
2224	 0.413743360641819 
2225	 0.413461455056964 
2226	 0.412992752650294 
2227	 0.412492565614546 
2228	 0.411899741704176 
2229	 0.411418229880074 
2230	 0.41091467129389 
2231	 0.410358043454033 
2232	 0.409912468874367 
2233	 0.40928723329777 
2234	 0.408495343765904 
2235	 0.407696220836977 
2236	 0.406903974379774 
2237	 0.405962358121451 
2238	 0.40481952842713 
2239	 0.403781278350319 
2240	 0.402732247609286 
2241	 0.40162309174125 
2242	 0.400606346406629 
2243	 0.399411596086841 
2244	 0.398049479851284 
2245	 0.396668051580635 
2246	 0.39515970242901 
2247	 0.393669910989655 
2248	 0.392196598094138 
2249	 0.390617572209606 
2250	 0.388903058277405 
2251	 0.387297978028103 
2252	 0.385663704510514 
2253	 0.383992674891471 
2254	 0.38232839959502 
2255	 0.380655020876657 
2256	 0.378957007066234 
2257	 0.37729549684482 
2258	 0.375700104533418 
2259	 0.374178435209814 
2260	 0.372758070325955 
2261	 0.371424130767658 
2262	 0.370034610059885 
2263	 0.368728133944611 
2264	 0.367401385261938 
2265	 0.36600785778261 
2266	 0.364695096849193 
2267	 0.363424603826804 
2268	 0.362266112664386 
2269	 0.361171948073084 
2270	 0.360076006981111 
2271	 0.359145848340121 
2272	 0.358089216727452 
2273	 0.356984656497998 
2274	 0.355853377246211 
2275	 0.354698976124047 
2276	 0.353484963416726 
2277	 0.352094905461753 
2278	 0.350872338579965 
2279	 0.349642714458779 
2280	 0.348558462131381 
2281	 0.347873177723631 
2282	 0.346806950272179 
2283	 0.345626450394327 
2284	 0.344350531629464 
2285	 0.342855183684006 
2286	 0.341349026975906 
2287	 0.339948530692199 
2288	 0.338605023448501 
2289	 0.337175892423844 
2290	 0.335456802613379 
2291	 0.333755281828398 
2292	 0.331980481118213 
2293	 0.330260999217596 
2294	 0.328813178714524 
2295	 0.327325565609824 
2296	 0.326004290757452 
2297	 0.324920395491462 
2298	 0.323998221757331 
2299	 0.323202847476232 
2300	 0.322633605698167 
2301	 0.322239912253664 
2302	 0.321954397447224 
2303	 0.321943863826121 
2304	 0.322256763597304 
2305	 0.322627201927612 
2306	 0.323199741191435 
2307	 0.323810516646264 
2308	 0.324508760461563 
2309	 0.325392421870876 
2310	 0.326431248290337 
2311	 0.327494948103626 
2312	 0.328753675401785 
2313	 0.330030612456265 
2314	 0.331375106738417 
2315	 0.332676684926643 
2316	 0.334150157323071 
2317	 0.335392154340412 
2318	 0.33650927437305 
2319	 0.337506931741893 
2320	 0.338447197870467 
2321	 0.339102041420298 
2322	 0.33948467501423 
2323	 0.339922997263875 
2324	 0.340128459554088 
2325	 0.34039646799978 
2326	 0.340744618675678 
2327	 0.340939692377075 
2328	 0.341157384017577 
2329	 0.341161617715193 
2330	 0.340995699964118 
2331	 0.340746127141587 
2332	 0.340269590968563 
2333	 0.339568601767715 
2334	 0.338865130293363 
2335	 0.33809152521197 
2336	 0.337362766477752 
2337	 0.336612443566592 
2338	 0.335770822369018 
2339	 0.33490559913497 
2340	 0.3339494570889 
2341	 0.333118593720074 
2342	 0.332585123346237 
2343	 0.332089557245278 
2344	 0.331646608315808 
2345	 0.331212815092294 
2346	 0.330765469274501 
2347	 0.33064239911189 
2348	 0.331007532386679 
2349	 0.331623785665872 
2350	 0.332452170451073 
2351	 0.33344312134615 
2352	 0.334285263044504 
2353	 0.335419648145589 
2354	 0.336431819599826 
2355	 0.337296304049441 
2356	 0.338266771030116 
2357	 0.33868132123442 
2358	 0.339110044767626 
2359	 0.339735638200764 
2360	 0.339997364886477 
2361	 0.340356083526499 
2362	 0.340829535248208 
2363	 0.340830667381986 
2364	 0.340829566185777 
2365	 0.340887643085453 
2366	 0.34091024613625 
2367	 0.34091971878796 
2368	 0.340882572576915 
2369	 0.341057315370748 
2370	 0.340950968485701 
2371	 0.340765757811493 
2372	 0.340696740731892 
2373	 0.340613761802943 
2374	 0.340697950191044 
2375	 0.340528870781929 
2376	 0.340456350832929 
2377	 0.340454471474904 
2378	 0.340239605875874 
2379	 0.340582163418425 
2380	 0.341030542771357 
2381	 0.341032758612176 
2382	 0.341188773705457 
2383	 0.341480960537874 
2384	 0.341473589429793 
2385	 0.341335158116466 
2386	 0.341264691271196 
2387	 0.340829093321154 
2388	 0.340867090113392 
2389	 0.341219825943416 
2390	 0.34142319539524 
2391	 0.341980301153691 
2392	 0.342055938869104 
2393	 0.341662540495171 
2394	 0.341679857804105 
2395	 0.341715343020611 
2396	 0.34161961136486 
2397	 0.341757044353069 
2398	 0.341813500368974 
2399	 0.34148585627591 
2400	 0.3415211510058 
2401	 0.341919193149962 
2402	 0.341717688788382 
2403	 0.341992921538305 
2404	 0.342352090554866 
2405	 0.342207965371203 
2406	 0.342203741629181 
2407	 0.342085718443221 
2408	 0.34162512600684 
2409	 0.341780615020696 
2410	 0.341809576310674 
2411	 0.341760650588814 
2412	 0.342332772637493 
2413	 0.342260921911874 
2414	 0.34242425257867 
2415	 0.343043517007395 
2416	 0.342901356927202 
2417	 0.342449994815067 
2418	 0.341897396634328 
2419	 0.341595248108074 
2420	 0.341383517619365 
2421	 0.341566007882105 
2422	 0.342199069568105 
2423	 0.341970548892909 
2424	 0.341732403324319 
2425	 0.341912900067358 
2426	 0.34155538994357 
2427	 0.341064263183441 
2428	 0.3411875818588 
2429	 0.341402627682342 
2430	 0.341454573822199 
2431	 0.342055992366687 
2432	 0.342316779141106 
2433	 0.342186346618382 
2434	 0.342013635452596 
2435	 0.34154138625003 
2436	 0.341488662229918 
2437	 0.341242194370335 
2438	 0.340716427221518 
2439	 0.340136390900931 
2440	 0.339741754384002 
2441	 0.339587736668891 
2442	 0.339525801028507 
2443	 0.340223639701597 
2444	 0.340092461122002 
2445	 0.339238879121656 
2446	 0.33893477725719 
2447	 0.338755158846974 
2448	 0.338717213532186 
2449	 0.33896443322393 
2450	 0.339091676719573 
2451	 0.338387446241776 
2452	 0.337821513533472 
2453	 0.337436014235501 
2454	 0.33626361975243 
2455	 0.335867357204673 
2456	 0.336007925099085 
2457	 0.334854032198004 
2458	 0.334505498083371 
2459	 0.334419510154067 
2460	 0.333120253877121 
2461	 0.333079279732209 
2462	 0.333368707557084 
2463	 0.333038344598406 
2464	 0.333203894915946 
2465	 0.333159400909447 
2466	 0.332890600172671 
2467	 0.332420200690131 
2468	 0.331920633474164 
2469	 0.331645868507817 
2470	 0.331580655571494 
2471	 0.332728369808462 
2472	 0.333502315429777 
2473	 0.333786655242347 
2474	 0.334076533424894 
2475	 0.333253312666365 
2476	 0.332945320884648 
2477	 0.333196501326335 
2478	 0.33362146465156 
2479	 0.334019058300838 
2480	 0.333692641985162 
2481	 0.334131356724107 
2482	 0.33491482915657 
2483	 0.335350556007988 
2484	 0.335346739537771 
2485	 0.334783312805576 
2486	 0.334033209657108 
2487	 0.333399038987119 
2488	 0.333393256432115 
2489	 0.334209147716677 
2490	 0.334264142130871 
2491	 0.334146376763209 
2492	 0.334578096752143 
2493	 0.3342033458193 
2494	 0.33426994693631 
2495	 0.334122176254654 
2496	 0.33332575506461 
2497	 0.333150731451729 
2498	 0.332697035507157 
2499	 0.333860932773418 
2500	 0.336394883766692 
