Wavelength	Tablay400102.asd
350	 0.102186791568074 
351	 8.54693591216334E-02 
352	 5.93016561774189E-02 
353	 1.98295104185386E-02 
354	 9.62484528729763E-02 
355	 0.136573876308512 
356	 0.1112302282574 
357	 0.053652533894946 
358	 0.104689050435006 
359	 0.140334805826746 
360	 0.144641750078696 
361	 0.152922628382749 
362	 9.46990703594946E-02 
363	 4.65281558324514E-02 
364	 4.61327121117686E-02 
365	 4.46531766568956E-02 
366	 4.56633514424899E-02 
367	 6.59354854647972E-02 
368	 0.111606017620435 
369	 0.15972061121882 
370	 0.137201108216933 
371	 7.11937408269899E-02 
372	 0.051550511638184 
373	 5.12275508325914E-02 
374	 4.48485979844071E-02 
375	 4.00913195546568E-02 
376	 9.30651340108654E-02 
377	 9.75983961948802E-02 
378	 7.72077121973194E-02 
379	 7.25705476023375E-02 
380	 0.076361729484619 
381	 5.49413307503784E-02 
382	 2.61575321880648E-02 
383	 0.029826202786389 
384	 7.83826120139256E-02 
385	 9.11991473245695E-02 
386	 5.45827162267845E-02 
387	 5.18388474824525E-02 
388	 6.24913075695126E-02 
389	 0.069631981962458 
390	 6.36817759566838E-02 
391	 6.08294255182668E-02 
392	 7.68012074459748E-02 
393	 8.46216121397941E-02 
394	 4.61859631059206E-02 
395	 6.85286176726704E-02 
396	 7.06735928597782E-02 
397	 2.89822340245547E-02 
398	 4.92014204226067E-02 
399	 6.76003281243939E-02 
400	 6.52282785838828E-02 
401	 4.63301035227538E-02 
402	 5.29241326394735E-02 
403	 4.21917638975424E-02 
404	 0.024612050290084 
405	 4.54631124210252E-02 
406	 5.19711884279588E-02 
407	 6.17204913330282E-02 
408	 7.78943820209249E-02 
409	 5.44125957050616E-02 
410	 0.047851363315489 
411	 5.41527071778926E-02 
412	 5.38768566261663E-02 
413	 5.84493234363905E-02 
414	 5.81202396053883E-02 
415	 5.46184996677763E-02 
416	 5.95778154326043E-02 
417	 6.61575367300658E-02 
418	 6.27903457385998E-02 
419	 4.94793342809846E-02 
420	 5.53388579197915E-02 
421	 5.34516836409386E-02 
422	 4.55664374146926E-02 
423	 4.40118425063924E-02 
424	 4.94685256060246E-02 
425	 5.23463381126793E-02 
426	 5.01650855431721E-02 
427	 4.90501830892269E-02 
428	 4.77010922589223E-02 
429	 4.93964693019689E-02 
430	 5.40295599626513E-02 
431	 4.90548200288544E-02 
432	 4.58983788430352E-02 
433	 4.71555732916404E-02 
434	 5.00652150053526E-02 
435	 5.11336813494078E-02 
436	 5.36245248020205E-02 
437	 5.60812260983059E-02 
438	 4.84032525527963E-02 
439	 4.65604958792284E-02 
440	 4.83513277469652E-02 
441	 4.81587297410393E-02 
442	 4.93150531078559E-02 
443	 4.98285561319493E-02 
444	 4.87661321100014E-02 
445	 4.64397839681856E-02 
446	 4.75627238669535E-02 
447	 4.92005313651123E-02 
448	 4.88044875639215E-02 
449	 4.67736891442726E-02 
450	 4.73296966434951E-02 
451	 4.89052156659752E-02 
452	 4.83964539958287E-02 
453	 4.82333900216391E-02 
454	 4.82859155175116E-02 
455	 4.80625729721991E-02 
456	 4.69043268615029E-02 
457	 4.61368833984637E-02 
458	 4.65062234065317E-02 
459	 0.047838073279608 
460	 4.77626361052883E-02 
461	 4.91759031135817E-02 
462	 5.00569582001258E-02 
463	 4.69940694756335E-02 
464	 4.80429740249534E-02 
465	 0.050207084232003 
466	 5.11574578439274E-02 
467	 5.13929441208345E-02 
468	 5.16627204111683E-02 
469	 5.11298690598418E-02 
470	 4.95173262823361E-02 
471	 5.07327217573876E-02 
472	 5.12091084627999E-02 
473	 5.01504572800969E-02 
474	 4.91948881325295E-02 
475	 5.09373998304793E-02 
476	 5.14441961046751E-02 
477	 4.92697249323537E-02 
478	 5.04579544211368E-02 
479	 5.11747388632568E-02 
480	 5.11332311081733E-02 
481	 5.13587289303737E-02 
482	 5.28187318362414E-02 
483	 5.25041000911753E-02 
484	 5.10178180146663E-02 
485	 5.30422272126232E-02 
486	 5.34171005685558E-02 
487	 5.25153897712677E-02 
488	 5.17954173487488E-02 
489	 0.051986820382386 
490	 5.28523419113649E-02 
491	 5.34467815400397E-02 
492	 5.28097901695208E-02 
493	 5.37426904830645E-02 
494	 5.44798643333748E-02 
495	 5.42748815421695E-02 
496	 5.48820846329399E-02 
497	 5.51662831404056E-02 
498	 5.51534453434938E-02 
499	 5.51292537108574E-02 
500	 5.48342400110745E-02 
501	 0.055338937773595 
502	 5.62033307433135E-02 
503	 0.055807777192111 
504	 5.57879926940861E-02 
505	 5.61375803936121E-02 
506	 5.66862309094026E-02 
507	 5.77123649548325E-02 
508	 5.81200096874846E-02 
509	 5.81173859495423E-02 
510	 5.84129640136636E-02 
511	 5.87599530014661E-02 
512	 5.90730153989306E-02 
513	 5.93515615647717E-02 
514	 5.96844262491564E-02 
515	 6.01941526585387E-02 
516	 6.04048621923726E-02 
517	 0.060093853738009 
518	 6.03571177043269E-02 
519	 6.08780468827496E-02 
520	 6.13561002866722E-02 
521	 6.15989746549028E-02 
522	 6.24602483238916E-02 
523	 6.31816088580728E-02 
524	 6.33147109927865E-02 
525	 6.34139511454939E-02 
526	 6.33619263200405E-02 
527	 0.063470800869028 
528	 6.40623654939943E-02 
529	 0.064815152341806 
530	 0.065360221302673 
531	 6.55969829209964E-02 
532	 6.57053228946684E-02 
533	 6.61277541189803E-02 
534	 6.65415813495325E-02 
535	 6.66663966874638E-02 
536	 0.066769284097728 
537	 6.74531750209593E-02 
538	 6.83093094228789E-02 
539	 6.84716038719279E-02 
540	 6.84013653563387E-02 
541	 6.84728812546347E-02 
542	 6.87785000425922E-02 
543	 6.89974398994443E-02 
544	 6.92392747100475E-02 
545	 0.069433168930018 
546	 6.95027027629576E-02 
547	 6.95355785440051E-02 
548	 6.96559298925676E-02 
549	 6.99190289670632E-02 
550	 7.02963497494743E-02 
551	 7.03450899509284E-02 
552	 7.03576974020339E-02 
553	 7.05234361955657E-02 
554	 7.03877556758065E-02 
555	 7.03860167975767E-02 
556	 7.04964736651492E-02 
557	 7.04898963697348E-02 
558	 7.03561384402014E-02 
559	 7.01127904779874E-02 
560	 6.99170870755844E-02 
561	 0.070116346483259 
562	 6.97738313921859E-02 
563	 6.92986651366152E-02 
564	 0.069238110919589 
565	 6.91740322471026E-02 
566	 6.92367434919328E-02 
567	 6.91732794659346E-02 
568	 6.85477642929044E-02 
569	 6.83714678183504E-02 
570	 6.83417729780981E-02 
571	 6.81316695448177E-02 
572	 6.77745471802426E-02 
573	 6.75758538490254E-02 
574	 6.75191020460905E-02 
575	 0.067416209178357 
576	 6.69306181466357E-02 
577	 6.65491274780434E-02 
578	 6.63983647235808E-02 
579	 6.61386492091511E-02 
580	 6.56308789487266E-02 
581	 6.51819770372438E-02 
582	 0.064958050328753 
583	 6.42688454272856E-02 
584	 0.064274313399905 
585	 0.064499587679294 
586	 6.37057529171236E-02 
587	 6.32396634689771E-02 
588	 6.28445762221383E-02 
589	 6.23469273797914E-02 
590	 0.062020547334532 
591	 0.061693527842322 
592	 6.13672891144897E-02 
593	 6.10813879270061E-02 
594	 6.08112497255275E-02 
595	 6.05726528313551E-02 
596	 6.02173159511241E-02 
597	 5.95132019936386E-02 
598	 5.93376252635276E-02 
599	 5.91255812196973E-02 
600	 5.85190748384172E-02 
601	 5.83105486958095E-02 
602	 5.78898183780396E-02 
603	 5.73069623439915E-02 
604	 5.68832698301366E-02 
605	 5.67030422375822E-02 
606	 5.65120637695026E-02 
607	 5.61568126272653E-02 
608	 0.055648627457954 
609	 5.53393499283834E-02 
610	 5.51136554949788E-02 
611	 5.47984790553376E-02 
612	 5.44656202124116E-02 
613	 5.41262527858617E-02 
614	 5.38204660402969E-02 
615	 5.35729890167871E-02 
616	 5.30497115977188E-02 
617	 5.27173632322866E-02 
618	 5.26817205010874E-02 
619	 5.22267081078063E-02 
620	 5.18029693806095E-02 
621	 5.15568046441414E-02 
622	 5.14720212098879E-02 
623	 5.12536910465633E-02 
624	 5.09965570393951E-02 
625	 5.06928338849887E-02 
626	 5.02498907774482E-02 
627	 5.01426585116427E-02 
628	 0.050011950152505 
629	 4.96404342675021E-02 
630	 4.95790825171968E-02 
631	 4.93949316475414E-02 
632	 4.91101852094534E-02 
633	 4.89057302948999E-02 
634	 4.85446584853287E-02 
635	 4.83819456052213E-02 
636	 4.83880580900798E-02 
637	 4.80147733495201E-02 
638	 4.77988765753742E-02 
639	 4.77085781610071E-02 
640	 0.047576367155487 
641	 4.72484530461043E-02 
642	 4.70801800776139E-02 
643	 4.70162041005325E-02 
644	 4.67701807457216E-02 
645	 4.64716464923657E-02 
646	 4.63492202967173E-02 
647	 4.63714348690385E-02 
648	 4.60631985090941E-02 
649	 4.58193661735216E-02 
650	 4.57422950387736E-02 
651	 4.57753536210519E-02 
652	 4.56004962983919E-02 
653	 0.045460349182768 
654	 4.53470887712699E-02 
655	 4.50701807350418E-02 
656	 4.50044197173948E-02 
657	 4.50494365260022E-02 
658	 4.50518704724584E-02 
659	 4.49152436285849E-02 
660	 4.47012826684263E-02 
661	 4.45580587824162E-02 
662	 4.45806739569096E-02 
663	 4.43821281274712E-02 
664	 4.42854453613459E-02 
665	 4.43499681201979E-02 
666	 4.43317766938709E-02 
667	 4.41752824613117E-02 
668	 4.39418140505939E-02 
669	 0.043743646242791 
670	 4.37469456518238E-02 
671	 4.38223471913772E-02 
672	 4.38101223866849E-02 
673	 4.35867391982685E-02 
674	 4.33243151369521E-02 
675	 4.33176307283275E-02 
676	 4.35008366329049E-02 
677	 4.33837196184848E-02 
678	 4.31884629047656E-02 
679	 4.30699082575186E-02 
680	 4.30760801514161E-02 
681	 4.29725714546298E-02 
682	 4.28783535318722E-02 
683	 4.28733311483663E-02 
684	 4.29733555972538E-02 
685	 4.28762278747331E-02 
686	 4.27903440387013E-02 
687	 4.27946055898153E-02 
688	 4.27109992568982E-02 
689	 0.042695925334851 
690	 4.26926647461341E-02 
691	 4.26203492919548E-02 
692	 4.24927572318349E-02 
693	 4.25073510869907E-02 
694	 4.25844341567525E-02 
695	 4.25010608804237E-02 
696	 4.24683564094831E-02 
697	 4.25380454208347E-02 
698	 4.26129753302007E-02 
699	 4.23902491541676E-02 
700	 0.042391130554121 
701	 4.25049873034475E-02 
702	 4.24992856665538E-02 
703	 4.24231479166491E-02 
704	 4.23561658732148E-02 
705	 4.23624507440273E-02 
706	 4.24675215538048E-02 
707	 4.24669101339946E-02 
708	 0.042444816696528 
709	 4.24468883064974E-02 
710	 4.23861716715176E-02 
711	 0.042330806441126 
712	 4.23457874375021E-02 
713	 4.24314884567548E-02 
714	 4.23310455002762E-02 
715	 4.23872921979751E-02 
716	 4.25593468224891E-02 
717	 0.042546305028892 
718	 4.24869412729236E-02 
719	 4.24965255113272E-02 
720	 4.25669043602163E-02 
721	 4.24783424771843E-02 
722	 4.25906941608672E-02 
723	 4.27516012407981E-02 
724	 4.27495154549545E-02 
725	 4.27927281996522E-02 
726	 4.28214082748025E-02 
727	 4.28214124821858E-02 
728	 4.28216731384433E-02 
729	 4.29163234432168E-02 
730	 4.29874457597685E-02 
731	 4.29917908438737E-02 
732	 4.30534920598944E-02 
733	 0.043090936555992 
734	 4.31264628575873E-02 
735	 4.31906566026085E-02 
736	 4.32330418246696E-02 
737	 4.32780003328445E-02 
738	 4.33383056679811E-02 
739	 0.043416592056025 
740	 4.35120342368805E-02 
741	 4.35873899586079E-02 
742	 4.36371292970001E-02 
743	 4.37080432999289E-02 
744	 4.37584585598827E-02 
745	 4.38137609807612E-02 
746	 4.38875081425713E-02 
747	 4.38887797167511E-02 
748	 4.39153648838007E-02 
749	 4.40254406898602E-02 
750	 4.42181723228579E-02 
751	 4.42646161638563E-02 
752	 4.43009327393434E-02 
753	 0.044385579050008 
754	 0.044428406489699 
755	 0.044568217263708 
756	 4.46813246192011E-02 
757	 4.46765131784868E-02 
758	 4.47234417696454E-02 
759	 4.48085574850361E-02 
760	 4.48896234629112E-02 
761	 0.044929189653528 
762	 4.50332947025682E-02 
763	 4.51571965894146E-02 
764	 4.52682927786115E-02 
765	 4.53592953195787E-02 
766	 4.53759557706108E-02 
767	 4.54326648919152E-02 
768	 0.045589228421252 
769	 0.045711730615868 
770	 4.58200153125881E-02 
771	 4.59261601328129E-02 
772	 4.60470005140853E-02 
773	 4.62256713232816E-02 
774	 4.63091675331835E-02 
775	 4.63193204010607E-02 
776	 4.64118105603702E-02 
777	 4.64664818100193E-02 
778	 4.65597725731002E-02 
779	 4.67248833095208E-02 
780	 4.68823421060464E-02 
781	 4.69564569115705E-02 
782	 4.69923585953129E-02 
783	 4.70637845003063E-02 
784	 4.72018040344177E-02 
785	 4.73114916419711E-02 
786	 4.73904408353345E-02 
787	 4.75004217957389E-02 
788	 4.77404220651772E-02 
789	 4.79216488526245E-02 
790	 4.79778764942689E-02 
791	 4.80198837124915E-02 
792	 4.80654321614634E-02 
793	 4.82113267190253E-02 
794	 0.048449112343011 
795	 4.84907341959039E-02 
796	 4.85216582484384E-02 
797	 0.048662754632383 
798	 4.89300531977922E-02 
799	 4.89611675621406E-02 
800	 4.90477149475009E-02 
801	 4.92490916384455E-02 
802	 4.94178307366709E-02 
803	 4.94628677029605E-02 
804	 4.95341487427013E-02 
805	 4.97094110978672E-02 
806	 4.99077939511556E-02 
807	 5.00489124765725E-02 
808	 0.050182210007703 
809	 5.03543218401558E-02 
810	 5.05000573593157E-02 
811	 5.05650764453984E-02 
812	 5.06346077273126E-02 
813	 5.08231260829367E-02 
814	 5.10275168394615E-02 
815	 5.11389214302507E-02 
816	 5.12304082456824E-02 
817	 5.14974147129719E-02 
818	 5.15811592530384E-02 
819	 5.17053896195274E-02 
820	 5.19678414331679E-02 
821	 5.21193899628139E-02 
822	 5.23072891243003E-02 
823	 5.24128564591379E-02 
824	 5.23947141677786E-02 
825	 5.26619499213943E-02 
826	 5.28368050930231E-02 
827	 5.29793459838977E-02 
828	 5.32679536048673E-02 
829	 5.33036821963306E-02 
830	 5.34263567264244E-02 
831	 5.37106413327028E-02 
832	 0.053951564720189 
833	 5.39689413547855E-02 
834	 5.41010927632817E-02 
835	 5.44359813793112E-02 
836	 5.45676577716478E-02 
837	 5.47631238446729E-02 
838	 5.49271600702826E-02 
839	 5.50048920273284E-02 
840	 5.53033765179257E-02 
841	 5.55582547794123E-02 
842	 5.57166705952266E-02 
843	 5.58254606615757E-02 
844	 5.59362691407117E-02 
845	 5.61535989061544E-02 
846	 5.64090723049208E-02 
847	 5.65450335475577E-02 
848	 0.05681243506333 
849	 5.70444437175307E-02 
850	 5.71676660190957E-02 
851	 5.72864063316112E-02 
852	 0.057490059397753 
853	 5.77334618940218E-02 
854	 5.79638539441473E-02 
855	 5.81889472848299E-02 
856	 5.82878103308352E-02 
857	 5.84525919770487E-02 
858	 5.88253733193223E-02 
859	 5.90132639976328E-02 
860	 5.91517952532516E-02 
861	 5.93200612711121E-02 
862	 5.95469186025341E-02 
863	 5.97686731417903E-02 
864	 5.99286286699678E-02 
865	 6.00974290960741E-02 
866	 6.04166077675527E-02 
867	 0.060601367034742 
868	 6.07665507548016E-02 
869	 6.09626657958028E-02 
870	 6.10832408243868E-02 
871	 6.13448130723577E-02 
872	 0.061601268831969 
873	 0.061765607367174 
874	 6.20617025467427E-02 
875	 6.23195834523102E-02 
876	 6.25647142023272E-02 
877	 6.28184198724064E-02 
878	 6.28320777043241E-02 
879	 6.31706970652302E-02 
880	 0.063548053549014 
881	 6.34735713720024E-02 
882	 6.37863409424991E-02 
883	 6.40716538506866E-02 
884	 6.42604936261687E-02 
885	 6.45709591926595E-02 
886	 6.48460720541612E-02 
887	 6.51305388876707E-02 
888	 6.53526029737358E-02 
889	 6.53222571392033E-02 
890	 6.54812700675898E-02 
891	 6.57798278456586E-02 
892	 6.61061713360577E-02 
893	 6.64142160483812E-02 
894	 6.65924533617833E-02 
895	 6.67740176196478E-02 
896	 6.70782234472613E-02 
897	 6.74311089858409E-02 
898	 6.76644664150354E-02 
899	 6.78481401148797E-02 
900	 6.80775550042136E-02 
901	 6.81669362050499E-02 
902	 6.84346791557632E-02 
903	 6.87453920804418E-02 
904	 6.88424937341943E-02 
905	 6.91355052671878E-02 
906	 6.95328524598841E-02 
907	 6.98254719447137E-02 
908	 6.98429235236395E-02 
909	 7.01518844802737E-02 
910	 7.05173615344453E-02 
911	 7.07894227081937E-02 
912	 7.10036882452997E-02 
913	 7.13013260237117E-02 
914	 7.15220716018945E-02 
915	 7.16915544217918E-02 
916	 7.21167846209713E-02 
917	 7.22930897158609E-02 
918	 7.23505730545111E-02 
919	 7.25002688586627E-02 
920	 7.28361970040908E-02 
921	 7.33008927945045E-02 
922	 7.36208408498729E-02 
923	 7.37364424623991E-02 
924	 7.42581931967543E-02 
925	 7.45859665083905E-02 
926	 7.47686097924095E-02 
927	 0.075031917002983 
928	 7.54397425565151E-02 
929	 7.57508023911077E-02 
930	 7.59330821968838E-02 
931	 7.60839759448678E-02 
932	 7.63853840855262E-02 
933	 7.67424985632432E-02 
934	 7.69679336759563E-02 
935	 7.69774558083366E-02 
936	 7.74454155903149E-02 
937	 7.77694164506795E-02 
938	 7.79323449690327E-02 
939	 7.83327962959907E-02 
940	 7.89238138266374E-02 
941	 7.91829301130859E-02 
942	 7.91866830240684E-02 
943	 0.079482577670343 
944	 7.96485370538902E-02 
945	 8.00868843283113E-02 
946	 8.05995644586193E-02 
947	 8.04296294849182E-02 
948	 8.07149036698685E-02 
949	 8.11624767930283E-02 
950	 8.15105780613085E-02 
951	 8.18157078464409E-02 
952	 8.20869671722249E-02 
953	 8.22974380252818E-02 
954	 8.24747093960134E-02 
955	 8.27275508097432E-02 
956	 8.30834729802547E-02 
957	 8.33815340585438E-02 
958	 8.36005211067107E-02 
959	 8.40104100474519E-02 
960	 8.41267955815569E-02 
961	 8.44008815812687E-02 
962	 8.50316437520257E-02 
963	 8.53155028208673E-02 
964	 8.54762645077235E-02 
965	 8.56938474282846E-02 
966	 8.59475366669543E-02 
967	 8.57674566805304E-02 
968	 8.61862590144002E-02 
969	 8.67655806308721E-02 
970	 8.70045898262661E-02 
971	 8.73743686101671E-02 
972	 0.087743977610613 
973	 8.79141394245083E-02 
974	 8.78940561884631E-02 
975	 8.83063809028994E-02 
976	 8.87906903716887E-02 
977	 8.91058487833823E-02 
978	 8.91515328428951E-02 
979	 8.90632801778029E-02 
980	 8.95005380568775E-02 
981	 9.00597945792175E-02 
982	 9.02774339954144E-02 
983	 9.08517776217167E-02 
984	 9.05268680627242E-02 
985	 9.03154809233421E-02 
986	 9.12839934635289E-02 
987	 9.19732049727213E-02 
988	 9.22547396044984E-02 
989	 9.23399901656749E-02 
990	 9.24655226035486E-02 
991	 9.22936663382548E-02 
992	 9.26905533550251E-02 
993	 9.32847048585967E-02 
994	 9.35113498153979E-02 
995	 9.38844088234229E-02 
996	 9.36779170067242E-02 
997	 9.37179174070875E-02 
998	 9.45964672905517E-02 
999	 9.42569409508662E-02 
1000	 9.41780033056828E-02 
1001	 9.51144010198913E-02 
1002	 9.54351189306346E-02 
1003	 9.57115398807612E-02 
1004	 0.095959277770428 
1005	 9.61833053937684E-02 
1006	 0.096419631608988 
1007	 9.66419591337678E-02 
1008	 9.68187580296716E-02 
1009	 9.69407850864859E-02 
1010	 9.71138217593456E-02 
1011	 9.72150560326646E-02 
1012	 9.74868689352018E-02 
1013	 9.80009242893016E-02 
1014	 9.82592386454313E-02 
1015	 9.84082288275626E-02 
1016	 9.86472287699589E-02 
1017	 9.88762172711518E-02 
1018	 9.90896029872019E-02 
1019	 0.099230848873189 
1020	 0.099305810573303 
1021	 9.95831852235726E-02 
1022	 9.98678739679499E-02 
1023	 0.100067545739665 
1024	 0.100491042665818 
1025	 0.100771470037104 
1026	 0.100764235752422 
1027	 0.100908313308605 
1028	 0.101181255709252 
1029	 0.101387993769929 
1030	 0.101488759926052 
1031	 0.101719059585884 
1032	 0.101856484543472 
1033	 0.102042146714868 
1034	 0.102443889201336 
1035	 0.102794250846776 
1036	 0.103095843926036 
1037	 0.103521476130365 
1038	 0.103806528903688 
1039	 0.103830938760008 
1040	 0.104033718009556 
1041	 0.104400806781167 
1042	 0.104617505194288 
1043	 0.104720674953451 
1044	 0.104997489547928 
1045	 0.105414090313867 
1046	 0.105554734019131 
1047	 0.105773993564737 
1048	 0.106266853487414 
1049	 0.106429057286352 
1050	 0.106500260050289 
1051	 0.106606040200635 
1052	 0.106588090660539 
1053	 0.106818336116376 
1054	 0.107301473554553 
1055	 0.107494085977922 
1056	 0.107703511808336 
1057	 0.107983154654085 
1058	 0.108163978026799 
1059	 0.108213408333191 
1060	 0.108407887732237 
1061	 0.108658036226829 
1062	 0.10886376853911 
1063	 0.109047846741746 
1064	 0.109373746977002 
1065	 0.109665008955168 
1066	 0.109728848651782 
1067	 0.109810988973811 
1068	 0.110057523237975 
1069	 0.110239126959347 
1070	 0.11040743770996 
1071	 0.11056138664375 
1072	 0.110777973636795 
1073	 0.110904993642408 
1074	 0.111060051846648 
1075	 0.111254454546063 
1076	 0.111539080012638 
1077	 0.111845427611005 
1078	 0.112053137087433 
1079	 0.112274777890532 
1080	 0.11242670171514 
1081	 0.112670415748496 
1082	 0.112969094430765 
1083	 0.113128589218871 
1084	 0.113272971108883 
1085	 0.113348170354535 
1086	 0.113491967072157 
1087	 0.11363140526057 
1088	 0.113836946458562 
1089	 0.114073743195253 
1090	 0.114315271437002 
1091	 0.114436971998146 
1092	 0.114586872374467 
1093	 0.114813978478866 
1094	 0.115075253070956 
1095	 0.115224326111839 
1096	 0.115388889652077 
1097	 0.115598726996138 
1098	 0.115672176046939 
1099	 0.115788422098806 
1100	 0.115973384086328 
1101	 0.116171726930343 
1102	 0.11632405663213 
1103	 0.116517514291153 
1104	 0.11677460407406 
1105	 0.117072322795059 
1106	 0.117166151111664 
1107	 0.117325978222674 
1108	 0.117489621879645 
1109	 0.117526563857193 
1110	 0.117797621369342 
1111	 0.118069330103398 
1112	 0.118294084624439 
1113	 0.118602098588564 
1114	 0.118666017418373 
1115	 0.118736284350627 
1116	 0.118873814887694 
1117	 0.118896360929667 
1118	 0.11908831885518 
1119	 0.119474835053894 
1120	 0.119737665258245 
1121	 0.120002191352446 
1122	 0.120318484344667 
1123	 0.12048959637804 
1124	 0.120567116794124 
1125	 0.120740496498494 
1126	 0.120924420943869 
1127	 0.121106856926753 
1128	 0.121373799200427 
1129	 0.121571194444968 
1130	 0.121795470524991 
1131	 0.122077267283882 
1132	 0.122211040697099 
1133	 0.122376608148156 
1134	 0.122534744073144 
1135	 0.122673087161937 
1136	 0.122793131650029 
1137	 0.122967991169744 
1138	 0.123109813441395 
1139	 0.123288872221234 
1140	 0.123507063321389 
1141	 0.12375126871642 
1142	 0.123979273352655 
1143	 0.124245446630949 
1144	 0.124434231367536 
1145	 0.124579861969231 
1146	 0.124732746104978 
1147	 0.124844376132109 
1148	 0.124963436946024 
1149	 0.125093985845094 
1150	 0.125202881480232 
1151	 0.125347332042192 
1152	 0.125513504988645 
1153	 0.125763703843451 
1154	 0.12591223988426 
1155	 0.12599973075444 
1156	 0.126140859165812 
1157	 0.126271141573735 
1158	 0.126387046177311 
1159	 0.126526819239977 
1160	 0.126681607882057 
1161	 0.126750561365416 
1162	 0.126842283530945 
1163	 0.126979338049021 
1164	 0.127116073941795 
1165	 0.127206079652506 
1166	 0.127313904019191 
1167	 0.127454585441515 
1168	 0.127548339977162 
1169	 0.127705609598321 
1170	 0.127973869410035 
1171	 0.128124760822207 
1172	 0.128221007735001 
1173	 0.128353170258625 
1174	 0.128440153133853 
1175	 0.128555337365735 
1176	 0.128752793309995 
1177	 0.128870908590486 
1178	 0.128929406229338 
1179	 0.128987470032384 
1180	 0.129120785605208 
1181	 0.129267698010025 
1182	 0.129452766424719 
1183	 0.129683075911667 
1184	 0.129819433617374 
1185	 0.129895118696438 
1186	 0.129990318129183 
1187	 0.130059739740471 
1188	 0.130144784251133 
1189	 0.130216935429816 
1190	 0.130330671887061 
1191	 0.130473913872636 
1192	 0.130610787209459 
1193	 0.130761630633602 
1194	 0.130915710779194 
1195	 0.131098554584141 
1196	 0.131236669169672 
1197	 0.13137264956668 
1198	 0.13147168704605 
1199	 0.131566294936699 
1200	 0.131675707002989 
1201	 0.13177785367751 
1202	 0.131920606172151 
1203	 0.132046293229761 
1204	 0.132177766892687 
1205	 0.132349197115325 
1206	 0.13258413207115 
1207	 0.132746826957524 
1208	 0.132871344898122 
1209	 0.133051192089913 
1210	 0.133215290667332 
1211	 0.133416526317308 
1212	 0.133738444203882 
1213	 0.133949865576156 
1214	 0.134065921961746 
1215	 0.13424738148915 
1216	 0.134399292884415 
1217	 0.134581948948537 
1218	 0.134791738034026 
1219	 0.135076074841362 
1220	 0.135284766726222 
1221	 0.135513644381665 
1222	 0.13583884412728 
1223	 0.136096519086599 
1224	 0.136362987608102 
1225	 0.136667241032696 
1226	 0.136936648251943 
1227	 0.137157141333902 
1228	 0.137403282951263 
1229	 0.137683907874486 
1230	 0.137897902574114 
1231	 0.13809363646942 
1232	 0.138256249515085 
1233	 0.138310129583513 
1234	 0.138472101739464 
1235	 0.138650615666487 
1236	 0.138859799640995 
1237	 0.139175439484279 
1238	 0.13944334005805 
1239	 0.139735809748551 
1240	 0.139956787485685 
1241	 0.140128817218682 
1242	 0.140282873335461 
1243	 0.140484214820351 
1244	 0.140677162865401 
1245	 0.140863494368646 
1246	 0.141113649667874 
1247	 0.14126551003794 
1248	 0.141310615386498 
1249	 0.141457639730721 
1250	 0.141605766843042 
1251	 0.141786254981484 
1252	 0.142059502270062 
1253	 0.142245374595738 
1254	 0.142379277757995 
1255	 0.142556610225366 
1256	 0.142726363494975 
1257	 0.142897969609722 
1258	 0.143092109242971 
1259	 0.143286395253887 
1260	 0.143469239706452 
1261	 0.143650151500864 
1262	 0.143811042284309 
1263	 0.144056074324002 
1264	 0.144228091981113 
1265	 0.144389031433606 
1266	 0.144506383258958 
1267	 0.144551299053206 
1268	 0.144698506719324 
1269	 0.144862832956162 
1270	 0.145018574914695 
1271	 0.145237539641018 
1272	 0.145424582416324 
1273	 0.145568687138487 
1274	 0.145735914885163 
1275	 0.145927411993615 
1276	 0.146115409175672 
1277	 0.146275966087268 
1278	 0.146470784689354 
1279	 0.146720859941577 
1280	 0.146930591735423 
1281	 0.147154356635202 
1282	 0.147336764018969 
1283	 0.147450026861878 
1284	 0.147599200373045 
1285	 0.147751770342246 
1286	 0.147894509569176 
1287	 0.148047039726612 
1288	 0.148226172390134 
1289	 0.148378881314687 
1290	 0.148509648248462 
1291	 0.148657978480687 
1292	 0.148832640575123 
1293	 0.148951252550582 
1294	 0.14903398990257 
1295	 0.149145324499181 
1296	 0.149219560888704 
1297	 0.149336843693233 
1298	 0.14950890091546 
1299	 0.149648340198286 
1300	 0.149788569364991 
1301	 0.14991499167444 
1302	 0.150041390674179 
1303	 0.150141984197012 
1304	 0.150159006365803 
1305	 0.150276598852427 
1306	 0.150490110135908 
1307	 0.150617024814688 
1308	 0.150719629101997 
1309	 0.150894856656532 
1310	 0.150993901323894 
1311	 0.15097763490877 
1312	 0.151089117088781 
1313	 0.151264795814165 
1314	 0.151410410016118 
1315	 0.151567261108964 
1316	 0.151735743914775 
1317	 0.151940893593972 
1318	 0.152071187991588 
1319	 0.152163927907487 
1320	 0.152292735893019 
1321	 0.152358347356969 
1322	 0.152501480755104 
1323	 0.152757097357325 
1324	 0.152919751326325 
1325	 0.15305159120672 
1326	 0.153191391522084 
1327	 0.153278898212594 
1328	 0.153404478133576 
1329	 0.153552233870056 
1330	 0.153711953927475 
1331	 0.15388764260026 
1332	 0.154066397646874 
1333	 0.154281131934838 
1334	 0.154464002787457 
1335	 0.154633718830234 
1336	 0.15480203454783 
1337	 0.15492596662897 
1338	 0.155018299388947 
1339	 0.155108873275345 
1340	 0.155148622623267 
1341	 0.155261479781437 
1342	 0.155394705475053 
1343	 0.155533292267006 
1344	 0.155716273208414 
1345	 0.155872681000602 
1346	 0.156023505191465 
1347	 0.156165268617216 
1348	 0.15632085404104 
1349	 0.156435320044801 
1350	 0.156490715349057 
1351	 0.156607420836368 
1352	 0.156735976560497 
1353	 0.156860127571899 
1354	 0.157032666537622 
1355	 0.157168305693377 
1356	 0.157276391127689 
1357	 0.157378570147724 
1358	 0.157453271157487 
1359	 0.157556785749394 
1360	 0.157667020837012 
1361	 0.157781701233822 
1362	 0.15788890531714 
1363	 0.157967853872738 
1364	 0.158071097002198 
1365	 0.158165044841166 
1366	 0.158232762804717 
1367	 0.158297019417376 
1368	 0.158389224225903 
1369	 0.158475749518281 
1370	 0.158530613264366 
1371	 0.158610913009209 
1372	 0.158664060106591 
1373	 0.1586389390892 
1374	 0.158678441409521 
1375	 0.15879031497286 
1376	 0.158828175338622 
1377	 0.158845535887596 
1378	 0.158849232798127 
1379	 0.158807669995015 
1380	 0.158783475920183 
1381	 0.158749629174872 
1382	 0.1587292572025 
1383	 0.158689330682574 
1384	 0.158698725110479 
1385	 0.158784511562025 
1386	 0.158805272992757 
1387	 0.158819520095304 
1388	 0.158827541325877 
1389	 0.158769998802612 
1390	 0.158746740888023 
1391	 0.158773155735097 
1392	 0.158756817990569 
1393	 0.158744463722187 
1394	 0.158774750952775 
1395	 0.158796050900126 
1396	 0.158833424793536 
1397	 0.158855234109576 
1398	 0.158880992818053 
1399	 0.158889955243002 
1400	 0.158885714893042 
1401	 0.158871182979482 
1402	 0.158868761415476 
1403	 0.158811669090851 
1404	 0.158695656907866 
1405	 0.158635332418213 
1406	 0.158599737905466 
1407	 0.158492058414218 
1408	 0.158385724195596 
1409	 0.158255975086429 
1410	 0.158036100848932 
1411	 0.157862038200368 
1412	 0.157698541968558 
1413	 0.157566022779949 
1414	 0.157463263346283 
1415	 0.157332806311945 
1416	 0.157216515188404 
1417	 0.157101568211471 
1418	 0.156943628401139 
1419	 0.156822970175035 
1420	 0.156762607921021 
1421	 0.156665103448387 
1422	 0.156540746825186 
1423	 0.156439428251654 
1424	 0.156335300523444 
1425	 0.156225562390274 
1426	 0.156179965009266 
1427	 0.15613287939854 
1428	 0.156088318902331 
1429	 0.156022821794103 
1430	 0.155956954337205 
1431	 0.155877645281846 
1432	 0.155801355986994 
1433	 0.155731288363186 
1434	 0.155642638465664 
1435	 0.155546639190997 
1436	 0.155423158801823 
1437	 0.155278936234133 
1438	 0.155135118637265 
1439	 0.154961460479333 
1440	 0.154819296043519 
1441	 0.154669953523882 
1442	 0.154564112742038 
1443	 0.154492012720699 
1444	 0.154411261250916 
1445	 0.154308126911525 
1446	 0.154307984141607 
1447	 0.154331836577899 
1448	 0.1544209286734 
1449	 0.154634210517077 
1450	 0.154814637742486 
1451	 0.154985309374078 
1452	 0.155214193762602 
1453	 0.155478766556066 
1454	 0.155767762997427 
1455	 0.156132868431708 
1456	 0.156460975089687 
1457	 0.156779277552836 
1458	 0.157115350832852 
1459	 0.157473588657293 
1460	 0.157794609079439 
1461	 0.158106687619029 
1462	 0.158418628624691 
1463	 0.158706341449116 
1464	 0.158983053363889 
1465	 0.159243015476075 
1466	 0.159535006049544 
1467	 0.159813061667531 
1468	 0.160092699827629 
1469	 0.160393450713462 
1470	 0.160645578367975 
1471	 0.16089213280462 
1472	 0.161087806085636 
1473	 0.161347267938697 
1474	 0.161636990528306 
1475	 0.161888288023273 
1476	 0.162161201506002 
1477	 0.16238388383574 
1478	 0.162550844222042 
1479	 0.162750102655036 
1480	 0.162947434819525 
1481	 0.163143558982529 
1482	 0.163362601655492 
1483	 0.16352803492559 
1484	 0.163658258761789 
1485	 0.163804772152167 
1486	 0.163921893907768 
1487	 0.164058559281289 
1488	 0.164204645146345 
1489	 0.164366575784049 
1490	 0.164530851852385 
1491	 0.164706229660592 
1492	 0.164901247012605 
1493	 0.16510114009658 
1494	 0.165281136735886 
1495	 0.165518615176595 
1496	 0.165835354455446 
1497	 0.1660806109444 
1498	 0.166291873614601 
1499	 0.166558633815855 
1500	 0.166823708952197 
1501	 0.167081463092314 
1502	 0.167407461226884 
1503	 0.167682709374556 
1504	 0.167897076246219 
1505	 0.168125385997551 
1506	 0.168363260240156 
1507	 0.168583579024287 
1508	 0.168779538722677 
1509	 0.168983611034156 
1510	 0.169192200699713 
1511	 0.169387598953735 
1512	 0.169571520925085 
1513	 0.169759140541999 
1514	 0.169939256732514 
1515	 0.170119908335613 
1516	 0.170311170304037 
1517	 0.170492532252975 
1518	 0.17067614798416 
1519	 0.170837503239705 
1520	 0.170999937620893 
1521	 0.171123123515504 
1522	 0.171215286887371 
1523	 0.171331417713281 
1524	 0.171429620387959 
1525	 0.171522199048214 
1526	 0.171596849476254 
1527	 0.171645981569963 
1528	 0.171746746094261 
1529	 0.17184899977337 
1530	 0.171968213694671 
1531	 0.172138414077634 
1532	 0.172261849439324 
1533	 0.172375218397813 
1534	 0.172465860120704 
1535	 0.172526885882448 
1536	 0.172620205523079 
1537	 0.172711843934118 
1538	 0.17279388280246 
1539	 0.172872533201469 
1540	 0.172996176626544 
1541	 0.173110126980434 
1542	 0.173267882138649 
1543	 0.173500444533816 
1544	 0.173689874016834 
1545	 0.173861393660892 
1546	 0.174060539398554 
1547	 0.174286119996365 
1548	 0.174477001407234 
1549	 0.174648200751537 
1550	 0.174859320901238 
1551	 0.175059259218944 
1552	 0.175288679428461 
1553	 0.175584019959078 
1554	 0.175824862104403 
1555	 0.176038925880753 
1556	 0.176267887710831 
1557	 0.176508451633945 
1558	 0.17670726912842 
1559	 0.176880345730728 
1560	 0.177072923279139 
1561	 0.177231079628735 
1562	 0.177423078525568 
1563	 0.177654106893639 
1564	 0.1778704033271 
1565	 0.178082998871422 
1566	 0.178300144283728 
1567	 0.178538603372173 
1568	 0.178744564924 
1569	 0.178924739205038 
1570	 0.179123251139136 
1571	 0.179320913732637 
1572	 0.179505245872554 
1573	 0.179693720245838 
1574	 0.179879481787051 
1575	 0.180058341327472 
1576	 0.180216268202751 
1577	 0.180372964333653 
1578	 0.180517861243042 
1579	 0.180579885564658 
1580	 0.180751300187133 
1581	 0.181015033959686 
1582	 0.181215023338818 
1583	 0.181455385937335 
1584	 0.181657134477503 
1585	 0.181801143004971 
1586	 0.181944368734156 
1587	 0.182079439365105 
1588	 0.182224623134005 
1589	 0.182331104209842 
1590	 0.182476191600916 
1591	 0.182653090031233 
1592	 0.182837152950511 
1593	 0.183042626548502 
1594	 0.183246396238932 
1595	 0.183495379157284 
1596	 0.183680669558965 
1597	 0.183812434483154 
1598	 0.183972272933398 
1599	 0.184106728601799 
1600	 0.184253270799105 
1601	 0.18441578814507 
1602	 0.184595402251691 
1603	 0.184768598708706 
1604	 0.184963951660666 
1605	 0.185228298224507 
1606	 0.185426910856104 
1607	 0.185606843608042 
1608	 0.185766627006958 
1609	 0.185864236644677 
1610	 0.185991003089893 
1611	 0.186120361406192 
1612	 0.186247213324756 
1613	 0.186379746090918 
1614	 0.186521812126763 
1615	 0.186662691664805 
1616	 0.186807780430121 
1617	 0.18697131990542 
1618	 0.187117623396993 
1619	 0.18726854843212 
1620	 0.187396933867097 
1621	 0.187510094787772 
1622	 0.187614479057213 
1623	 0.187679658638583 
1624	 0.187774718112638 
1625	 0.18787572408022 
1626	 0.18798159049625 
1627	 0.188096907052602 
1628	 0.188232299413423 
1629	 0.18841248679983 
1630	 0.18853273887675 
1631	 0.188635312928958 
1632	 0.188734244322721 
1633	 0.188755228993544 
1634	 0.188850352720468 
1635	 0.189000628644768 
1636	 0.189140873612816 
1637	 0.189325215167161 
1638	 0.189468970771079 
1639	 0.189583976110926 
1640	 0.189707873788815 
1641	 0.189831867374993 
1642	 0.189935184579321 
1643	 0.190025058189838 
1644	 0.190128785302353 
1645	 0.190215292499075 
1646	 0.190305895089428 
1647	 0.19040895541137 
1648	 0.190515617984672 
1649	 0.190640620085186 
1650	 0.190728549706335 
1651	 0.190820694609627 
1652	 0.190872466356634 
1653	 0.190858494435977 
1654	 0.190878143251814 
1655	 0.190907831030485 
1656	 0.190913519295456 
1657	 0.190927960417421 
1658	 0.190901418676717 
1659	 0.19079259667495 
1660	 0.190764112561504 
1661	 0.190786496297854 
1662	 0.190768282847339 
1663	 0.190822562508235 
1664	 0.19076010809348 
1665	 0.190565077124553 
1666	 0.190434416917232 
1667	 0.190271249404048 
1668	 0.190143356992557 
1669	 0.190124017178989 
1670	 0.189960817514751 
1671	 0.189734160520938 
1672	 0.189481309762906 
1673	 0.189112057913489 
1674	 0.18879355554584 
1675	 0.18848981782772 
1676	 0.188156344545785 
1677	 0.187840293794098 
1678	 0.18748088624265 
1679	 0.187090573665354 
1680	 0.186658114736417 
1681	 0.1861716892267 
1682	 0.185696344121188 
1683	 0.185208800057656 
1684	 0.184707156684221 
1685	 0.184215120145762 
1686	 0.183659958171775 
1687	 0.183002708646216 
1688	 0.182447822065532 
1689	 0.181935288521706 
1690	 0.181367024666401 
1691	 0.180848652811578 
1692	 0.180280669945762 
1693	 0.17965603376322 
1694	 0.178995976870638 
1695	 0.178284933657974 
1696	 0.177612308176893 
1697	 0.176901208852104 
1698	 0.176231825602634 
1699	 0.175659994669124 
1700	 0.174999989058773 
1701	 0.174274925410234 
1702	 0.173577705119265 
1703	 0.172868117217039 
1704	 0.172135321178263 
1705	 0.17134522371102 
1706	 0.170710411773284 
1707	 0.17014276250021 
1708	 0.169741424027706 
1709	 0.169369092735202 
1710	 0.1688591368519 
1711	 0.168371327946721 
1712	 0.167947598699754 
1713	 0.167566859390689 
1714	 0.167247825557961 
1715	 0.166950779793007 
1716	 0.166598335832763 
1717	 0.166188908166735 
1718	 0.165835883118042 
1719	 0.165531545834043 
1720	 0.165252948098846 
1721	 0.165036937283015 
1722	 0.164878374940876 
1723	 0.164770147815994 
1724	 0.164671228463597 
1725	 0.164609598632711 
1726	 0.164576303377963 
1727	 0.16453739645611 
1728	 0.164571481892954 
1729	 0.164739864213296 
1730	 0.165001428173188 
1731	 0.165301322689492 
1732	 0.1656814044371 
1733	 0.166078881007621 
1734	 0.166501656581636 
1735	 0.166970241582653 
1736	 0.167426865870499 
1737	 0.167875180164687 
1738	 0.168270269559352 
1739	 0.168582106041591 
1740	 0.168821329536568 
1741	 0.169041783005899 
1742	 0.169204297892731 
1743	 0.169326129660747 
1744	 0.169421039691126 
1745	 0.169492067394284 
1746	 0.169500306353818 
1747	 0.169491373561903 
1748	 0.169446800573676 
1749	 0.169436514015457 
1750	 0.169428477951073 
1751	 0.169401870069413 
1752	 0.169366634744553 
1753	 0.169396829370195 
1754	 0.169374674538175 
1755	 0.169473556596488 
1756	 0.169707944162574 
1757	 0.169858584949096 
1758	 0.170063859267091 
1759	 0.170292829960865 
1760	 0.170566781335206 
1761	 0.170882666492325 
1762	 0.171247536882697 
1763	 0.171709153575139 
1764	 0.172320869254338 
1765	 0.172936665746573 
1766	 0.173520575487737 
1767	 0.174101011232877 
1768	 0.174596539060645 
1769	 0.175139142555759 
1770	 0.175704420117154 
1771	 0.176286018685373 
1772	 0.176861783810399 
1773	 0.177445302521753 
1774	 0.178086603186442 
1775	 0.178546162130082 
1776	 0.178974808433191 
1777	 0.179449515409765 
1778	 0.17981341409328 
1779	 0.180225279388737 
1780	 0.180622183006261 
1781	 0.180843420973722 
1782	 0.181116879990187 
1783	 0.181466917773437 
1784	 0.181778270203963 
1785	 0.182124167665681 
1786	 0.182422263529126 
1787	 0.182688163074949 
1788	 0.182928105051415 
1789	 0.183115069121255 
1790	 0.183356430492016 
1791	 0.1836015303908 
1792	 0.183839075884961 
1793	 0.184130309869177 
1794	 0.184272820714804 
1795	 0.184426710065699 
1796	 0.184682900802721 
1797	 0.18499387396351 
1798	 0.185275534483984 
1799	 0.185533758952893 
1800	 0.185744642129995 
1801	 0.184984156288006 
1802	 0.185043758825325 
1803	 0.185178375630452 
1804	 0.18527428837099 
1805	 0.185421150851058 
1806	 0.185581571603011 
1807	 0.185789449224791 
1808	 0.185999496375633 
1809	 0.186268965222818 
1810	 0.186443920817719 
1811	 0.18658014138738 
1812	 0.186748569990989 
1813	 0.186878602553126 
1814	 0.186987563946596 
1815	 0.187159404400291 
1816	 0.187389070476974 
1817	 0.187589330821215 
1818	 0.187778601501693 
1819	 0.18797119261962 
1820	 0.188189601336011 
1821	 0.188382149568335 
1822	 0.188565891994442 
1823	 0.188723683777497 
1824	 0.18891171012832 
1825	 0.18905289533638 
1826	 0.189217200799088 
1827	 0.189389308452318 
1828	 0.189575066591869 
1829	 0.189783120050769 
1830	 0.189956207838114 
1831	 0.190147918395137 
1832	 0.190258197400671 
1833	 0.190378167097275 
1834	 0.190570196375129 
1835	 0.190725131424363 
1836	 0.190952546254554 
1837	 0.191136863256398 
1838	 0.191293504809128 
1839	 0.191459981355989 
1840	 0.191640431484891 
1841	 0.191790012716744 
1842	 0.191946355099218 
1843	 0.192040784575435 
1844	 0.192173765043019 
1845	 0.192323217950725 
1846	 0.192416040626069 
1847	 0.192619513160065 
1848	 0.192763196638046 
1849	 0.192866155808578 
1850	 0.192989895766895 
1851	 0.193154034609004 
1852	 0.19322023442705 
1853	 0.193302039176361 
1854	 0.193358960800446 
1855	 0.193367232057297 
1856	 0.193405096425561 
1857	 0.193382544498077 
1858	 0.193301062263901 
1859	 0.193258836304514 
1860	 0.193219202481832 
1861	 0.193160378595165 
1862	 0.193103683197831 
1863	 0.19305700056815 
1864	 0.192987232799548 
1865	 0.192856779063657 
1866	 0.192746877425621 
1867	 0.192625249642152 
1868	 0.192423819315559 
1869	 0.192160568973186 
1870	 0.191894991950177 
1871	 0.191567456951448 
1872	 0.191270537934528 
1873	 0.190975118042561 
1874	 0.190712479773403 
1875	 0.190386986414705 
1876	 0.190023983472818 
1877	 0.189676722521437 
1878	 0.189247522421405 
1879	 0.188824367001132 
1880	 0.188425212141466 
1881	 0.187947976093498 
1882	 0.187425409279627 
1883	 0.186856111910885 
1884	 0.186194233013613 
1885	 0.185465362603129 
1886	 0.184757671185191 
1887	 0.183998748865168 
1888	 0.183273778175054 
1889	 0.182629018927588 
1890	 0.181813787775852 
1891	 0.181002100365107 
1892	 0.1802455985519 
1893	 0.179416490534635 
1894	 0.178472004571691 
1895	 0.177664836904513 
1896	 0.176906342175521 
1897	 0.176048474144032 
1898	 0.175257195969555 
1899	 0.17443162190824 
1900	 0.173619165935041 
1901	 0.172811213105738 
1902	 0.17195473066832 
1903	 0.17118088464732 
1904	 0.170416941350612 
1905	 0.169621292759671 
1906	 0.168883998477377 
1907	 0.168285986262758 
1908	 0.167713821735172 
1909	 0.167158031678904 
1910	 0.166608999713318 
1911	 0.166068947716264 
1912	 0.165544767904056 
1913	 0.164984871633949 
1914	 0.164459723209521 
1915	 0.163975597450203 
1916	 0.163528012095579 
1917	 0.163041283092238 
1918	 0.162650773431181 
1919	 0.16223348278093 
1920	 0.161709007510028 
1921	 0.161288439554689 
1922	 0.160795946453163 
1923	 0.160303643082087 
1924	 0.159988645129709 
1925	 0.159618862707514 
1926	 0.159239894459992 
1927	 0.158906500874544 
1928	 0.158524418651932 
1929	 0.158081797889141 
1930	 0.1576810111132 
1931	 0.157266790077106 
1932	 0.156890023540576 
1933	 0.156603190478166 
1934	 0.156312851811561 
1935	 0.156065621519629 
1936	 0.155912749167149 
1937	 0.155795528718482 
1938	 0.155717138483758 
1939	 0.155692151450395 
1940	 0.15573705181553 
1941	 0.155806152970039 
1942	 0.155895928867765 
1943	 0.155913386356715 
1944	 0.155939918886698 
1945	 0.156061996112826 
1946	 0.156215990313403 
1947	 0.156486874152571 
1948	 0.156814261535305 
1949	 0.15705975487041 
1950	 0.157357144732478 
1951	 0.157642269406952 
1952	 0.157993993991454 
1953	 0.158358217964173 
1954	 0.158858153251368 
1955	 0.159332967554659 
1956	 0.159797801786224 
1957	 0.160293926600681 
1958	 0.160764787213129 
1959	 0.161219541424189 
1960	 0.161661333953198 
1961	 0.162105390257364 
1962	 0.16255110763295 
1963	 0.162937456186827 
1964	 0.163321807093551 
1965	 0.163651864361944 
1966	 0.163922265504954 
1967	 0.164170122352804 
1968	 0.164380581597738 
1969	 0.164620612674556 
1970	 0.16484961328648 
1971	 0.165036814836038 
1972	 0.165275126765852 
1973	 0.165568820758902 
1974	 0.165820742387761 
1975	 0.166074559373343 
1976	 0.166342120229311 
1977	 0.166575979963285 
1978	 0.166825608864788 
1979	 0.167089804067081 
1980	 0.167385093650497 
1981	 0.167650138326713 
1982	 0.167974109944661 
1983	 0.168418742755355 
1984	 0.168843567022217 
1985	 0.16920283980944 
1986	 0.169626484110281 
1987	 0.169998182109939 
1988	 0.170215544744311 
1989	 0.170620713762405 
1990	 0.171089049647479 
1991	 0.17160322006666 
1992	 0.172205614088886 
1993	 0.172891131190659 
1994	 0.173473634216288 
1995	 0.174122216523333 
1996	 0.174757331735181 
1997	 0.1753209961985 
1998	 0.175947916675536 
1999	 0.176618965608091 
2000	 0.177271323492644 
2001	 0.177956817792265 
2002	 0.178588869959522 
2003	 0.179203870604881 
2004	 0.179791079131941 
2005	 0.180358362247594 
2006	 0.180882140851691 
2007	 0.181367932288969 
2008	 0.181856198973282 
2009	 0.182292574299466 
2010	 0.18266659043983 
2011	 0.183115231285296 
2012	 0.183570449864427 
2013	 0.18392468360205 
2014	 0.184238989607581 
2015	 0.184537832610585 
2016	 0.184717623633344 
2017	 0.18495953338347 
2018	 0.185272611879525 
2019	 0.18550508418882 
2020	 0.185703370962075 
2021	 0.18588785944209 
2022	 0.186021968164022 
2023	 0.186115357694141 
2024	 0.186218854432712 
2025	 0.186315050812314 
2026	 0.186414457016265 
2027	 0.186521071007117 
2028	 0.186578293803325 
2029	 0.186617277329527 
2030	 0.186653519103315 
2031	 0.186641446119791 
2032	 0.186671374072212 
2033	 0.186740760477321 
2034	 0.186759927815321 
2035	 0.186761812867226 
2036	 0.186779698334868 
2037	 0.186682416914198 
2038	 0.18659468011714 
2039	 0.186553425159171 
2040	 0.186481306122049 
2041	 0.18647335360951 
2042	 0.186546396400391 
2043	 0.18659387855229 
2044	 0.186664864221125 
2045	 0.186712042653119 
2046	 0.186758579948044 
2047	 0.186803565299262 
2048	 0.186865549915151 
2049	 0.18688991131449 
2050	 0.186927527785095 
2051	 0.186858481128586 
2052	 0.186861756361639 
2053	 0.186831282230621 
2054	 0.186823666856494 
2055	 0.186857280436858 
2056	 0.186876241228592 
2057	 0.1868834568043 
2058	 0.186879699503304 
2059	 0.186890497666033 
2060	 0.186875712773867 
2061	 0.186788905110583 
2062	 0.18679095973432 
2063	 0.186855065448287 
2064	 0.18686994291781 
2065	 0.186902729320244 
2066	 0.186931987269362 
2067	 0.1869476722085 
2068	 0.186986559833099 
2069	 0.187017025066746 
2070	 0.187096473098232 
2071	 0.187135517324158 
2072	 0.187111026073918 
2073	 0.187152909241612 
2074	 0.187254449462939 
2075	 0.187298602918614 
2076	 0.187349079029343 
2077	 0.187373417206539 
2078	 0.187337719529005 
2079	 0.187336284625124 
2080	 0.187322831990245 
2081	 0.187336389043925 
2082	 0.187379763394961 
2083	 0.18743484523185 
2084	 0.187448775354861 
2085	 0.187506857170472 
2086	 0.187514512398017 
2087	 0.187489427950966 
2088	 0.187452625988132 
2089	 0.187375678200502 
2090	 0.187341462336869 
2091	 0.187326522734743 
2092	 0.187285432619453 
2093	 0.187226047879081 
2094	 0.187218841170357 
2095	 0.187235519111494 
2096	 0.187212416662542 
2097	 0.187238365224073 
2098	 0.187236750045383 
2099	 0.187049316508345 
2100	 0.186910193318422 
2101	 0.186819912230798 
2102	 0.18672079217568 
2103	 0.186641916890978 
2104	 0.186636472021452 
2105	 0.186577241561832 
2106	 0.186487914511101 
2107	 0.186407966132479 
2108	 0.186371551077652 
2109	 0.186257081977905 
2110	 0.186051341507764 
2111	 0.185919449814323 
2112	 0.185768464498403 
2113	 0.185640618726801 
2114	 0.185615759592508 
2115	 0.185513554236317 
2116	 0.185397658808277 
2117	 0.185213021539518 
2118	 0.185028733564173 
2119	 0.184804792064754 
2120	 0.184619195107645 
2121	 0.184392014728405 
2122	 0.184265338025576 
2123	 0.184214734983558 
2124	 0.184101253962757 
2125	 0.184027503865483 
2126	 0.183917656952171 
2127	 0.183671198173296 
2128	 0.183608028503202 
2129	 0.18369074346308 
2130	 0.183696124195205 
2131	 0.183797747985764 
2132	 0.18382752663339 
2133	 0.183814140495388 
2134	 0.183681035684817 
2135	 0.18364238666609 
2136	 0.183642416796689 
2137	 0.183580040614539 
2138	 0.183494804311612 
2139	 0.183434219748207 
2140	 0.183317563000914 
2141	 0.183287188535635 
2142	 0.183362230071979 
2143	 0.183321392758862 
2144	 0.183263797765083 
2145	 0.183195847797994 
2146	 0.183009133887609 
2147	 0.182948878289067 
2148	 0.182951887069641 
2149	 0.182973273198471 
2150	 0.183056218837707 
2151	 0.183128658172271 
2152	 0.183239387628032 
2153	 0.183325552251035 
2154	 0.183368083033871 
2155	 0.183450848830277 
2156	 0.183515356934373 
2157	 0.183575574885252 
2158	 0.183585709724389 
2159	 0.183619857013501 
2160	 0.183546088641414 
2161	 0.183330599438442 
2162	 0.183237166703054 
2163	 0.183141311442925 
2164	 0.183061101078877 
2165	 0.183073288805718 
2166	 0.182998876831063 
2167	 0.182857723157421 
2168	 0.182744438613127 
2169	 0.182585022434532 
2170	 0.182495254935575 
2171	 0.182438357341882 
2172	 0.182400761080341 
2173	 0.18247102277938 
2174	 0.182438574286557 
2175	 0.18236489057802 
2176	 0.18233972244187 
2177	 0.182263785840725 
2178	 0.18212354766552 
2179	 0.182051536908224 
2180	 0.181981445621615 
2181	 0.181955180268774 
2182	 0.182004917290762 
2183	 0.181951543672894 
2184	 0.181858630398305 
2185	 0.181819596017713 
2186	 0.181737363857719 
2187	 0.181691933602698 
2188	 0.181738835452051 
2189	 0.181716715813511 
2190	 0.18166738338251 
2191	 0.181590700254392 
2192	 0.1814389153914 
2193	 0.181375753487079 
2194	 0.181392518631865 
2195	 0.181305482490334 
2196	 0.181203975271411 
2197	 0.181112225399923 
2198	 0.180977001812258 
2199	 0.180773700092572 
2200	 0.18062670200957 
2201	 0.180572980394249 
2202	 0.180392058612846 
2203	 0.180105027201229 
2204	 0.179929056194184 
2205	 0.17977528799681 
2206	 0.179596973724024 
2207	 0.179462904699505 
2208	 0.1792905681342 
2209	 0.179099190192344 
2210	 0.178852742023281 
2211	 0.178526799193256 
2212	 0.178314737342331 
2213	 0.178102465571235 
2214	 0.177899148000258 
2215	 0.177792186434085 
2216	 0.17766283781701 
2217	 0.177560438131922 
2218	 0.177362402333735 
2219	 0.177127466718228 
2220	 0.176894205108535 
2221	 0.176557187676971 
2222	 0.176203838518995 
2223	 0.17603494810412 
2224	 0.1759848247804 
2225	 0.176001686929699 
2226	 0.175946037550247 
2227	 0.175801430281982 
2228	 0.175616018181983 
2229	 0.175342095031112 
2230	 0.1749571660821 
2231	 0.1745832652544 
2232	 0.17415755973743 
2233	 0.173685693762435 
2234	 0.173229289669785 
2235	 0.172634337824442 
2236	 0.171915372382415 
2237	 0.171206309457021 
2238	 0.170416556556029 
2239	 0.169597472585472 
2240	 0.168741928541459 
2241	 0.167891276890024 
2242	 0.167051055559883 
2243	 0.166088897464007 
2244	 0.165140958240147 
2245	 0.164057405827659 
2246	 0.162727011711034 
2247	 0.161484271318564 
2248	 0.160193614143649 
2249	 0.158908451465587 
2250	 0.157639531343475 
2251	 0.156419747946666 
2252	 0.155038115688065 
2253	 0.153755985507101 
2254	 0.152424590446476 
2255	 0.150974321245196 
2256	 0.14965342933755 
2257	 0.148382128216968 
2258	 0.147168111397199 
2259	 0.14608461231414 
2260	 0.144854678887979 
2261	 0.143622557404965 
2262	 0.142343791556208 
2263	 0.140876849316521 
2264	 0.139689285306937 
2265	 0.138550327635898 
2266	 0.137574450730154 
2267	 0.136960160539907 
2268	 0.136005235052771 
2269	 0.134962256484507 
2270	 0.134008559844395 
2271	 0.132822090510683 
2272	 0.131882015712745 
2273	 0.131251361329473 
2274	 0.130444177592285 
2275	 0.129647510275102 
2276	 0.128832439625261 
2277	 0.127947033963458 
2278	 0.127063348553082 
2279	 0.126090647926392 
2280	 0.125240098606925 
2281	 0.124576575274342 
2282	 0.123713034486325 
2283	 0.122851115288717 
2284	 0.121933409004534 
2285	 0.120756505517127 
2286	 0.119462155315299 
2287	 0.118201254636504 
2288	 0.116950250387333 
2289	 0.115825095325534 
2290	 0.114622153010341 
2291	 0.11342841218272 
2292	 0.112217050583723 
2293	 0.110863653958805 
2294	 0.109642913658659 
2295	 0.108386632442243 
2296	 0.107201514098482 
2297	 0.106151816658309 
2298	 0.105223286643546 
2299	 0.104195778245889 
2300	 0.103109852611628 
2301	 0.102435324298079 
2302	 0.101781796433312 
2303	 0.10150893547976 
2304	 0.10181810646389 
2305	 0.10189882740842 
2306	 0.102005196298873 
2307	 0.102256760385429 
2308	 0.102472223351536 
2309	 0.103042825685098 
2310	 0.103904312190735 
2311	 0.104810817000016 
2312	 0.10601368819691 
2313	 0.107120530994504 
2314	 0.108268624041167 
2315	 0.109400973032638 
2316	 0.110625630716761 
2317	 0.111738941431246 
2318	 0.112876457653489 
2319	 0.113803244992806 
2320	 0.11456578630261 
2321	 0.11528126402043 
2322	 0.115860713770194 
2323	 0.116377182474067 
2324	 0.116858632947154 
2325	 0.117204266323231 
2326	 0.117360412992085 
2327	 0.117524683303208 
2328	 0.117644237842006 
2329	 0.11766928105358 
2330	 0.117640237227884 
2331	 0.117567159331358 
2332	 0.117296452719662 
2333	 0.116973544418881 
2334	 0.116484303540632 
2335	 0.115921453008149 
2336	 0.115408873989402 
2337	 0.114680998177229 
2338	 0.114000878275605 
2339	 0.113271015255768 
2340	 0.112153261173682 
2341	 0.111123886113021 
2342	 0.110178300754794 
2343	 0.109355551910823 
2344	 0.108832926821976 
2345	 0.108522412987123 
2346	 0.108407051518298 
2347	 0.108203259822577 
2348	 0.108168326472735 
2349	 0.108408901334795 
2350	 0.108884210409306 
2351	 0.109693628193657 
2352	 0.110483407812516 
2353	 0.111414469453862 
2354	 0.112338936858033 
2355	 0.113003873106047 
2356	 0.113405795371491 
2357	 0.113997400231352 
2358	 0.114749941853057 
2359	 0.115084859586064 
2360	 0.115611269626236 
2361	 0.116114439632335 
2362	 0.116192796085466 
2363	 0.116350625786452 
2364	 0.11656336433111 
2365	 0.11645082971455 
2366	 0.116023665606055 
2367	 0.115808897077397 
2368	 0.115803589602867 
2369	 0.11582111007095 
2370	 0.116180537908148 
2371	 0.116451273040387 
2372	 0.11611849866043 
2373	 0.115583008661879 
2374	 0.115368527528071 
2375	 0.115261332207159 
2376	 0.115067586886944 
2377	 0.115339512800701 
2378	 0.115526021477173 
2379	 0.115128116217023 
2380	 0.115086252793772 
2381	 0.115414027987225 
2382	 0.115554308748207 
2383	 0.115735519907947 
2384	 0.115702695221365 
2385	 0.115443147724373 
2386	 0.115324705794112 
2387	 0.115038153397734 
2388	 0.11510319344719 
2389	 0.115626127503771 
2390	 0.115669303007926 
2391	 0.115617772476481 
2392	 0.115392458371892 
2393	 0.114712376442094 
2394	 0.114510095149206 
2395	 0.114449837753997 
2396	 0.114500082059389 
2397	 0.114839799749525 
2398	 0.115104915370519 
2399	 0.115503968314626 
2400	 0.115476521604029 
2401	 0.115251805844229 
2402	 0.114750295487801 
2403	 0.114415492328593 
2404	 0.114700646417759 
2405	 0.115091679899814 
2406	 0.115207739745558 
2407	 0.115422850862873 
2408	 0.115421380007938 
2409	 0.115122735557406 
2410	 0.114930553870377 
2411	 0.114746363332853 
2412	 0.114663019325104 
2413	 0.114555038643735 
2414	 0.114483411172338 
2415	 0.114716820360734 
2416	 0.114778909680357 
2417	 0.114779044758171 
2418	 0.114842846424735 
2419	 0.114765421906139 
2420	 0.114746642059605 
2421	 0.114347852738807 
2422	 0.113750448259546 
2423	 0.113376045669579 
2424	 0.112823302283616 
2425	 0.112843657487346 
2426	 0.113429546919289 
2427	 0.113556979330415 
2428	 0.113856164640364 
2429	 0.114121482530897 
2430	 0.114147093975604 
2431	 0.114198780006346 
2432	 0.113810807925372 
2433	 0.11350160545643 
2434	 0.113160357140177 
2435	 0.112868788759712 
2436	 0.11289027342098 
2437	 0.11284653808952 
2438	 0.112611300588738 
2439	 0.112328043950817 
2440	 0.11198853820693 
2441	 0.111503434602155 
2442	 0.111590092936761 
2443	 0.111998585814675 
2444	 0.112209069437216 
2445	 0.111901784674028 
2446	 0.111431957186143 
2447	 0.110988795439103 
2448	 0.110512363278149 
2449	 0.111175575443835 
2450	 0.111697237998671 
2451	 0.111740657707752 
2452	 0.112409725083503 
2453	 0.112280265336235 
2454	 0.111908960720417 
2455	 0.111655295268278 
2456	 0.111102352952402 
2457	 0.111315622253847 
2458	 0.111887383096457 
2459	 0.112470278881844 
2460	 0.112408775895029 
2461	 0.111850791310019 
2462	 0.111660723219918 
2463	 0.111425623544809 
2464	 0.111689222325788 
2465	 0.112275963439577 
2466	 0.112085707699807 
2467	 0.111574899691974 
2468	 0.111179068889227 
2469	 0.110998711886596 
2470	 0.111158982409765 
2471	 0.111488222899422 
2472	 0.111833121488648 
2473	 0.111974271064295 
2474	 0.112119649562851 
2475	 0.112414350415622 
2476	 0.112809028892646 
2477	 0.11253511923561 
2478	 0.112848424811478 
2479	 0.113782341027139 
2480	 0.114869922645646 
2481	 0.115461687937781 
2482	 0.114773896225549 
2483	 0.114842550261745 
2484	 0.114699723623575 
2485	 0.115149806903461 
2486	 0.116650702100165 
2487	 0.116542811694512 
2488	 0.115712266333121 
2489	 0.115736580262511 
2490	 0.115100579056684 
2491	 0.115311898552793 
2492	 0.116159355392172 
2493	 0.116044806071289 
2494	 0.116563807130172 
2495	 0.116992424468329 
2496	 0.117176502280932 
2497	 0.116860909235998 
2498	 0.116342091950871 
2499	 0.116696623168793 
2500	 0.117795282576142 
