Wavelength	Tablay400113.asd
350	 0.152439281400523 
351	 0.12240713219624 
352	 6.25580596741717E-02 
353	 3.13448734676558E-02 
354	 4.54063145942219E-02 
355	 7.63560367294175E-02 
356	 6.20451549161159E-02 
357	-8.55662414664932E-03 
358	 4.63069248901293E-02 
359	 5.63938669723016E-02 
360	 4.36845190609307E-02 
361	 0.108722479393823 
362	 0.124449884053159 
363	 0.101664669972708 
364	 6.06223603658083E-02 
365	 1.84327669715911E-02 
366	 6.52981157320281E-02 
367	 0.113830709159581 
368	 0.090250773768196 
369	 0.105998500923738 
370	 6.71260228446271E-02 
371	 2.23345551700774E-02 
372	 8.74394459745943E-02 
373	 0.109050795946958 
374	 6.42833675895609E-02 
375	-4.10862027683682E-03 
376	 2.31450507306932E-02 
377	 1.92026065907332E-02 
378	 3.28399692820326E-02 
379	 0.101868147537882 
380	 7.74827068894634E-02 
381	 8.29013681137854E-02 
382	 0.103612545518022 
383	 6.12169581730326E-02 
384	 7.58608008067437E-02 
385	 9.00834196849516E-02 
386	 6.82441380136044E-02 
387	 4.46400052963468E-02 
388	 5.88881690182679E-02 
389	 7.76246122507113E-02 
390	 6.93362780651058E-02 
391	 7.02185085059522E-02 
392	 8.77522648441672E-02 
393	 0.102998682089958 
394	 8.57088069928635E-02 
395	 0.058065969289751 
396	 5.18056115574851E-02 
397	 6.87723132819881E-02 
398	 0.067668548338886 
399	 6.80859189267491E-02 
400	 7.62503839554536E-02 
401	 8.83697644536412E-02 
402	 0.077600273536513 
403	 6.02373999779289E-02 
404	 5.41678417487344E-02 
405	 7.17527506838436E-02 
406	 0.076154768216949 
407	 7.68335652532406E-02 
408	 7.91567363353979E-02 
409	 6.66474220538857E-02 
410	 6.15981721014788E-02 
411	 6.12676617621762E-02 
412	 5.78392939292018E-02 
413	 6.25554765331443E-02 
414	 6.19497651796027E-02 
415	 5.63868513083216E-02 
416	 5.88465957629261E-02 
417	 7.18189507015384E-02 
418	 7.18448126241728E-02 
419	 5.32364268826933E-02 
420	 6.06188631699212E-02 
421	 5.81921573182461E-02 
422	 5.41043248883626E-02 
423	 6.67383362580498E-02 
424	 6.51366032763585E-02 
425	 5.79391864497187E-02 
426	 5.38604223890112E-02 
427	 5.80350021761763E-02 
428	 6.34284035444118E-02 
429	 6.47408976551649E-02 
430	 0.060900780322592 
431	 6.09248193735645E-02 
432	 6.21920807300215E-02 
433	 6.31721942792654E-02 
434	 6.29475035657216E-02 
435	 5.96734623261239E-02 
436	 6.02486231641469E-02 
437	 6.51962042418892E-02 
438	 6.45457238053656E-02 
439	 6.33786074133266E-02 
440	 6.18499338787999E-02 
441	 6.01138263984037E-02 
442	 6.42670740987018E-02 
443	 0.063552623232768 
444	 5.89021535323981E-02 
445	 5.99639697009576E-02 
446	 6.27895784820068E-02 
447	 6.43566183086929E-02 
448	 6.36499400717306E-02 
449	 6.34467602955643E-02 
450	 6.30074876012966E-02 
451	 6.25131375150795E-02 
452	 6.22933537827508E-02 
453	 6.18855358699387E-02 
454	 6.12955885112579E-02 
455	 6.03545543686001E-02 
456	 0.058738249949395 
457	 5.99297701181682E-02 
458	 6.14405330969512E-02 
459	 6.08824197776539E-02 
460	 5.96046840636043E-02 
461	 6.15172431642819E-02 
462	 6.25630257430504E-02 
463	 0.056664150713315 
464	 5.98060727301325E-02 
465	 6.22925178944678E-02 
466	 6.02780630107116E-02 
467	 6.27681156369093E-02 
468	 6.36633755843803E-02 
469	 6.28351550295374E-02 
470	 6.19146674735905E-02 
471	 0.062627787178794 
472	 6.34411299080915E-02 
473	 6.33098613668723E-02 
474	 6.18743615800107E-02 
475	 6.15800423692602E-02 
476	 6.12640796431337E-02 
477	 6.03793555121002E-02 
478	 6.11653000903863E-02 
479	 6.02050983382189E-02 
480	 5.97312037771388E-02 
481	 6.26023648907697E-02 
482	 6.19144847856029E-02 
483	 6.08545477117324E-02 
484	 6.12345026440381E-02 
485	 6.25223032969587E-02 
486	 6.19951494624729E-02 
487	 6.08116413486399E-02 
488	 6.06338809285641E-02 
489	 6.19495600569804E-02 
490	 0.06233141643417 
491	 6.20338307716344E-02 
492	 6.26166191375316E-02 
493	 6.19871654931643E-02 
494	 0.06220169659996 
495	 6.37142408035188E-02 
496	 6.37619001319161E-02 
497	 6.31035694267174E-02 
498	 6.22328045590777E-02 
499	 6.17079715570675E-02 
500	 0.062424070424223 
501	 0.063542367611728 
502	 6.40009146978781E-02 
503	 6.28411229550064E-02 
504	 6.36280110919087E-02 
505	 6.40417429736759E-02 
506	 6.28656459068188E-02 
507	 0.06409623500897 
508	 6.42796273600955E-02 
509	 6.37645058248062E-02 
510	 0.06425133728294 
511	 6.47474594231214E-02 
512	 6.44655595682411E-02 
513	 6.37390880578479E-02 
514	 6.42434396690805E-02 
515	 6.47113636475219E-02 
516	 0.065125228614779 
517	 6.55426553851062E-02 
518	 6.51372473076771E-02 
519	 6.49541189315924E-02 
520	 6.52400560934481E-02 
521	 6.56207638478756E-02 
522	 6.54757677876663E-02 
523	 6.53183996384131E-02 
524	 6.55110994669468E-02 
525	 6.58329599591782E-02 
526	 6.61662524158886E-02 
527	 0.066276475138724 
528	 6.61099112885915E-02 
529	 6.68071814538266E-02 
530	 6.68441958420378E-02 
531	 6.62410606292683E-02 
532	 6.67193463609734E-02 
533	 6.72308123685213E-02 
534	 6.74188129491652E-02 
535	 0.067308687612743 
536	 6.75739713244356E-02 
537	 6.78425950909676E-02 
538	 6.80183199893283E-02 
539	 6.81286073523847E-02 
540	 6.77964020194668E-02 
541	 6.78536726698706E-02 
542	 0.068386693476452 
543	 6.80885049601532E-02 
544	 6.82631186722537E-02 
545	 6.86395254923245E-02 
546	 6.86257975112867E-02 
547	 6.83659758855585E-02 
548	 6.84762903028717E-02 
549	 6.87831470319157E-02 
550	 6.84737903840627E-02 
551	 6.85473774105512E-02 
552	 6.87800812134242E-02 
553	 6.88966196680909E-02 
554	 6.90719999746024E-02 
555	 6.92650764041266E-02 
556	 6.93708021269641E-02 
557	 6.93000015009189E-02 
558	 6.93295233469778E-02 
559	 6.93416485321593E-02 
560	 6.93689680062837E-02 
561	 6.97067640783836E-02 
562	 0.069829727046491 
563	 6.98955686905584E-02 
564	 7.01261506838356E-02 
565	 7.02418404466052E-02 
566	 7.03134415266558E-02 
567	 7.03335772959987E-02 
568	 7.02732263188873E-02 
569	 7.07002338511789E-02 
570	 7.08093543602941E-02 
571	 7.02863160224113E-02 
572	 7.02386917218713E-02 
573	 7.03259273319633E-02 
574	 0.070449579007292 
575	 7.05225223971292E-02 
576	 7.01304780673681E-02 
577	 7.00992555290563E-02 
578	 7.05067267799405E-02 
579	 7.05247861599278E-02 
580	 7.07039993691935E-02 
581	 0.070820084736385 
582	 7.06761746525086E-02 
583	 7.06605658749239E-02 
584	 7.07423295824048E-02 
585	 7.09057548121316E-02 
586	 7.11014578041528E-02 
587	 7.09540180111425E-02 
588	 7.09303015860063E-02 
589	 7.11628885018665E-02 
590	 7.10787371432811E-02 
591	 7.10967328666689E-02 
592	 7.11853522224026E-02 
593	 7.12197633389926E-02 
594	 0.07130289509278 
595	 0.071213075691096 
596	 7.10632759931795E-02 
597	 7.12247518929665E-02 
598	 7.12484488983578E-02 
599	 7.11988429682682E-02 
600	 0.071180324532944 
601	 7.11715777905194E-02 
602	 7.11186011169054E-02 
603	 7.11058168174003E-02 
604	 0.071227497840634 
605	 7.12072947219326E-02 
606	 7.11979016536062E-02 
607	 0.071235311703345 
608	 7.11689441121583E-02 
609	 7.12440501432604E-02 
610	 7.13342053212994E-02 
611	 7.13139755998731E-02 
612	 7.13859875203358E-02 
613	 7.14394431112301E-02 
614	 7.13819062566273E-02 
615	 7.11810323343647E-02 
616	 7.12612731830615E-02 
617	 7.13222615876804E-02 
618	 0.071206055473148 
619	 7.11767617512439E-02 
620	 0.071115141259075 
621	 7.10935021467167E-02 
622	 7.11679376059581E-02 
623	 7.10185849606945E-02 
624	 7.10087345658879E-02 
625	 7.11483038250439E-02 
626	 7.11135504969896E-02 
627	 7.11803692732847E-02 
628	 7.11670732454601E-02 
629	 7.10117788641432E-02 
630	 7.11706848123877E-02 
631	 7.12373747942757E-02 
632	 7.11295356190261E-02 
633	 7.09533351510903E-02 
634	 7.10230795188463E-02 
635	 7.10592089165639E-02 
636	 7.09607642820954E-02 
637	 7.09102034102716E-02 
638	 7.10253924693552E-02 
639	 7.10339896332015E-02 
640	 7.07834701489931E-02 
641	 7.08341580225493E-02 
642	 7.08728858461405E-02 
643	 7.07936859764261E-02 
644	 7.06452186721225E-02 
645	 7.06052238936868E-02 
646	 7.06835821502439E-02 
647	 7.07802174124198E-02 
648	 7.06516458588873E-02 
649	 7.06174186730472E-02 
650	 7.06748775307259E-02 
651	 7.07048315066322E-02 
652	 7.05516029283221E-02 
653	 7.03967790442824E-02 
654	 7.03470838229048E-02 
655	 7.04206731579727E-02 
656	 0.070443532601352 
657	 7.04211726459254E-02 
658	 7.03868795370869E-02 
659	 7.03650454949554E-02 
660	 7.03019556765057E-02 
661	 7.02438845878381E-02 
662	 7.02585815459245E-02 
663	 7.03074645254585E-02 
664	 7.04237405109296E-02 
665	 7.04831683565281E-02 
666	 7.02315413279276E-02 
667	 0.070186009848737 
668	 7.02870744034041E-02 
669	 7.03553419950245E-02 
670	 7.02155911561223E-02 
671	 7.00903921972723E-02 
672	 7.00021172122907E-02 
673	 6.99161244350345E-02 
674	 7.00902365068522E-02 
675	 7.02201530946104E-02 
676	 7.01429089970605E-02 
677	 6.99263387954473E-02 
678	 6.98741755602788E-02 
679	 6.98895194527853E-02 
680	 6.98303550723076E-02 
681	 6.97214577919019E-02 
682	 6.97675761465644E-02 
683	 0.069904160831911 
684	 6.99280549304721E-02 
685	 6.98535437913567E-02 
686	 6.97862576515429E-02 
687	 6.97926412685673E-02 
688	 6.98706958168021E-02 
689	 6.98299332459408E-02 
690	 6.97424820888621E-02 
691	 6.97243578826886E-02 
692	 6.97968338669196E-02 
693	 6.96846447590585E-02 
694	 6.95520088960291E-02 
695	 6.97647638012626E-02 
696	 6.97940366783871E-02 
697	 6.96891725920943E-02 
698	 6.95889098209604E-02 
699	 6.96520912172482E-02 
700	 6.97814584038404E-02 
701	 6.98222138922744E-02 
702	 6.97181234269052E-02 
703	 6.98481498620449E-02 
704	 6.99033443210951E-02 
705	 0.069831593514923 
706	 6.97815503285721E-02 
707	 6.99381515731833E-02 
708	 6.99946559674317E-02 
709	 6.98562926058535E-02 
710	 6.98831249206868E-02 
711	 6.99317594843261E-02 
712	 6.99788885556726E-02 
713	 0.070011644770436 
714	 6.99238179390792E-02 
715	 6.99454276955792E-02 
716	 7.00378230232685E-02 
717	 6.99998677222832E-02 
718	 7.01547001041948E-02 
719	 7.02963707632316E-02 
720	 0.070280084878242 
721	 7.01712694158834E-02 
722	 7.02457022419346E-02 
723	 7.03431114364694E-02 
724	 7.02885854461596E-02 
725	 7.04334638612469E-02 
726	 7.05665895025965E-02 
727	 7.06097965414755E-02 
728	 7.06048352277099E-02 
729	 7.06957445376789E-02 
730	 7.07828254117643E-02 
731	 0.070817272366808 
732	 7.08879560896014E-02 
733	 7.09604393150601E-02 
734	 7.10722808486326E-02 
735	 7.12252119405964E-02 
736	 7.12089477274705E-02 
737	 7.12661922807948E-02 
738	 7.14210768450228E-02 
739	 7.15436295336178E-02 
740	 0.071574973187457 
741	 7.16341455076122E-02 
742	 7.17676693196478E-02 
743	 7.18813872630098E-02 
744	 7.20092210023892E-02 
745	 7.21528561914881E-02 
746	 7.22988001816963E-02 
747	 0.072414023145381 
748	 7.24735112170656E-02 
749	 7.25316511462847E-02 
750	 7.26681646935456E-02 
751	 7.27766591192437E-02 
752	 7.28698634663784E-02 
753	 7.29845523903241E-02 
754	 7.31688469600178E-02 
755	 7.32797113551421E-02 
756	 0.073379317749021 
757	 7.35332860025221E-02 
758	 7.36822146059479E-02 
759	 7.37218032457967E-02 
760	 7.37878402462445E-02 
761	 7.40552917634895E-02 
762	 7.41664119762572E-02 
763	 0.074288333085358 
764	 0.074448575455119 
765	 0.074499612485508 
766	 7.46896242583412E-02 
767	 7.48802408837042E-02 
768	 7.49777615969049E-02 
769	 0.07516665994122 
770	 7.53508488149781E-02 
771	 7.54726737395044E-02 
772	 7.55396732506452E-02 
773	 7.58117435519928E-02 
774	 7.60078816358258E-02 
775	 7.60963862950558E-02 
776	 7.62579777147664E-02 
777	 7.64278901134337E-02 
778	 7.65672714389448E-02 
779	 7.66873430361494E-02 
780	 0.076877987520053 
781	 7.70718414084522E-02 
782	 0.077190324289484 
783	 0.077239047183968 
784	 7.75419518194587E-02 
785	 7.76282057728525E-02 
786	 7.76175318978279E-02 
787	 7.79024515000768E-02 
788	 7.81514560804014E-02 
789	 7.83323720762267E-02 
790	 7.84449571555075E-02 
791	 7.84994359108477E-02 
792	 7.85982528006354E-02 
793	 7.87803130933495E-02 
794	 7.90112219119864E-02 
795	 7.91299576542179E-02 
796	 7.91787837628023E-02 
797	 7.92871335504935E-02 
798	 7.95382256611821E-02 
799	 7.96171449706665E-02 
800	 7.97641672344006E-02 
801	 7.99694118509883E-02 
802	 8.00391830030513E-02 
803	 0.080151262094174 
804	 8.03019346212445E-02 
805	 8.04491293872407E-02 
806	 8.05331649666726E-02 
807	 8.05921322932223E-02 
808	 8.06944140047267E-02 
809	 8.08670722642225E-02 
810	 8.10086161552581E-02 
811	 8.10725788555933E-02 
812	 8.10972001854911E-02 
813	 0.081170865262479 
814	 8.14225081333117E-02 
815	 8.14480109912412E-02 
816	 8.13218073476988E-02 
817	 8.15190929750491E-02 
818	 8.16984951338686E-02 
819	 8.17639143391341E-02 
820	 8.17529885158863E-02 
821	 8.18545272289041E-02 
822	 8.20047358510515E-02 
823	 8.20948189345821E-02 
824	 8.20743304292492E-02 
825	 8.20989148049586E-02 
826	 8.22208324674054E-02 
827	 8.23436447887935E-02 
828	 8.23370187238483E-02 
829	 8.23090019420021E-02 
830	 8.24227692315677E-02 
831	 0.082578744055792 
832	 8.24935652111901E-02 
833	 8.25293031329257E-02 
834	 8.25508358776901E-02 
835	 8.25359143866711E-02 
836	 8.27386932320605E-02 
837	 8.28397653846116E-02 
838	 8.28187626514227E-02 
839	 8.27532744847613E-02 
840	 8.27507964683471E-02 
841	 8.28256012599415E-02 
842	 0.082964547469905 
843	 8.30958187011684E-02 
844	 8.29572210556966E-02 
845	 0.08286042624609 
846	 8.29244979414327E-02 
847	 8.30751458218599E-02 
848	 8.31193229477285E-02 
849	 0.083017585691512 
850	 8.28646722195695E-02 
851	 0.082878666539132 
852	 8.30162331155935E-02 
853	 8.30848804514708E-02 
854	 8.30155490352976E-02 
855	 8.30694133203807E-02 
856	 8.30046371460672E-02 
857	 8.29468346999311E-02 
858	 8.30511196617601E-02 
859	 0.083171332343385 
860	 0.083138791440715 
861	 8.30683640251443E-02 
862	 8.31527559097685E-02 
863	 8.30716281130947E-02 
864	 8.30619357440445E-02 
865	 8.31630057823409E-02 
866	 8.32089917261983E-02 
867	 8.30926412000031E-02 
868	 8.29793198241256E-02 
869	 8.29840414102921E-02 
870	 0.08308750413605 
871	 8.30975246490698E-02 
872	 8.30935008534628E-02 
873	 8.31396967416712E-02 
874	 8.31282153323084E-02 
875	 8.30565272959922E-02 
876	 0.082997934329223 
877	 8.30256423378335E-02 
878	 8.31240840870598E-02 
879	 8.31905250009263E-02 
880	 8.31653502401013E-02 
881	 0.083072076704302 
882	 8.32246631278356E-02 
883	 8.31835848755569E-02 
884	 8.30093319497909E-02 
885	 8.31219177513693E-02 
886	 8.33056152716717E-02 
887	 8.33814622635397E-02 
888	 8.32629877187723E-02 
889	 8.30028898602411E-02 
890	 8.31717592369934E-02 
891	 8.33346318697618E-02 
892	 8.32371993102355E-02 
893	 8.32502974397315E-02 
894	 8.33868907122797E-02 
895	 8.33854261047168E-02 
896	 8.31636466213876E-02 
897	 8.32961878169784E-02 
898	 8.32744317846183E-02 
899	 8.32764044590342E-02 
900	 8.35121980837222E-02 
901	 8.33892530405598E-02 
902	 8.34828985581003E-02 
903	 8.36649951658478E-02 
904	 8.35656443449406E-02 
905	 8.35910196771249E-02 
906	 8.36343680630967E-02 
907	 8.36648103424477E-02 
908	 8.37181380571738E-02 
909	 8.37655170948438E-02 
910	 8.38197147944713E-02 
911	 8.38433142725064E-02 
912	 8.37732971400079E-02 
913	 8.38794979411442E-02 
914	 8.39824790295457E-02 
915	 8.40121361947661E-02 
916	 8.41307460800931E-02 
917	 8.41222706012044E-02 
918	 0.084105634732723 
919	 8.41599333284616E-02 
920	 0.084163282607603 
921	 8.42827285984201E-02 
922	 8.44381018711332E-02 
923	 8.45199344696988E-02 
924	 8.45087287994045E-02 
925	 8.45867151705961E-02 
926	 8.47151110593781E-02 
927	 8.47845206306045E-02 
928	 8.46984117918402E-02 
929	 8.49001870277106E-02 
930	 8.51038989491799E-02 
931	 8.49297237766415E-02 
932	 8.50067569998928E-02 
933	 0.085180810086996 
934	 8.52717078736077E-02 
935	 8.51880094902532E-02 
936	 8.53065124215065E-02 
937	 8.54482150652824E-02 
938	 8.55400850544739E-02 
939	 8.56205836318477E-02 
940	 8.57875646587563E-02 
941	 8.59240999580552E-02 
942	 8.59093311212394E-02 
943	 8.57123729787001E-02 
944	 8.58475915846051E-02 
945	 8.62394286741325E-02 
946	 0.086570055841086 
947	 8.64555698019414E-02 
948	 8.66270555047605E-02 
949	 8.67812643041534E-02 
950	 8.67352208891868E-02 
951	 8.66622065816358E-02 
952	 8.67667532966349E-02 
953	 8.68896443306317E-02 
954	 8.69760798148907E-02 
955	 8.72106144917102E-02 
956	 0.087222312695271 
957	 8.72577208086515E-02 
958	 8.74250880526319E-02 
959	 8.73865634174795E-02 
960	 8.71841188902373E-02 
961	 8.72702761750119E-02 
962	 8.77152126578725E-02 
963	 8.76891598854451E-02 
964	 0.087631556837715 
965	 8.77388046659123E-02 
966	 8.79448146172555E-02 
967	 8.77428491733795E-02 
968	 8.78642733452286E-02 
969	 0.088119610111824 
970	 8.81823239889507E-02 
971	 8.80801603960556E-02 
972	 8.81533111128416E-02 
973	 8.83181708744589E-02 
974	 8.84408020486566E-02 
975	 8.86718734244627E-02 
976	 8.87073067422716E-02 
977	 8.87664315694217E-02 
978	 8.90395093948664E-02 
979	 0.089125994893066 
980	 8.89074802153676E-02 
981	 8.87832860783074E-02 
982	 8.90609086851564E-02 
983	 8.92050021427812E-02 
984	 8.88637403203853E-02 
985	 0.088853388332243 
986	 8.96525988571231E-02 
987	 8.92105853444733E-02 
988	 8.92793026494789E-02 
989	 8.96199958329008E-02 
990	 8.95877928018385E-02 
991	 8.97720100021542E-02 
992	 8.98201967583187E-02 
993	 8.98305483161295E-02 
994	 8.98890751860851E-02 
995	 8.94583420173837E-02 
996	 0.089238787300153 
997	 8.93586907801436E-02 
998	 8.96372597337556E-02 
999	 8.97111773867258E-02 
1000	 8.97702027040131E-02 
1001	 9.11513568795771E-02 
1002	 9.12121920482347E-02 
1003	 9.12833922741411E-02 
1004	 0.091421007218997 
1005	 9.15752300517139E-02 
1006	 9.16920397487602E-02 
1007	 9.19361450490671E-02 
1008	 9.20181576620648E-02 
1009	 9.18401061408595E-02 
1010	 9.19099277156624E-02 
1011	 9.21602662613076E-02 
1012	 9.21995351399533E-02 
1013	 9.21947140635623E-02 
1014	 9.22552828256702E-02 
1015	 9.22003632440127E-02 
1016	 9.21995143402633E-02 
1017	 9.22420788301932E-02 
1018	 9.25176857639553E-02 
1019	 9.26354794936926E-02 
1020	 9.25384726935684E-02 
1021	 9.25257405359145E-02 
1022	 9.23858759629855E-02 
1023	 9.24595868307054E-02 
1024	 9.27564303066962E-02 
1025	 9.27913211084502E-02 
1026	 9.28443357472208E-02 
1027	 9.28363925234328E-02 
1028	 0.092637985218474 
1029	 9.23979366317675E-02 
1030	 0.092453914261128 
1031	 9.26783898589004E-02 
1032	 9.29442399755926E-02 
1033	 9.31133416369649E-02 
1034	 9.30242128336813E-02 
1035	 9.29061867392228E-02 
1036	 9.28730378418501E-02 
1037	 9.27309815196924E-02 
1038	 9.27042754142146E-02 
1039	 9.28981253807777E-02 
1040	 9.29016024224579E-02 
1041	 9.27572268207795E-02 
1042	 9.27499643929769E-02 
1043	 9.27960491894918E-02 
1044	 9.27237778506183E-02 
1045	 9.28137733572292E-02 
1046	 9.30433788602761E-02 
1047	 9.31483041515764E-02 
1048	 9.31408582831438E-02 
1049	 9.29717251651126E-02 
1050	 9.27403051706327E-02 
1051	 9.26950436267786E-02 
1052	 9.27308877392404E-02 
1053	 9.27508391117391E-02 
1054	 9.29212130943418E-02 
1055	 9.30000154183434E-02 
1056	 9.29445160301853E-02 
1057	 0.093015019783942 
1058	 9.31921198194684E-02 
1059	 9.32528468491753E-02 
1060	 9.33932103200728E-02 
1061	 0.093463619021313 
1062	 9.33825561552128E-02 
1063	 9.35212102736356E-02 
1064	 0.093608175285955 
1065	 0.093707970041107 
1066	 9.38924999006696E-02 
1067	 9.39891677679454E-02 
1068	 0.094050699113578 
1069	 0.093936905322464 
1070	 9.39380932602486E-02 
1071	 9.39410691633147E-02 
1072	 9.40372604976212E-02 
1073	 9.41986237472884E-02 
1074	 9.44635545340259E-02 
1075	 9.45265755426505E-02 
1076	 9.44262106933053E-02 
1077	 9.43628342216363E-02 
1078	 9.43690189201571E-02 
1079	 9.44367054774722E-02 
1080	 9.46400752908149E-02 
1081	 9.47458096360099E-02 
1082	 9.47331503053022E-02 
1083	 9.49105199486157E-02 
1084	 9.50005000248966E-02 
1085	 9.50231048274346E-02 
1086	 9.51366779877414E-02 
1087	 9.53190212616587E-02 
1088	 9.53998353308027E-02 
1089	 9.55040049713305E-02 
1090	 9.56992929543967E-02 
1091	 9.58028364918615E-02 
1092	 9.57981890027068E-02 
1093	 9.58662038328848E-02 
1094	 9.60090834130609E-02 
1095	 0.096031919648384 
1096	 0.096058559539649 
1097	 9.61793650805066E-02 
1098	 9.62045258660401E-02 
1099	 9.62228852626428E-02 
1100	 9.64003550281781E-02 
1101	 0.096473756517384 
1102	 9.64788039631708E-02 
1103	 9.65561973094879E-02 
1104	 9.66784784743186E-02 
1105	 9.67240048536753E-02 
1106	 9.68461398920096E-02 
1107	 9.69869980002401E-02 
1108	 0.097020551744178 
1109	 9.71788172209262E-02 
1110	 9.73339816039766E-02 
1111	 9.73981156243858E-02 
1112	 9.75505437579574E-02 
1113	 9.76021261651268E-02 
1114	 9.76200491027674E-02 
1115	 9.77244773399754E-02 
1116	 9.77475858555363E-02 
1117	 0.097834457491189 
1118	 9.78946819308398E-02 
1119	 9.78739014300714E-02 
1120	 0.097936818994141 
1121	 9.80472682906414E-02 
1122	 9.81793151186869E-02 
1123	 9.82956961873453E-02 
1124	 9.84455650699144E-02 
1125	 9.85568535173119E-02 
1126	 9.85888090456658E-02 
1127	 9.85784265227202E-02 
1128	 9.86434943060279E-02 
1129	 9.87859947876632E-02 
1130	 9.88652003238065E-02 
1131	 0.098905464859269 
1132	 9.89904524236105E-02 
1133	 9.90416086892932E-02 
1134	 9.91046578319027E-02 
1135	 9.91537428895652E-02 
1136	 9.92139240554399E-02 
1137	 9.92827095327543E-02 
1138	 9.93002474516979E-02 
1139	 9.93694005262711E-02 
1140	 9.94636983243283E-02 
1141	 9.96777636876182E-02 
1142	 9.98270492646937E-02 
1143	 0.099917965653712 
1144	 9.99704940221751E-02 
1145	 9.99898229072541E-02 
1146	 0.100035582304009 
1147	 0.100154361588979 
1148	 0.100277309210909 
1149	 0.100388443608692 
1150	 0.100484971138441 
1151	 0.100504981091191 
1152	 0.100609327413352 
1153	 0.100784728766845 
1154	 0.100935219387648 
1155	 0.101127259775677 
1156	 0.101283384901354 
1157	 0.101385595783457 
1158	 0.101504660654354 
1159	 0.101622515694215 
1160	 0.101760075534869 
1161	 0.101846627453777 
1162	 0.101979260259587 
1163	 0.102075299896883 
1164	 0.10216728557085 
1165	 0.102315056547061 
1166	 0.1024491474271 
1167	 0.102603897121741 
1168	 0.102796433477979 
1169	 0.102966016731626 
1170	 0.103159327933862 
1171	 0.10332027765243 
1172	 0.103449165524907 
1173	 0.103569376430698 
1174	 0.103628311054456 
1175	 0.103764540023353 
1176	 0.103981295795477 
1177	 0.104138872069773 
1178	 0.104263733224995 
1179	 0.10446120359778 
1180	 0.104682410392945 
1181	 0.104830114265852 
1182	 0.10500976238556 
1183	 0.105214986238606 
1184	 0.105387909429833 
1185	 0.105506264155756 
1186	 0.105652331500643 
1187	 0.105831036044923 
1188	 0.105997462040937 
1189	 0.10613494205721 
1190	 0.106309225075117 
1191	 0.106517593958114 
1192	 0.106719655878082 
1193	 0.106909280426917 
1194	 0.107115215574198 
1195	 0.107346681641233 
1196	 0.107571641814361 
1197	 0.107804122193191 
1198	 0.108050544343332 
1199	 0.108226650951393 
1200	 0.108366643319228 
1201	 0.108515164963455 
1202	 0.108687202771746 
1203	 0.108912518141358 
1204	 0.109183517069274 
1205	 0.109380759237252 
1206	 0.109501687563065 
1207	 0.109731957849483 
1208	 0.109985275978157 
1209	 0.110226551255491 
1210	 0.110571118732027 
1211	 0.110823843332468 
1212	 0.110980442706565 
1213	 0.111199180394777 
1214	 0.111403489654749 
1215	 0.111646206933899 
1216	 0.111935232414627 
1217	 0.112212538804544 
1218	 0.112497613423952 
1219	 0.112799261668954 
1220	 0.113125613077101 
1221	 0.113465585445648 
1222	 0.113722835474113 
1223	 0.113974599580969 
1224	 0.114275123865125 
1225	 0.114549784408881 
1226	 0.114833152595396 
1227	 0.115205643296809 
1228	 0.115493397336826 
1229	 0.115694658713612 
1230	 0.115955049990539 
1231	 0.116216873233928 
1232	 0.116494615578685 
1233	 0.116783129854518 
1234	 0.11708123347939 
1235	 0.117447475858702 
1236	 0.117733536540409 
1237	 0.117961808757884 
1238	 0.118226162692199 
1239	 0.11845337496723 
1240	 0.118690804341964 
1241	 0.118998129519007 
1242	 0.119277432710624 
1243	 0.119567307228043 
1244	 0.119849181653225 
1245	 0.120147547672959 
1246	 0.120466772333752 
1247	 0.120771754867446 
1248	 0.121093337468674 
1249	 0.121366969508005 
1250	 0.121594106263861 
1251	 0.121867607695677 
1252	 0.122136282793375 
1253	 0.122404217197798 
1254	 0.122696124805059 
1255	 0.122989626777967 
1256	 0.123261944445333 
1257	 0.123559045395015 
1258	 0.12393878232622 
1259	 0.124227478434546 
1260	 0.124437352389411 
1261	 0.124691704534051 
1262	 0.124915535851403 
1263	 0.125150598983701 
1264	 0.125404126731462 
1265	 0.125703875107723 
1266	 0.125976155953901 
1267	 0.126240796101294 
1268	 0.126499122265568 
1269	 0.126743514293514 
1270	 0.127030713129448 
1271	 0.127333490261609 
1272	 0.127618483029691 
1273	 0.127928206678397 
1274	 0.128233755248883 
1275	 0.128507358743865 
1276	 0.128803188894335 
1277	 0.129138906768475 
1278	 0.129448762221057 
1279	 0.129730657800111 
1280	 0.130038409803601 
1281	 0.130352927717646 
1282	 0.13067037130982 
1283	 0.131002019461396 
1284	 0.131333717599574 
1285	 0.131667648291227 
1286	 0.1319905487903 
1287	 0.132356199767117 
1288	 0.132758260757566 
1289	 0.133113746690217 
1290	 0.133480851657457 
1291	 0.133821913751973 
1292	 0.134114776938127 
1293	 0.134440514369859 
1294	 0.134776229186881 
1295	 0.135112543014921 
1296	 0.135426433619698 
1297	 0.135794554884359 
1298	 0.136208654001814 
1299	 0.136595160746967 
1300	 0.137005430029889 
1301	 0.13740262816791 
1302	 0.137765866923359 
1303	 0.138151711679741 
1304	 0.138601389327208 
1305	 0.138970720696153 
1306	 0.13923307546197 
1307	 0.13959455399595 
1308	 0.139963759817891 
1309	 0.140344761364552 
1310	 0.140749560640692 
1311	 0.14125338048974 
1312	 0.141661833515906 
1313	 0.142026384027962 
1314	 0.142387527334744 
1315	 0.142735153060382 
1316	 0.143081159952147 
1317	 0.143381373284079 
1318	 0.143738806171484 
1319	 0.144152105926688 
1320	 0.14449687693138 
1321	 0.144815707498175 
1322	 0.145163896569036 
1323	 0.145502797741136 
1324	 0.145817113363164 
1325	 0.14612276419071 
1326	 0.146465986254114 
1327	 0.146818984622808 
1328	 0.147133533034895 
1329	 0.147478598775356 
1330	 0.147795411837653 
1331	 0.148015024246622 
1332	 0.148296403448022 
1333	 0.148580657141728 
1334	 0.148960267880688 
1335	 0.1492545827254 
1336	 0.149544990147314 
1337	 0.149826267530343 
1338	 0.150068846562656 
1339	 0.150344349551645 
1340	 0.150653641149864 
1341	 0.150911079611071 
1342	 0.151119815933222 
1343	 0.151406820785227 
1344	 0.151715718640134 
1345	 0.152003873378231 
1346	 0.152353032298678 
1347	 0.152635116286359 
1348	 0.152822288580104 
1349	 0.153099221503059 
1350	 0.153452919845861 
1351	 0.15371500776595 
1352	 0.153953166244074 
1353	 0.154209745192442 
1354	 0.15438592983761 
1355	 0.154626510846941 
1356	 0.154983111741723 
1357	 0.155245311997567 
1358	 0.155422950748375 
1359	 0.155676434463223 
1360	 0.155960144998604 
1361	 0.156190278271217 
1362	 0.156484860441782 
1363	 0.156772974310239 
1364	 0.157040889229511 
1365	 0.157259413713357 
1366	 0.157517589724141 
1367	 0.157816612164304 
1368	 0.158051239938952 
1369	 0.158254469498517 
1370	 0.15846765073991 
1371	 0.158645484725904 
1372	 0.158858711014255 
1373	 0.159103665444221 
1374	 0.159316611692457 
1375	 0.159516907039246 
1376	 0.15973267216563 
1377	 0.15997211646434 
1378	 0.160154005019499 
1379	 0.16034146909849 
1380	 0.160479295515307 
1381	 0.160524480917482 
1382	 0.160619598676035 
1383	 0.16076862843028 
1384	 0.160825342276156 
1385	 0.160874007126093 
1386	 0.160857987018637 
1387	 0.160713192574373 
1388	 0.16061502876578 
1389	 0.160497121689888 
1390	 0.160396295934533 
1391	 0.160305959169359 
1392	 0.160221281762251 
1393	 0.160138828373927 
1394	 0.160133892756814 
1395	 0.160186998850683 
1396	 0.160302074976602 
1397	 0.160433038876117 
1398	 0.160643117410566 
1399	 0.160798619848251 
1400	 0.160973274757491 
1401	 0.161103439135807 
1402	 0.16122050572558 
1403	 0.161293901527028 
1404	 0.161321306566823 
1405	 0.16135417827244 
1406	 0.161356124281765 
1407	 0.161372302045709 
1408	 0.161381828009785 
1409	 0.16140357255591 
1410	 0.161417047507971 
1411	 0.161453602009004 
1412	 0.161498594348619 
1413	 0.161571973528771 
1414	 0.161664895873206 
1415	 0.161773579166143 
1416	 0.161895079770662 
1417	 0.162048288166621 
1418	 0.162206347059658 
1419	 0.162416856782378 
1420	 0.162688453606006 
1421	 0.16296356269253 
1422	 0.163306397578825 
1423	 0.163601077831711 
1424	 0.16387364746289 
1425	 0.164140637382616 
1426	 0.164413774805275 
1427	 0.164720035681379 
1428	 0.165064142197871 
1429	 0.165394335885972 
1430	 0.165695994082476 
1431	 0.165964717963611 
1432	 0.166272543434922 
1433	 0.166574578778365 
1434	 0.166893887914854 
1435	 0.167241515136113 
1436	 0.167580571360877 
1437	 0.167918123673911 
1438	 0.16825568027182 
1439	 0.168608778856971 
1440	 0.168943594496779 
1441	 0.169244146083014 
1442	 0.169598442493122 
1443	 0.169980621245512 
1444	 0.170345122880441 
1445	 0.170727136859953 
1446	 0.171113229836524 
1447	 0.171457252560584 
1448	 0.171875435777389 
1449	 0.172345615541186 
1450	 0.172823337084636 
1451	 0.173358631215898 
1452	 0.173858594482528 
1453	 0.17434597812624 
1454	 0.174849387551185 
1455	 0.175330734697604 
1456	 0.175852566153532 
1457	 0.176442120293902 
1458	 0.176980731995719 
1459	 0.177519383505211 
1460	 0.178042291625044 
1461	 0.178502331419949 
1462	 0.178999462966791 
1463	 0.179506254724123 
1464	 0.180029460386527 
1465	 0.180594275414461 
1466	 0.181153501673496 
1467	 0.181625993323119 
1468	 0.182103694128969 
1469	 0.182601138060434 
1470	 0.183064662430983 
1471	 0.183528616128643 
1472	 0.184018459006324 
1473	 0.184517130739805 
1474	 0.184970544199351 
1475	 0.185482595560224 
1476	 0.186084763650962 
1477	 0.186594079714926 
1478	 0.187071300333154 
1479	 0.187542075663262 
1480	 0.187979040484391 
1481	 0.188423747208278 
1482	 0.188866510376007 
1483	 0.189299650975644 
1484	 0.18971265625728 
1485	 0.190153337780593 
1486	 0.190597743196914 
1487	 0.19103857266574 
1488	 0.191503975475522 
1489	 0.191944513207306 
1490	 0.192368795121297 
1491	 0.192797180600213 
1492	 0.193191025108899 
1493	 0.193647048352762 
1494	 0.194131855773197 
1495	 0.194610390205595 
1496	 0.195151232808219 
1497	 0.195637835429493 
1498	 0.196085830511974 
1499	 0.196551300660152 
1500	 0.197000603470297 
1501	 0.197460847966615 
1502	 0.197930315538717 
1503	 0.198394769933885 
1504	 0.198864314709095 
1505	 0.199328122423587 
1506	 0.199802126510932 
1507	 0.200252152231659 
1508	 0.200695473740858 
1509	 0.201116081146605 
1510	 0.201496487383376 
1511	 0.201889492520103 
1512	 0.202241178268189 
1513	 0.202649047327401 
1514	 0.20313917076674 
1515	 0.203561359668529 
1516	 0.203976321730392 
1517	 0.204387461438452 
1518	 0.204755470107229 
1519	 0.205110325981319 
1520	 0.205465027504061 
1521	 0.205809061209661 
1522	 0.206172171677554 
1523	 0.206557796931945 
1524	 0.206901828642118 
1525	 0.207260965962783 
1526	 0.207633646812613 
1527	 0.207971603630715 
1528	 0.208322441933016 
1529	 0.208729904244295 
1530	 0.209070904261713 
1531	 0.209345087839587 
1532	 0.209678465457552 
1533	 0.210028957727033 
1534	 0.210377576019858 
1535	 0.210740110430478 
1536	 0.211089171889822 
1537	 0.211425963878538 
1538	 0.211793313371918 
1539	 0.212180403460968 
1540	 0.212538845937536 
1541	 0.212896471738812 
1542	 0.213269743687069 
1543	 0.213625128285949 
1544	 0.213998669043129 
1545	 0.214426583565804 
1546	 0.214782244491943 
1547	 0.215079545911292 
1548	 0.215432930722583 
1549	 0.215752066285784 
1550	 0.216157625217455 
1551	 0.216673234170534 
1552	 0.217082843023595 
1553	 0.217492277632393 
1554	 0.217874107795063 
1555	 0.218157453806198 
1556	 0.218535390203915 
1557	 0.218986764895898 
1558	 0.219367250080693 
1559	 0.219754574354002 
1560	 0.220111125156571 
1561	 0.22038822671535 
1562	 0.220734154207132 
1563	 0.221111468460796 
1564	 0.221478930159486 
1565	 0.221852652730799 
1566	 0.222249864516999 
1567	 0.222677605279491 
1568	 0.223063361165256 
1569	 0.223455073488278 
1570	 0.223834896560966 
1571	 0.224165202351417 
1572	 0.224523722774447 
1573	 0.224895995648642 
1574	 0.225278274135633 
1575	 0.225664857567225 
1576	 0.226057405283424 
1577	 0.226472928184712 
1578	 0.226877184893269 
1579	 0.227284820819567 
1580	 0.227673991998477 
1581	 0.228049969023515 
1582	 0.228432247976041 
1583	 0.228806097031392 
1584	 0.229177790420656 
1585	 0.229557430755528 
1586	 0.229925987094118 
1587	 0.230257467470451 
1588	 0.23063510867847 
1589	 0.231045267915383 
1590	 0.231438048562766 
1591	 0.231865878971457 
1592	 0.232256094791391 
1593	 0.232600079057284 
1594	 0.232972418681605 
1595	 0.233355149281877 
1596	 0.233717819346269 
1597	 0.23405886796069 
1598	 0.234437055882485 
1599	 0.234828269106134 
1600	 0.235213026407944 
1601	 0.23563658014813 
1602	 0.236031186793513 
1603	 0.236386806921641 
1604	 0.236759205195058 
1605	 0.237141672279707 
1606	 0.237518644157872 
1607	 0.237922710780339 
1608	 0.238273551399862 
1609	 0.238575705223328 
1610	 0.238899612738494 
1611	 0.239184395961194 
1612	 0.239498612510764 
1613	 0.239842353013074 
1614	 0.240191652964594 
1615	 0.240569401549926 
1616	 0.240914667301254 
1617	 0.241259790360033 
1618	 0.241591573666324 
1619	 0.241912498364029 
1620	 0.242199731002054 
1621	 0.242408823846003 
1622	 0.242710864482213 
1623	 0.243050901078755 
1624	 0.24337011715894 
1625	 0.243777565059937 
1626	 0.244122727248077 
1627	 0.244389894446371 
1628	 0.244673969430183 
1629	 0.244945808421229 
1630	 0.245230375896063 
1631	 0.245513957792075 
1632	 0.245800069836702 
1633	 0.246102650847472 
1634	 0.246400590001874 
1635	 0.246716958492679 
1636	 0.24699123408316 
1637	 0.247239004701617 
1638	 0.247480924394064 
1639	 0.247655732579495 
1640	 0.24790048274406 
1641	 0.248197300145545 
1642	 0.248478341524723 
1643	 0.248759321385187 
1644	 0.249083801536569 
1645	 0.24947263521236 
1646	 0.249767480484841 
1647	 0.250069271887434 
1648	 0.250325606465792 
1649	 0.250468035515993 
1650	 0.250656230367965 
1651	 0.250835827651481 
1652	 0.251063783500678 
1653	 0.251336259478382 
1654	 0.251553789788684 
1655	 0.251824829629619 
1656	 0.252011206927561 
1657	 0.252108151563207 
1658	 0.252205457932132 
1659	 0.252255844114224 
1660	 0.252327535710308 
1661	 0.252392904098129 
1662	 0.252446198586123 
1663	 0.252532100355527 
1664	 0.252546316102704 
1665	 0.25251282683636 
1666	 0.252458658627515 
1667	 0.25238075660952 
1668	 0.252245461060308 
1669	 0.252098807335462 
1670	 0.251865195435825 
1671	 0.251495133013631 
1672	 0.251193938015981 
1673	 0.250892732307008 
1674	 0.250538009514731 
1675	 0.250224846935695 
1676	 0.249826654799379 
1677	 0.249301958728017 
1678	 0.248833767859608 
1679	 0.248394487632798 
1680	 0.247862401516657 
1681	 0.247311359916293 
1682	 0.246698656503459 
1683	 0.246004570948418 
1684	 0.245307908519268 
1685	 0.244581338278483 
1686	 0.243828504451593 
1687	 0.243019330552076 
1688	 0.242205428548063 
1689	 0.241405629204964 
1690	 0.240524830623509 
1691	 0.239590360825767 
1692	 0.238679086796782 
1693	 0.237752709784239 
1694	 0.236741413261898 
1695	 0.235674848153369 
1696	 0.234646204895688 
1697	 0.233569735771205 
1698	 0.232459164628742 
1699	 0.23139434364199 
1700	 0.23030389547625 
1701	 0.229104905408041 
1702	 0.228023563996028 
1703	 0.22698500858841 
1704	 0.22596988738394 
1705	 0.224986132692341 
1706	 0.223934986834021 
1707	 0.223076993188611 
1708	 0.222287178477228 
1709	 0.221548503506891 
1710	 0.220932072733244 
1711	 0.220297433589188 
1712	 0.219778872290909 
1713	 0.219291015641268 
1714	 0.218811462007119 
1715	 0.218499320151358 
1716	 0.218068568486098 
1717	 0.217593167636177 
1718	 0.217291210586463 
1719	 0.216924343498032 
1720	 0.216608767704374 
1721	 0.216426152326167 
1722	 0.216186669857888 
1723	 0.216059139220321 
1724	 0.216045242614292 
1725	 0.216023345327941 
1726	 0.216148658483886 
1727	 0.216349567603472 
1728	 0.216584201512235 
1729	 0.216961858792912 
1730	 0.217377951536068 
1731	 0.217955176444009 
1732	 0.218747714843052 
1733	 0.219477496109912 
1734	 0.220319991960637 
1735	 0.221196983076873 
1736	 0.221854413789544 
1737	 0.222586719434281 
1738	 0.223041608429288 
1739	 0.22354150157491 
1740	 0.224035747731609 
1741	 0.224479716400326 
1742	 0.225033907025393 
1743	 0.225379578286169 
1744	 0.225582987092066 
1745	 0.225691841205587 
1746	 0.225541627647887 
1747	 0.225532342595091 
1748	 0.225501285546465 
1749	 0.225534013554485 
1750	 0.225664331126537 
1751	 0.225789064354778 
1752	 0.225881760986913 
1753	 0.226082762987313 
1754	 0.226354590399231 
1755	 0.226630554733037 
1756	 0.226936476456886 
1757	 0.22728184486002 
1758	 0.227724344179714 
1759	 0.22827710779282 
1760	 0.228952920071998 
1761	 0.229687429664348 
1762	 0.230415432732255 
1763	 0.231214832352755 
1764	 0.232095598033997 
1765	 0.233010403768881 
1766	 0.234046009341923 
1767	 0.235173437543544 
1768	 0.236329726948756 
1769	 0.237531031901529 
1770	 0.238707633482951 
1771	 0.239761094678696 
1772	 0.240628743548867 
1773	 0.241432700212331 
1774	 0.242295738297566 
1775	 0.243121222399516 
1776	 0.244011108374703 
1777	 0.24491853981861 
1778	 0.24561431011276 
1779	 0.246223222200629 
1780	 0.24676982633417 
1781	 0.247279030414422 
1782	 0.247849484426974 
1783	 0.248421004637084 
1784	 0.249041075442932 
1785	 0.249596641034437 
1786	 0.250039196055637 
1787	 0.250353323292509 
1788	 0.250743994797451 
1789	 0.251134188267779 
1790	 0.251512820009969 
1791	 0.251950609025327 
1792	 0.252315941507419 
1793	 0.252576645070683 
1794	 0.252829946155188 
1795	 0.253126343581885 
1796	 0.253492186503309 
1797	 0.253922219412218 
1798	 0.254318733004415 
1799	 0.254740650470941 
1800	 0.255093764467231 
1801	 0.256516057449111 
1802	 0.256790455093268 
1803	 0.257087772082571 
1804	 0.257377159408475 
1805	 0.257716220700103 
1806	 0.258033761077376 
1807	 0.258333934330689 
1808	 0.258693423833003 
1809	 0.259084206649846 
1810	 0.259458377575478 
1811	 0.259884462947108 
1812	 0.260272366970819 
1813	 0.260640828341399 
1814	 0.260999108663479 
1815	 0.261321780417591 
1816	 0.261690924533564 
1817	 0.262049318594014 
1818	 0.262359298755825 
1819	 0.262759097021923 
1820	 0.263260789674457 
1821	 0.263658277799308 
1822	 0.264022609761072 
1823	 0.264424016118059 
1824	 0.264796425432328 
1825	 0.265199994479787 
1826	 0.265601860205546 
1827	 0.266073467713085 
1828	 0.266457062411721 
1829	 0.266760676271081 
1830	 0.267130699661549 
1831	 0.267505084289775 
1832	 0.267890839583408 
1833	 0.268281733369421 
1834	 0.268708811097496 
1835	 0.269081349465822 
1836	 0.269389567124655 
1837	 0.269704467434318 
1838	 0.269954346367526 
1839	 0.270280040670324 
1840	 0.270643593318771 
1841	 0.270998086728828 
1842	 0.271384317566921 
1843	 0.271772306159373 
1844	 0.272154011731121 
1845	 0.272493728998541 
1846	 0.272880164000438 
1847	 0.273250839131298 
1848	 0.27354757574222 
1849	 0.273805703563604 
1850	 0.274033478641895 
1851	 0.274191771431994 
1852	 0.274335882284561 
1853	 0.274568852248546 
1854	 0.274752991774776 
1855	 0.274988029772836 
1856	 0.275271864918405 
1857	 0.275402930587005 
1858	 0.275451795368866 
1859	 0.275490612071035 
1860	 0.275416319736554 
1861	 0.275383215637614 
1862	 0.275337634914782 
1863	 0.275353704437226 
1864	 0.275331487720384 
1865	 0.275294626202453 
1866	 0.275202474185588 
1867	 0.274981116608502 
1868	 0.274751539221892 
1869	 0.274542387605995 
1870	 0.274248104461157 
1871	 0.273957474671646 
1872	 0.273579746629506 
1873	 0.273137157268736 
1874	 0.272571706031358 
1875	 0.271997218373388 
1876	 0.271371917483628 
1877	 0.270754906059431 
1878	 0.270021603907979 
1879	 0.269180159250116 
1880	 0.268354607551207 
1881	 0.267415633406389 
1882	 0.266363555040375 
1883	 0.265268480490613 
1884	 0.264089327599157 
1885	 0.262664480674613 
1886	 0.261157677162428 
1887	 0.259559463731121 
1888	 0.25782883463857 
1889	 0.256095608700143 
1890	 0.254158969715493 
1891	 0.25210516024982 
1892	 0.249998375567391 
1893	 0.247752020645914 
1894	 0.24533957067322 
1895	 0.242955371932031 
1896	 0.24046076035774 
1897	 0.237871403665353 
1898	 0.235470199407114 
1899	 0.232947894240669 
1900	 0.230485577576166 
1901	 0.228137134463496 
1902	 0.225655430390803 
1903	 0.223426469135686 
1904	 0.221273704102323 
1905	 0.219216442856972 
1906	 0.217170173538365 
1907	 0.215425332279666 
1908	 0.213780110632812 
1909	 0.212232749032557 
1910	 0.210929407931094 
1911	 0.209705471742848 
1912	 0.208575072895285 
1913	 0.207582477792623 
1914	 0.206701264154253 
1915	 0.205966447391866 
1916	 0.205372657671871 
1917	 0.204909063455246 
1918	 0.204539821427757 
1919	 0.204286001013637 
1920	 0.204081016659619 
1921	 0.203849097887351 
1922	 0.203673649553087 
1923	 0.203553819119875 
1924	 0.203520536669468 
1925	 0.20356804718876 
1926	 0.20362431492107 
1927	 0.203769093452433 
1928	 0.203868481443435 
1929	 0.203946317919474 
1930	 0.204041546392366 
1931	 0.204243304995211 
1932	 0.204500726279428 
1933	 0.204818665666436 
1934	 0.205154271561379 
1935	 0.205457077071805 
1936	 0.205724673301007 
1937	 0.206083947804134 
1938	 0.206529430439101 
1939	 0.206958964106524 
1940	 0.207427003577572 
1941	 0.207896491257139 
1942	 0.20830873797191 
1943	 0.208755003331107 
1944	 0.209249309991213 
1945	 0.20976868610133 
1946	 0.210380855164678 
1947	 0.21092463391919 
1948	 0.211504630437066 
1949	 0.212135814807931 
1950	 0.212733832795102 
1951	 0.213323162027636 
1952	 0.213958391638555 
1953	 0.214589679927384 
1954	 0.215236205166677 
1955	 0.215952768910735 
1956	 0.216691461031073 
1957	 0.217409871177047 
1958	 0.218116636860163 
1959	 0.218842059224055 
1960	 0.219541418881316 
1961	 0.220223251053903 
1962	 0.220881883087087 
1963	 0.2215694444694 
1964	 0.222240655456154 
1965	 0.222923133372842 
1966	 0.223649994752231 
1967	 0.224363419460511 
1968	 0.224963015323417 
1969	 0.225575416011469 
1970	 0.226143210385331 
1971	 0.226667111375917 
1972	 0.227228741033336 
1973	 0.22778994332271 
1974	 0.228372865455005 
1975	 0.228969189120742 
1976	 0.229557422435405 
1977	 0.230163099517671 
1978	 0.230775122651657 
1979	 0.231358781774753 
1980	 0.232002164887434 
1981	 0.232702944255727 
1982	 0.233343232957516 
1983	 0.233948036213189 
1984	 0.234499858765995 
1985	 0.235063578834838 
1986	 0.235652937317789 
1987	 0.236235583007858 
1988	 0.236844441558832 
1989	 0.237486122135131 
1990	 0.238102109649496 
1991	 0.238753711425584 
1992	 0.239487396670914 
1993	 0.240202060217602 
1994	 0.240781171454192 
1995	 0.241417719981373 
1996	 0.242003863383613 
1997	 0.242530208666289 
1998	 0.243189077704752 
1999	 0.243958393063694 
2000	 0.244625936954219 
2001	 0.245399340082637 
2002	 0.246004435239127 
2003	 0.246445289003797 
2004	 0.24695059501069 
2005	 0.247382379417283 
2006	 0.247840313218467 
2007	 0.248330033800815 
2008	 0.248828040819838 
2009	 0.249251979559856 
2010	 0.249729981208366 
2011	 0.250173737665875 
2012	 0.250575614038184 
2013	 0.250893903017758 
2014	 0.251130633766696 
2015	 0.251382328036026 
2016	 0.251549145656325 
2017	 0.251750658547792 
2018	 0.251993681054523 
2019	 0.252176137870254 
2020	 0.252297912677317 
2021	 0.252460725913858 
2022	 0.252606361050707 
2023	 0.252790058022183 
2024	 0.25291042695842 
2025	 0.252962217184305 
2026	 0.253002389671703 
2027	 0.252931682662215 
2028	 0.252960976037164 
2029	 0.253057556528276 
2030	 0.253078924200941 
2031	 0.253112982743571 
2032	 0.253106706614783 
2033	 0.253041137766799 
2034	 0.252965266889577 
2035	 0.252889707075573 
2036	 0.25276922293709 
2037	 0.252564532445803 
2038	 0.252408520117171 
2039	 0.252287718366173 
2040	 0.252152001007189 
2041	 0.252072033858438 
2042	 0.252107879402712 
2043	 0.252033694375903 
2044	 0.251920303722981 
2045	 0.251822682559253 
2046	 0.251641541897068 
2047	 0.25155525842707 
2048	 0.251559220350527 
2049	 0.251524124562973 
2050	 0.25152549516073 
2051	 0.251497532693533 
2052	 0.25142248598431 
2053	 0.251366236505763 
2054	 0.25132202205861 
2055	 0.251297764791813 
2056	 0.251247683849424 
2057	 0.251196908614139 
2058	 0.251139471953988 
2059	 0.251074522653889 
2060	 0.251001469148981 
2061	 0.25089098681671 
2062	 0.250828266182254 
2063	 0.250783043667428 
2064	 0.250735026978088 
2065	 0.250691632497102 
2066	 0.250717386149996 
2067	 0.250694414747201 
2068	 0.250666535077586 
2069	 0.250634325241704 
2070	 0.250604022462832 
2071	 0.250579205993714 
2072	 0.250554354030393 
2073	 0.250506824641456 
2074	 0.250436271015533 
2075	 0.250401016077293 
2076	 0.250407673922163 
2077	 0.250337686300903 
2078	 0.250263815425996 
2079	 0.250170009750778 
2080	 0.249976982040719 
2081	 0.249826843041784 
2082	 0.249679277892135 
2083	 0.2495798795233 
2084	 0.249514764211161 
2085	 0.249405349500343 
2086	 0.249287155939278 
2087	 0.249172475152711 
2088	 0.249055746703095 
2089	 0.248898725295149 
2090	 0.248783885835992 
2091	 0.248736451374399 
2092	 0.248616581181486 
2093	 0.248478876166234 
2094	 0.248305748588296 
2095	 0.248059977596475 
2096	 0.247839457222875 
2097	 0.247583325104597 
2098	 0.247376852175388 
2099	 0.247158037771265 
2100	 0.247080805446861 
2101	 0.246948348270702 
2102	 0.246887883186118 
2103	 0.246699131796121 
2104	 0.24644035436135 
2105	 0.246204353884831 
2106	 0.245905686878525 
2107	 0.245652497809724 
2108	 0.2454462157027 
2109	 0.245202312385921 
2110	 0.244968296550749 
2111	 0.244672636209046 
2112	 0.244341042554413 
2113	 0.243989394853809 
2114	 0.24354974681507 
2115	 0.243167217478038 
2116	 0.24278181763426 
2117	 0.242440802858694 
2118	 0.242090838282524 
2119	 0.241770093768543 
2120	 0.241423218691809 
2121	 0.241020176760488 
2122	 0.240738912721509 
2123	 0.240520290346359 
2124	 0.240290479010243 
2125	 0.240155589219306 
2126	 0.23994553050775 
2127	 0.239672371750945 
2128	 0.239439430418523 
2129	 0.239199242641065 
2130	 0.238991511395587 
2131	 0.238812380105207 
2132	 0.238641930348757 
2133	 0.238503753828718 
2134	 0.238350189996415 
2135	 0.238185313512401 
2136	 0.238012273672882 
2137	 0.237948877906711 
2138	 0.23794598072347 
2139	 0.237917122446753 
2140	 0.23797610207674 
2141	 0.237964867504546 
2142	 0.23786472870325 
2143	 0.237860803658404 
2144	 0.237885466902169 
2145	 0.237945271767719 
2146	 0.238061875355858 
2147	 0.238172810966337 
2148	 0.238317741315652 
2149	 0.238463574325778 
2150	 0.238626002655446 
2151	 0.238763894566177 
2152	 0.238908310356191 
2153	 0.239018912778079 
2154	 0.239122264765348 
2155	 0.239331900038055 
2156	 0.239508799880531 
2157	 0.239703708079283 
2158	 0.239941903777031 
2159	 0.240211664589077 
2160	 0.240435748299474 
2161	 0.240741566237111 
2162	 0.240891595606296 
2163	 0.240939524912966 
2164	 0.240999707923919 
2165	 0.240947227119224 
2166	 0.240987419173212 
2167	 0.2410835629454 
2168	 0.241111819364678 
2169	 0.241128907843738 
2170	 0.241167920501453 
2171	 0.241188674368448 
2172	 0.241194819636526 
2173	 0.241219402257 
2174	 0.241224914509768 
2175	 0.241224162035464 
2176	 0.24127028456944 
2177	 0.241347452551778 
2178	 0.241528953428862 
2179	 0.241573883109849 
2180	 0.241590512206713 
2181	 0.241572400224134 
2182	 0.241452793783558 
2183	 0.2414166405018 
2184	 0.241417980840993 
2185	 0.241370933580908 
2186	 0.241335700254914 
2187	 0.241271498531773 
2188	 0.24116347011912 
2189	 0.241062052962582 
2190	 0.240957144819884 
2191	 0.240837057364734 
2192	 0.240725498554437 
2193	 0.240557193647453 
2194	 0.240355978413709 
2195	 0.240142431913055 
2196	 0.239904035510204 
2197	 0.239610149078317 
2198	 0.239312625648573 
2199	 0.238997500202057 
2200	 0.238727749661538 
2201	 0.238481070102062 
2202	 0.238174174212689 
2203	 0.237921139625836 
2204	 0.237541252192844 
2205	 0.237009726314497 
2206	 0.236569569358882 
2207	 0.236059100313134 
2208	 0.235704361570731 
2209	 0.235490838679681 
2210	 0.235196148364439 
2211	 0.234954791603545 
2212	 0.234664289567259 
2213	 0.234354250593043 
2214	 0.233973052407425 
2215	 0.233604077071077 
2216	 0.23313276125909 
2217	 0.232418181912879 
2218	 0.231908137849198 
2219	 0.231521774141102 
2220	 0.23104532305943 
2221	 0.230640713843499 
2222	 0.230188850082735 
2223	 0.229651856411501 
2224	 0.229006681052664 
2225	 0.228439175137653 
2226	 0.227808399835364 
2227	 0.227062289708508 
2228	 0.226223056197266 
2229	 0.225344309480591 
2230	 0.224354167121472 
2231	 0.223366976152508 
2232	 0.22239646181823 
2233	 0.221255980721115 
2234	 0.220033051235931 
2235	 0.218734095991297 
2236	 0.217272435280251 
2237	 0.215810603332761 
2238	 0.214309269923319 
2239	 0.212742041919206 
2240	 0.211122023938411 
2241	 0.20943688143028 
2242	 0.207771591413773 
2243	 0.205906648952034 
2244	 0.203867510048716 
2245	 0.201797494579148 
2246	 0.199420506875173 
2247	 0.19724772991849 
2248	 0.1951602564286 
2249	 0.193084396511166 
2250	 0.191031212172966 
2251	 0.189195454975304 
2252	 0.187176455469205 
2253	 0.185081180130564 
2254	 0.182959248281227 
2255	 0.180802423215521 
2256	 0.178913450172457 
2257	 0.177114354310916 
2258	 0.175343165949263 
2259	 0.173798619365744 
2260	 0.172051744411306 
2261	 0.170176710700848 
2262	 0.168458644972593 
2263	 0.166726005248893 
2264	 0.165137392378153 
2265	 0.163705244620505 
2266	 0.162225298790626 
2267	 0.160831142200328 
2268	 0.159358821913857 
2269	 0.157805048572965 
2270	 0.15638615558122 
2271	 0.155032932119427 
2272	 0.15366538901129 
2273	 0.152391913433903 
2274	 0.151048795473054 
2275	 0.149657817838682 
2276	 0.148255506457585 
2277	 0.14685593462562 
2278	 0.145440958395725 
2279	 0.143975089957725 
2280	 0.142520329277071 
2281	 0.141077880820566 
2282	 0.139620558328253 
2283	 0.138283054882368 
2284	 0.13665911403416 
2285	 0.134931342461701 
2286	 0.133270240709311 
2287	 0.131365973080644 
2288	 0.129614638919402 
2289	 0.128205829311052 
2290	 0.126604635464647 
2291	 0.124915676667878 
2292	 0.12325902196808 
2293	 0.121526345701227 
2294	 0.120008723820436 
2295	 0.118694798231149 
2296	 0.117520616872596 
2297	 0.116399961933704 
2298	 0.115251891457818 
2299	 0.114418083791803 
2300	 0.113788405139103 
2301	 0.113352182602837 
2302	 0.113220139908285 
2303	 0.113076803070226 
2304	 0.11296795146205 
2305	 0.11316863420726 
2306	 0.113626087280114 
2307	 0.114109736761706 
2308	 0.114809750512145 
2309	 0.115602133106922 
2310	 0.116389040704132 
2311	 0.117336563973053 
2312	 0.118646359942251 
2313	 0.119777157987439 
2314	 0.120889378250087 
2315	 0.122042617169437 
2316	 0.123197338869925 
2317	 0.124305240370475 
2318	 0.125518603285731 
2319	 0.126496735837932 
2320	 0.127356444476388 
2321	 0.128097334100299 
2322	 0.128713400364108 
2323	 0.129210293398894 
2324	 0.129530609930378 
2325	 0.129875690063616 
2326	 0.130111537722265 
2327	 0.130246953673234 
2328	 0.130439801144333 
2329	 0.130370580820813 
2330	 0.130048712701978 
2331	 0.129709444471404 
2332	 0.129277214882023 
2333	 0.128803169730632 
2334	 0.128096905156093 
2335	 0.127351791151848 
2336	 0.126529940341068 
2337	 0.125520860333889 
2338	 0.124734287532815 
2339	 0.124001739608523 
2340	 0.123134752977938 
2341	 0.122305107831146 
2342	 0.121332343764778 
2343	 0.120458861600669 
2344	 0.119827825578542 
2345	 0.119388789178339 
2346	 0.119488636408846 
2347	 0.119724464538864 
2348	 0.11990303693641 
2349	 0.120383039483559 
2350	 0.120892190819897 
2351	 0.121445851142923 
2352	 0.122208043514354 
2353	 0.122971700272491 
2354	 0.123629327633358 
2355	 0.124382601709377 
2356	 0.125188175604169 
2357	 0.125999543010005 
2358	 0.126560794183218 
2359	 0.126909089889437 
2360	 0.12725750539494 
2361	 0.127397823975625 
2362	 0.127704160607125 
2363	 0.128048605806904 
2364	 0.128290329088802 
2365	 0.128393233773948 
2366	 0.128255439513577 
2367	 0.128142713213663 
2368	 0.127929807308512 
2369	 0.127877214301387 
2370	 0.128010390657627 
2371	 0.127976918416789 
2372	 0.12796716981792 
2373	 0.127885150927526 
2374	 0.127809549374469 
2375	 0.127899503161715 
2376	 0.127848348538916 
2377	 0.127927290995323 
2378	 0.128226438141185 
2379	 0.128270596907903 
2380	 0.128202318789663 
2381	 0.128224774040217 
2382	 0.128285539342406 
2383	 0.128165996037265 
2384	 0.128279718040484 
2385	 0.128802975984004 
2386	 0.12883796637575 
2387	 0.128545756728692 
2388	 0.128581423897569 
2389	 0.128563815517061 
2390	 0.128562832935511 
2391	 0.128780056751317 
2392	 0.128842530765421 
2393	 0.128701620690061 
2394	 0.128794387578793 
2395	 0.129156883134425 
2396	 0.129288687959776 
2397	 0.129234152973333 
2398	 0.12935639017412 
2399	 0.129538772443269 
2400	 0.129560408716199 
2401	 0.129745390973092 
2402	 0.129379189079452 
2403	 0.129015454089101 
2404	 0.128728581519022 
2405	 0.128692379752367 
2406	 0.129431737062572 
2407	 0.130026141564066 
2408	 0.130373757341251 
2409	 0.130759192169191 
2410	 0.130641833807502 
2411	 0.130437371550141 
2412	 0.130638662241891 
2413	 0.130615867034274 
2414	 0.130385638113568 
2415	 0.130340762577647 
2416	 0.1300278899247 
2417	 0.129734475309799 
2418	 0.129799749147562 
2419	 0.129853659809452 
2420	 0.129912897068655 
2421	 0.13012191630312 
2422	 0.130333018245168 
2423	 0.130492246424623 
2424	 0.130760286483632 
2425	 0.130639221939443 
2426	 0.13015984025587 
2427	 0.129694848475338 
2428	 0.12965537934885 
2429	 0.13003804628009 
2430	 0.130136252927634 
2431	 0.130303006669133 
2432	 0.130024181750844 
2433	 0.129109609824648 
2434	 0.128481256823949 
2435	 0.128042568887263 
2436	 0.127943798876422 
2437	 0.128229755696245 
2438	 0.128166567043706 
2439	 0.127809234459825 
2440	 0.127668587591381 
2441	 0.12734069381116 
2442	 0.127406883404426 
2443	 0.128160342421896 
2444	 0.128491112719889 
2445	 0.128461370043992 
2446	 0.127801796587241 
2447	 0.126513217245051 
2448	 0.12567830921371 
2449	 0.125558896040324 
2450	 0.125803152619583 
2451	 0.126248121075624 
2452	 0.126268123016198 
2453	 0.12521713647187 
2454	 0.124276784469295 
2455	 0.124094746679338 
2456	 0.124064744172536 
2457	 0.123701294671371 
2458	 0.123247774120112 
2459	 0.122920947367183 
2460	 0.122173598903552 
2461	 0.121501935089836 
2462	 0.120964920670471 
2463	 0.120143942281767 
2464	 0.119686681360343 
2465	 0.119688863368737 
2466	 0.11927999548318 
2467	 0.119117776280254 
2468	 0.119267335355405 
2469	 0.119388473669409 
2470	 0.120743727124487 
2471	 0.121486177632234 
2472	 0.121268621017924 
2473	 0.121463242559088 
2474	 0.12112191611615 
2475	 0.121323170539169 
2476	 0.121756999385063 
2477	 0.121460453410175 
2478	 0.120769802866404 
2479	 0.120187658000569 
2480	 0.120225577558531 
2481	 0.119964605427629 
2482	 0.119794238696231 
2483	 0.119150969856502 
2484	 0.119149405395286 
2485	 0.119270052693691 
2486	 0.120117338177472 
2487	 0.120534161051446 
2488	 0.119902964646945 
2489	 0.119627324769657 
2490	 0.118813485287953 
2491	 0.11897322147729 
2492	 0.120447782352429 
2493	 0.120873174497114 
2494	 0.121418868475043 
2495	 0.121568529972872 
2496	 0.120466882885755 
2497	 0.119780791495498 
2498	 0.119999791827823 
2499	 0.121085168772972 
2500	 0.122725381720976 
