Wavelength	Tablay400117.asd
350	 7.95903776773987E-02 
351	 8.49446272804855E-02 
352	 4.20886869479034E-02 
353	-5.97137451022637E-02 
354	-7.17851090083804E-02 
355	 5.69963605579267E-02 
356	 0.119188430446388 
357	-1.82920062011963E-03 
358	 4.23534947218549E-02 
359	 0.070101984640478 
360	 7.87043073367135E-02 
361	 0.134948376665627 
362	 0.102301027418652 
363	 8.39377855580024E-02 
364	 0.104540248993017 
365	 4.36814593943276E-02 
366	 1.60219226838234E-02 
367	 2.86819787388569E-02 
368	 5.91011944448326E-02 
369	 0.112877185844196 
370	 0.110332591883306 
371	 6.87266765294612E-02 
372	 5.97912381916246E-02 
373	 0.100372222616134 
374	 0.123539932321689 
375	 8.84284153164566E-02 
376	 1.48398127834843E-02 
377	 4.92661033492035E-02 
378	 0.108392210573656 
379	 9.39886655635691E-02 
380	 6.11859457756691E-02 
381	 4.49329851400719E-02 
382	 5.70756607911768E-02 
383	 0.084077599397479 
384	 6.72359233885772E-02 
385	 7.97066174938763E-02 
386	 0.129736789504703 
387	 0.115653450958749 
388	 7.39065759814383E-02 
389	 6.18055391061822E-02 
390	 0.103864938003896 
391	 9.16807471248763E-02 
392	 5.59499151995825E-02 
393	 2.47267682382947E-02 
394	 1.84975466124814E-02 
395	 3.89916911427009E-02 
396	 5.84455547835647E-02 
397	 0.058063207019807 
398	 3.21518165801809E-02 
399	 4.21883658091294E-02 
400	 7.24534171775758E-02 
401	 8.70322446180869E-02 
402	 6.18154000558715E-02 
403	 4.23418859209784E-02 
404	 4.99433670705863E-02 
405	 8.04137416073672E-02 
406	 7.76064111893684E-02 
407	 6.52969529855792E-02 
408	 0.063566022320526 
409	 6.51212304544191E-02 
410	 5.71536527604183E-02 
411	 4.89819395796535E-02 
412	 5.39186749493255E-02 
413	 6.72439789864858E-02 
414	 6.20454133705234E-02 
415	 4.98135139736928E-02 
416	 7.19486572202178E-02 
417	 6.29012177636059E-02 
418	 5.29451624158594E-02 
419	 6.33600215309737E-02 
420	 5.77786436149986E-02 
421	 5.16079532891104E-02 
422	 5.08129037922014E-02 
423	 0.055444169234811 
424	 4.93866869708241E-02 
425	 0.053452469655521 
426	 6.48718033357639E-02 
427	 5.35567308791692E-02 
428	 5.12764710229358E-02 
429	 0.05226925165889 
430	 0.048978489364051 
431	 5.36262867603374E-02 
432	 5.52570939622373E-02 
433	 5.44221936197634E-02 
434	 5.68224990277748E-02 
435	 5.42990153616512E-02 
436	 5.26829550596746E-02 
437	 5.36514256955841E-02 
438	 5.05096524825241E-02 
439	 4.65188403300335E-02 
440	 4.71500063082263E-02 
441	 5.44435557961889E-02 
442	 0.0555387879218 
443	 5.39376767153769E-02 
444	 5.13060438863896E-02 
445	 4.79649210408695E-02 
446	 5.14737099180831E-02 
447	 5.23462577594781E-02 
448	 4.70036834294391E-02 
449	 5.02467193154951E-02 
450	 4.94156955162853E-02 
451	 4.75955509472471E-02 
452	 5.13545095266487E-02 
453	 5.24024050702067E-02 
454	 4.99611902812521E-02 
455	 4.67121733542836E-02 
456	 4.81982045517376E-02 
457	 4.88939835598518E-02 
458	 0.048769998375902 
459	 4.87815573008028E-02 
460	 4.91281556906423E-02 
461	 4.99133000016073E-02 
462	 4.96356756061376E-02 
463	 4.68819376965496E-02 
464	 4.87842095752822E-02 
465	 4.78897775717657E-02 
466	 4.34523424949544E-02 
467	 4.70092095514201E-02 
468	 4.84319815217094E-02 
469	 4.76834499925569E-02 
470	 4.75830181892253E-02 
471	 5.07608182074091E-02 
472	 5.06427759759004E-02 
473	 4.74918618012816E-02 
474	 4.67909722178379E-02 
475	 4.69027454848654E-02 
476	 0.048044152358005 
477	 4.94021157649737E-02 
478	 0.047239308464177 
479	 4.59957538111153E-02 
480	 4.65501854487682E-02 
481	 0.047798778412423 
482	 4.57623424585912E-02 
483	 4.50618353474743E-02 
484	 4.68849828309049E-02 
485	 4.80188032428299E-02 
486	 4.58754173515656E-02 
487	 4.42487873960556E-02 
488	 4.59380103802801E-02 
489	 4.63175000635278E-02 
490	 4.70935326249329E-02 
491	 4.74418000134931E-02 
492	 4.56277040592516E-02 
493	 4.51388735815693E-02 
494	 4.57342181308766E-02 
495	 4.63169768850279E-02 
496	 4.50306015270555E-02 
497	 4.60426244128131E-02 
498	 4.72392131795062E-02 
499	 4.58152021428576E-02 
500	 4.46385079455234E-02 
501	 4.47508040738864E-02 
502	 0.045465123652399 
503	 4.48286957919091E-02 
504	 4.42506003352788E-02 
505	 4.34694968973597E-02 
506	 4.27947572172628E-02 
507	 4.49036653868771E-02 
508	 4.49506785313737E-02 
509	 4.40806354413614E-02 
510	 4.53404768255708E-02 
511	 4.53486620266116E-02 
512	 4.45409795086684E-02 
513	 4.36925666154503E-02 
514	 4.35637172378944E-02 
515	 4.34100229938999E-02 
516	 4.35950990140422E-02 
517	 4.42052292463893E-02 
518	 4.33887828593076E-02 
519	 4.28813131435362E-02 
520	 4.30463115176214E-02 
521	 4.32302031675438E-02 
522	 4.28649492086712E-02 
523	 4.29192789369103E-02 
524	 4.37287882924026E-02 
525	 4.41104932110777E-02 
526	 4.35444481041812E-02 
527	 4.29476699754586E-02 
528	 4.33408853148047E-02 
529	 4.31192218085313E-02 
530	 4.27183797414576E-02 
531	 4.25957488102444E-02 
532	 0.04307135414822 
533	 4.32970850130491E-02 
534	 4.31683320710893E-02 
535	 4.28334068610532E-02 
536	 4.25478272346458E-02 
537	 4.27814119589104E-02 
538	 4.31565681804047E-02 
539	 4.29365773250607E-02 
540	 4.27344223422476E-02 
541	 4.24738857652787E-02 
542	 4.21919547034861E-02 
543	 4.22245435992358E-02 
544	 0.042434463703587 
545	 4.24480499423183E-02 
546	 4.20613010148234E-02 
547	 4.21281635845239E-02 
548	 0.042201565553499 
549	 4.20801904229494E-02 
550	 4.18476802600829E-02 
551	 4.20545391656326E-02 
552	 4.20787182703422E-02 
553	 4.15614992799514E-02 
554	 0.041276350635637 
555	 4.14859297146272E-02 
556	 0.041927230791038 
557	 4.20602959930096E-02 
558	 4.15683607737478E-02 
559	 4.14018797381251E-02 
560	 4.17668075780153E-02 
561	 4.16968634689457E-02 
562	 4.14420948799339E-02 
563	 4.13601347772226E-02 
564	 4.16070773291143E-02 
565	 4.14130538682583E-02 
566	 4.13804604298454E-02 
567	 4.15331365511658E-02 
568	 4.14829823693583E-02 
569	 4.16047825636293E-02 
570	 4.14803383482207E-02 
571	 0.041039529093019 
572	 4.12174043171528E-02 
573	 4.10424477289062E-02 
574	 4.08381092106816E-02 
575	 4.11933688592535E-02 
576	 4.12322012368657E-02 
577	 4.12356718684424E-02 
578	 4.12859280025036E-02 
579	 4.11647941214366E-02 
580	 0.041113933485584 
581	 4.11078308312291E-02 
582	 4.10833075270948E-02 
583	 0.041036169779465 
584	 4.12279974218392E-02 
585	 4.14276743401465E-02 
586	 4.12038915992657E-02 
587	 4.11936985065926E-02 
588	 4.10620459013101E-02 
589	 4.07144191849405E-02 
590	 4.06157841835953E-02 
591	 4.07441319647325E-02 
592	 4.09061671304998E-02 
593	 4.09092332897024E-02 
594	 0.04084895860462 
595	 4.08968646234415E-02 
596	 4.09926338368713E-02 
597	 4.08889841763297E-02 
598	 4.06868258928155E-02 
599	 0.040665981238006 
600	 4.08877082252855E-02 
601	 4.08447181368007E-02 
602	 4.06213601269016E-02 
603	 4.04659566567264E-02 
604	 4.05962683072834E-02 
605	 4.03917420467016E-02 
606	 4.03194516550909E-02 
607	 4.05440580442577E-02 
608	 4.07528848585536E-02 
609	 4.06497430977184E-02 
610	 4.05074735194612E-02 
611	 4.05704904893486E-02 
612	 4.04623807541899E-02 
613	 4.02879854560662E-02 
614	 4.02243652559572E-02 
615	 0.040421286446799 
616	 4.02657205041758E-02 
617	 4.01317234789298E-02 
618	 4.02255730275637E-02 
619	 4.02235412728657E-02 
620	 4.03083612296671E-02 
621	 0.04037049864894 
622	 4.02765824209888E-02 
623	 0.040226044609096 
624	 4.01977168673078E-02 
625	 4.01987394370085E-02 
626	 4.02545833901931E-02 
627	 4.00429772200071E-02 
628	 3.98787207605599E-02 
629	 3.99915060674745E-02 
630	 4.01337335025441E-02 
631	 4.00735915725502E-02 
632	 3.99802412041075E-02 
633	 4.01168959943505E-02 
634	 3.99493543442166E-02 
635	 3.98743683580032E-02 
636	 3.99826426278332E-02 
637	 3.98990355306941E-02 
638	 3.97491378196036E-02 
639	 3.97133077901134E-02 
640	 0.039861938641247 
641	 3.98807505340057E-02 
642	 3.97666583323424E-02 
643	 3.96497630252829E-02 
644	 3.97142608472608E-02 
645	 0.039821071597771 
646	 0.039777658000113 
647	 3.95891573142795E-02 
648	 3.95853790008955E-02 
649	 3.95620920552726E-02 
650	 3.95757303626946E-02 
651	 3.96912831903131E-02 
652	 3.96959118343297E-02 
653	 3.96552773965904E-02 
654	 3.96292487839453E-02 
655	 3.96517579420433E-02 
656	 0.039534357529993 
657	 3.95213530102094E-02 
658	 3.96874707391068E-02 
659	 0.039621142388153 
660	 3.93936743103005E-02 
661	 3.92399972923106E-02 
662	 3.93582716255338E-02 
663	 3.93305304091623E-02 
664	 3.93612646509083E-02 
665	 3.94616131515306E-02 
666	 3.94215753592268E-02 
667	 0.039266949321638 
668	 0.039294214891046 
669	 3.95555535752699E-02 
670	 3.93272839225069E-02 
671	 3.92116216317462E-02 
672	 3.92589840653401E-02 
673	 3.92752631777454E-02 
674	 3.92442453234238E-02 
675	 3.92103535804391E-02 
676	 3.92055738605914E-02 
677	 3.92363287188111E-02 
678	 3.91542084444499E-02 
679	 3.90669451899909E-02 
680	 3.90711860675323E-02 
681	 3.90306230537865E-02 
682	 0.039065354346064 
683	 3.91354871919395E-02 
684	 0.039128081249523 
685	 3.91004320298084E-02 
686	 3.91300205327697E-02 
687	 3.91533523162363E-02 
688	 3.89088524241424E-02 
689	 3.88526674804131E-02 
690	 3.89500718530563E-02 
691	 0.039037654488436 
692	 3.90157082380209E-02 
693	 3.89232762071705E-02 
694	 3.88507690106716E-02 
695	 3.88970158168519E-02 
696	 3.89393559806293E-02 
697	 3.89644358883889E-02 
698	 3.89367865393541E-02 
699	 3.87536372519436E-02 
700	 3.88435520282052E-02 
701	 3.89821728491858E-02 
702	 3.88908483156947E-02 
703	 3.88459899166668E-02 
704	 0.038855875252167 
705	 3.88630428429579E-02 
706	 3.87918741255117E-02 
707	 3.88750728991209E-02 
708	 3.88981686087658E-02 
709	 3.87808157363743E-02 
710	 3.87594114620406E-02 
711	 3.87033364305886E-02 
712	 3.87152766784232E-02 
713	 0.038856428181648 
714	 3.87578417702809E-02 
715	 0.038751028035377 
716	 3.88115422623766E-02 
717	 3.86907193522966E-02 
718	 3.87489245867566E-02 
719	 3.88401734623297E-02 
720	 3.88434943993584E-02 
721	 3.87921417035957E-02 
722	 3.88279114739897E-02 
723	 3.88499555116136E-02 
724	 3.87645853383064E-02 
725	 3.88217056926378E-02 
726	 3.88871561813882E-02 
727	 3.88891893045513E-02 
728	 3.88238794450565E-02 
729	 3.88327358489013E-02 
730	 3.88014702508197E-02 
731	 3.87118762991994E-02 
732	 3.87597343648497E-02 
733	 3.87420855678971E-02 
734	 3.87218642309679E-02 
735	 3.87824292297431E-02 
736	 3.87828970054827E-02 
737	 3.88061862220397E-02 
738	 3.88571343862335E-02 
739	 3.88864804298672E-02 
740	 0.038871504042932 
741	 3.88867306925848E-02 
742	 3.89390543122979E-02 
743	 3.89194772421526E-02 
744	 3.88914153297119E-02 
745	 3.88795957933993E-02 
746	 3.88830256166046E-02 
747	 3.88392912680422E-02 
748	 3.88843876347995E-02 
749	 3.89376739966917E-02 
750	 3.88453167857866E-02 
751	 3.89505441134606E-02 
752	 3.89651789319617E-02 
753	 3.88567195413234E-02 
754	 3.89902817541854E-02 
755	 3.89822263426632E-02 
756	 3.89648465305916E-02 
757	 3.90534089168946E-02 
758	 3.89612713702043E-02 
759	 3.88650691381801E-02 
760	 3.88547382902003E-02 
761	 3.89557760768428E-02 
762	 3.90966796100976E-02 
763	 3.90807289154669E-02 
764	 3.89375205825274E-02 
765	 0.038933253722905 
766	 3.90304376775654E-02 
767	 3.90995268568805E-02 
768	 3.90735938561137E-02 
769	 3.90766250573867E-02 
770	 3.90409276099808E-02 
771	 0.039051461145874 
772	 3.91793980196672E-02 
773	 3.91757229025736E-02 
774	 3.91030759963078E-02 
775	 0.039061920412253 
776	 3.91452646693813E-02 
777	 3.91328006260139E-02 
778	 3.91267196530733E-02 
779	 3.91644450650718E-02 
780	 3.90927124579471E-02 
781	 3.90861409137698E-02 
782	 3.91102021232702E-02 
783	 3.91007247858908E-02 
784	 0.039118033872055 
785	 3.90817029693673E-02 
786	 3.90442942264312E-02 
787	 3.91061954540634E-02 
788	 0.039109156907497 
789	 3.91609888072098E-02 
790	 3.92343185616536E-02 
791	 3.91293457550726E-02 
792	 3.90574991871348E-02 
793	 3.90736661732397E-02 
794	 3.91591262382829E-02 
795	 3.92236027250149E-02 
796	 3.91290365623347E-02 
797	 3.90235678422594E-02 
798	 3.90958046093473E-02 
799	 3.91508835189539E-02 
800	 3.91500751547338E-02 
801	 3.91334146670354E-02 
802	 3.91825803134608E-02 
803	 3.91807651706441E-02 
804	 3.91725585915772E-02 
805	 3.91840095120761E-02 
806	 3.91812115381854E-02 
807	 3.92702204998697E-02 
808	 3.92929340025941E-02 
809	 3.91545352670245E-02 
810	 3.91404563140714E-02 
811	 3.90901649192921E-02 
812	 3.90367544270206E-02 
813	 3.90669772737324E-02 
814	 3.90644073834876E-02 
815	 3.90655712154474E-02 
816	 3.90836736449131E-02 
817	 3.91087721817593E-02 
818	 3.92221083403245E-02 
819	 3.92606476335097E-02 
820	 3.91927012983256E-02 
821	 3.92539931780722E-02 
822	 3.93096314564463E-02 
823	 3.93023823034649E-02 
824	 3.92401140085975E-02 
825	 3.92622434679863E-02 
826	 3.93044952689203E-02 
827	 3.93138161240825E-02 
828	 3.92728108268406E-02 
829	 3.93255838188029E-02 
830	 3.94014794577513E-02 
831	 3.94435817521057E-02 
832	 3.94230048139441E-02 
833	 0.039316620592968 
834	 3.92722069621192E-02 
835	 3.93384211432311E-02 
836	 3.93777351805167E-02 
837	 3.94661106317897E-02 
838	 3.94726286745301E-02 
839	 3.93466487485543E-02 
840	 3.93778314400121E-02 
841	 3.95438563630458E-02 
842	 0.039636009006136 
843	 3.94874998263464E-02 
844	 3.95433255383626E-02 
845	 3.95604625148385E-02 
846	 3.95429587915937E-02 
847	 3.96649714319602E-02 
848	 0.039762475593328 
849	 3.96861005606183E-02 
850	 3.95097433034021E-02 
851	 3.95580988753351E-02 
852	 3.96480452214637E-02 
853	 3.96637243514536E-02 
854	 3.95925926718624E-02 
855	 3.96069142253909E-02 
856	 0.039661622569038 
857	 3.97203186047162E-02 
858	 3.97389192793331E-02 
859	 3.96401104310746E-02 
860	 0.039636079769121 
861	 3.97205843762684E-02 
862	 3.97748791682211E-02 
863	 3.97862304538925E-02 
864	 3.98314077927296E-02 
865	 0.039891504192717 
866	 0.039873834044778 
867	 3.98730884539981E-02 
868	 3.98391915371995E-02 
869	 3.97917528886538E-02 
870	 3.98602505669082E-02 
871	 3.98290397401121E-02 
872	 3.98500018128053E-02 
873	 4.00021183394314E-02 
874	 4.00387110686769E-02 
875	 3.99365104799552E-02 
876	 3.98736961258638E-02 
877	 3.99643448893642E-02 
878	 3.98415204005437E-02 
879	 3.98123215744205E-02 
880	 3.98584469710078E-02 
881	 3.98285275159039E-02 
882	 3.97804445735633E-02 
883	 0.039935789291291 
884	 4.01513837548264E-02 
885	 4.00784176487117E-02 
886	 4.01669308731621E-02 
887	 4.01827420095163E-02 
888	 4.00690774131958E-02 
889	 4.00502529196022E-02 
890	 4.01231324283968E-02 
891	 4.02177990067444E-02 
892	 4.02390278103655E-02 
893	 4.00830601243565E-02 
894	 4.01040220245363E-02 
895	 4.01534227942818E-02 
896	 4.00889118801862E-02 
897	 4.01299121357055E-02 
898	 0.040232349172018 
899	 4.02656724030745E-02 
900	 4.01590403699323E-02 
901	 0.040186333362731 
902	 4.01610374445304E-02 
903	 4.01160414804195E-02 
904	 4.01746228801265E-02 
905	 0.040302488944669 
906	 4.04435868364451E-02 
907	 4.04028136587845E-02 
908	 4.00230286994829E-02 
909	 4.00806092989613E-02 
910	 4.02729406200758E-02 
911	 4.03782368482469E-02 
912	 4.03900743629953E-02 
913	 4.04040559313147E-02 
914	 4.03945800049212E-02 
915	 4.03696840339886E-02 
916	 4.03994395490838E-02 
917	 4.03248228380305E-02 
918	 4.03066004852448E-02 
919	 4.04368560633457E-02 
920	 0.040567926804335 
921	 4.05126796596293E-02 
922	 4.03749550695299E-02 
923	 4.03350742225498E-02 
924	 0.040539218633833 
925	 4.07969950503997E-02 
926	 4.08429463592942E-02 
927	 4.05810532759154E-02 
928	 4.04811924759291E-02 
929	 4.06384081811406E-02 
930	 4.07923028237796E-02 
931	 4.06644371518032E-02 
932	 4.06009052044409E-02 
933	 4.07122043462885E-02 
934	 0.04076163352501 
935	 4.04898039781407E-02 
936	 4.05563479162565E-02 
937	 4.06562815915692E-02 
938	 4.06397226394503E-02 
939	 0.040563474701231 
940	 4.08039327242052E-02 
941	 4.10161954804534E-02 
942	 4.10121410235529E-02 
943	 4.08351392661576E-02 
944	 4.06538454743001E-02 
945	 0.040836787315115 
946	 4.11747503239887E-02 
947	 4.09732854334079E-02 
948	 0.0411892989095 
949	 4.13100147355609E-02 
950	 4.11916613922214E-02 
951	 4.13608868340997E-02 
952	 4.11974121935927E-02 
953	 4.09692994576925E-02 
954	 4.10087013238434E-02 
955	 4.14460214095864E-02 
956	 4.12269669802588E-02 
957	 4.09021249245389E-02 
958	 4.09320928609457E-02 
959	 4.10078032255108E-02 
960	 0.04124939471999 
961	 0.041409835623035 
962	 4.13185720078639E-02 
963	 4.11110289340961E-02 
964	 4.10299421325999E-02 
965	 4.10419805717372E-02 
966	 4.10734271433198E-02 
967	 4.11605539023315E-02 
968	 4.11607129799322E-02 
969	 4.10929834907602E-02 
970	 4.10958263883501E-02 
971	 0.04147824531222 
972	 4.16150378546114E-02 
973	 0.041393476188129 
974	 4.11282979459494E-02 
975	 4.18373328377512E-02 
976	 4.15647699583275E-02 
977	 4.12261026041217E-02 
978	 4.17953116724161E-02 
979	 4.14392101559128E-02 
980	 4.14565384141577E-02 
981	 4.16168456713631E-02 
982	 4.14795666842745E-02 
983	 4.16629781010868E-02 
984	 4.13772779397471E-02 
985	 4.12339994708149E-02 
986	 4.18361899117197E-02 
987	 4.21558376391351E-02 
988	 4.18071808749121E-02 
989	 4.15885279817549E-02 
990	 4.21078104513337E-02 
991	 4.17719927351278E-02 
992	 4.16732896032222E-02 
993	 4.17036936921753E-02 
994	 4.15073047080806E-02 
995	 4.13976943574318E-02 
996	 4.17828012196469E-02 
997	 0.042175871089173 
998	 4.19937012807074E-02 
999	 4.14649936973102E-02 
1000	 4.11757182684927E-02 
1001	 4.28434490824243E-02 
1002	 4.27414962234015E-02 
1003	 4.25744505565895E-02 
1004	 4.26202064122698E-02 
1005	 4.26885988899635E-02 
1006	 4.27852731003442E-02 
1007	 4.31303514307616E-02 
1008	 4.32145328399921E-02 
1009	 0.043050830158159 
1010	 4.30540601195851E-02 
1011	 4.31614811366693E-02 
1012	 4.31883273256608E-02 
1013	 4.31973693173334E-02 
1014	 4.32060380953039E-02 
1015	 0.04331072489437 
1016	 0.043047907616036 
1017	 4.26726787266236E-02 
1018	 4.28800137963474E-02 
1019	 4.29685326671234E-02 
1020	 4.29278320821501E-02 
1021	 4.29817545589274E-02 
1022	 4.31225776287479E-02 
1023	 4.32355504396573E-02 
1024	 4.33453837237315E-02 
1025	 4.34455727292514E-02 
1026	 4.37053224432804E-02 
1027	 4.37076044368829E-02 
1028	 4.34888992996987E-02 
1029	 4.33949636177458E-02 
1030	 4.33737103085677E-02 
1031	 0.043220570094096 
1032	 4.31224630773756E-02 
1033	 4.30922460260934E-02 
1034	 4.30490678224214E-02 
1035	 4.31227668987829E-02 
1036	 4.31437434836137E-02 
1037	 4.32932342376143E-02 
1038	 4.32774966955966E-02 
1039	 4.30633770354035E-02 
1040	 4.30339836182917E-02 
1041	 4.31426995929238E-02 
1042	 4.31870048700006E-02 
1043	 4.32379393399745E-02 
1044	 4.32885924092536E-02 
1045	 4.34109691165749E-02 
1046	 4.33068395516341E-02 
1047	 4.32941199688049E-02 
1048	 0.043232386346235 
1049	 4.30843078577807E-02 
1050	 4.30928371069782E-02 
1051	 4.30799066188821E-02 
1052	 4.31233885850654E-02 
1053	 0.043234303760614 
1054	 4.34799916399945E-02 
1055	 4.35560797056973E-02 
1056	 4.36240700795862E-02 
1057	 0.04358850493042 
1058	 0.043410996730683 
1059	 4.32009126129699E-02 
1060	 4.31259215808353E-02 
1061	 0.04322752904545 
1062	 4.32976038161912E-02 
1063	 0.043385949366579 
1064	 4.33881540438943E-02 
1065	 4.33893236171442E-02 
1066	 4.33578465349628E-02 
1067	 4.32940536688457E-02 
1068	 4.33430027219645E-02 
1069	 4.32789039933189E-02 
1070	 4.32812980609802E-02 
1071	 4.33446792029685E-02 
1072	 4.34873728384441E-02 
1073	 4.35107824935973E-02 
1074	 0.043564007009832 
1075	 4.37343072543358E-02 
1076	 4.38153938400009E-02 
1077	 4.37442681678807E-02 
1078	 0.043788110150435 
1079	 4.37807699441167E-02 
1080	 4.37057653084009E-02 
1081	 4.37995930589082E-02 
1082	 4.38650716952452E-02 
1083	 0.043842150901292 
1084	 4.39277510147007E-02 
1085	 4.39945610382106E-02 
1086	 4.39971923400613E-02 
1087	 4.39693583088187E-02 
1088	 4.40558274019523E-02 
1089	 4.40284942540966E-02 
1090	 4.38841591958695E-02 
1091	 4.38555159859574E-02 
1092	 4.38798108192271E-02 
1093	 4.39817947413197E-02 
1094	 4.41474585706777E-02 
1095	 4.42375575993044E-02 
1096	 4.42583859949637E-02 
1097	 4.41866029334352E-02 
1098	 4.41375669609837E-02 
1099	 4.41913827308736E-02 
1100	 4.42593588561712E-02 
1101	 4.42843340943109E-02 
1102	 4.42349157113876E-02 
1103	 4.42099516027687E-02 
1104	 4.41528990657896E-02 
1105	 0.044100857901225 
1106	 4.41465989235115E-02 
1107	 4.42491615117388E-02 
1108	 4.41700293461534E-02 
1109	 4.40712821713512E-02 
1110	 4.41101370117028E-02 
1111	 4.41278580285075E-02 
1112	 4.42078932562828E-02 
1113	 4.43887094444236E-02 
1114	 4.43637457352863E-02 
1115	 4.42711562134349E-02 
1116	 4.42920491164897E-02 
1117	 4.43303824434688E-02 
1118	 4.43347639490283E-02 
1119	 4.43480841986761E-02 
1120	 4.43401454121428E-02 
1121	 0.044317505493664 
1122	 0.044243727746833 
1123	 4.41739231423614E-02 
1124	 4.41689720958465E-02 
1125	 4.40905493691668E-02 
1126	 4.40314642203306E-02 
1127	 0.043999170885931 
1128	 4.39582783609283E-02 
1129	 4.39754923533707E-02 
1130	 4.39722709827693E-02 
1131	 4.39172548696086E-02 
1132	 4.38946557054081E-02 
1133	 4.38567391942545E-02 
1134	 4.38157206493371E-02 
1135	 4.37944970646325E-02 
1136	 4.37908575237432E-02 
1137	 0.043814099836596 
1138	 4.38734740941417E-02 
1139	 4.39034064944109E-02 
1140	 4.39664770944193E-02 
1141	 0.043975446522869 
1142	 4.39669538315752E-02 
1143	 0.043984786294698 
1144	 4.40234451547322E-02 
1145	 4.40686137890628E-02 
1146	 4.39964803417572E-02 
1147	 4.38703578924975E-02 
1148	 0.043813828601699 
1149	 4.38252762489092E-02 
1150	 4.38921480831582E-02 
1151	 4.40524055256928E-02 
1152	 4.41004149566034E-02 
1153	 4.40413443680173E-02 
1154	 4.40277942065055E-02 
1155	 4.40085632193778E-02 
1156	 0.043971942977751 
1157	 4.39449985423783E-02 
1158	 4.39276645097822E-02 
1159	 4.39117262613798E-02 
1160	 4.38450648665661E-02 
1161	 4.38109823794042E-02 
1162	 4.38279611992557E-02 
1163	 4.38398332193184E-02 
1164	 0.043850181820411 
1165	 0.043900994285965 
1166	 4.39304111752444E-02 
1167	 4.38433774309728E-02 
1168	 4.38056171009681E-02 
1169	 4.37911503200159E-02 
1170	 4.37251069739194E-02 
1171	 4.37367534618348E-02 
1172	 4.38476169707525E-02 
1173	 4.39055777118159E-02 
1174	 4.40176848853554E-02 
1175	 4.40381091935245E-02 
1176	 4.39676680886956E-02 
1177	 4.39602774794334E-02 
1178	 4.39442680831659E-02 
1179	 4.38855481515794E-02 
1180	 4.39330524201978E-02 
1181	 4.39960825897334E-02 
1182	 4.39803960857174E-02 
1183	 0.043966533539333 
1184	 4.39303196471938E-02 
1185	 4.38928789463105E-02 
1186	 4.38943200832711E-02 
1187	 0.043945093039055 
1188	 4.39525629684661E-02 
1189	 4.39556646222575E-02 
1190	 4.39693851050657E-02 
1191	 4.39511738766342E-02 
1192	 4.39642424720943E-02 
1193	 4.40397238262662E-02 
1194	 4.40502728274254E-02 
1195	 4.39995947791508E-02 
1196	 4.40168897514591E-02 
1197	 4.40678161698294E-02 
1198	 4.40673950310722E-02 
1199	 0.044084707485204 
1200	 4.41321445481216E-02 
1201	 4.40881532975232E-02 
1202	 4.41083994395975E-02 
1203	 4.42172599139263E-02 
1204	 4.42525471902624E-02 
1205	 4.42467222775208E-02 
1206	 4.42008987179822E-02 
1207	 4.41843094730919E-02 
1208	 4.41174585675295E-02 
1209	 4.40869256298491E-02 
1210	 4.40820612524433E-02 
1211	 4.40857603649454E-02 
1212	 4.40846164509938E-02 
1213	 4.41040337806642E-02 
1214	 4.41870693616301E-02 
1215	 4.42311506265596E-02 
1216	 4.42553732572389E-02 
1217	 4.42682877058619E-02 
1218	 4.42769373030956E-02 
1219	 0.044265615831715 
1220	 4.41952133037043E-02 
1221	 4.41482521058023E-02 
1222	 4.41624328493527E-02 
1223	 4.41828729263788E-02 
1224	 4.41897257758905E-02 
1225	 4.42337582561648E-02 
1226	 4.42648394991857E-02 
1227	 4.42634673295985E-02 
1228	 4.42734075026866E-02 
1229	 4.43401289535303E-02 
1230	 4.43414591289891E-02 
1231	 0.04427129840012 
1232	 4.42507079154525E-02 
1233	 0.044206211908292 
1234	 4.42106519951384E-02 
1235	 0.044302318948748 
1236	 4.43223829845486E-02 
1237	 4.43244598209193E-02 
1238	 4.43255788551255E-02 
1239	 0.044289421355386 
1240	 4.42438146633352E-02 
1241	 4.42208477375806E-02 
1242	 4.42202944819381E-02 
1243	 4.42709888791949E-02 
1244	 4.43823222734815E-02 
1245	 4.44117880439572E-02 
1246	 0.044457861004022 
1247	 4.44793479475373E-02 
1248	 4.44185313821554E-02 
1249	 4.44146145886549E-02 
1250	 4.44639128113467E-02 
1251	 0.044471151409496 
1252	 4.44550575662831E-02 
1253	 4.44544739455936E-02 
1254	 4.44558722382029E-02 
1255	 4.44472040606323E-02 
1256	 4.44477944356218E-02 
1257	 4.44247177567265E-02 
1258	 4.43818136933121E-02 
1259	 4.43381552366491E-02 
1260	 4.42535938515594E-02 
1261	 4.42134017054983E-02 
1262	 4.42209225264888E-02 
1263	 4.41726648724548E-02 
1264	 4.41704035406484E-02 
1265	 4.42147046519407E-02 
1266	 4.42153555829309E-02 
1267	 0.044202903197907 
1268	 4.41952531078937E-02 
1269	 4.41601799021011E-02 
1270	 4.41706840346917E-02 
1271	 4.42311334233858E-02 
1272	 4.42261673877821E-02 
1273	 4.42072719196923E-02 
1274	 4.42001205330551E-02 
1275	 4.41369415219276E-02 
1276	 4.41223135773866E-02 
1277	 4.41525686749041E-02 
1278	 4.41776092868567E-02 
1279	 4.42144603296786E-02 
1280	 4.42451928471441E-02 
1281	 4.42636391512387E-02 
1282	 4.43151743880004E-02 
1283	 4.44204955872337E-02 
1284	 4.44663328300101E-02 
1285	 4.44959345426342E-02 
1286	 4.45355204382355E-02 
1287	 4.45476638626383E-02 
1288	 4.44955733449213E-02 
1289	 0.044493982018732 
1290	 4.45134402058101E-02 
1291	 4.45358178149196E-02 
1292	 4.45647373165587E-02 
1293	 4.45851871649359E-02 
1294	 4.46299197004939E-02 
1295	 4.46370363245426E-02 
1296	 4.45757231837163E-02 
1297	 0.044606532904349 
1298	 4.46793046313213E-02 
1299	 4.47324374961776E-02 
1300	 4.48685129512917E-02 
1301	 4.49181650355583E-02 
1302	 4.48839564373647E-02 
1303	 4.48869903943394E-02 
1304	 4.48604364536419E-02 
1305	 4.48648961153684E-02 
1306	 0.044905037262583 
1307	 4.49350291976879E-02 
1308	 4.50004611681755E-02 
1309	 4.50130731079356E-02 
1310	 4.50351009672911E-02 
1311	 4.50501810986673E-02 
1312	 4.50565289450448E-02 
1313	 4.50339145261363E-02 
1314	 4.50606931754105E-02 
1315	 0.045127033406277 
1316	 4.51258646482822E-02 
1317	 4.51039887514006E-02 
1318	 4.51165378199917E-02 
1319	 4.51005181004467E-02 
1320	 4.50980715276602E-02 
1321	 4.51241768423498E-02 
1322	 4.51665011898267E-02 
1323	 4.52206690459614E-02 
1324	 4.52405321614987E-02 
1325	 4.53145403976553E-02 
1326	 4.53111192955252E-02 
1327	 4.51789859595364E-02 
1328	 0.04513731176455 
1329	 4.51190227437629E-02 
1330	 4.51006106225598E-02 
1331	 4.51417914146572E-02 
1332	 4.51464378541707E-02 
1333	 4.51182423211751E-02 
1334	 4.51001676967114E-02 
1335	 4.50690883055205E-02 
1336	 4.50271965685951E-02 
1337	 4.49938771039834E-02 
1338	 4.49389462207458E-02 
1339	 4.49381578839348E-02 
1340	 0.044980894924776 
1341	 4.49743309952066E-02 
1342	 4.49820881922301E-02 
1343	 0.044964622477863 
1344	 4.49063943807995E-02 
1345	 4.48600406047378E-02 
1346	 4.48102386165343E-02 
1347	 4.47774395318357E-02 
1348	 4.47247225290835E-02 
1349	 4.47094429230454E-02 
1350	 4.47576266418873E-02 
1351	 4.47476065680521E-02 
1352	 4.47069810585886E-02 
1353	 4.46954569143509E-02 
1354	 4.46743567356759E-02 
1355	 4.46544399699542E-02 
1356	 4.46737681161304E-02 
1357	 4.46619310846067E-02 
1358	 4.45663424666235E-02 
1359	 4.45571850624138E-02 
1360	 4.45805534196296E-02 
1361	 4.46537087567113E-02 
1362	 4.46891587607224E-02 
1363	 4.47269985547124E-02 
1364	 4.47009467551959E-02 
1365	 4.45850302232863E-02 
1366	 4.45312649714072E-02 
1367	 4.44810698193128E-02 
1368	 4.44404193380759E-02 
1369	 4.43980800331745E-02 
1370	 4.43860045284151E-02 
1371	 4.44079150272942E-02 
1372	 4.43901884590978E-02 
1373	 4.43848874717552E-02 
1374	 4.43577621221887E-02 
1375	 4.42813616321947E-02 
1376	 4.42438526415716E-02 
1377	 4.42318719982903E-02 
1378	 4.41934593542563E-02 
1379	 4.41379116159313E-02 
1380	 4.41126146663415E-02 
1381	 0.044086528432868 
1382	 4.40694422197692E-02 
1383	 4.41125064035142E-02 
1384	 4.40930253498975E-02 
1385	 4.40049493060681E-02 
1386	 4.39700032066422E-02 
1387	 4.39446620688991E-02 
1388	 4.39123068632532E-02 
1389	 4.39276701431521E-02 
1390	 4.39113686569251E-02 
1391	 4.38843715313626E-02 
1392	 4.37872809841139E-02 
1393	 4.37610754201776E-02 
1394	 4.37516083196793E-02 
1395	 4.37044901696672E-02 
1396	 0.043652469170692 
1397	 0.043618392432356 
1398	 0.043555541786227 
1399	 4.35353550263549E-02 
1400	 4.35657913353523E-02 
1401	 4.35649240631449E-02 
1402	 4.35578048956569E-02 
1403	 4.35449613560392E-02 
1404	 0.043542197674629 
1405	 4.35099396428393E-02 
1406	 4.34644808310921E-02 
1407	 4.34002397123576E-02 
1408	 4.32618681507841E-02 
1409	 4.32300762562418E-02 
1410	 4.32484774615916E-02 
1411	 4.32491852288421E-02 
1412	 4.33060722648417E-02 
1413	 4.33397935235092E-02 
1414	 4.33535069623357E-02 
1415	 4.33576503217059E-02 
1416	 4.33826081464553E-02 
1417	 4.33838255589405E-02 
1418	 4.33166450780298E-02 
1419	 4.33072164260602E-02 
1420	 0.043337385694429 
1421	 4.33478564774221E-02 
1422	 4.33983896269165E-02 
1423	 4.34072344983462E-02 
1424	 4.33752633968667E-02 
1425	 4.33411756439085E-02 
1426	 4.33033650957036E-02 
1427	 4.32841021586281E-02 
1428	 4.32957359633214E-02 
1429	 4.33022718889429E-02 
1430	 4.33092220360096E-02 
1431	 4.33224318321101E-02 
1432	 4.33379291594598E-02 
1433	 0.04333862335355 
1434	 4.33790747779236E-02 
1435	 4.34654061462346E-02 
1436	 4.34808522352206E-02 
1437	 4.34921854081643E-02 
1438	 4.34902569742461E-02 
1439	 4.34224931831194E-02 
1440	 4.34089582252229E-02 
1441	 4.34300011486123E-02 
1442	 4.34317657171146E-02 
1443	 4.34279419466508E-02 
1444	 4.34401891528994E-02 
1445	 4.34722863620017E-02 
1446	 4.34709425277574E-02 
1447	 4.34399014725712E-02 
1448	 4.34564286591128E-02 
1449	 4.34880416321722E-02 
1450	 4.35017294107796E-02 
1451	 4.35457345896587E-02 
1452	 0.043576700995909 
1453	 4.35829973467337E-02 
1454	 4.35777218742996E-02 
1455	 4.35742306113111E-02 
1456	 4.35763855622152E-02 
1457	 4.35366260946254E-02 
1458	 4.35344483920375E-02 
1459	 0.043579298427336 
1460	 4.36023567779529E-02 
1461	 4.36380921060197E-02 
1462	 0.043659620749746 
1463	 0.043658230499039 
1464	 4.36652013298568E-02 
1465	 4.36699412947177E-02 
1466	 4.36625902110171E-02 
1467	 4.37002470770642E-02 
1468	 4.37511902653893E-02 
1469	 4.37380784611127E-02 
1470	 4.37218217037056E-02 
1471	 4.37084224022301E-02 
1472	 4.36439915254473E-02 
1473	 4.36493720194474E-02 
1474	 4.37057006228308E-02 
1475	 4.37262055512272E-02 
1476	 4.37574961396095E-02 
1477	 4.37571229803811E-02 
1478	 4.37353914541965E-02 
1479	 4.37280257456516E-02 
1480	 4.37037676500862E-02 
1481	 4.37018555449837E-02 
1482	 4.37176264077483E-02 
1483	 0.043721957261904 
1484	 4.37291789361055E-02 
1485	 4.37351755385184E-02 
1486	 4.37324133345973E-02 
1487	 4.37446788822752E-02 
1488	 4.37691215128302E-02 
1489	 4.37832050207435E-02 
1490	 0.04380862177159 
1491	 4.38135823143293E-02 
1492	 4.38036787910298E-02 
1493	 4.37926428221723E-02 
1494	 0.043768445669796 
1495	 4.37493952712937E-02 
1496	 4.37221841758062E-02 
1497	 0.043709140936017 
1498	 4.36831217050489E-02 
1499	 4.36988427596413E-02 
1500	 4.37645209788361E-02 
1501	 4.37957959174849E-02 
1502	 4.38384188466719E-02 
1503	 4.38732547525352E-02 
1504	 4.38800375037931E-02 
1505	 4.38951021541872E-02 
1506	 4.39372164555324E-02 
1507	 4.39473840090329E-02 
1508	 4.39234832921045E-02 
1509	 4.39161603483478E-02 
1510	 4.38863967604168E-02 
1511	 4.38871500138156E-02 
1512	 4.39367289785616E-02 
1513	 4.39483150697762E-02 
1514	 4.39411336089989E-02 
1515	 4.39482433765557E-02 
1516	 0.04393331960125 
1517	 4.39354053910727E-02 
1518	 4.39786368737415E-02 
1519	 4.40015998009516E-02 
1520	 4.40405400529623E-02 
1521	 4.40324547385761E-02 
1522	 4.39853613012308E-02 
1523	 4.39196995997207E-02 
1524	 4.39177028796232E-02 
1525	 4.39082069708001E-02 
1526	 4.39304691916528E-02 
1527	 4.40315196740533E-02 
1528	 4.40474452717596E-02 
1529	 0.044019576023378 
1530	 4.40255869577881E-02 
1531	 4.40266436726111E-02 
1532	 0.044023485957222 
1533	 4.40413228342043E-02 
1534	 4.40158538548322E-02 
1535	 0.043934520766318 
1536	 4.39442920314343E-02 
1537	 0.043978431109206 
1538	 4.40030067557695E-02 
1539	 4.40979243582916E-02 
1540	 4.41087069632708E-02 
1541	 4.40462396667531E-02 
1542	 4.40501103160714E-02 
1543	 4.40590493944005E-02 
1544	 4.40742135061097E-02 
1545	 0.044138483398348 
1546	 4.41388138868997E-02 
1547	 4.41015190076918E-02 
1548	 0.044080037053763 
1549	 4.40190274306859E-02 
1550	 4.40149036386833E-02 
1551	 4.40626574389468E-02 
1552	 4.40583030259896E-02 
1553	 4.40575623972552E-02 
1554	 4.40440380326421E-02 
1555	 4.39653871596787E-02 
1556	 4.39671450172922E-02 
1557	 4.40333934492967E-02 
1558	 4.40466588305029E-02 
1559	 4.40621947657737E-02 
1560	 4.40850568233204E-02 
1561	 4.40757112796992E-02 
1562	 4.40933781183322E-02 
1563	 4.41838720302072E-02 
1564	 4.41791990784189E-02 
1565	 4.40868902907939E-02 
1566	 0.044078299477425 
1567	 4.40760275754281E-02 
1568	 4.40603949373053E-02 
1569	 4.40770491486098E-02 
1570	 4.41052682413615E-02 
1571	 4.41252147690459E-02 
1572	 4.41260616275872E-02 
1573	 4.41705922522228E-02 
1574	 4.41691330287307E-02 
1575	 4.40672314226746E-02 
1576	 4.40537883802032E-02 
1577	 4.41046350935798E-02 
1578	 4.41115929438999E-02 
1579	 0.044147245475574 
1580	 4.41418682296632E-02 
1581	 4.40609120750056E-02 
1582	 4.40405796149609E-02 
1583	 4.40316000188329E-02 
1584	 4.40399840632798E-02 
1585	 4.40867911255251E-02 
1586	 4.41283269532531E-02 
1587	 4.42157359247057E-02 
1588	 4.42270277480089E-02 
1589	 4.41818345390778E-02 
1590	 4.41736891965081E-02 
1591	 4.41251419767857E-02 
1592	 4.41044150072922E-02 
1593	 4.41607999370393E-02 
1594	 4.41486268380456E-02 
1595	 4.40370122764721E-02 
1596	 4.40327114093216E-02 
1597	 4.40836782105043E-02 
1598	 4.41045833087836E-02 
1599	 4.42037885647496E-02 
1600	 4.42371806949002E-02 
1601	 4.41863186705607E-02 
1602	 4.41700597798513E-02 
1603	 4.41586997119484E-02 
1604	 4.41434335780013E-02 
1605	 4.41109291464969E-02 
1606	 4.41106725215522E-02 
1607	 4.41451498415703E-02 
1608	 0.044153166756467 
1609	 4.41762316339994E-02 
1610	 4.41794961263643E-02 
1611	 4.41263157459462E-02 
1612	 4.41171204198073E-02 
1613	 4.41425319441769E-02 
1614	 4.41505422660077E-02 
1615	 4.41753475511087E-02 
1616	 4.41867259098892E-02 
1617	 4.41590054916422E-02 
1618	 4.41697524071297E-02 
1619	 0.044238094185215 
1620	 0.044234082025117 
1621	 4.42004903924924E-02 
1622	 4.41769200841066E-02 
1623	 4.40759663883733E-02 
1624	 4.40439540267797E-02 
1625	 4.40713387048057E-02 
1626	 0.044091970857471 
1627	 4.41704988232803E-02 
1628	 4.41849681056419E-02 
1629	 4.41498092677858E-02 
1630	 4.41448507450136E-02 
1631	 4.41104948962357E-02 
1632	 4.40956134929295E-02 
1633	 4.41426081097508E-02 
1634	 4.41396102587321E-02 
1635	 4.40805667590569E-02 
1636	 4.40661514895404E-02 
1637	 4.40611937092366E-02 
1638	 4.40466258799289E-02 
1639	 0.044044131473814 
1640	 4.40515937002696E-02 
1641	 4.40423373941528E-02 
1642	 4.40596587150295E-02 
1643	 4.41530916896441E-02 
1644	 4.41736185122838E-02 
1645	 4.41300552774044E-02 
1646	 4.41308151756303E-02 
1647	 4.41216783078965E-02 
1648	 4.41125771479237E-02 
1649	 4.41515513803249E-02 
1650	 4.41533562404945E-02 
1651	 4.41043563593332E-02 
1652	 4.40778873461113E-02 
1653	 4.40421365833147E-02 
1654	 4.40425567743923E-02 
1655	 4.41052815732821E-02 
1656	 4.40917002918786E-02 
1657	 4.40211356524608E-02 
1658	 4.40210315411647E-02 
1659	 4.40106353390126E-02 
1660	 4.40120623542575E-02 
1661	 4.41115542751092E-02 
1662	 4.41258365163986E-02 
1663	 4.40556738352786E-02 
1664	 4.40386249889465E-02 
1665	 4.40010327310305E-02 
1666	 0.044019929372071 
1667	 0.044123723975313 
1668	 4.41366838250364E-02 
1669	 4.41277244606249E-02 
1670	 4.41291649998682E-02 
1671	 4.40664899082016E-02 
1672	 4.40621993394591E-02 
1673	 4.41437657348849E-02 
1674	 4.41484708342047E-02 
1675	 4.41061972273346E-02 
1676	 4.40898467672114E-02 
1677	 4.40395133870107E-02 
1678	 4.40152929591278E-02 
1679	 4.40301786660833E-02 
1680	 4.40308469041575E-02 
1681	 4.40308566365276E-02 
1682	 4.40251761157058E-02 
1683	 4.40162168325748E-02 
1684	 4.40174735558965E-02 
1685	 4.40321154052105E-02 
1686	 4.40121708888285E-02 
1687	 4.39593686667066E-02 
1688	 4.39580438723345E-02 
1689	 4.39592168705791E-02 
1690	 4.39590687809638E-02 
1691	 4.39933261227275E-02 
1692	 4.40198972128916E-02 
1693	 4.40485675593777E-02 
1694	 4.40363908988675E-02 
1695	 4.40165005928823E-02 
1696	 4.40149569294849E-02 
1697	 4.39697468258929E-02 
1698	 4.39436831503239E-02 
1699	 4.39775230628734E-02 
1700	 4.39622566098415E-02 
1701	 4.38802741334049E-02 
1702	 4.38693626933961E-02 
1703	 4.39095834094194E-02 
1704	 4.39016575669614E-02 
1705	 4.38927604745812E-02 
1706	 4.38791861018637E-02 
1707	 4.37889713711629E-02 
1708	 4.37768912368354E-02 
1709	 4.38927016785833E-02 
1710	 4.39390858267775E-02 
1711	 4.39537728838279E-02 
1712	 4.39469244269452E-02 
1713	 0.043911295565016 
1714	 4.39129636368206E-02 
1715	 4.39012269560208E-02 
1716	 4.38785539683538E-02 
1717	 4.38528824456656E-02 
1718	 4.38149362696969E-02 
1719	 4.38815389030863E-02 
1720	 4.40025243398996E-02 
1721	 4.40133546704149E-02 
1722	 4.40253721341205E-02 
1723	 4.40369047272464E-02 
1724	 4.39754643610454E-02 
1725	 4.39258995657474E-02 
1726	 4.39051850437444E-02 
1727	 0.043879692419644 
1728	 4.38809499731922E-02 
1729	 4.39316959619121E-02 
1730	 4.39456975664489E-02 
1731	 4.39503377469673E-02 
1732	 4.38974968227543E-02 
1733	 4.37847660890928E-02 
1734	 4.37820836328874E-02 
1735	 4.37384114734768E-02 
1736	 4.37096442176229E-02 
1737	 4.37940336022026E-02 
1738	 4.37349263752071E-02 
1739	 4.37219780095568E-02 
1740	 4.36795421775306E-02 
1741	 4.36795148028976E-02 
1742	 4.37440895650599E-02 
1743	 4.37629623245386E-02 
1744	 4.38223876524144E-02 
1745	 0.04382344016335 
1746	 4.37620035974316E-02 
1747	 4.37310674854313E-02 
1748	 4.36663652694959E-02 
1749	 4.36243473867503E-02 
1750	 4.36041186317601E-02 
1751	 4.36073514960367E-02 
1752	 4.36286024190313E-02 
1753	 4.36420987413957E-02 
1754	 4.36649416512699E-02 
1755	 4.36591795387047E-02 
1756	 4.36257646616977E-02 
1757	 4.36916487663993E-02 
1758	 0.043764661942837 
1759	 4.38587823836027E-02 
1760	 4.39010063084486E-02 
1761	 4.37785050949015E-02 
1762	 4.36567495103521E-02 
1763	 4.36058518557842E-02 
1764	 4.35709457996103E-02 
1765	 4.36916111604394E-02 
1766	 4.37978601841762E-02 
1767	 4.37900208369889E-02 
1768	 4.37686955777039E-02 
1769	 4.37199514247434E-02 
1770	 4.37239685505019E-02 
1771	 4.37378840771513E-02 
1772	 4.38282942830814E-02 
1773	 4.39295489172842E-02 
1774	 4.38577460239628E-02 
1775	 4.38432562302204E-02 
1776	 4.38184563105908E-02 
1777	 4.36894489709651E-02 
1778	 4.37155747728787E-02 
1779	 0.043754355827779 
1780	 4.37626978458101E-02 
1781	 4.38601823314973E-02 
1782	 4.38470676216959E-02 
1783	 4.38307053806736E-02 
1784	 4.38739820875753E-02 
1785	 4.37850544427127E-02 
1786	 4.37557695281934E-02 
1787	 4.37800351699487E-02 
1788	 0.043732110979131 
1789	 4.36187447161748E-02 
1790	 4.36624015715869E-02 
1791	 4.37308502363035E-02 
1792	 4.37489321732073E-02 
1793	 4.39195526329367E-02 
1794	 4.38524453485786E-02 
1795	 4.37502146504933E-02 
1796	 4.37112727005365E-02 
1797	 4.36816543484344E-02 
1798	 4.37384217515775E-02 
1799	 4.38008719989996E-02 
1800	 4.38137274887636E-02 
1801	 4.32189940817228E-02 
1802	 4.33330906461153E-02 
1803	 4.33621724210582E-02 
1804	 4.32941890839076E-02 
1805	 4.32975920819823E-02 
1806	 4.33140895336615E-02 
1807	 4.33217185448876E-02 
1808	 4.33428334938546E-02 
1809	 4.34241371714109E-02 
1810	 4.34439326247804E-02 
1811	 4.34232340444511E-02 
1812	 4.34305529326239E-02 
1813	 4.34596472874183E-02 
1814	 4.34456290443643E-02 
1815	 4.34540320779971E-02 
1816	 4.33844531070404E-02 
1817	 4.33603012748498E-02 
1818	 4.33331437779069E-02 
1819	 4.33245616199869E-02 
1820	 4.33163800343199E-02 
1821	 4.33271675766089E-02 
1822	 4.33670265025095E-02 
1823	 4.33664173521132E-02 
1824	 4.33433505531807E-02 
1825	 4.34370085870713E-02 
1826	 4.34645725111553E-02 
1827	 4.34598345367624E-02 
1828	 4.34539161101803E-02 
1829	 4.34432386836162E-02 
1830	 4.34402796420544E-02 
1831	 4.34180290005937E-02 
1832	 4.34146253622232E-02 
1833	 4.34775495142967E-02 
1834	 4.35077088253375E-02 
1835	 4.34606796034482E-02 
1836	 0.04344398440532 
1837	 4.34243927088168E-02 
1838	 4.33098396946527E-02 
1839	 4.33296515459606E-02 
1840	 4.34872368617793E-02 
1841	 4.35258584644351E-02 
1842	 4.35451888150095E-02 
1843	 0.043628661044404 
1844	 4.35746404040083E-02 
1845	 4.35219528926204E-02 
1846	 4.35639069213664E-02 
1847	 4.35404063947938E-02 
1848	 4.35536329002669E-02 
1849	 4.36249941526404E-02 
1850	 4.36281532052238E-02 
1851	 4.35999590927468E-02 
1852	 4.35837011703471E-02 
1853	 4.35668372315326E-02 
1854	 4.35128763208746E-02 
1855	 4.34758351738103E-02 
1856	 4.35069368382427E-02 
1857	 0.04352360623451 
1858	 4.35136877566312E-02 
1859	 4.35018575283103E-02 
1860	 4.34633332578572E-02 
1861	 4.34670567957162E-02 
1862	 4.34621070796534E-02 
1863	 4.35269691659334E-02 
1864	 0.043580634979034 
1865	 4.36044187032385E-02 
1866	 4.35952706711646E-02 
1867	 4.35662289256293E-02 
1868	 4.35604329711132E-02 
1869	 4.35122887354377E-02 
1870	 4.34908213853905E-02 
1871	 0.043487135242989 
1872	 4.34607853768143E-02 
1873	 4.33987322304737E-02 
1874	 4.34174137462842E-02 
1875	 4.34468344996483E-02 
1876	 4.34707493968875E-02 
1877	 4.34847332143483E-02 
1878	 0.043484072269247 
1879	 4.34571184656775E-02 
1880	 0.043355465199942 
1881	 4.32692750648592E-02 
1882	 4.31560671769175E-02 
1883	 4.30808704046963E-02 
1884	 4.30541160298048E-02 
1885	 4.30496660800745E-02 
1886	 4.30665119197207E-02 
1887	 4.30910396368037E-02 
1888	 4.30700388205445E-02 
1889	 4.30557048872744E-02 
1890	 4.30537978548154E-02 
1891	 4.30506002822588E-02 
1892	 4.30309518578462E-02 
1893	 4.29672607141209E-02 
1894	 4.28473063844954E-02 
1895	 4.27344194769999E-02 
1896	 4.26408955541703E-02 
1897	 0.042532143058637 
1898	 4.24744205731758E-02 
1899	 4.24588685294536E-02 
1900	 0.042438417139022 
1901	 4.23980256529347E-02 
1902	 4.24101315235869E-02 
1903	 0.042389154893514 
1904	 4.23727716481074E-02 
1905	 4.23459817681531E-02 
1906	 4.23972004069199E-02 
1907	 4.23223637347741E-02 
1908	 4.22071032950055E-02 
1909	 4.21252751262421E-02 
1910	 4.19991282242806E-02 
1911	 4.19135673490032E-02 
1912	 0.041881072018525 
1913	 4.18338451730814E-02 
1914	 4.17955113840578E-02 
1915	 4.17776104332699E-02 
1916	 4.17975179493289E-02 
1917	 4.18192450052291E-02 
1918	 4.17880887126328E-02 
1919	 4.16795517792232E-02 
1920	 0.04160178481607 
1921	 4.16061679358072E-02 
1922	 4.16022943440329E-02 
1923	 4.16557964987797E-02 
1924	 4.16999961833372E-02 
1925	 4.16194676300137E-02 
1926	 4.15895321585163E-02 
1927	 4.15748422300626E-02 
1928	 4.15542809308227E-02 
1929	 4.15123884796841E-02 
1930	 4.15268430068467E-02 
1931	 4.15742332587032E-02 
1932	 4.15993680438576E-02 
1933	 4.16113488686771E-02 
1934	 4.15897217767488E-02 
1935	 4.15348908766549E-02 
1936	 4.15262246920737E-02 
1937	 4.15378141975291E-02 
1938	 4.16282587761406E-02 
1939	 0.041641617134688 
1940	 4.16511266937148E-02 
1941	 4.16031122469261E-02 
1942	 4.15439879114905E-02 
1943	 0.041509943822742 
1944	 4.15063267132681E-02 
1945	 4.14508051230986E-02 
1946	 4.14579175104763E-02 
1947	 4.15202570908948E-02 
1948	 4.15156764768929E-02 
1949	 4.15624517247365E-02 
1950	 4.15675425742351E-02 
1951	 0.041484854141866 
1952	 4.14576342964292E-02 
1953	 4.14550017319507E-02 
1954	 4.14375183224692E-02 
1955	 4.14610556423986E-02 
1956	 0.04154612527963 
1957	 4.16021851815929E-02 
1958	 4.17101139727113E-02 
1959	 4.18151114140817E-02 
1960	 4.18331499156513E-02 
1961	 4.18732288763152E-02 
1962	 4.19146259026966E-02 
1963	 4.19416204872022E-02 
1964	 4.19553775911639E-02 
1965	 0.041975222088164 
1966	 4.19849198444176E-02 
1967	 4.19801734022017E-02 
1968	 4.20291167783587E-02 
1969	 4.20580955437058E-02 
1970	 4.20788482867212E-02 
1971	 0.042088159735469 
1972	 4.21086344611032E-02 
1973	 4.21308800823671E-02 
1974	 4.21376856610409E-02 
1975	 4.21666447843254E-02 
1976	 4.21756258239484E-02 
1977	 4.21337755094755E-02 
1978	 0.042119835542643 
1979	 0.042106627942941 
1980	 4.21274996019249E-02 
1981	 4.21573197063333E-02 
1982	 4.22030816500328E-02 
1983	 4.22480348839375E-02 
1984	 0.042303071825343 
1985	 4.23438741053272E-02 
1986	 0.042358676230437 
1987	 4.24036627836953E-02 
1988	 0.0424697711419 
1989	 4.25232486120345E-02 
1990	 4.26158718201449E-02 
1991	 4.26499957295199E-02 
1992	 4.26384749327333E-02 
1993	 4.26513978482765E-02 
1994	 4.26458314592755E-02 
1995	 0.042622948159471 
1996	 4.27113861829883E-02 
1997	 0.042807362969301 
1998	 4.28703033766374E-02 
1999	 4.29349963139795E-02 
2000	 0.043028586299569 
2001	 4.31295542797888E-02 
2002	 4.31821628822902E-02 
2003	 4.32604715682363E-02 
2004	 4.32887369167967E-02 
2005	 4.32133728552004E-02 
2006	 4.32099128416696E-02 
2007	 0.043229701971196 
2008	 4.32591902902762E-02 
2009	 4.32819663976402E-02 
2010	 0.043304577695219 
2011	 4.33360155232186E-02 
2012	 4.33310129036665E-02 
2013	 4.33755531581171E-02 
2014	 4.34724469660273E-02 
2015	 4.35299565731114E-02 
2016	 4.35958558048235E-02 
2017	 4.36392577514802E-02 
2018	 4.36539407425411E-02 
2019	 4.36839834068939E-02 
2020	 0.043699448419689 
2021	 4.37476077392781E-02 
2022	 0.043815316514398 
2023	 4.37601138813906E-02 
2024	 4.37216983204637E-02 
2025	 4.37308368826525E-02 
2026	 0.043736915678667 
2027	 4.37581487253556E-02 
2028	 0.043783201691695 
2029	 4.38109016819083E-02 
2030	 4.38491332348688E-02 
2031	 4.39223121941419E-02 
2032	 4.39457919023405E-02 
2033	 4.39352206551388E-02 
2034	 4.39570822753914E-02 
2035	 4.39437112964364E-02 
2036	 0.043971515014677 
2037	 0.044074578097964 
2038	 4.41662149731776E-02 
2039	 4.42212063665595E-02 
2040	 4.42758542064709E-02 
2041	 4.42926149892191E-02 
2042	 0.044248092599879 
2043	 4.42633374468546E-02 
2044	 4.42837786298462E-02 
2045	 4.43129548807599E-02 
2046	 0.044409995035941 
2047	 4.44205196156018E-02 
2048	 4.43404007058435E-02 
2049	 4.43366174932371E-02 
2050	 4.43366152717006E-02 
2051	 4.43327006696221E-02 
2052	 4.43770986477114E-02 
2053	 4.44551851362675E-02 
2054	 4.44724564267928E-02 
2055	 4.44371697113733E-02 
2056	 4.44400699739843E-02 
2057	 4.44328669159607E-02 
2058	 4.44473203131793E-02 
2059	 4.44938104620009E-02 
2060	 4.45140080517027E-02 
2061	 0.044534724980139 
2062	 4.45436511519274E-02 
2063	 4.45185791539055E-02 
2064	 4.45215519686335E-02 
2065	 4.45430578332326E-02 
2066	 4.45427209784765E-02 
2067	 4.45686558305899E-02 
2068	 4.46616301237919E-02 
2069	 4.46820863837126E-02 
2070	 4.46942516426108E-02 
2071	 4.46913473326493E-02 
2072	 4.46055872158989E-02 
2073	 4.46123800321405E-02 
2074	 4.46452324956226E-02 
2075	 4.47124786102961E-02 
2076	 4.49225557316951E-02 
2077	 4.49752568733605E-02 
2078	 4.49363683112054E-02 
2079	 4.49469240618261E-02 
2080	 4.48703225884804E-02 
2081	 4.48500293095256E-02 
2082	 4.49135877051415E-02 
2083	 4.49596949697665E-02 
2084	 4.49814559434805E-02 
2085	 4.49715865229067E-02 
2086	 4.49950017577894E-02 
2087	 4.50390422495627E-02 
2088	 4.50600244507694E-02 
2089	 4.50993215179821E-02 
2090	 4.50982019861151E-02 
2091	 4.50267235604618E-02 
2092	 4.50179519452903E-02 
2093	 4.50449430185499E-02 
2094	 4.50371568774543E-02 
2095	 4.50384648753749E-02 
2096	 4.50395148087175E-02 
2097	 4.49941417908516E-02 
2098	 4.49745027798398E-02 
2099	 4.50403675570607E-02 
2100	 4.51008279173156E-02 
2101	 0.045139773342794 
2102	 4.51906272146374E-02 
2103	 4.52425840783228E-02 
2104	 4.52729647894845E-02 
2105	 4.53218558189777E-02 
2106	 4.54223239453617E-02 
2107	 0.045444185545465 
2108	 4.53936654828832E-02 
2109	 4.54089348759526E-02 
2110	 4.54573782815512E-02 
2111	 4.54469735977302E-02 
2112	 4.53859949759126E-02 
2113	 4.54031257404036E-02 
2114	 4.54513237971799E-02 
2115	 4.54489798730435E-02 
2116	 4.54695656331914E-02 
2117	 4.55316555561735E-02 
2118	 4.55346627268491E-02 
2119	 4.54164290327032E-02 
2120	 4.54266168414364E-02 
2121	 4.55429492610571E-02 
2122	 4.55442291427669E-02 
2123	 4.55287174514058E-02 
2124	 0.045504656661067 
2125	 4.53623023897129E-02 
2126	 4.53553971840724E-02 
2127	 4.54613260107253E-02 
2128	 0.045484704507649 
2129	 4.55536226906235E-02 
2130	 4.55640352125817E-02 
2131	 0.045456081845059 
2132	 4.54271640699643E-02 
2133	 4.54312186763699E-02 
2134	 4.54432396272403E-02 
2135	 4.54333997082164E-02 
2136	 4.53538745642024E-02 
2137	 4.53682783992408E-02 
2138	 4.53849868459493E-02 
2139	 4.53970586019439E-02 
2140	 4.55077997755116E-02 
2141	 4.55038483705728E-02 
2142	 4.53731652770139E-02 
2143	 4.53424152878637E-02 
2144	 4.53299926571767E-02 
2145	 0.045324085480363 
2146	 4.53977600636676E-02 
2147	 4.53846867319267E-02 
2148	 0.045324305172145 
2149	 4.52620793577962E-02 
2150	 4.51037768867696E-02 
2151	 4.50402297539247E-02 
2152	 4.50063267104815E-02 
2153	 4.50285501470854E-02 
2154	 4.50557982884987E-02 
2155	 4.50696860987993E-02 
2156	 4.50671261307645E-02 
2157	 4.50348032441023E-02 
2158	 0.044993647020106 
2159	 4.49498413573476E-02 
2160	 0.04489278106346 
2161	 4.47936347515813E-02 
2162	 4.47533906748824E-02 
2163	 4.47534299830243E-02 
2164	 4.47139008904617E-02 
2165	 4.46746700459606E-02 
2166	 4.46266220975106E-02 
2167	 4.45615718527058E-02 
2168	 4.44825236686761E-02 
2169	 4.44010477789553E-02 
2170	 4.43295762997635E-02 
2171	 4.41817333786737E-02 
2172	 4.41323734316531E-02 
2173	 4.41941923416503E-02 
2174	 4.41893489850813E-02 
2175	 4.41807437970028E-02 
2176	 4.42170019144312E-02 
2177	 4.41853599386943E-02 
2178	 4.40742435858101E-02 
2179	 4.40322751955361E-02 
2180	 4.40161790322344E-02 
2181	 4.39735756666199E-02 
2182	 4.39132331334579E-02 
2183	 4.39011994814614E-02 
2184	 0.04392639451802 
2185	 4.38907213975896E-02 
2186	 0.043836397820481 
2187	 4.38309177407675E-02 
2188	 4.37908422094223E-02 
2189	 4.37856691125455E-02 
2190	 4.39174305281482E-02 
2191	 4.39135300183967E-02 
2192	 4.38198224083862E-02 
2193	 4.37389131590811E-02 
2194	 4.35808039767838E-02 
2195	 4.34757201327359E-02 
2196	 4.34125768266139E-02 
2197	 4.33012193124276E-02 
2198	 4.32937392388998E-02 
2199	 4.32615524308057E-02 
2200	 4.32133781274292E-02 
2201	 4.31839154733143E-02 
2202	 4.31468521963749E-02 
2203	 4.30533903067535E-02 
2204	 4.30389473201649E-02 
2205	 4.30977254781601E-02 
2206	 4.30809729187126E-02 
2207	 4.30449128627245E-02 
2208	 4.30313785712593E-02 
2209	 4.29609143415614E-02 
2210	 4.29834406884278E-02 
2211	 4.31171680512737E-02 
2212	 0.043167773364425 
2213	 4.32536532525028E-02 
2214	 4.32609218606096E-02 
2215	 4.31557856163263E-02 
2216	 4.31030662484403E-02 
2217	 4.29986567592976E-02 
2218	 4.29730867521254E-02 
2219	 4.30141003414448E-02 
2220	 0.043050283952084 
2221	 4.31675134791802E-02 
2222	 4.32098392497851E-02 
2223	 4.32368827668515E-02 
2224	 4.33108736005112E-02 
2225	 4.33182880131142E-02 
2226	 4.33143369830968E-02 
2227	 4.32916542156641E-02 
2228	 4.32245430829115E-02 
2229	 4.32009077355832E-02 
2230	 0.043154187038523 
2231	 4.31820912749422E-02 
2232	 4.33071406434622E-02 
2233	 4.32785184394232E-02 
2234	 4.32260882698137E-02 
2235	 4.31848104917526E-02 
2236	 4.30032313179051E-02 
2237	 4.29742297399034E-02 
2238	 4.30879680579295E-02 
2239	 4.30863661452616E-02 
2240	 4.30455034268115E-02 
2241	 4.30487017878687E-02 
2242	 4.30662862786838E-02 
2243	 4.30457272133715E-02 
2244	 4.30686337476257E-02 
2245	 4.30335086416805E-02 
2246	 4.28543769615064E-02 
2247	 4.27784653177696E-02 
2248	 0.042766646511899 
2249	 4.27341685810976E-02 
2250	 4.27115921783521E-02 
2251	 4.27166338654722E-02 
2252	 4.28394644669376E-02 
2253	 4.28593973586498E-02 
2254	 4.28225074374924E-02 
2255	 4.28626360240622E-02 
2256	 4.27139531015411E-02 
2257	 4.25707672390178E-02 
2258	 4.25332644897799E-02 
2259	 4.25663874521531E-02 
2260	 4.25974125433232E-02 
2261	 4.27194755957659E-02 
2262	 4.27479921150923E-02 
2263	 4.27346246343775E-02 
2264	 4.27633263678295E-02 
2265	 4.27538356846553E-02 
2266	 4.27928949482566E-02 
2267	 4.29578683346071E-02 
2268	 4.29570731577343E-02 
2269	 4.28717340528528E-02 
2270	 4.28069792405641E-02 
2271	 0.042586013627266 
2272	 4.25573871047841E-02 
2273	 4.26537000891366E-02 
2274	 4.27187665941569E-02 
2275	 4.29299872637526E-02 
2276	 4.29680952741676E-02 
2277	 4.29291512194054E-02 
2278	 4.28656725091569E-02 
2279	 4.25926924326975E-02 
2280	 4.25397521535618E-02 
2281	 4.26162638924804E-02 
2282	 4.26370596602901E-02 
2283	 4.28063915755675E-02 
2284	 4.28187014615404E-02 
2285	 4.27885322884742E-02 
2286	 4.28744275910272E-02 
2287	 4.28467024428885E-02 
2288	 0.042885742800058 
2289	 4.28606896558095E-02 
2290	 0.042648177107363 
2291	 4.26230581223068E-02 
2292	 4.25429400904515E-02 
2293	 4.24483294471887E-02 
2294	 4.24799271541911E-02 
2295	 4.22960906080729E-02 
2296	 4.21725147930562E-02 
2297	 4.21446755730391E-02 
2298	 4.21561722541325E-02 
2299	 4.21541554556688E-02 
2300	 4.22689691103169E-02 
2301	 4.23018854130081E-02 
2302	 4.22675648363754E-02 
2303	 4.22959585797458E-02 
2304	 4.23223766960414E-02 
2305	 4.23698792696538E-02 
2306	 4.25063833297605E-02 
2307	 4.25235400325391E-02 
2308	 0.042460520155286 
2309	 4.25026354947278E-02 
2310	 4.24655187204444E-02 
2311	 4.25382304037253E-02 
2312	 4.28134920812185E-02 
2313	 4.29326115320773E-02 
2314	 4.30743344005272E-02 
2315	 4.30963571564135E-02 
2316	 4.29662501174104E-02 
2317	 4.28953662220515E-02 
2318	 4.26730706149856E-02 
2319	 4.26640156552775E-02 
2320	 4.28160408420162E-02 
2321	 4.28957648575667E-02 
2322	 4.31479136992935E-02 
2323	 4.32013477901003E-02 
2324	 4.30763855910422E-02 
2325	 4.30519356240849E-02 
2326	 4.28750185857222E-02 
2327	 4.29045673684691E-02 
2328	 4.32421548022781E-02 
2329	 4.32941029638873E-02 
2330	 4.31958426557135E-02 
2331	 4.33391497361065E-02 
2332	 4.32661111225304E-02 
2333	 4.30121737862312E-02 
2334	 4.30821339632245E-02 
2335	 4.30695042119615E-02 
2336	 4.29949792905263E-02 
2337	 4.30284447312239E-02 
2338	 4.30444957668848E-02 
2339	 0.043183970842898 
2340	 4.32121396396295E-02 
2341	 4.31619228330328E-02 
2342	 4.31987063138033E-02 
2343	 4.29777532428592E-02 
2344	 0.042730717906683 
2345	 4.26603814655016E-02 
2346	 4.25483550042976E-02 
2347	 4.26410184746196E-02 
2348	 4.29645519346303E-02 
2349	 0.043286428397016 
2350	 4.35123418801823E-02 
2351	 4.35755511987146E-02 
2352	 4.36588385354386E-02 
2353	 4.37799180825245E-02 
2354	 4.37534201887305E-02 
2355	 4.36018659815837E-02 
2356	 4.33648366636977E-02 
2357	 4.31694641519993E-02 
2358	 4.30176255628636E-02 
2359	 4.32160563254405E-02 
2360	 0.043578414109292 
2361	 4.35592465391654E-02 
2362	 4.36067226321586E-02 
2363	 4.33614186472553E-02 
2364	 4.29309584729798E-02 
2365	 4.29941007033874E-02 
2366	 4.31637017898634E-02 
2367	 4.34730496167655E-02 
2368	 4.37597053550905E-02 
2369	 4.35667827474301E-02 
2370	 4.32284156613369E-02 
2371	 4.29843127875145E-02 
2372	 4.27847793468797E-02 
2373	 4.28626179570092E-02 
2374	 4.29907998285462E-02 
2375	 4.32263828772838E-02 
2376	 4.35013489520785E-02 
2377	 4.35463751321413E-02 
2378	 0.043798523154909 
2379	 4.36508018998675E-02 
2380	 4.34259176536343E-02 
2381	 4.34783120977535E-02 
2382	 4.34618318340582E-02 
2383	 4.35559181157716E-02 
2384	 0.04359226452984 
2385	 4.36022026775293E-02 
2386	 0.043436981142052 
2387	 0.042999634714336 
2388	 4.28036144992862E-02 
2389	 4.26371137739367E-02 
2390	 4.25890807555128E-02 
2391	 4.27127382528478E-02 
2392	 4.27469231607527E-02 
2393	 4.29029916383017E-02 
2394	 4.28828852577584E-02 
2395	 4.26618482392448E-02 
2396	 4.28038151317119E-02 
2397	 4.30835107347053E-02 
2398	 4.30410516685946E-02 
2399	 4.31399554254315E-02 
2400	 4.31503379270445E-02 
2401	 4.27358776946217E-02 
2402	 4.24679621928723E-02 
2403	 4.26276495191948E-02 
2404	 4.28640942662094E-02 
2405	 4.27072957026976E-02 
2406	 4.28493144677182E-02 
2407	 4.28696882929726E-02 
2408	 4.24040414208324E-02 
2409	 0.042670004991467 
2410	 4.30573471643638E-02 
2411	 4.29900063194002E-02 
2412	 4.32448308336695E-02 
2413	 4.32070767441155E-02 
2414	 4.29276971292373E-02 
2415	 4.31094894617328E-02 
2416	 4.30679422081042E-02 
2417	 4.31784002188418E-02 
2418	 4.33016835406712E-02 
2419	 4.33888174613892E-02 
2420	 4.37621584355935E-02 
2421	 4.36756764426582E-02 
2422	 0.043604882680208 
2423	 4.36496276927563E-02 
2424	 4.37388156462094E-02 
2425	 4.36522343989294E-02 
2426	 4.34645024571913E-02 
2427	 4.33553119474324E-02 
2428	 0.043024894795799 
2429	 4.27529132408964E-02 
2430	 4.25982844323934E-02 
2431	 4.26942437119204E-02 
2432	 0.042752688031647 
2433	 4.30041504025411E-02 
2434	 4.36644475562018E-02 
2435	 4.39814898431729E-02 
2436	 4.39612597427967E-02 
2437	 4.38662593372721E-02 
2438	 4.33734525000054E-02 
2439	 4.30631422346908E-02 
2440	 4.31896600627511E-02 
2441	 4.29636132718467E-02 
2442	 4.27173884293028E-02 
2443	 4.24596080120163E-02 
2444	 4.24422865603342E-02 
2445	 4.29766834738292E-02 
2446	 4.36379712371134E-02 
2447	 4.42790126350888E-02 
2448	 4.38769551172333E-02 
2449	 4.29318794786019E-02 
2450	 4.20638801838508E-02 
2451	 4.12590296515897E-02 
2452	 0.041390284203585 
2453	 0.041438584879211 
2454	 4.14632702694836E-02 
2455	 4.19604015400576E-02 
2456	 0.041995281003834 
2457	 4.22186271684975E-02 
2458	 4.26259473490216E-02 
2459	 4.23950296328484E-02 
2460	 4.17110448187797E-02 
2461	 4.14713837224708E-02 
2462	 4.16767113225287E-02 
2463	 4.11377691707112E-02 
2464	 0.041105231876079 
2465	 4.17239249652691E-02 
2466	 0.041943195269535 
2467	 4.25439722348026E-02 
2468	 4.33180823254693E-02 
2469	 4.34083856935957E-02 
2470	 4.26449009998837E-02 
2471	 4.26864024333082E-02 
2472	 4.30394235648242E-02 
2473	 4.24256821421114E-02 
2474	 4.27917076478098E-02 
2475	 4.33622199158693E-02 
2476	 4.29709403881586E-02 
2477	 4.29712817405894E-02 
2478	 4.32118898389076E-02 
2479	 4.29836160803913E-02 
2480	 0.04234227595618 
2481	 4.23008256746476E-02 
2482	 4.16104845682834E-02 
2483	 4.15359069898966E-02 
2484	 4.13432870260439E-02 
2485	 4.01311493090216E-02 
2486	 4.00497442369554E-02 
2487	 4.05356033926275E-02 
2488	 4.11613594954687E-02 
2489	 4.20758299600385E-02 
2490	 4.28825116955432E-02 
2491	 0.043897847572561 
2492	 4.44705296846424E-02 
2493	 4.39987015094774E-02 
2494	 4.40602973851532E-02 
2495	 4.34207897142568E-02 
2496	 4.34745836937547E-02 
2497	 4.54022333962217E-02 
2498	 4.52198746885206E-02 
2499	 4.40937735594023E-02 
2500	 4.32123705527877E-02 
