Wavelength	Tablay400030.asd
350	 0.243049761767379 
351	 0.173044700359235 
352	 0.146574555132034 
353	 0.167673558435013 
354	 0.191890848255163 
355	 0.239631019172989 
356	 0.206071467077915 
357	 0.085350157091823 
358	 0.183425855122178 
359	 0.253022451873738 
360	 0.245651010974375 
361	 0.225024834861404 
362	 0.169187598843383 
363	 0.168785859592656 
364	 0.225368039257939 
365	 0.182431575017137 
366	 0.142576947919462 
367	 0.134954795905929 
368	 0.155575427168219 
369	 0.149632552348033 
370	 0.121109146597716 
371	 0.104439116244223 
372	 0.143067439984864 
373	 0.146995903311332 
374	 0.123263365215685 
375	 9.58480122733627E-02 
376	 9.92818908334794E-02 
377	 8.54879856208075E-02 
378	 0.104902352796282 
379	 0.171147283717733 
380	 9.38439035185683E-02 
381	 0.07920392461625 
382	 0.128665484088259 
383	 0.120123047999303 
384	 9.74139962244173E-02 
385	 8.70401330696075E-02 
386	 9.34370767538178E-02 
387	 9.30204638880345E-02 
388	 0.087341480521928 
389	 9.29848611674164E-02 
390	 0.116759901421962 
391	 0.119836287706467 
392	 0.111672007545221 
393	 9.55323800671658E-02 
394	 7.22883464001717E-02 
395	 7.85966933133442E-02 
396	 8.57579812660563E-02 
397	 0.076792612475196 
398	 6.42860448084381E-02 
399	 0.082788062243834 
400	 0.106471440564461 
401	 0.102689003887496 
402	 0.081683365876317 
403	 6.87525544342279E-02 
404	 7.49223885934831E-02 
405	 9.59116811753661E-02 
406	 0.10112641899381 
407	 9.52741375081496E-02 
408	 8.65918645284094E-02 
409	 7.76417724276888E-02 
410	 8.08091528217738E-02 
411	 8.37028026412265E-02 
412	 7.28878412689604E-02 
413	 6.88629853312656E-02 
414	 6.67933331923918E-02 
415	 6.75375338598147E-02 
416	 7.67281141563624E-02 
417	 7.25853686813185E-02 
418	 6.60157587926421E-02 
419	 6.76553904368122E-02 
420	 7.83833164409897E-02 
421	 6.97307963343002E-02 
422	 5.85423294137726E-02 
423	 7.02831933357764E-02 
424	 6.27900975016736E-02 
425	 6.36421780103597E-02 
426	 7.53034477687077E-02 
427	 6.86535299798516E-02 
428	 6.11837790523887E-02 
429	 5.72955339390064E-02 
430	 0.057894885360183 
431	 6.33946687977588E-02 
432	 6.66432107066543E-02 
433	 6.65277238767144E-02 
434	 6.54222576473633E-02 
435	 6.35860013727698E-02 
436	 6.30439306193926E-02 
437	 6.43464558180602E-02 
438	 0.065877903436645 
439	 0.064993942993733 
440	 6.43549619037534E-02 
441	 6.62549801996871E-02 
442	 6.51985794804833E-02 
443	 6.22840113672552E-02 
444	 6.07596625591006E-02 
445	 6.44403870126387E-02 
446	 6.29581199549934E-02 
447	 6.03518013608328E-02 
448	 6.05598787634884E-02 
449	 0.062922613232988 
450	 6.35161831752597E-02 
451	 6.22410819446743E-02 
452	 6.08425689975137E-02 
453	 6.18460820132216E-02 
454	 0.060821620751899 
455	 5.85086603607477E-02 
456	 6.13384802735744E-02 
457	 6.11153023510626E-02 
458	 5.99281858781414E-02 
459	 6.02925636758395E-02 
460	 5.91590493693671E-02 
461	 5.95820577268736E-02 
462	 6.01499462515642E-02 
463	 5.80424087115433E-02 
464	 6.02843480493294E-02 
465	 6.18618339244535E-02 
466	 6.04627152449059E-02 
467	 5.96190182926029E-02 
468	 5.83067548478222E-02 
469	 5.81828220225404E-02 
470	 5.98208486015839E-02 
471	 5.63734650549773E-02 
472	 5.72616200327396E-02 
473	 6.09045784352137E-02 
474	 5.78289023318842E-02 
475	 5.64752693109033E-02 
476	 5.69245744173637E-02 
477	 5.78156250249946E-02 
478	 0.05768786343009 
479	 5.68717380452971E-02 
480	 5.65448244612446E-02 
481	 5.76658560026733E-02 
482	 5.76290831859319E-02 
483	 5.79336812880117E-02 
484	 5.87200465782503E-02 
485	 5.83677963541718E-02 
486	 0.058411465808504 
487	 5.86704815983935E-02 
488	 5.86108697462312E-02 
489	 0.05763763112786 
490	 0.057895284810272 
491	 5.90432712294864E-02 
492	 5.93261767316547E-02 
493	 5.83079772538914E-02 
494	 5.80466935435956E-02 
495	 5.88169167436426E-02 
496	 5.74631631729697E-02 
497	 5.83914554651329E-02 
498	 5.98299629416025E-02 
499	 0.059133784007238 
500	 0.058368164975362 
501	 5.87144361273018E-02 
502	 5.97319395987705E-02 
503	 0.059740409405277 
504	 5.98008789590749E-02 
505	 5.99528500414002E-02 
506	 6.01496880838132E-02 
507	 6.06052761208574E-02 
508	 6.06650793564941E-02 
509	 6.10093231932262E-02 
510	 6.23974373726441E-02 
511	 6.18827482926808E-02 
512	 6.16514203039588E-02 
513	 6.24253782773856E-02 
514	 6.25716104371847E-02 
515	 6.26990280818439E-02 
516	 6.29440287905753E-02 
517	 6.32237709803795E-02 
518	 6.29584062930132E-02 
519	 6.33125267682915E-02 
520	 6.41921823711045E-02 
521	 6.46858135062432E-02 
522	 6.51269073230908E-02 
523	 6.56961907708292E-02 
524	 6.63358523232737E-02 
525	 6.65251708691362E-02 
526	 6.69128156013597E-02 
527	 6.73967537331199E-02 
528	 6.77586916675049E-02 
529	 6.87300834066985E-02 
530	 6.94161516687789E-02 
531	 6.96055430179709E-02 
532	 6.98897881123272E-02 
533	 7.09154600611576E-02 
534	 0.071748063533919 
535	 7.18708770606779E-02 
536	 0.073041982159394 
537	 7.36456554086163E-02 
538	 7.37768447332542E-02 
539	 7.44234538941747E-02 
540	 7.54889825521561E-02 
541	 7.61951933817498E-02 
542	 0.076388919193399 
543	 7.69925620515298E-02 
544	 7.78147117923053E-02 
545	 7.84438829943484E-02 
546	 7.86838179476196E-02 
547	 7.96991460381414E-02 
548	 0.080397620547332 
549	 8.05942648669489E-02 
550	 8.09746507459753E-02 
551	 8.18849578281675E-02 
552	 0.082595551043499 
553	 8.27270605073023E-02 
554	 8.32551569054628E-02 
555	 8.39464943919457E-02 
556	 8.44916305602998E-02 
557	 8.46651659918532E-02 
558	 0.085273428729951 
559	 8.61769525194664E-02 
560	 8.71185391958851E-02 
561	 8.78156080424299E-02 
562	 8.84176755006961E-02 
563	 8.89010188189628E-02 
564	 8.93144376224217E-02 
565	 9.01713275881639E-02 
566	 9.07382380452525E-02 
567	 9.09548481886202E-02 
568	 9.12719366028782E-02 
569	 9.16623012294904E-02 
570	 9.19331470461967E-02 
571	 0.092013988398282 
572	 9.21051100934771E-02 
573	 0.092481387480984 
574	 9.30889370250637E-02 
575	 9.37018926491548E-02 
576	 0.094018501744343 
577	 9.44202939838149E-02 
578	 9.49798490489672E-02 
579	 9.53755926515144E-02 
580	 9.57254476949976E-02 
581	 9.59934675136254E-02 
582	 9.61973750029157E-02 
583	 9.66072305734533E-02 
584	 9.70067278616145E-02 
585	 9.74059051964895E-02 
586	 9.79066084889906E-02 
587	 9.81557580631464E-02 
588	 9.83230577323217E-02 
589	 9.85833787695092E-02 
590	 9.90127061076522E-02 
591	 0.099546264427343 
592	 9.99555341008271E-02 
593	 0.100098784032842 
594	 0.100401083352315 
595	 0.10072758380808 
596	 0.100999446406721 
597	 0.101204041698802 
598	 0.101329054835143 
599	 0.101484641621703 
600	 0.101750234569651 
601	 0.10210703471294 
602	 0.102347433625164 
603	 0.102491283818604 
604	 0.102656761670631 
605	 0.10282043714685 
606	 0.103093792469363 
607	 0.103482792501859 
608	 0.103855522845772 
609	 0.104085359022882 
610	 0.10429096402324 
611	 0.104562918763208 
612	 0.104628929587952 
613	 0.10493947607186 
614	 0.105449668759234 
615	 0.105781218896482 
616	 0.1056969904133 
617	 0.105740076855236 
618	 0.106101144855193 
619	 0.106157662106263 
620	 0.106401247911551 
621	 0.106692498366369 
622	 0.10680945758266 
623	 0.107157516453229 
624	 0.10752246372262 
625	 0.107799755484135 
626	 0.108017839336578 
627	 0.108285497320001 
628	 0.10838474154094 
629	 0.108309954381875 
630	 0.108745912750422 
631	 0.109169984822069 
632	 0.109421284612016 
633	 0.109525134845511 
634	 0.109587184450323 
635	 0.109915236062594 
636	 0.110380962703817 
637	 0.110318681261962 
638	 0.110603436854844 
639	 0.111021871458356 
640	 0.1112540303394 
641	 0.111560620762588 
642	 0.111755701107438 
643	 0.111941948457524 
644	 0.112347911291697 
645	 0.112596295458775 
646	 0.11288267117686 
647	 0.113262947637574 
648	 0.113452201225928 
649	 0.113631661537952 
650	 0.113853617879316 
651	 0.114114032114036 
652	 0.114313750424325 
653	 0.114705441600819 
654	 0.115180161183796 
655	 0.115368694827944 
656	 0.115625191535091 
657	 0.115930330715835 
658	 0.116215597189458 
659	 0.116430452216629 
660	 0.116684705934215 
661	 0.116987309086273 
662	 0.117304619936842 
663	 0.11759674730249 
664	 0.117956801197085 
665	 0.118338356389859 
666	 0.118560659190721 
667	 0.118821653602099 
668	 0.11915892702886 
669	 0.119542389596869 
670	 0.119858984379199 
671	 0.120170479742379 
672	 0.120487713253613 
673	 0.120794368063268 
674	 0.121035537232025 
675	 0.121325493761587 
676	 0.121697799255194 
677	 0.122073272038565 
678	 0.122329516241973 
679	 0.122591272736351 
680	 0.122953375727143 
681	 0.123221148608216 
682	 0.123570535430057 
683	 0.123976345382146 
684	 0.124323766095821 
685	 0.12476012567279 
686	 0.125066205920687 
687	 0.12525527103367 
688	 0.125709423207023 
689	 0.12614022109028 
690	 0.126439057240934 
691	 0.126632464525495 
692	 0.127034521727253 
693	 0.127388719950151 
694	 0.127705704560702 
695	 0.128142895017452 
696	 0.128515263972281 
697	 0.12889492175887 
698	 0.129292748295765 
699	 0.129570836535127 
700	 0.130038132503884 
701	 0.130472281137484 
702	 0.130657623152267 
703	 0.130995245668616 
704	 0.131366933866595 
705	 0.131755823715508 
706	 0.132209201435776 
707	 0.132652993568349 
708	 0.132994134841906 
709	 0.133277210757846 
710	 0.133774881060484 
711	 0.134227456075805 
712	 0.134558576000958 
713	 0.134801123401939 
714	 0.135160417778754 
715	 0.13559771532882 
716	 0.136041090543007 
717	 0.136411717908796 
718	 0.13679239652926 
719	 0.137196108950012 
720	 0.137577742618408 
721	 0.137800483902174 
722	 0.138188730030857 
723	 0.138682449801593 
724	 0.139130316919207 
725	 0.139544815830923 
726	 0.139895296453395 
727	 0.140238050873785 
728	 0.140668594056101 
729	 0.141020350969052 
730	 0.14135314724231 
731	 0.141730746689843 
732	 0.142175534483852 
733	 0.142571521097185 
734	 0.142886040231403 
735	 0.143145278925833 
736	 0.143472609662072 
737	 0.143799142380435 
738	 0.144161659839569 
739	 0.144634539842985 
740	 0.144966658364955 
741	 0.145279165000247 
742	 0.145659407234914 
743	 0.146074913928222 
744	 0.146459794619014 
745	 0.146858503744443 
746	 0.147282597612082 
747	 0.147506465568344 
748	 0.147873526182946 
749	 0.148301358688363 
750	 0.148516071098149 
751	 0.148867256340121 
752	 0.149156215912968 
753	 0.149337292579905 
754	 0.149626344636667 
755	 0.149969991608136 
756	 0.150257883303089 
757	 0.150438752480884 
758	 0.150662450731763 
759	 0.150904484634073 
760	 0.151174896657907 
761	 0.151469631607697 
762	 0.15161630275318 
763	 0.151810570392194 
764	 0.152075192582499 
765	 0.152234402984907 
766	 0.152520842503969 
767	 0.152780018002504 
768	 0.152908531965347 
769	 0.153075534203496 
770	 0.153368641511904 
771	 0.153663387023701 
772	 0.153806691985421 
773	 0.153953974243396 
774	 0.1541109006286 
775	 0.154279575269395 
776	 0.15445867499831 
777	 0.154604712141306 
778	 0.154740252137178 
779	 0.154866731641584 
780	 0.154928830253211 
781	 0.155109927939008 
782	 0.15528284073211 
783	 0.155315966901762 
784	 0.155387823806776 
785	 0.155462884813494 
786	 0.155572007585365 
787	 0.155752954910048 
788	 0.155817364145461 
789	 0.155912388708117 
790	 0.156060033243109 
791	 0.156106312158559 
792	 0.156205983837387 
793	 0.15628887229867 
794	 0.156305438187937 
795	 0.156361479557769 
796	 0.15647525378465 
797	 0.156546595776955 
798	 0.156478171550333 
799	 0.156409876286423 
800	 0.156437965235283 
801	 0.156536507709093 
802	 0.156590595458033 
803	 0.156623312218914 
804	 0.156556559143618 
805	 0.156436079274105 
806	 0.156497557579451 
807	 0.156559504404087 
808	 0.156570086064566 
809	 0.156528072390052 
810	 0.156470121079855 
811	 0.156485844629399 
812	 0.156463407369496 
813	 0.156281800973544 
814	 0.15631427511209 
815	 0.156359968548258 
816	 0.156334357210031 
817	 0.156283378850406 
818	 0.156114051241663 
819	 0.156016324893092 
820	 0.156079146565854 
821	 0.156165101616405 
822	 0.156079749112385 
823	 0.155957154182169 
824	 0.155959104876561 
825	 0.156040847804399 
826	 0.155994616592972 
827	 0.155835129686464 
828	 0.15569127816846 
829	 0.155633172238261 
830	 0.155584897537192 
831	 0.155525489233193 
832	 0.155483226657662 
833	 0.155360814182859 
834	 0.155256931559456 
835	 0.155232405198796 
836	 0.155244743004992 
837	 0.155258586839934 
838	 0.155147570908168 
839	 0.154907097848466 
840	 0.154922397463653 
841	 0.15485679664066 
842	 0.154749644205539 
843	 0.154744026688246 
844	 0.154698436847239 
845	 0.154624279398616 
846	 0.154549210315044 
847	 0.154498495336196 
848	 0.154411008675165 
849	 0.154255898231315 
850	 0.15409795870711 
851	 0.154100709463278 
852	 0.154134351725858 
853	 0.154037720189298 
854	 0.153837403323159 
855	 0.153972417692897 
856	 0.153862852699023 
857	 0.153674533075994 
858	 0.153671735095173 
859	 0.153565710002422 
860	 0.153478194915191 
861	 0.153468064506501 
862	 0.153515531785496 
863	 0.153380772257888 
864	 0.153182229512018 
865	 0.153066240246222 
866	 0.153142449374003 
867	 0.153203305448939 
868	 0.153115473610503 
869	 0.152912900752737 
870	 0.152828995028524 
871	 0.15290173917845 
872	 0.152944595585295 
873	 0.152838191084081 
874	 0.152718981117408 
875	 0.152705060537612 
876	 0.152740092967779 
877	 0.152723651296394 
878	 0.152631230267732 
879	 0.152606432152384 
880	 0.15257465071423 
881	 0.15243333593431 
882	 0.152557122954304 
883	 0.152590135306804 
884	 0.152518623314872 
885	 0.15258570900597 
886	 0.152596699129806 
887	 0.152540188416286 
888	 0.1524406696118 
889	 0.152349414086689 
890	 0.152506669268579 
891	 0.152579094550881 
892	 0.152408414690926 
893	 0.152304762320042 
894	 0.152363825619275 
895	 0.15248362076562 
896	 0.152550600586969 
897	 0.152595230452918 
898	 0.152489022990147 
899	 0.152372360778416 
900	 0.15239074724311 
901	 0.152304063413482 
902	 0.152567612534964 
903	 0.15279497280808 
904	 0.152442817779783 
905	 0.152507483274747 
906	 0.152569097244498 
907	 0.152521945921532 
908	 0.152534934259364 
909	 0.152633824055953 
910	 0.152628952424542 
911	 0.152573306023535 
912	 0.152734792294135 
913	 0.152705451879092 
914	 0.15273698444336 
915	 0.152931936153264 
916	 0.153061642769355 
917	 0.153130478823434 
918	 0.153124515996833 
919	 0.153073676833862 
920	 0.153076878596403 
921	 0.153059076028959 
922	 0.153204148297066 
923	 0.153550719143331 
924	 0.153634535501998 
925	 0.153635029256887 
926	 0.153681963528583 
927	 0.153827107413301 
928	 0.153912156436132 
929	 0.153881091432413 
930	 0.153935679858353 
931	 0.154243011113956 
932	 0.154350459513541 
933	 0.154450031270503 
934	 0.154500545086553 
935	 0.154409296548716 
936	 0.154531323250078 
937	 0.154763136007822 
938	 0.154947044298172 
939	 0.15497195057011 
940	 0.155126968358359 
941	 0.155396827194446 
942	 0.155592022047008 
943	 0.155479253123055 
944	 0.155466781346377 
945	 0.155736148855572 
946	 0.156108318314242 
947	 0.15615140347186 
948	 0.156568371383434 
949	 0.156766436808233 
950	 0.156587643231289 
951	 0.156628284870817 
952	 0.156902243002911 
953	 0.157128238970784 
954	 0.157196325330582 
955	 0.157333179309528 
956	 0.157427844712248 
957	 0.157606668581399 
958	 0.157881822591688 
959	 0.158009414892535 
960	 0.158254160950747 
961	 0.158355654308821 
962	 0.158326500806679 
963	 0.158920680060225 
964	 0.159109215513597 
965	 0.158946735306233 
966	 0.158844924408668 
967	 0.159307849087277 
968	 0.15928108377234 
969	 0.159356005066045 
970	 0.160004465232229 
971	 0.16020171008494 
972	 0.16028024569472 
973	 0.160332812871545 
974	 0.160400049807669 
975	 0.160530357902063 
976	 0.160689481704348 
977	 0.160825645232806 
978	 0.160958163362343 
979	 0.161349655966966 
980	 0.161522789795337 
981	 0.161610491512671 
982	 0.161798131619145 
983	 0.161707760908386 
984	 0.161760277176871 
985	 0.1620370004392 
986	 0.162428473843015 
987	 0.162697916745851 
988	 0.162747885507736 
989	 0.162846148067124 
990	 0.163182470206794 
991	 0.163191673430995 
992	 0.163495548216217 
993	 0.164113171985235 
994	 0.164619211046157 
995	 0.16394474700604 
996	 0.163699899109913 
997	 0.164159936710285 
998	 0.164869482373332 
999	 0.164892764738477 
1000	 0.165099766037984 
1001	 0.168082306565808 
1002	 0.168628150070551 
1003	 0.169071204608731 
1004	 0.169283255098033 
1005	 0.169222755887633 
1006	 0.169459361515318 
1007	 0.169712980565854 
1008	 0.169926725573808 
1009	 0.170294428667898 
1010	 0.170563518853571 
1011	 0.170674860612612 
1012	 0.170827208830646 
1013	 0.17089920342413 
1014	 0.171188853773342 
1015	 0.171588332851933 
1016	 0.172004046119382 
1017	 0.172376265935169 
1018	 0.172874488749239 
1019	 0.173144879173804 
1020	 0.173277413932976 
1021	 0.173607630804345 
1022	 0.17413295004079 
1023	 0.174419957368636 
1024	 0.174656331486412 
1025	 0.174946636548117 
1026	 0.175092008789188 
1027	 0.175338046727356 
1028	 0.175742823557857 
1029	 0.176022768452918 
1030	 0.176089763737296 
1031	 0.176387546417604 
1032	 0.176657167790861 
1033	 0.176866877684204 
1034	 0.17731133104338 
1035	 0.177691528415982 
1036	 0.177926609299313 
1037	 0.178071038369355 
1038	 0.178246808606504 
1039	 0.178253073928019 
1040	 0.178408470069152 
1041	 0.178699085819803 
1042	 0.178872847916024 
1043	 0.179007985468056 
1044	 0.179174449472169 
1045	 0.179445429226628 
1046	 0.179750523988697 
1047	 0.179962397600118 
1048	 0.180275869602791 
1049	 0.180479970783016 
1050	 0.180581765159511 
1051	 0.180929886872102 
1052	 0.181252444466327 
1053	 0.181525058913114 
1054	 0.181735086766934 
1055	 0.182073552453229 
1056	 0.182507450088919 
1057	 0.182820839826489 
1058	 0.183163815889478 
1059	 0.183392958991933 
1060	 0.183650719598371 
1061	 0.183963624764213 
1062	 0.184358564021798 
1063	 0.184922339078147 
1064	 0.185387907536513 
1065	 0.18565993046578 
1066	 0.186006376889652 
1067	 0.186502899667175 
1068	 0.186903885754108 
1069	 0.187215918357622 
1070	 0.18765136817237 
1071	 0.188167071342104 
1072	 0.188554329704038 
1073	 0.189000834300524 
1074	 0.189645102826859 
1075	 0.190126807763398 
1076	 0.190675266048937 
1077	 0.191291153104901 
1078	 0.191789608848817 
1079	 0.192267627745886 
1080	 0.19268192070515 
1081	 0.193027120980184 
1082	 0.193375672397435 
1083	 0.193878114247537 
1084	 0.194400499003091 
1085	 0.194954768628228 
1086	 0.195493728590595 
1087	 0.196095621494068 
1088	 0.196579853994775 
1089	 0.197024364635006 
1090	 0.197408139942424 
1091	 0.197741535612361 
1092	 0.198166688435982 
1093	 0.19862635292537 
1094	 0.199038088363637 
1095	 0.199479771641361 
1096	 0.19993033761373 
1097	 0.200338370293265 
1098	 0.200827547099111 
1099	 0.201405462266889 
1100	 0.201821096854496 
1101	 0.20212408376377 
1102	 0.202414729054982 
1103	 0.202734220141238 
1104	 0.202960556556045 
1105	 0.203352203384002 
1106	 0.203820305312888 
1107	 0.204173541970475 
1108	 0.204462263444709 
1109	 0.204777218899893 
1110	 0.205112717418154 
1111	 0.205469417227068 
1112	 0.205894788785206 
1113	 0.206241701576482 
1114	 0.206418196303922 
1115	 0.206544444164162 
1116	 0.206785264923485 
1117	 0.207110418683818 
1118	 0.207398330015192 
1119	 0.20780997022421 
1120	 0.208136697977102 
1121	 0.208440214201628 
1122	 0.208574215872518 
1123	 0.208789237244999 
1124	 0.209048036129184 
1125	 0.209166150225025 
1126	 0.209253562794784 
1127	 0.209349260796212 
1128	 0.209469832201016 
1129	 0.209678821692029 
1130	 0.209906366485124 
1131	 0.2101432550794 
1132	 0.210426786469003 
1133	 0.210683527582832 
1134	 0.210884163201814 
1135	 0.211073857144949 
1136	 0.21124258245153 
1137	 0.211399450317727 
1138	 0.211491185235009 
1139	 0.211671171497802 
1140	 0.211923974696751 
1141	 0.212102036156389 
1142	 0.212239940522441 
1143	 0.212407944602985 
1144	 0.212606152588391 
1145	 0.212781922462625 
1146	 0.213007355137215 
1147	 0.213265877576485 
1148	 0.213452711898411 
1149	 0.213606421515612 
1150	 0.213747176183421 
1151	 0.213960558017698 
1152	 0.214187223080142 
1153	 0.214438253910914 
1154	 0.214683410796196 
1155	 0.215005897398024 
1156	 0.21521160681308 
1157	 0.215302978035074 
1158	 0.215500081796407 
1159	 0.215719879033367 
1160	 0.215897489409482 
1161	 0.21612360818336 
1162	 0.216401295204597 
1163	 0.216642436053624 
1164	 0.216921429866646 
1165	 0.21717624589734 
1166	 0.217429523778624 
1167	 0.217694540253199 
1168	 0.217861436030517 
1169	 0.218072975113043 
1170	 0.218316235282814 
1171	 0.218547420868435 
1172	 0.218741427941767 
1173	 0.219012706719691 
1174	 0.219358806274124 
1175	 0.219634419464819 
1176	 0.219938001706357 
1177	 0.220177752360476 
1178	 0.220346952247327 
1179	 0.220509511589864 
1180	 0.220717427295251 
1181	 0.220896449382783 
1182	 0.221124285230766 
1183	 0.221436261872212 
1184	 0.221680205647169 
1185	 0.221910685232586 
1186	 0.222138187043293 
1187	 0.222318246827545 
1188	 0.222543965864396 
1189	 0.222797985068911 
1190	 0.223058421428303 
1191	 0.223330427732872 
1192	 0.223587478251478 
1193	 0.223848966001489 
1194	 0.224106950013715 
1195	 0.224389643968387 
1196	 0.224640044280151 
1197	 0.224868002632959 
1198	 0.22509202040826 
1199	 0.225345317357534 
1200	 0.225530104266337 
1201	 0.2257259830896 
1202	 0.22598680796048 
1203	 0.226346697061444 
1204	 0.226684603852632 
1205	 0.226964900290766 
1206	 0.227289060038285 
1207	 0.227557472293778 
1208	 0.227682280854475 
1209	 0.227946633988229 
1210	 0.228293342158763 
1211	 0.228601800067992 
1212	 0.228919983694783 
1213	 0.22924983749558 
1214	 0.229562144736106 
1215	 0.229929388462085 
1216	 0.230340969617356 
1217	 0.230745252218019 
1218	 0.231192676778909 
1219	 0.231632137809882 
1220	 0.231987349268305 
1221	 0.232365653308156 
1222	 0.232727112058032 
1223	 0.233126533401587 
1224	 0.233512906544894 
1225	 0.233930815089061 
1226	 0.234332876802711 
1227	 0.234710526021469 
1228	 0.235091616812339 
1229	 0.235534840537941 
1230	 0.23587220381503 
1231	 0.236115172878561 
1232	 0.236431569112994 
1233	 0.236721995749728 
1234	 0.237019987841603 
1235	 0.237386844416006 
1236	 0.237700567107564 
1237	 0.237928414273634 
1238	 0.238227985914791 
1239	 0.238542081758206 
1240	 0.238885913514576 
1241	 0.239302869307575 
1242	 0.239686480443553 
1243	 0.239994183981237 
1244	 0.240249865362123 
1245	 0.240550106761326 
1246	 0.240790520371465 
1247	 0.241094063466908 
1248	 0.241484833469151 
1249	 0.241795698571741 
1250	 0.24209741198464 
1251	 0.242343040847847 
1252	 0.242534379146062 
1253	 0.242735349969001 
1254	 0.242869058894581 
1255	 0.243063258961211 
1256	 0.243310805790056 
1257	 0.243522151430929 
1258	 0.243712076103306 
1259	 0.243939425169917 
1260	 0.244194591886228 
1261	 0.244409800502154 
1262	 0.244616697424083 
1263	 0.244860869240475 
1264	 0.245053042771784 
1265	 0.24519627768476 
1266	 0.245346346859466 
1267	 0.245491005836808 
1268	 0.245634071085183 
1269	 0.245741178127345 
1270	 0.24588653079708 
1271	 0.246079275243747 
1272	 0.246215287046705 
1273	 0.246295231723877 
1274	 0.246458048658184 
1275	 0.246652176470417 
1276	 0.246814506977142 
1277	 0.24700540731592 
1278	 0.247207640273361 
1279	 0.247349524756563 
1280	 0.247558966667433 
1281	 0.247817826011284 
1282	 0.248114167440391 
1283	 0.248456152390509 
1284	 0.248802670393687 
1285	 0.249174363517026 
1286	 0.249605003007852 
1287	 0.2499912517728 
1288	 0.250350515855126 
1289	 0.250768799429347 
1290	 0.251202330449387 
1291	 0.251653784381929 
1292	 0.252159488232527 
1293	 0.252622318973866 
1294	 0.253072442472299 
1295	 0.253529460869133 
1296	 0.253991863777833 
1297	 0.254431128136846 
1298	 0.254822423884978 
1299	 0.255289669000171 
1300	 0.25576559967983 
1301	 0.25626820292662 
1302	 0.256901731064692 
1303	 0.257413816911953 
1304	 0.257870754391467 
1305	 0.258314581375506 
1306	 0.258677664827784 
1307	 0.259062756643253 
1308	 0.259464540600772 
1309	 0.259839866955032 
1310	 0.260204986545606 
1311	 0.260561052887091 
1312	 0.260902570738593 
1313	 0.261216922684593 
1314	 0.261552261296299 
1315	 0.261899157494884 
1316	 0.262208492702433 
1317	 0.262503201320285 
1318	 0.262804393914689 
1319	 0.263103622513147 
1320	 0.263359728531232 
1321	 0.263625263217162 
1322	 0.263833737670925 
1323	 0.263971045568865 
1324	 0.264117723856115 
1325	 0.264241471467911 
1326	 0.264367072086559 
1327	 0.264486696626292 
1328	 0.26459012796516 
1329	 0.264684225561468 
1330	 0.264773163521456 
1331	 0.264835870566071 
1332	 0.264911625903958 
1333	 0.265012718034247 
1334	 0.265079333306391 
1335	 0.265137710173601 
1336	 0.265190150818627 
1337	 0.265240845987763 
1338	 0.265286101927768 
1339	 0.265295002539078 
1340	 0.2653014593624 
1341	 0.26527508685012 
1342	 0.265194651440299 
1343	 0.265140679233745 
1344	 0.265083749312496 
1345	 0.265030625908562 
1346	 0.264970451735804 
1347	 0.264928456545892 
1348	 0.264905198788693 
1349	 0.264864033058022 
1350	 0.264857368781605 
1351	 0.264779872257544 
1352	 0.264627818248457 
1353	 0.264529435395708 
1354	 0.264410282136741 
1355	 0.26431202585223 
1356	 0.264269041212015 
1357	 0.26419888485505 
1358	 0.264105509778773 
1359	 0.264024078391339 
1360	 0.263949481670946 
1361	 0.263870475105993 
1362	 0.263808238614793 
1363	 0.263715966255336 
1364	 0.263619303780232 
1365	 0.26350881345533 
1366	 0.263408974630408 
1367	 0.263286216518909 
1368	 0.263214358926508 
1369	 0.263191431472195 
1370	 0.26310570038133 
1371	 0.26300947043471 
1372	 0.262926925608786 
1373	 0.262834580979483 
1374	 0.262710173834044 
1375	 0.262582616467396 
1376	 0.262462354225632 
1377	 0.26229308560363 
1378	 0.262155242743666 
1379	 0.2620618548252 
1380	 0.261945672506911 
1381	 0.261799662384794 
1382	 0.261681763054311 
1383	 0.261585554610774 
1384	 0.26148997169831 
1385	 0.261400638625826 
1386	 0.261315796682308 
1387	 0.261232570344806 
1388	 0.26115277730522 
1389	 0.26107732586979 
1390	 0.26101227824655 
1391	 0.260930734498551 
1392	 0.260897146355924 
1393	 0.260867722247555 
1394	 0.260862441634219 
1395	 0.260912137882397 
1396	 0.261026741455767 
1397	 0.261082987741349 
1398	 0.261186466184239 
1399	 0.26120010044273 
1400	 0.261166842917772 
1401	 0.261096361139587 
1402	 0.260970495939632 
1403	 0.260852176462484 
1404	 0.260698335629845 
1405	 0.260545896167691 
1406	 0.26038969268965 
1407	 0.260226534799758 
1408	 0.260033623420892 
1409	 0.25986516383549 
1410	 0.259742698270342 
1411	 0.259547302906563 
1412	 0.259266690684857 
1413	 0.259092696254088 
1414	 0.258938730016657 
1415	 0.258778627285048 
1416	 0.258698823477399 
1417	 0.258587446434732 
1418	 0.258392160811469 
1419	 0.258281148090928 
1420	 0.258247197912017 
1421	 0.258185832762862 
1422	 0.258155072404136 
1423	 0.258104644458449 
1424	 0.258006840082803 
1425	 0.257954892130663 
1426	 0.257955692422746 
1427	 0.257919439810554 
1428	 0.257873885317179 
1429	 0.257839732996127 
1430	 0.257830660604796 
1431	 0.257795327140315 
1432	 0.257824168755783 
1433	 0.257938746727818 
1434	 0.257975047627266 
1435	 0.258003771664985 
1436	 0.258006512489757 
1437	 0.257957499422251 
1438	 0.257951355219551 
1439	 0.25795204111912 
1440	 0.257954953654771 
1441	 0.25795796505597 
1442	 0.2580010928753 
1443	 0.258060253657202 
1444	 0.258117728090976 
1445	 0.258186039477785 
1446	 0.258299678816085 
1447	 0.258405267593454 
1448	 0.258576346922313 
1449	 0.258816730242341 
1450	 0.259070949744931 
1451	 0.259346347376112 
1452	 0.259664643312506 
1453	 0.260031327382679 
1454	 0.260411893651557 
1455	 0.260845596089515 
1456	 0.261260315467055 
1457	 0.26171359198213 
1458	 0.262119925636951 
1459	 0.262498228318358 
1460	 0.262868193636178 
1461	 0.263191627935308 
1462	 0.263536935973959 
1463	 0.263875281787395 
1464	 0.264234234453798 
1465	 0.264636431943502 
1466	 0.265003166888821 
1467	 0.265328135001559 
1468	 0.265693910104909 
1469	 0.266058940221193 
1470	 0.266415445793257 
1471	 0.26674406246122 
1472	 0.267088856299621 
1473	 0.267404841392184 
1474	 0.267664897740189 
1475	 0.26796507269604 
1476	 0.268290204330147 
1477	 0.268600059922974 
1478	 0.26891233223968 
1479	 0.269189573044754 
1480	 0.269442383701166 
1481	 0.269722220714975 
1482	 0.269986380260551 
1483	 0.270259853399327 
1484	 0.270575139765628 
1485	 0.270848046531453 
1486	 0.271082259231689 
1487	 0.271334740308903 
1488	 0.271592213800672 
1489	 0.271833022033808 
1490	 0.272062210060265 
1491	 0.272304416403289 
1492	 0.272507115579984 
1493	 0.27278717788356 
1494	 0.273137973849755 
1495	 0.273442661512448 
1496	 0.273753072544296 
1497	 0.27408474440628 
1498	 0.274418456106883 
1499	 0.27473256060289 
1500	 0.27507449232021 
1501	 0.275396934424994 
1502	 0.275675937910608 
1503	 0.275962811492886 
1504	 0.276280104034388 
1505	 0.276557402219381 
1506	 0.276809067502074 
1507	 0.277043369176847 
1508	 0.277204573221711 
1509	 0.277440213186543 
1510	 0.27773465635566 
1511	 0.277977356029105 
1512	 0.27825087762722 
1513	 0.278492305960521 
1514	 0.278668764700748 
1515	 0.27884706393894 
1516	 0.279027551493026 
1517	 0.279203137045942 
1518	 0.279315319778303 
1519	 0.279493094615246 
1520	 0.279719829297155 
1521	 0.279957531007012 
1522	 0.280165955233568 
1523	 0.280368280376214 
1524	 0.280523174112928 
1525	 0.280602511428235 
1526	 0.28072925324056 
1527	 0.280870449113777 
1528	 0.280981446421733 
1529	 0.281068091453178 
1530	 0.281194796083814 
1531	 0.281320378098222 
1532	 0.281453152293805 
1533	 0.281618770464578 
1534	 0.281761404644341 
1535	 0.281898644686963 
1536	 0.282013824575167 
1537	 0.282123300135329 
1538	 0.28222107608777 
1539	 0.282268029235716 
1540	 0.282387209769887 
1541	 0.282528562362073 
1542	 0.282695312734389 
1543	 0.282912362839451 
1544	 0.283103782486818 
1545	 0.283304970585216 
1546	 0.283496976602367 
1547	 0.283693375210256 
1548	 0.283864371340459 
1549	 0.28401482828485 
1550	 0.284182119734354 
1551	 0.28433868138227 
1552	 0.284501068287404 
1553	 0.284668806459449 
1554	 0.284852941283269 
1555	 0.285047495529776 
1556	 0.285226412970339 
1557	 0.285433170893408 
1558	 0.285597217398773 
1559	 0.285702244667448 
1560	 0.285860019400148 
1561	 0.286035978799917 
1562	 0.28619724429529 
1563	 0.286378882924107 
1564	 0.286543942718558 
1565	 0.286678269981772 
1566	 0.286836276637658 
1567	 0.286988342787219 
1568	 0.287181124606517 
1569	 0.287426940493965 
1570	 0.287618658901533 
1571	 0.287817692800934 
1572	 0.287998538572949 
1573	 0.288137021075385 
1574	 0.288277387225599 
1575	 0.288404951343338 
1576	 0.288561224165788 
1577	 0.288717510996207 
1578	 0.288872260653775 
1579	 0.289064272193049 
1580	 0.289227625087062 
1581	 0.289342241885109 
1582	 0.289501107368691 
1583	 0.289697121058587 
1584	 0.28986207784739 
1585	 0.290020831265403 
1586	 0.290193537282568 
1587	 0.290361525918079 
1588	 0.290519429982416 
1589	 0.290710312143226 
1590	 0.290855684163692 
1591	 0.290930969334697 
1592	 0.291059045212053 
1593	 0.291196777467872 
1594	 0.291336069506036 
1595	 0.291516239437828 
1596	 0.291666491987568 
1597	 0.291793557999752 
1598	 0.291927091807185 
1599	 0.292064544161837 
1600	 0.292185196397871 
1601	 0.292260851675177 
1602	 0.292399484493299 
1603	 0.292576862796179 
1604	 0.292730626360725 
1605	 0.292933651476528 
1606	 0.293093646690265 
1607	 0.293208280322171 
1608	 0.293321748015323 
1609	 0.293428374511167 
1610	 0.293524979713832 
1611	 0.29361981003513 
1612	 0.293681601717568 
1613	 0.293676169135481 
1614	 0.293743267595266 
1615	 0.293832258052462 
1616	 0.293913282237792 
1617	 0.294075619143742 
1618	 0.294167471575515 
1619	 0.294174597171448 
1620	 0.294225248315001 
1621	 0.294299053655376 
1622	 0.294334078451986 
1623	 0.294342178974233 
1624	 0.294388405333067 
1625	 0.294425477390499 
1626	 0.294462913795635 
1627	 0.294549617067312 
1628	 0.29460691367956 
1629	 0.294603101283671 
1630	 0.294650426343983 
1631	 0.294776345356468 
1632	 0.294816579625392 
1633	 0.294776561672321 
1634	 0.294830490802722 
1635	 0.294898950988485 
1636	 0.294942277000761 
1637	 0.295059857358508 
1638	 0.295140018886504 
1639	 0.29513419303842 
1640	 0.295175373395357 
1641	 0.295297466304941 
1642	 0.295339511300524 
1643	 0.295323646429752 
1644	 0.295332884378812 
1645	 0.295284921190678 
1646	 0.295291259721574 
1647	 0.295396332786797 
1648	 0.295404938096504 
1649	 0.295360474922109 
1650	 0.295353217203378 
1651	 0.295332048863786 
1652	 0.295277203403947 
1653	 0.295252487605318 
1654	 0.295187573031155 
1655	 0.295020518596781 
1656	 0.294905581669523 
1657	 0.294811059324763 
1658	 0.294726801787879 
1659	 0.294713939851839 
1660	 0.294598308868345 
1661	 0.294457554613989 
1662	 0.294264499804657 
1663	 0.293954324530323 
1664	 0.293686768869468 
1665	 0.293447742132099 
1666	 0.293143075750261 
1667	 0.292806255096654 
1668	 0.292450026981931 
1669	 0.292069041894775 
1670	 0.291623029876185 
1671	 0.291126870688886 
1672	 0.290618170741273 
1673	 0.290095161614285 
1674	 0.2894781065598 
1675	 0.288776491387931 
1676	 0.288133593609969 
1677	 0.287436294683928 
1678	 0.286747360522423 
1679	 0.286154474665058 
1680	 0.285429214463644 
1681	 0.284608986097074 
1682	 0.283756246830379 
1683	 0.282882074332712 
1684	 0.281928932025105 
1685	 0.280863061576391 
1686	 0.279856144288611 
1687	 0.27881284545996 
1688	 0.27774471516295 
1689	 0.276734840435827 
1690	 0.27561488453975 
1691	 0.274396132005704 
1692	 0.273216131487963 
1693	 0.272017354584258 
1694	 0.270782903963191 
1695	 0.269528546485329 
1696	 0.268263535050184 
1697	 0.266956333920556 
1698	 0.26563927517619 
1699	 0.26433824792677 
1700	 0.263007645472453 
1701	 0.261618139213563 
1702	 0.260282815810956 
1703	 0.258917528197759 
1704	 0.257662592521173 
1705	 0.256436398827467 
1706	 0.255331983245845 
1707	 0.254327992341195 
1708	 0.253382999633237 
1709	 0.252568010027615 
1710	 0.251752967874334 
1711	 0.250952418184264 
1712	 0.250288934279097 
1713	 0.249649906357113 
1714	 0.249025555379111 
1715	 0.248537576104924 
1716	 0.248009043049818 
1717	 0.247468112697343 
1718	 0.247029234203227 
1719	 0.246531238423207 
1720	 0.246025664538061 
1721	 0.24557313363593 
1722	 0.245236657467955 
1723	 0.244995272650285 
1724	 0.24478656141 
1725	 0.244656047760282 
1726	 0.244549763556856 
1727	 0.244562670501304 
1728	 0.24472355177882 
1729	 0.245005604579399 
1730	 0.245371989186036 
1731	 0.24579060307159 
1732	 0.246370397663305 
1733	 0.246993551819408 
1734	 0.247610474441211 
1735	 0.248232312595822 
1736	 0.248890189489091 
1737	 0.249484583016347 
1738	 0.250022786723783 
1739	 0.250426359247127 
1740	 0.250578139503628 
1741	 0.250781441396496 
1742	 0.250973077167154 
1743	 0.251072503726552 
1744	 0.251149020825394 
1745	 0.251105249533479 
1746	 0.250939388208767 
1747	 0.250809720399962 
1748	 0.250528288246848 
1749	 0.250424019039225 
1750	 0.25041437533944 
1751	 0.250379142450591 
1752	 0.250411304576157 
1753	 0.250510476585051 
1754	 0.250621243103887 
1755	 0.250741826010309 
1756	 0.250909309212241 
1757	 0.251129563806891 
1758	 0.251374257057645 
1759	 0.251717661197239 
1760	 0.252176768914936 
1761	 0.252753444606602 
1762	 0.253373164501149 
1763	 0.254133630273888 
1764	 0.25498522577751 
1765	 0.25572419857838 
1766	 0.256580757179357 
1767	 0.257546278251994 
1768	 0.258459684533129 
1769	 0.259398461458159 
1770	 0.260288841021556 
1771	 0.261117104784725 
1772	 0.261924454101459 
1773	 0.262694817546276 
1774	 0.263429095320449 
1775	 0.264103373095255 
1776	 0.264752882641085 
1777	 0.265395171406512 
1778	 0.265983389113602 
1779	 0.266486459238975 
1780	 0.266979590889598 
1781	 0.267409665348135 
1782	 0.267777691784193 
1783	 0.268148072828314 
1784	 0.268419400255223 
1785	 0.26874836944515 
1786	 0.269087958045086 
1787	 0.269483411572452 
1788	 0.269772502156497 
1789	 0.269975485905752 
1790	 0.270184319918323 
1791	 0.270345807942607 
1792	 0.270503165785934 
1793	 0.270668334391921 
1794	 0.270785798315051 
1795	 0.270908299747311 
1796	 0.271063867626016 
1797	 0.271220425554621 
1798	 0.27136875055118 
1799	 0.271493239156548 
1800	 0.271683478269021 
1801	 0.282134012652524 
1802	 0.282405911073846 
1803	 0.282657575102181 
1804	 0.282916448490305 
1805	 0.28323258545984 
1806	 0.283437343931456 
1807	 0.283615889697611 
1808	 0.28378625264061 
1809	 0.283817075802179 
1810	 0.283988245421516 
1811	 0.284269612190341 
1812	 0.284482598875288 
1813	 0.284710436276688 
1814	 0.284951212760161 
1815	 0.285128693105436 
1816	 0.285323495734961 
1817	 0.285542982560411 
1818	 0.285761589173881 
1819	 0.286048897628766 
1820	 0.286383370802748 
1821	 0.286708096002514 
1822	 0.287090827209501 
1823	 0.287475116976299 
1824	 0.287790414620214 
1825	 0.28804422843636 
1826	 0.28830222580114 
1827	 0.28851054473257 
1828	 0.288764861404067 
1829	 0.289049820195314 
1830	 0.289284821598588 
1831	 0.28951621684284 
1832	 0.289719423217059 
1833	 0.289882603591881 
1834	 0.290070695904578 
1835	 0.290304057157882 
1836	 0.290548741336489 
1837	 0.290792057443703 
1838	 0.291046370512974 
1839	 0.291304679258156 
1840	 0.291563582171975 
1841	 0.291826745247724 
1842	 0.292096996229333 
1843	 0.292386376614269 
1844	 0.292650293083579 
1845	 0.292922014291365 
1846	 0.293169948485353 
1847	 0.29340116592324 
1848	 0.293608262663146 
1849	 0.29378392863243 
1850	 0.293960040891043 
1851	 0.29412384032758 
1852	 0.29426883281178 
1853	 0.294419839922732 
1854	 0.29455505329597 
1855	 0.294662474830182 
1856	 0.294777583428689 
1857	 0.29494183668836 
1858	 0.29505708538887 
1859	 0.295079674072384 
1860	 0.295058482952577 
1861	 0.295011724131147 
1862	 0.294853235406839 
1863	 0.294705411845284 
1864	 0.294693655818967 
1865	 0.294613249145934 
1866	 0.294540622633454 
1867	 0.294461971245572 
1868	 0.294293499551932 
1869	 0.294090343118433 
1870	 0.293844970162716 
1871	 0.293564677882976 
1872	 0.293256355001027 
1873	 0.292915489188509 
1874	 0.292513993695521 
1875	 0.292098727044576 
1876	 0.291599659614952 
1877	 0.291067656224708 
1878	 0.290506017079702 
1879	 0.289896851750996 
1880	 0.289278729377489 
1881	 0.288585491666513 
1882	 0.287834012048977 
1883	 0.287040320221668 
1884	 0.286160051387063 
1885	 0.285076021586389 
1886	 0.284012131788202 
1887	 0.282864256965828 
1888	 0.281571575177338 
1889	 0.28036003561328 
1890	 0.278959259819378 
1891	 0.277523448211874 
1892	 0.276124206111338 
1893	 0.274612123569823 
1894	 0.272993772263696 
1895	 0.271441177371407 
1896	 0.269823494647935 
1897	 0.268159331013154 
1898	 0.266675757554225 
1899	 0.265186664934543 
1900	 0.263718035878481 
1901	 0.262311658271111 
1902	 0.260854208782978 
1903	 0.259479257895222 
1904	 0.258143190545767 
1905	 0.256839715301946 
1906	 0.255560551024886 
1907	 0.254419661196395 
1908	 0.253291557401677 
1909	 0.252239784356963 
1910	 0.251341771556356 
1911	 0.250425604822992 
1912	 0.249563616905366 
1913	 0.248747897699562 
1914	 0.247970156374778 
1915	 0.247273319053989 
1916	 0.246663519322315 
1917	 0.246074221734313 
1918	 0.245539792085592 
1919	 0.245045483686642 
1920	 0.244486378531212 
1921	 0.244040829305806 
1922	 0.243675379170207 
1923	 0.243213566450071 
1924	 0.242892802203595 
1925	 0.242604437289367 
1926	 0.242283338479424 
1927	 0.241928473175302 
1928	 0.241698583719724 
1929	 0.241519285236259 
1930	 0.241306426765969 
1931	 0.2411982786597 
1932	 0.241134244716204 
1933	 0.241023877480408 
1934	 0.24096092740007 
1935	 0.240971950438818 
1936	 0.241047983922974 
1937	 0.241143143569231 
1938	 0.241310752156635 
1939	 0.24144709492741 
1940	 0.241607500958804 
1941	 0.241725037913229 
1942	 0.241867393556822 
1943	 0.2421225952897 
1944	 0.242440983256063 
1945	 0.242781269481848 
1946	 0.243176765373894 
1947	 0.243545582584607 
1948	 0.243918368473467 
1949	 0.244371535193388 
1950	 0.244826887457655 
1951	 0.245341384833093 
1952	 0.245830747432242 
1953	 0.246319783671613 
1954	 0.246800281185826 
1955	 0.247348464722416 
1956	 0.247783612146825 
1957	 0.248356519159605 
1958	 0.249027081600528 
1959	 0.249572664589535 
1960	 0.250153461946922 
1961	 0.250695725768792 
1962	 0.251162884670897 
1963	 0.251645422697016 
1964	 0.252157102635681 
1965	 0.252616308508856 
1966	 0.253043073732905 
1967	 0.253461145361328 
1968	 0.253824338342435 
1969	 0.254216440961289 
1970	 0.25463701940535 
1971	 0.25502186372154 
1972	 0.255452147385056 
1973	 0.25588330117776 
1974	 0.256296846355611 
1975	 0.256710135830572 
1976	 0.257114592216521 
1977	 0.257482845458626 
1978	 0.257885607800642 
1979	 0.258285146179139 
1980	 0.258710390619422 
1981	 0.259215626305444 
1982	 0.259697537540407 
1983	 0.26011957379993 
1984	 0.260559313575919 
1985	 0.260939270912722 
1986	 0.261343053487213 
1987	 0.261785959574351 
1988	 0.262276280808444 
1989	 0.262760019605407 
1990	 0.263233748068161 
1991	 0.263760056753291 
1992	 0.264324640472608 
1993	 0.264949523102464 
1994	 0.265471868505161 
1995	 0.265999952695004 
1996	 0.266504241374286 
1997	 0.266950964987836 
1998	 0.26750300071221 
1999	 0.268171259500403 
2000	 0.268742238773996 
2001	 0.269337473566221 
2002	 0.269871200501023 
2003	 0.270344964737453 
2004	 0.270795956642581 
2005	 0.27120254646818 
2006	 0.271619266993482 
2007	 0.272014860808308 
2008	 0.272393596579397 
2009	 0.272815429341611 
2010	 0.273179594313137 
2011	 0.273488479542196 
2012	 0.273789770483721 
2013	 0.274043949857587 
2014	 0.274257436307473 
2015	 0.274437828618791 
2016	 0.274552416814186 
2017	 0.274689199342115 
2018	 0.274841515179405 
2019	 0.274906531095001 
2020	 0.274916378808594 
2021	 0.274955057083478 
2022	 0.274902610276685 
2023	 0.274837687967297 
2024	 0.27486001635723 
2025	 0.274896210906543 
2026	 0.274870096093744 
2027	 0.274822600627363 
2028	 0.274768075328352 
2029	 0.274679987967071 
2030	 0.274573205136845 
2031	 0.274457977614781 
2032	 0.274336822542042 
2033	 0.274185303720951 
2034	 0.274029425659578 
2035	 0.273838152047808 
2036	 0.27370196989807 
2037	 0.273640916931404 
2038	 0.273484681104042 
2039	 0.273336868931725 
2040	 0.273227840323171 
2041	 0.273081019401266 
2042	 0.272857048318189 
2043	 0.272710151493795 
2044	 0.272590119893524 
2045	 0.2724684035363 
2046	 0.272378648416238 
2047	 0.272259175286331 
2048	 0.272106975179807 
2049	 0.2720310594518 
2050	 0.272001924939272 
2051	 0.271924013155019 
2052	 0.271930603808202 
2053	 0.271919671095653 
2054	 0.271864545399823 
2055	 0.271773142799927 
2056	 0.271677908268359 
2057	 0.271534885112169 
2058	 0.271439376629308 
2059	 0.27134641057879 
2060	 0.271268275560305 
2061	 0.271222095716901 
2062	 0.271172114334651 
2063	 0.271146837988309 
2064	 0.271076093999606 
2065	 0.270978896102604 
2066	 0.270894506409095 
2067	 0.270802942798453 
2068	 0.270720386504038 
2069	 0.270647454386243 
2070	 0.270606400188693 
2071	 0.270552710760952 
2072	 0.270521876919567 
2073	 0.270427744088286 
2074	 0.270286010575751 
2075	 0.270199713401452 
2076	 0.270098384255585 
2077	 0.26998824898287 
2078	 0.269898660945253 
2079	 0.269836042735174 
2080	 0.269781659515342 
2081	 0.2696971161929 
2082	 0.269628605915622 
2083	 0.269584086944884 
2084	 0.269431906630182 
2085	 0.269314461527403 
2086	 0.269246706395371 
2087	 0.269219258803467 
2088	 0.269181175062484 
2089	 0.269203313498484 
2090	 0.269150199032738 
2091	 0.269073144482662 
2092	 0.26899303211613 
2093	 0.268880006622375 
2094	 0.268766586862329 
2095	 0.268656642744953 
2096	 0.268519255983734 
2097	 0.268342845449395 
2098	 0.268191117962579 
2099	 0.268026512169472 
2100	 0.267821910053253 
2101	 0.267675966137709 
2102	 0.267587309287866 
2103	 0.267403095670871 
2104	 0.26719964789989 
2105	 0.266995073625458 
2106	 0.266724788284073 
2107	 0.266474538695811 
2108	 0.26625148941558 
2109	 0.266020155576339 
2110	 0.265766149963812 
2111	 0.265512736218558 
2112	 0.265252856455926 
2113	 0.265009735603091 
2114	 0.264796631502138 
2115	 0.264535882367499 
2116	 0.26426231187388 
2117	 0.26401437261064 
2118	 0.263692378954975 
2119	 0.263275882397953 
2120	 0.262938027490222 
2121	 0.262595467169766 
2122	 0.262292092864275 
2123	 0.262042338306088 
2124	 0.261757241772877 
2125	 0.261464155335024 
2126	 0.261179490022833 
2127	 0.26086861353827 
2128	 0.260610145331997 
2129	 0.260401082703893 
2130	 0.260172115225995 
2131	 0.259928971029496 
2132	 0.259736298397902 
2133	 0.259549061036565 
2134	 0.259415301899338 
2135	 0.259269217294394 
2136	 0.259142082269687 
2137	 0.258990965079871 
2138	 0.258763776531306 
2139	 0.258669750573044 
2140	 0.258662394162226 
2141	 0.258585532591001 
2142	 0.258550484733999 
2143	 0.258490823135294 
2144	 0.25834629934331 
2145	 0.258293614660424 
2146	 0.258293834226161 
2147	 0.258299589114392 
2148	 0.258350945625265 
2149	 0.258391553430268 
2150	 0.258424858995403 
2151	 0.25849442957018 
2152	 0.258609377977525 
2153	 0.258684707346987 
2154	 0.258773472063979 
2155	 0.258872625638148 
2156	 0.258904510024343 
2157	 0.258855124846226 
2158	 0.258898384069517 
2159	 0.25892876636906 
2160	 0.259006402063383 
2161	 0.259193048558033 
2162	 0.259249138107277 
2163	 0.259305967963914 
2164	 0.259280901977875 
2165	 0.259110154574391 
2166	 0.259025390324548 
2167	 0.258919717272506 
2168	 0.258843916290269 
2169	 0.25885709711081 
2170	 0.258792020888088 
2171	 0.258654466923143 
2172	 0.258565444604575 
2173	 0.258415651306621 
2174	 0.258376205950121 
2175	 0.258346051576615 
2176	 0.258308283475066 
2177	 0.258315368582951 
2178	 0.258376847437564 
2179	 0.258315454055518 
2180	 0.2582502861044 
2181	 0.258144733981396 
2182	 0.257913546746883 
2183	 0.25777577920014 
2184	 0.257674157770857 
2185	 0.257580003385646 
2186	 0.257521011099881 
2187	 0.257404887321753 
2188	 0.257280021230417 
2189	 0.257150585463417 
2190	 0.256978858834207 
2191	 0.256824319650648 
2192	 0.256696723840101 
2193	 0.256543982663709 
2194	 0.256370160177714 
2195	 0.256193373901587 
2196	 0.256028778247608 
2197	 0.255795478872642 
2198	 0.255646944513054 
2199	 0.255495125923712 
2200	 0.255277993218705 
2201	 0.255058441383882 
2202	 0.254796683539753 
2203	 0.254433286266054 
2204	 0.254175736118806 
2205	 0.253955113523047 
2206	 0.253730975846768 
2207	 0.253551690720022 
2208	 0.253309881013489 
2209	 0.253062484257454 
2210	 0.252784695287139 
2211	 0.252456863052439 
2212	 0.252162844691498 
2213	 0.251832677891449 
2214	 0.251543234530416 
2215	 0.251316004558812 
2216	 0.251038096491765 
2217	 0.250779847912026 
2218	 0.250478314577543 
2219	 0.250110759118301 
2220	 0.249769065152203 
2221	 0.24943959892474 
2222	 0.24905856261481 
2223	 0.248727062816134 
2224	 0.248340724971021 
2225	 0.247982854582674 
2226	 0.247593804900486 
2227	 0.247126378523152 
2228	 0.246654774250329 
2229	 0.246073750546898 
2230	 0.245380485728326 
2231	 0.244657542546172 
2232	 0.243846593357273 
2233	 0.243026969096121 
2234	 0.242178177810252 
2235	 0.241291411442445 
2236	 0.240479563559424 
2237	 0.239382008111874 
2238	 0.238057975426078 
2239	 0.23678516783377 
2240	 0.23539549897585 
2241	 0.233936685055419 
2242	 0.232514659050797 
2243	 0.230948132662672 
2244	 0.229201483732893 
2245	 0.227415955057036 
2246	 0.22548745811082 
2247	 0.223615471459484 
2248	 0.221749376286641 
2249	 0.219779468502494 
2250	 0.217700520583554 
2251	 0.215810819222387 
2252	 0.213745979601354 
2253	 0.211577311142301 
2254	 0.209513285619124 
2255	 0.207527298713256 
2256	 0.205555191881709 
2257	 0.203612082300589 
2258	 0.201845086181035 
2259	 0.200304893519657 
2260	 0.198477143501492 
2261	 0.196622230780074 
2262	 0.194881221507372 
2263	 0.192937825016824 
2264	 0.191287412212322 
2265	 0.189968456519738 
2266	 0.188450807792776 
2267	 0.186990348904008 
2268	 0.185396714703865 
2269	 0.183641816132566 
2270	 0.182069370047147 
2271	 0.180412111650566 
2272	 0.178940614804169 
2273	 0.17773054472527 
2274	 0.176394769785998 
2275	 0.175168176880994 
2276	 0.17380236604075 
2277	 0.172330426724782 
2278	 0.170877877807215 
2279	 0.169257217075414 
2280	 0.16777695313935 
2281	 0.166485255876937 
2282	 0.165017591804863 
2283	 0.163516747409757 
2284	 0.162007553449515 
2285	 0.160339456835126 
2286	 0.158717961163303 
2287	 0.157235127632342 
2288	 0.155712394802974 
2289	 0.154174126185304 
2290	 0.152658781590334 
2291	 0.151115043951187 
2292	 0.14953674195155 
2293	 0.147998792244884 
2294	 0.146344294847268 
2295	 0.144636016823694 
2296	 0.143206554262837 
2297	 0.142050635260461 
2298	 0.141132362571657 
2299	 0.140361733764504 
2300	 0.139888487121684 
2301	 0.139477203726373 
2302	 0.139122718610002 
2303	 0.139055078915367 
2304	 0.139297994369481 
2305	 0.139586308340349 
2306	 0.140056063300086 
2307	 0.140632367704796 
2308	 0.141215879208998 
2309	 0.142140938548025 
2310	 0.143399255929118 
2311	 0.14464934384228 
2312	 0.146246169068653 
2313	 0.14759275460777 
2314	 0.148888767511928 
2315	 0.150127028234279 
2316	 0.151271049810621 
2317	 0.152471311658053 
2318	 0.153746079291221 
2319	 0.154743082381051 
2320	 0.155668229675221 
2321	 0.15640302891663 
2322	 0.15685536098061 
2323	 0.157325034118726 
2324	 0.15780688186759 
2325	 0.158066378277018 
2326	 0.158057053778483 
2327	 0.158104385764037 
2328	 0.158108646144532 
2329	 0.157893343107242 
2330	 0.157534034755624 
2331	 0.157329938031231 
2332	 0.156589232556093 
2333	 0.15575385384192 
2334	 0.154944436094621 
2335	 0.153875270079813 
2336	 0.15278046408858 
2337	 0.151797895080843 
2338	 0.150957345565057 
2339	 0.150083614600508 
2340	 0.149282397795919 
2341	 0.148552850759953 
2342	 0.14769436862135 
2343	 0.146873304908868 
2344	 0.146186400006629 
2345	 0.145594056345792 
2346	 0.145206397002515 
2347	 0.145160282047806 
2348	 0.145247916331927 
2349	 0.145672258564509 
2350	 0.14652644685909 
2351	 0.147255287807054 
2352	 0.148221711963955 
2353	 0.149417547449945 
2354	 0.150157892953232 
2355	 0.151034400276897 
2356	 0.151868455469814 
2357	 0.152386137959955 
2358	 0.153015893229827 
2359	 0.153428996932472 
2360	 0.153693863455021 
2361	 0.153908135386917 
2362	 0.154077289918248 
2363	 0.154358726935929 
2364	 0.154769234935782 
2365	 0.154924806722221 
2366	 0.154782466660764 
2367	 0.1547106777899 
2368	 0.154464719814717 
2369	 0.154213878878828 
2370	 0.154315258613228 
2371	 0.154456095284891 
2372	 0.154366620424408 
2373	 0.154333306269588 
2374	 0.154318022232572 
2375	 0.154161557573757 
2376	 0.154025448370174 
2377	 0.153945997965771 
2378	 0.153979705934579 
2379	 0.154076636434067 
2380	 0.154393590787037 
2381	 0.154738602815276 
2382	 0.154925937366172 
2383	 0.155039065305405 
2384	 0.15513599776708 
2385	 0.155032650241203 
2386	 0.155118614191704 
2387	 0.155335972867443 
2388	 0.155355268321474 
2389	 0.155363262526556 
2390	 0.155476517210212 
2391	 0.155530969726147 
2392	 0.155610100308143 
2393	 0.155725152733307 
2394	 0.155767151687401 
2395	 0.155731027558033 
2396	 0.155805838817307 
2397	 0.156131070160494 
2398	 0.156208042407044 
2399	 0.156060666778946 
2400	 0.1560350139615 
2401	 0.155757370428609 
2402	 0.15599504993712 
2403	 0.156419072134621 
2404	 0.156561306951516 
2405	 0.156849754399273 
2406	 0.156696754297841 
2407	 0.156199129477271 
2408	 0.156031913262327 
2409	 0.155881160995421 
2410	 0.155816521790336 
2411	 0.156084371613424 
2412	 0.156256003081152 
2413	 0.156029733156184 
2414	 0.155820375922135 
2415	 0.155973789521176 
2416	 0.15632645099592 
2417	 0.156985045577283 
2418	 0.157372002832644 
2419	 0.157278131052595 
2420	 0.157018385805376 
2421	 0.156521331416056 
2422	 0.156159249652026 
2423	 0.156096575612834 
2424	 0.156033216582709 
2425	 0.155882422937672 
2426	 0.155919582579099 
2427	 0.156081351229909 
2428	 0.155814355019349 
2429	 0.155291157379628 
2430	 0.155363414676041 
2431	 0.155361810469824 
2432	 0.155376690993626 
2433	 0.156280796444432 
2434	 0.156550120777693 
2435	 0.156051480637398 
2436	 0.155779782888818 
2437	 0.155016178819937 
2438	 0.154394613493966 
2439	 0.154584819984279 
2440	 0.154592949542572 
2441	 0.154174321537401 
2442	 0.153898620161149 
2443	 0.1537609497285 
2444	 0.15333734094533 
2445	 0.153462325137232 
2446	 0.15413160501692 
2447	 0.154018491862865 
2448	 0.153660106359363 
2449	 0.153545337856086 
2450	 0.152709921019404 
2451	 0.151683037721978 
2452	 0.151507506492338 
2453	 0.151259465698908 
2454	 0.150866422439088 
2455	 0.150796323354771 
2456	 0.150412417029707 
2457	 0.150235192760388 
2458	 0.150382996605274 
2459	 0.1500835195143 
2460	 0.149848486478505 
2461	 0.149679063774431 
2462	 0.149177666037474 
2463	 0.14877300247427 
2464	 0.148560265468492 
2465	 0.14809919360374 
2466	 0.147303027231274 
2467	 0.147393034214766 
2468	 0.147704988051276 
2469	 0.147598330362149 
2470	 0.147639556672493 
2471	 0.146973086960563 
2472	 0.145741876218555 
2473	 0.144396990805829 
2474	 0.143389983370649 
2475	 0.14341344577894 
2476	 0.144349193237659 
2477	 0.145229940667028 
2478	 0.146107666475776 
2479	 0.146817756766026 
2480	 0.146359018238718 
2481	 0.146512918899425 
2482	 0.147229537589453 
2483	 0.147035309293806 
2484	 0.147017692190976 
2485	 0.14715560351098 
2486	 0.14641436472564 
2487	 0.14547433728911 
2488	 0.145213366484727 
2489	 0.145451348721509 
2490	 0.145617908425887 
2491	 0.145795178525552 
2492	 0.146279886486223 
2493	 0.146711191292433 
2494	 0.147946236764344 
2495	 0.14891172843342 
2496	 0.149263810313916 
2497	 0.149503452382318 
2498	 0.148632830203657 
2499	 0.149009170990758 
2500	 0.150195990112681 
