Wavelength	Tablay400082.asd
350	 7.33896969236877E-02 
351	 9.62023750504376E-02 
352	 6.38247478332861E-02 
353	-4.57091607248182E-03 
354	 0.158403089133339 
355	 8.49061816629426E-02 
356	 9.09103698465447E-03 
357	 0.120208550527069 
358	 3.39005842218329E-02 
359	 4.88204553372796E-02 
360	 0.135751609908504 
361	 0.112396405009876 
362	 8.19602166406974E-02 
363	 7.47149140157085E-02 
364	 8.63930062850243E-02 
365	 6.37564509653709E-02 
366	 7.26594917928962E-02 
367	 8.07492712909769E-02 
368	 6.71920745767697E-02 
369	 0.134903428079677 
370	 8.79700869655666E-02 
371	 1.09031439389372E-02 
372	 0.10979999126799 
373	 0.114664310888162 
374	 8.87505008203622E-02 
375	 7.48058649672602E-02 
376	 4.24392159568462E-02 
377	 3.06520706961654E-02 
378	 4.72152909446936E-02 
379	 7.54799578375803E-02 
380	 5.39999301842773E-02 
381	 5.58431123552013E-02 
382	 7.22898209041379E-02 
383	 5.13628046467549E-02 
384	 5.37765970930124E-02 
385	 4.90896439583287E-02 
386	 3.50759230112327E-02 
387	 6.79682384558365E-02 
388	 4.53992285108445E-02 
389	 2.58782314866008E-02 
390	 6.65471510246805E-02 
391	 5.31786587265334E-02 
392	 5.26916096137467E-02 
393	 7.15019434704282E-02 
394	 0.075213690317395 
395	 5.00388755912831E-02 
396	 3.18090768215576E-02 
397	 4.00555030084079E-02 
398	 6.14958379645104E-02 
399	 7.02766520435272E-02 
400	 6.89530552897757E-02 
401	 6.75780609218145E-02 
402	 6.14800887618359E-02 
403	 5.28644094669658E-02 
404	 4.89821696460336E-02 
405	 5.84375137004959E-02 
406	 0.062152153497419 
407	 6.65468230698329E-02 
408	 7.14025752533621E-02 
409	 5.38374677854576E-02 
410	 5.44959829923915E-02 
411	 6.84792674300018E-02 
412	 7.65991050891798E-02 
413	 6.83793959318607E-02 
414	 6.06231753027036E-02 
415	 5.71261388417058E-02 
416	 5.02051440670433E-02 
417	 5.63366409351307E-02 
418	 6.15652434164178E-02 
419	 5.73226981551306E-02 
420	 5.85683188537485E-02 
421	 0.053000648976115 
422	 4.98029930108129E-02 
423	 6.03689490931596E-02 
424	 5.35846976736095E-02 
425	 5.27581326803822E-02 
426	 6.07274418802963E-02 
427	 5.47691060957204E-02 
428	 5.61736929858856E-02 
429	 5.82947830130938E-02 
430	 5.43230577274526E-02 
431	 5.42865411179963E-02 
432	 5.66330398615765E-02 
433	 5.86835091075119E-02 
434	 5.78210692334991E-02 
435	 5.80492140772066E-02 
436	 5.78827664726191E-02 
437	 5.68543857395287E-02 
438	 5.69405810997715E-02 
439	 0.055612297140786 
440	 5.55924541190009E-02 
441	 0.058917894067166 
442	 5.95208299200021E-02 
443	 5.69739977834538E-02 
444	 5.45041662249096E-02 
445	 0.057227297880375 
446	 0.057066521099118 
447	 5.74943940965317E-02 
448	 0.060300068466198 
449	 6.01837165794116E-02 
450	 5.65749474071528E-02 
451	 5.50578303791631E-02 
452	 6.05810727942678E-02 
453	 0.059755535839268 
454	 5.75939899101933E-02 
455	 5.71244924301628E-02 
456	 5.78525547196782E-02 
457	 5.83307429013621E-02 
458	 5.81551853892967E-02 
459	 5.75880611084535E-02 
460	 5.76732907831872E-02 
461	 6.05579109849717E-02 
462	 6.24590798637001E-02 
463	 0.058170164913892 
464	 5.89827388442991E-02 
465	 5.87377997615089E-02 
466	 5.58478632424767E-02 
467	 5.84173886216953E-02 
468	 5.89453913898567E-02 
469	 5.85546775846859E-02 
470	 5.96242935224071E-02 
471	 0.059297016173223 
472	 5.99084610266239E-02 
473	 6.04849602475239E-02 
474	 5.79362532478704E-02 
475	 5.80152234118464E-02 
476	 5.98707485008351E-02 
477	 6.12354840901711E-02 
478	 5.86377401960759E-02 
479	 5.93074971265033E-02 
480	 6.15751038145587E-02 
481	 6.10872202158208E-02 
482	 5.96109500887474E-02 
483	 5.97489083698664E-02 
484	 6.09060950450312E-02 
485	 5.90767393116097E-02 
486	 5.97221866704374E-02 
487	 6.07793448567192E-02 
488	 6.00261870407172E-02 
489	 5.99276344398851E-02 
490	 5.95867745108194E-02 
491	 5.90353059129067E-02 
492	 5.87952692739829E-02 
493	 5.87075954612549E-02 
494	 0.058923135112641 
495	 5.92068080544949E-02 
496	 5.86237253959468E-02 
497	 5.84856694823898E-02 
498	 5.82752771490405E-02 
499	 5.74013104564516E-02 
500	 5.74685532794724E-02 
501	 5.77894798233152E-02 
502	 5.77475922424045E-02 
503	 5.69679745372051E-02 
504	 5.68455928253643E-02 
505	 0.056812956331176 
506	 5.64440949257469E-02 
507	 5.65956894276943E-02 
508	 5.59657423606022E-02 
509	 5.50743593703653E-02 
510	 5.50473151149813E-02 
511	 5.53322785621975E-02 
512	 5.49395343874007E-02 
513	 5.39765441631937E-02 
514	 5.39291502206918E-02 
515	 5.38768225726271E-02 
516	 5.34152839359419E-02 
517	 0.052580012840312 
518	 5.24703075158476E-02 
519	 5.21207151063368E-02 
520	 5.14476495061373E-02 
521	 5.09932858298019E-02 
522	 5.09616823907101E-02 
523	 0.050835922964423 
524	 5.04454680209863E-02 
525	 5.05155845054111E-02 
526	 5.03531452556245E-02 
527	 4.99269598684404E-02 
528	 4.94396419724653E-02 
529	 4.89808858158504E-02 
530	 4.85893271480026E-02 
531	 4.82869535873187E-02 
532	 4.80932378295018E-02 
533	 4.84373355499993E-02 
534	 4.83826688746198E-02 
535	 4.74096978789853E-02 
536	 4.68977938648301E-02 
537	 4.69067603715572E-02 
538	 4.68916684658994E-02 
539	 4.61597191586093E-02 
540	 4.60329269419764E-02 
541	 4.59168212715186E-02 
542	 4.55279534115581E-02 
543	 4.54377334627981E-02 
544	 4.49844954058419E-02 
545	 4.44761466373541E-02 
546	 4.43690236722018E-02 
547	 4.44698349511942E-02 
548	 4.41848004460521E-02 
549	 4.36185490259922E-02 
550	 4.34625190719811E-02 
551	 4.33092566646247E-02 
552	 4.31225429838342E-02 
553	 4.29384936526937E-02 
554	 0.042823933306004 
555	 4.26536279360457E-02 
556	 4.23903634209832E-02 
557	 4.20810238985843E-02 
558	 4.20265703806161E-02 
559	 4.19679448443265E-02 
560	 4.18054616777385E-02 
561	 0.041733710688413 
562	 4.16253539564772E-02 
563	 4.15703818744164E-02 
564	 4.16044504690814E-02 
565	 4.13305859396723E-02 
566	 4.11901334649174E-02 
567	 4.11286524198826E-02 
568	 4.07775418449654E-02 
569	 4.09316857996608E-02 
570	 4.08148359030487E-02 
571	 4.01445416407404E-02 
572	 4.01451591325903E-02 
573	 4.02105736411248E-02 
574	 4.02306277169039E-02 
575	 4.02286497847203E-02 
576	 4.00117396585822E-02 
577	 3.98704681208693E-02 
578	 3.98840919876439E-02 
579	 3.98601235908327E-02 
580	 0.039805958447314 
581	 3.96540583088875E-02 
582	 3.94091960234908E-02 
583	 3.92990776884692E-02 
584	 3.94474331189749E-02 
585	 3.95589735210699E-02 
586	 3.92017592346005E-02 
587	 3.91531496998401E-02 
588	 0.039135826632414 
589	 3.90017569096996E-02 
590	 3.90206188023881E-02 
591	 3.90532669587318E-02 
592	 3.91156937643277E-02 
593	 3.91843024793086E-02 
594	 3.88349057916317E-02 
595	 3.87324793932816E-02 
596	 3.88837262727456E-02 
597	 3.87240343935522E-02 
598	 3.85039843277004E-02 
599	 0.038335433351483 
600	 3.82869247316332E-02 
601	 3.84234874820855E-02 
602	 3.82621237156385E-02 
603	 3.79955514979906E-02 
604	 3.80436923066606E-02 
605	 3.81001742793284E-02 
606	 3.82297544305321E-02 
607	 3.83785155887247E-02 
608	 3.83181593237336E-02 
609	 3.79528136458109E-02 
610	 3.75721309692744E-02 
611	 3.74677492465649E-02 
612	 3.76286557755513E-02 
613	 3.76762709152457E-02 
614	 3.76315887419505E-02 
615	 3.77404689630594E-02 
616	 0.037641074459805 
617	 3.75112198823528E-02 
618	 3.74730183191339E-02 
619	 3.74247318082962E-02 
620	 3.74200120693373E-02 
621	 3.74074199779923E-02 
622	 3.73412128600398E-02 
623	 3.73604006756473E-02 
624	 3.74394333553256E-02 
625	 3.74727778836464E-02 
626	 3.73119674841542E-02 
627	 3.72981034400537E-02 
628	 0.037317649098699 
629	 3.72659846811891E-02 
630	 3.72959362443211E-02 
631	 3.72095587668104E-02 
632	 0.03711895796073 
633	 3.72068380426728E-02 
634	 3.71135085304437E-02 
635	 3.70450266817071E-02 
636	 3.70793165803362E-02 
637	 3.70792655811924E-02 
638	 3.70237793454506E-02 
639	 3.69481120702008E-02 
640	 3.69109532024357E-02 
641	 3.70066079153016E-02 
642	 3.69546176154346E-02 
643	 3.68498511125215E-02 
644	 3.69668797810446E-02 
645	 3.68983060677671E-02 
646	 3.68482724937738E-02 
647	 3.69319856992174E-02 
648	 3.70102357484221E-02 
649	 0.036908095525022 
650	 3.67506371121812E-02 
651	 3.67422673250761E-02 
652	 3.69998062961186E-02 
653	 3.70325133641428E-02 
654	 3.68714906093268E-02 
655	 3.69490668093759E-02 
656	 3.69124487502803E-02 
657	 3.68527810885282E-02 
658	 3.68448141870364E-02 
659	 3.67780173326604E-02 
660	 3.67566754738067E-02 
661	 0.036782580582858 
662	 3.68247276172002E-02 
663	 3.68881336146153E-02 
664	 0.037057408515139 
665	 3.72118805621185E-02 
666	 3.70486984930282E-02 
667	 3.69754473690891E-02 
668	 0.036935410046699 
669	 3.68705858115929E-02 
670	 3.69891063919389E-02 
671	 3.69921293310909E-02 
672	 3.69353177548835E-02 
673	 3.69954896886406E-02 
674	 3.69623013753032E-02 
675	 3.69540275756506E-02 
676	 3.70218352180069E-02 
677	 3.71042423930232E-02 
678	 3.71068636354382E-02 
679	 3.70118753601759E-02 
680	 0.036889174531685 
681	 3.70004029517956E-02 
682	 0.037123639404049 
683	 0.037146788043331 
684	 3.70527597335151E-02 
685	 3.70271059985128E-02 
686	 3.70445247623528E-02 
687	 3.70629289901523E-02 
688	 3.70514818462093E-02 
689	 3.70861714206029E-02 
690	 3.71484986501345E-02 
691	 3.72034508395733E-02 
692	 3.72601666005679E-02 
693	 3.72634736254034E-02 
694	 3.72557479328142E-02 
695	 3.73232729204971E-02 
696	 0.037337260950212 
697	 3.73966597059185E-02 
698	 0.037475999359703 
699	 3.73064871886413E-02 
700	 3.73938203847438E-02 
701	 3.75542511637986E-02 
702	 3.75187078513985E-02 
703	 3.74831499761623E-02 
704	 3.75721899694941E-02 
705	 3.76997010771172E-02 
706	 3.76728090880522E-02 
707	 3.78247411608111E-02 
708	 3.78799902245937E-02 
709	 3.77459443842013E-02 
710	 3.77559305338531E-02 
711	 3.78214036290854E-02 
712	 0.037912949764225 
713	 3.80010099227589E-02 
714	 3.80156229418253E-02 
715	 3.80589090115239E-02 
716	 3.81060438905387E-02 
717	 3.80593887158504E-02 
718	 3.80928565473368E-02 
719	 3.82050158234602E-02 
720	 3.82997749535621E-02 
721	 3.81536120796275E-02 
722	 3.82456929575488E-02 
723	 3.83945588776169E-02 
724	 3.83424591940343E-02 
725	 3.83766712515567E-02 
726	 3.84455167535576E-02 
727	 3.85325927033935E-02 
728	 3.86375671384652E-02 
729	 3.86206348622753E-02 
730	 3.86283394920357E-02 
731	 3.87233458841541E-02 
732	 3.87701342325616E-02 
733	 3.88384635454558E-02 
734	 3.89038997813465E-02 
735	 3.89252310723928E-02 
736	 3.88854218092348E-02 
737	 0.038901578845826 
738	 3.89901803993424E-02 
739	 3.90982246305057E-02 
740	 3.92369090747007E-02 
741	 3.93584957476324E-02 
742	 3.94210259168258E-02 
743	 3.93983751365518E-02 
744	 3.94415540424946E-02 
745	 3.95029205980092E-02 
746	 3.95129098776394E-02 
747	 3.95259364199339E-02 
748	 3.95372423188372E-02 
749	 3.95692828722871E-02 
750	 3.96519782322266E-02 
751	 3.97654683389509E-02 
752	 3.98038550163585E-02 
753	 3.97774151145282E-02 
754	 0.039849526195125 
755	 3.99163365442169E-02 
756	 3.99597399580044E-02 
757	 3.99844089518422E-02 
758	 4.00076254022566E-02 
759	 3.99630937126286E-02 
760	 3.99564571547399E-02 
761	 0.040124618919256 
762	 4.02713490960442E-02 
763	 0.040326215111314 
764	 4.03220458012439E-02 
765	 4.03825725029272E-02 
766	 4.04330424694212E-02 
767	 4.04474647206939E-02 
768	 4.04386499399262E-02 
769	 4.04866608013695E-02 
770	 4.05427735532828E-02 
771	 4.06234918835002E-02 
772	 0.040734065220668 
773	 4.07200932176209E-02 
774	 4.06826977125459E-02 
775	 4.07041630664096E-02 
776	 4.08227095244843E-02 
777	 4.09007254819258E-02 
778	 4.09000926649139E-02 
779	 4.08569481382998E-02 
780	 4.08973573999564E-02 
781	 4.09918654150584E-02 
782	 4.10507067233135E-02 
783	 4.10252032697643E-02 
784	 0.041073384366691 
785	 4.11340033707686E-02 
786	 4.11572245831687E-02 
787	 4.11252593377361E-02 
788	 4.11914576142085E-02 
789	 4.12489408758004E-02 
790	 4.12681527123467E-02 
791	 4.13353073684791E-02 
792	 4.13329784547188E-02 
793	 4.13847940823317E-02 
794	 4.15529762209524E-02 
795	 4.16472555648344E-02 
796	 4.16313863528662E-02 
797	 4.15905549224681E-02 
798	 4.16215910707724E-02 
799	 4.15930801198646E-02 
800	 4.16234995239736E-02 
801	 4.17330393105377E-02 
802	 4.18447826395603E-02 
803	 0.041795243012634 
804	 4.17894081098204E-02 
805	 4.18952191888996E-02 
806	 4.19046729367557E-02 
807	 4.19625570943304E-02 
808	 4.20624587517295E-02 
809	 4.21430701197896E-02 
810	 0.042085551804972 
811	 4.20937422102455E-02 
812	 4.21699161965096E-02 
813	 4.22337967132573E-02 
814	 4.23309940274131E-02 
815	 4.23487341668193E-02 
816	 4.23654367769035E-02 
817	 4.25905293479155E-02 
818	 4.26282286984465E-02 
819	 4.25789285077288E-02 
820	 4.25733628920226E-02 
821	 4.26566429822192E-02 
822	 4.28304664424652E-02 
823	 0.042941038021753 
824	 4.29199358842452E-02 
825	 4.30865806754414E-02 
826	 4.32379529072628E-02 
827	 4.33049429871461E-02 
828	 4.32993456727811E-02 
829	 4.32812913905932E-02 
830	 4.33889163892179E-02 
831	 4.35795017147785E-02 
832	 4.36651624371669E-02 
833	 4.37181547433003E-02 
834	 0.043770528041025 
835	 4.38405339432977E-02 
836	 4.39293410314212E-02 
837	 0.044136296381642 
838	 4.42645511569088E-02 
839	 4.42071853255133E-02 
840	 4.43065341162519E-02 
841	 4.44295331252031E-02 
842	 4.45620682736699E-02 
843	 4.47191442676514E-02 
844	 4.48339369481238E-02 
845	 4.50158207741825E-02 
846	 4.52122830436347E-02 
847	 4.52694394342813E-02 
848	 0.045271404821485 
849	 4.53617655216153E-02 
850	 4.55417981064777E-02 
851	 4.56358890367212E-02 
852	 4.57100283047977E-02 
853	 4.59086260305412E-02 
854	 4.62315231672233E-02 
855	 4.63533741456329E-02 
856	 4.63438954989911E-02 
857	 4.63780295381416E-02 
858	 4.66069888670013E-02 
859	 4.69773220860477E-02 
860	 4.71734912829708E-02 
861	 4.72737868680046E-02 
862	 4.75053992701755E-02 
863	 4.76021438394555E-02 
864	 4.77452226878032E-02 
865	 4.80049896669809E-02 
866	 4.83071189427752E-02 
867	 4.83892050136852E-02 
868	 4.85081396768511E-02 
869	 4.87657326464048E-02 
870	 4.89561994794829E-02 
871	 4.92036119323567E-02 
872	 0.04940382442131 
873	 4.95292965975513E-02 
874	 4.98252218826846E-02 
875	 0.050034067533517 
876	 5.02165960746589E-02 
877	 5.04910223594969E-02 
878	 5.08047466416127E-02 
879	 5.11232964734614E-02 
880	 5.13900808791639E-02 
881	 5.15826565717616E-02 
882	 5.18858884994671E-02 
883	 5.21792887986805E-02 
884	 5.24756178894368E-02 
885	 5.28773660358371E-02 
886	 5.32367392241635E-02 
887	 5.36012517045894E-02 
888	 5.39510970349518E-02 
889	 5.41838810283626E-02 
890	 5.45645440526113E-02 
891	 5.49017735817431E-02 
892	 0.055151049822237 
893	 5.56477264419533E-02 
894	 5.60400409785463E-02 
895	 5.64092537961045E-02 
896	 5.68636896173222E-02 
897	 5.73034703467256E-02 
898	 5.75945606418758E-02 
899	 5.79149413722063E-02 
900	 5.84603841143437E-02 
901	 5.90843940418186E-02 
902	 5.94252859513936E-02 
903	 5.97510029938577E-02 
904	 6.04687357912769E-02 
905	 0.060904689325021 
906	 6.13436985107539E-02 
907	 6.18836439707617E-02 
908	 6.24412870760315E-02 
909	 0.062920741466195 
910	 6.35191889577282E-02 
911	 6.41690821647332E-02 
912	 6.45608780447329E-02 
913	 6.50181591234777E-02 
914	 0.06577920203375 
915	 6.66977269697566E-02 
916	 6.71865446745921E-02 
917	 6.78307500910981E-02 
918	 6.84180706214914E-02 
919	 0.068885971569684 
920	 6.97247599519371E-02 
921	 7.05100751872489E-02 
922	 7.11151523233198E-02 
923	 7.16394470878711E-02 
924	 0.072527346220866 
925	 7.34604407673423E-02 
926	 7.42662290265492E-02 
927	 0.074916329592698 
928	 7.56594042008931E-02 
929	 7.65753548757676E-02 
930	 7.73795122304394E-02 
931	 0.077872895422195 
932	 7.89030514173011E-02 
933	 7.98618129215972E-02 
934	 8.06016935102266E-02 
935	 8.13130886246571E-02 
936	 8.23467935752016E-02 
937	 8.33296792310056E-02 
938	 8.41800091661493E-02 
939	 0.085050031854984 
940	 8.59394756437481E-02 
941	 0.087104220249099 
942	 0.088268908295007 
943	 8.88626616425984E-02 
944	 8.98311239817731E-02 
945	 9.11406768962712E-02 
946	 9.24559551159516E-02 
947	 9.33339798384483E-02 
948	 9.42155875471499E-02 
949	 9.50945782153491E-02 
950	 9.61036621198614E-02 
951	 0.097553336223958 
952	 9.87285054348088E-02 
953	 9.96445326982053E-02 
954	 0.100600754727057 
955	 0.102038872486631 
956	 0.103290279707273 
957	 0.104446899179351 
958	 0.105579468622208 
959	 0.106451863739818 
960	 0.107651329903594 
961	 0.108940936401889 
962	 0.110057596313231 
963	 0.111102039496185 
964	 0.112246006316982 
965	 0.113591255235242 
966	 0.114998410932311 
967	 0.115872198673932 
968	 0.117262939605982 
969	 0.118754149765705 
970	 0.119876692091608 
971	 0.121127892225824 
972	 0.122507585466853 
973	 0.123741687314116 
974	 0.124750688105305 
975	 0.126233694909715 
976	 0.127702629915007 
977	 0.128969903415004 
978	 0.130058512910867 
979	 0.131243898034376 
980	 0.132904026212571 
981	 0.134438335311371 
982	 0.135385320317311 
983	 0.136848972643409 
984	 0.138066560751248 
985	 0.139322162672758 
986	 0.140997467383787 
987	 0.142627315498992 
988	 0.143830772711673 
989	 0.145056322713511 
990	 0.146661971920931 
991	 0.147582204875318 
992	 0.148772860131843 
993	 0.150249446599348 
994	 0.151682870009421 
995	 0.152859366340269 
996	 0.154303108103246 
997	 0.155833505604764 
998	 0.157150886479076 
999	 0.158506468872439 
1000	 0.1595600164679 
1001	 0.162653516919314 
1002	 0.164158870446059 
1003	 0.165500011872637 
1004	 0.166729893310687 
1005	 0.167711392613017 
1006	 0.168988671140865 
1007	 0.170246036524998 
1008	 0.171650588920894 
1009	 0.173356196221217 
1010	 0.174699636227271 
1011	 0.175884756100395 
1012	 0.177224915716878 
1013	 0.178482336439453 
1014	 0.179752989584106 
1015	 0.181093377320556 
1016	 0.182514872169217 
1017	 0.183877712450437 
1018	 0.185019447772319 
1019	 0.186364259397992 
1020	 0.18790850567171 
1021	 0.189199787864419 
1022	 0.190394303799579 
1023	 0.191607889762561 
1024	 0.192620858140734 
1025	 0.193807665983753 
1026	 0.195167077008478 
1027	 0.196439076866004 
1028	 0.1977296513534 
1029	 0.199007727374785 
1030	 0.200140810023377 
1031	 0.201284112179318 
1032	 0.202528588477646 
1033	 0.203833655656436 
1034	 0.205166003802429 
1035	 0.206290752424763 
1036	 0.207520164657363 
1037	 0.20880102509395 
1038	 0.209900855827722 
1039	 0.210955727879326 
1040	 0.212066159533489 
1041	 0.212981613872491 
1042	 0.214051696327136 
1043	 0.215270619431215 
1044	 0.216466032602746 
1045	 0.217582440246263 
1046	 0.218632709509535 
1047	 0.219529027458301 
1048	 0.220406526512363 
1049	 0.221428456388176 
1050	 0.222619149289895 
1051	 0.223955329796821 
1052	 0.225246733341076 
1053	 0.226416503884591 
1054	 0.227512191698481 
1055	 0.228553749847324 
1056	 0.229480497139187 
1057	 0.230477624552218 
1058	 0.231497382206564 
1059	 0.232364971223753 
1060	 0.233445237307741 
1061	 0.234491778355087 
1062	 0.235428405683036 
1063	 0.23659177425311 
1064	 0.237745420613156 
1065	 0.23878767216043 
1066	 0.239828850089746 
1067	 0.240784769587049 
1068	 0.241627171942246 
1069	 0.242347517617422 
1070	 0.243247042338413 
1071	 0.244267778228033 
1072	 0.245329757039076 
1073	 0.246165366548337 
1074	 0.247076030587137 
1075	 0.247898761336515 
1076	 0.24866871278428 
1077	 0.249698293723424 
1078	 0.250696167809583 
1079	 0.251618269522912 
1080	 0.252588350758252 
1081	 0.253387997063767 
1082	 0.254205275952374 
1083	 0.255100876342219 
1084	 0.255973001256053 
1085	 0.256949886004099 
1086	 0.257773031814529 
1087	 0.258564915500129 
1088	 0.259255951458002 
1089	 0.259909207625492 
1090	 0.260544291862569 
1091	 0.26132147989807 
1092	 0.262137395513449 
1093	 0.262934257668353 
1094	 0.263666182670689 
1095	 0.26438888474137 
1096	 0.265199124041375 
1097	 0.265944796357857 
1098	 0.266538832336938 
1099	 0.267126024846349 
1100	 0.26774692771926 
1101	 0.268401936978105 
1102	 0.269173699028921 
1103	 0.269863005421091 
1104	 0.270558421492079 
1105	 0.271184089434283 
1106	 0.271741269497068 
1107	 0.272245210258118 
1108	 0.272921262863448 
1109	 0.273551079517042 
1110	 0.274199748374999 
1111	 0.275009703118155 
1112	 0.275667788356779 
1113	 0.276259922678151 
1114	 0.276869598352034 
1115	 0.277337199290644 
1116	 0.277806604440223 
1117	 0.27834746274464 
1118	 0.278857164954897 
1119	 0.279345985873089 
1120	 0.279869458492849 
1121	 0.280398217520204 
1122	 0.280948613664334 
1123	 0.28150016872591 
1124	 0.28200405522473 
1125	 0.282554997546759 
1126	 0.283051889362772 
1127	 0.283551582825998 
1128	 0.284116072859604 
1129	 0.284517700279364 
1130	 0.284905832970182 
1131	 0.285336117611653 
1132	 0.285661881554959 
1133	 0.286077697745802 
1134	 0.286522011744446 
1135	 0.286963744905206 
1136	 0.287411068896458 
1137	 0.287867394509813 
1138	 0.288376328794698 
1139	 0.288811299856885 
1140	 0.289202300478903 
1141	 0.289587728750051 
1142	 0.289964619304689 
1143	 0.29028010039705 
1144	 0.290652260301557 
1145	 0.291015129381907 
1146	 0.291283683319804 
1147	 0.291591237820008 
1148	 0.291921539314482 
1149	 0.292136287462102 
1150	 0.29238478422606 
1151	 0.292743199065979 
1152	 0.293034719314323 
1153	 0.293299784710301 
1154	 0.293562111229968 
1155	 0.293776368501996 
1156	 0.294043369793176 
1157	 0.294327524814463 
1158	 0.294620722911177 
1159	 0.294970225808792 
1160	 0.295297510557481 
1161	 0.295569039596164 
1162	 0.295820125844923 
1163	 0.296072878371127 
1164	 0.296344617620742 
1165	 0.296574345415851 
1166	 0.29679482806205 
1167	 0.296969873429663 
1168	 0.29711125107758 
1169	 0.297331491327699 
1170	 0.297613172258684 
1171	 0.297823198461085 
1172	 0.298078294859461 
1173	 0.298271944833764 
1174	 0.298341921967509 
1175	 0.298510768516763 
1176	 0.298737378955229 
1177	 0.298920170901097 
1178	 0.299101389409816 
1179	 0.299307651760863 
1180	 0.299482237424491 
1181	 0.299647792246554 
1182	 0.299817602697817 
1183	 0.299968706187526 
1184	 0.300139944067281 
1185	 0.300262116764936 
1186	 0.300403070097148 
1187	 0.300557257337411 
1188	 0.300721250592318 
1189	 0.300849196620389 
1190	 0.301039290475838 
1191	 0.301324556390398 
1192	 0.30151869552139 
1193	 0.301661283548602 
1194	 0.301866145679402 
1195	 0.302051735220627 
1196	 0.302237690339821 
1197	 0.302436682668477 
1198	 0.302710889324067 
1199	 0.302977433746191 
1200	 0.303226345514858 
1201	 0.303450245079042 
1202	 0.303667015237767 
1203	 0.303867927581203 
1204	 0.304090413077097 
1205	 0.30435183096321 
1206	 0.304668919575313 
1207	 0.30500469303588 
1208	 0.3053308990112 
1209	 0.30573720255932 
1210	 0.306242383146384 
1211	 0.306702950896657 
1212	 0.307183343567397 
1213	 0.307668910549392 
1214	 0.308131935396081 
1215	 0.308644963177874 
1216	 0.309183596808644 
1217	 0.309744967368612 
1218	 0.310352739605167 
1219	 0.310944490734368 
1220	 0.311505992299555 
1221	 0.312202976406382 
1222	 0.312850047443549 
1223	 0.313424310218941 
1224	 0.314035422915775 
1225	 0.314648486591645 
1226	 0.315249623209021 
1227	 0.315869369494266 
1228	 0.316428904647539 
1229	 0.316978127579773 
1230	 0.317487837695133 
1231	 0.317897491238539 
1232	 0.318400827303891 
1233	 0.31896080643542 
1234	 0.319433971406164 
1235	 0.319894368200659 
1236	 0.320373673056051 
1237	 0.32079106255586 
1238	 0.321238607459328 
1239	 0.321731764261679 
1240	 0.322218334868016 
1241	 0.322744692580014 
1242	 0.323214757485524 
1243	 0.32362427242773 
1244	 0.324001891248045 
1245	 0.32440344184045 
1246	 0.324736768696768 
1247	 0.325110006578363 
1248	 0.325561022947792 
1249	 0.325929722025313 
1250	 0.326211646846142 
1251	 0.32655436069827 
1252	 0.326912797549741 
1253	 0.327265624843633 
1254	 0.327662486038947 
1255	 0.328002574905974 
1256	 0.328285557674138 
1257	 0.328604682307795 
1258	 0.328896993585692 
1259	 0.329221478384606 
1260	 0.329606434745771 
1261	 0.329960402868467 
1262	 0.330336810427811 
1263	 0.330675935419982 
1264	 0.330946170967795 
1265	 0.331150426529156 
1266	 0.33140658959751 
1267	 0.331609130789612 
1268	 0.331873646381812 
1269	 0.332195077877065 
1270	 0.332494045097352 
1271	 0.332812050309744 
1272	 0.333086665104278 
1273	 0.333331436688456 
1274	 0.333616593888093 
1275	 0.333876969534809 
1276	 0.334165641898433 
1277	 0.334517155130459 
1278	 0.334835076101073 
1279	 0.335139023808086 
1280	 0.335442383966429 
1281	 0.335720465595974 
1282	 0.336032798836384 
1283	 0.336324819047243 
1284	 0.336671681722806 
1285	 0.33705659968273 
1286	 0.337505736487835 
1287	 0.337892916038866 
1288	 0.338331767039666 
1289	 0.338645906343379 
1290	 0.338856873120537 
1291	 0.339144463173247 
1292	 0.339383440962243 
1293	 0.339687332025268 
1294	 0.340089021731517 
1295	 0.340390008699746 
1296	 0.340634716156978 
1297	 0.340930229097237 
1298	 0.341205135655786 
1299	 0.341498032966243 
1300	 0.341841557415737 
1301	 0.342160339192398 
1302	 0.342469652380795 
1303	 0.342761635333736 
1304	 0.343096072752705 
1305	 0.34334412663364 
1306	 0.343493693908383 
1307	 0.343682370678255 
1308	 0.34383110057044 
1309	 0.343981824057777 
1310	 0.344194334878031 
1311	 0.344482962516208 
1312	 0.344677788295757 
1313	 0.344856439024929 
1314	 0.345048591122387 
1315	 0.345168436846227 
1316	 0.345399650076124 
1317	 0.345681246743067 
1318	 0.345998312232051 
1319	 0.346399528154199 
1320	 0.346739888190138 
1321	 0.347077721512076 
1322	 0.347436375089924 
1323	 0.347833175000237 
1324	 0.348129249121045 
1325	 0.348407235022609 
1326	 0.348660819518239 
1327	 0.348825758653183 
1328	 0.348993668992846 
1329	 0.349202336523511 
1330	 0.349339048792591 
1331	 0.34936131546109 
1332	 0.349442874240279 
1333	 0.34953226893312 
1334	 0.349618891037264 
1335	 0.34968637924589 
1336	 0.349783283369529 
1337	 0.349823491465775 
1338	 0.34976968585392 
1339	 0.349869904822479 
1340	 0.350013968114946 
1341	 0.350172291216866 
1342	 0.350408979463462 
1343	 0.350631116362603 
1344	 0.350843539978063 
1345	 0.351082360497034 
1346	 0.351392356250807 
1347	 0.35162586099734 
1348	 0.35183983145387 
1349	 0.352028390010033 
1350	 0.352183291620275 
1351	 0.3523248745932 
1352	 0.352464398927219 
1353	 0.352556211680423 
1354	 0.352585621861035 
1355	 0.352644258870753 
1356	 0.352697585422025 
1357	 0.352732789794197 
1358	 0.352767654987406 
1359	 0.352804662522128 
1360	 0.352818420476293 
1361	 0.352828264767281 
1362	 0.352885291740836 
1363	 0.352954434620669 
1364	 0.352932958849571 
1365	 0.352869581182093 
1366	 0.352816473849153 
1367	 0.352712292207685 
1368	 0.352623529035152 
1369	 0.35255634872604 
1370	 0.352474640735749 
1371	 0.352383688680722 
1372	 0.352243491127239 
1373	 0.352099104137856 
1374	 0.351921986506846 
1375	 0.351671732501781 
1376	 0.351458528659253 
1377	 0.351261875189763 
1378	 0.351042132872812 
1379	 0.350831122758802 
1380	 0.350567804687962 
1381	 0.350265102881564 
1382	 0.349963880336888 
1383	 0.349636258350081 
1384	 0.34929492716521 
1385	 0.348940487366052 
1386	 0.348592047758198 
1387	 0.348189751136178 
1388	 0.347848962263099 
1389	 0.347479792894834 
1390	 0.347232735614918 
1391	 0.347086934268879 
1392	 0.346971725149476 
1393	 0.346885572345637 
1394	 0.346848865053712 
1395	 0.346804474457629 
1396	 0.346735551086544 
1397	 0.346724377414189 
1398	 0.346801280280153 
1399	 0.346769398279645 
1400	 0.346768336195182 
1401	 0.346595123668812 
1402	 0.34630555928531 
1403	 0.346006796419777 
1404	 0.345618748079468 
1405	 0.345208250351783 
1406	 0.344809233766476 
1407	 0.34429219384971 
1408	 0.343613091711625 
1409	 0.343035144726037 
1410	 0.342402846647918 
1411	 0.341849941141592 
1412	 0.341388059626832 
1413	 0.340901088495162 
1414	 0.340392098871008 
1415	 0.339952626811698 
1416	 0.339539185162847 
1417	 0.339159535900005 
1418	 0.338848767292827 
1419	 0.338536212582696 
1420	 0.338255757869234 
1421	 0.3379633015895 
1422	 0.337683867056354 
1423	 0.337400374574007 
1424	 0.337112217853401 
1425	 0.336796557891348 
1426	 0.336573292766567 
1427	 0.336326732065421 
1428	 0.336058941114761 
1429	 0.33586248323964 
1430	 0.335623773324238 
1431	 0.335359651448719 
1432	 0.335099823245397 
1433	 0.334836230040532 
1434	 0.334597770552419 
1435	 0.334375802841209 
1436	 0.334109782837704 
1437	 0.333857664363591 
1438	 0.333573604230853 
1439	 0.333204637340194 
1440	 0.332923841784403 
1441	 0.332669503536474 
1442	 0.332440794111872 
1443	 0.332239188368728 
1444	 0.332072982537397 
1445	 0.331905618744258 
1446	 0.331832050731761 
1447	 0.331788435065593 
1448	 0.331853484625526 
1449	 0.332041888691775 
1450	 0.332227620057336 
1451	 0.332484005677964 
1452	 0.332763237409108 
1453	 0.333088538422531 
1454	 0.333396473332087 
1455	 0.333743281556328 
1456	 0.334073516263232 
1457	 0.334407168869418 
1458	 0.334703549266222 
1459	 0.33502643872504 
1460	 0.33527154124943 
1461	 0.335445414698237 
1462	 0.335592496599111 
1463	 0.335725231789165 
1464	 0.335776776621209 
1465	 0.335792124359886 
1466	 0.335727730594904 
1467	 0.335560690924372 
1468	 0.335310480738714 
1469	 0.334987483996322 
1470	 0.334583971599903 
1471	 0.334115598096183 
1472	 0.333571511943926 
1473	 0.332973196497941 
1474	 0.332313288214712 
1475	 0.331574740367509 
1476	 0.330773578131256 
1477	 0.329883311172412 
1478	 0.328910337020317 
1479	 0.327864441444358 
1480	 0.326757888459666 
1481	 0.325542649393056 
1482	 0.324175587132363 
1483	 0.322867934574122 
1484	 0.32151608376774 
1485	 0.320120422529678 
1486	 0.318691034880616 
1487	 0.317319505148878 
1488	 0.315836885259653 
1489	 0.314537009055398 
1490	 0.313326113060602 
1491	 0.312227568372473 
1492	 0.311171989448027 
1493	 0.310321293691777 
1494	 0.309609616003555 
1495	 0.309069084670687 
1496	 0.308708686673715 
1497	 0.308480193796981 
1498	 0.308399135097476 
1499	 0.3084711926287 
1500	 0.308586112305675 
1501	 0.309061599801139 
1502	 0.309618370605259 
1503	 0.31069715153346 
1504	 0.312102926371446 
1505	 0.313985946164025 
1506	 0.316501775223041 
1507	 0.319123632872528 
1508	 0.32233153367505 
1509	 0.325359738891753 
1510	 0.328728910421773 
1511	 0.331636021431158 
1512	 0.334467213110111 
1513	 0.33691101908246 
1514	 0.338937011575604 
1515	 0.340755409588797 
1516	 0.34218356431295 
1517	 0.34354744648322 
1518	 0.344619218402725 
1519	 0.345697675691189 
1520	 0.346666578658644 
1521	 0.347638444610758 
1522	 0.348633955728519 
1523	 0.34964858952743 
1524	 0.35064508258679 
1525	 0.35167875596901 
1526	 0.352664455896414 
1527	 0.35361761925496 
1528	 0.354544978768308 
1529	 0.355477032767204 
1530	 0.356334078522248 
1531	 0.357148848318437 
1532	 0.357899306195571 
1533	 0.358600341400917 
1534	 0.359248427419924 
1535	 0.359819904974869 
1536	 0.360381182438332 
1537	 0.360884652081459 
1538	 0.361419729521013 
1539	 0.361925800466943 
1540	 0.36247319152478 
1541	 0.363042060489889 
1542	 0.363618204660404 
1543	 0.364223468552001 
1544	 0.364795583728195 
1545	 0.365378515120642 
1546	 0.365921644561691 
1547	 0.366419947308944 
1548	 0.366948353611267 
1549	 0.367478331880522 
1550	 0.367989872152057 
1551	 0.368500093693025 
1552	 0.369011431712809 
1553	 0.369498502374885 
1554	 0.370006637729559 
1555	 0.370563468327026 
1556	 0.371046093989888 
1557	 0.371508644178666 
1558	 0.371934820446119 
1559	 0.372272755317356 
1560	 0.372685745062781 
1561	 0.373127913030996 
1562	 0.373535875711134 
1563	 0.373975284098216 
1564	 0.374367563782985 
1565	 0.374679259955696 
1566	 0.375058819132627 
1567	 0.375459338133996 
1568	 0.37586128816957 
1569	 0.37631293685906 
1570	 0.376713120917671 
1571	 0.37709929822497 
1572	 0.377458536921439 
1573	 0.377783442501932 
1574	 0.378104704278214 
1575	 0.378391036568439 
1576	 0.37870219622988 
1577	 0.37902569819818 
1578	 0.379330542843087 
1579	 0.3796195686974 
1580	 0.379939149825846 
1581	 0.380255750700253 
1582	 0.380585604646248 
1583	 0.38096419318318 
1584	 0.381308069845993 
1585	 0.381647673750974 
1586	 0.381959301854957 
1587	 0.382244285596658 
1588	 0.382529741440187 
1589	 0.382787114146679 
1590	 0.383057534574565 
1591	 0.383326048904279 
1592	 0.383606963314337 
1593	 0.38390008664388 
1594	 0.384187117845496 
1595	 0.38448920079755 
1596	 0.384772832925803 
1597	 0.385038046234218 
1598	 0.385305667925964 
1599	 0.385539209755256 
1600	 0.385827964043005 
1601	 0.386204815977984 
1602	 0.386477850375137 
1603	 0.386707749736509 
1604	 0.386963299078049 
1605	 0.387145149245234 
1606	 0.387363607114967 
1607	 0.387659842781801 
1608	 0.387907970360245 
1609	 0.388149188803687 
1610	 0.388341275724154 
1611	 0.388485140961835 
1612	 0.388638637333652 
1613	 0.388728168339948 
1614	 0.388866896803077 
1615	 0.389048684651752 
1616	 0.389222513029722 
1617	 0.389404069898102 
1618	 0.389592740028927 
1619	 0.389811169969316 
1620	 0.389982089183447 
1621	 0.390133179587196 
1622	 0.390282025480956 
1623	 0.390402996232991 
1624	 0.390520034290985 
1625	 0.390658925261383 
1626	 0.390754528695051 
1627	 0.390789577034596 
1628	 0.390854031959381 
1629	 0.390913254827635 
1630	 0.390969694615939 
1631	 0.391033334979229 
1632	 0.391103698360361 
1633	 0.391134733088923 
1634	 0.391234579578877 
1635	 0.391417137747356 
1636	 0.391543595752506 
1637	 0.391693568566831 
1638	 0.391810901415901 
1639	 0.391824336679469 
1640	 0.391938718390768 
1641	 0.392136478668893 
1642	 0.3922759480428 
1643	 0.392481108855602 
1644	 0.392590961498002 
1645	 0.392596346448622 
1646	 0.39262039763468 
1647	 0.392606919947145 
1648	 0.392601009013043 
1649	 0.392619127033195 
1650	 0.392580159263573 
1651	 0.392500136223829 
1652	 0.392424612818252 
1653	 0.39233177703044 
1654	 0.392202143006423 
1655	 0.392065514954343 
1656	 0.391905159514024 
1657	 0.39169066862563 
1658	 0.391481229903613 
1659	 0.391290036841616 
1660	 0.391029190942161 
1661	 0.390750724952078 
1662	 0.390410649045904 
1663	 0.389997199445961 
1664	 0.389571113267199 
1665	 0.389140090700236 
1666	 0.388591968670386 
1667	 0.387960922381338 
1668	 0.387321013419684 
1669	 0.386616334389617 
1670	 0.385853930930184 
1671	 0.385106015212824 
1672	 0.384223524963165 
1673	 0.383219071193178 
1674	 0.382147396273107 
1675	 0.380971516469214 
1676	 0.379797756648583 
1677	 0.378587029265667 
1678	 0.377293696958198 
1679	 0.375944141041067 
1680	 0.374540172010287 
1681	 0.373073326047231 
1682	 0.371523993285836 
1683	 0.369931177090879 
1684	 0.368268259496399 
1685	 0.366492243870599 
1686	 0.364701186787426 
1687	 0.362859566891068 
1688	 0.360963579737968 
1689	 0.35901870234667 
1690	 0.357004172166992 
1691	 0.35493379121021 
1692	 0.352857259689476 
1693	 0.350734618672709 
1694	 0.348566296934363 
1695	 0.346340484208668 
1696	 0.344119493181871 
1697	 0.341874646340742 
1698	 0.339563348682558 
1699	 0.337236703078095 
1700	 0.33494664680404 
1701	 0.332574480692065 
1702	 0.330302344607062 
1703	 0.328034785280765 
1704	 0.325892446422709 
1705	 0.323800292056715 
1706	 0.3217894268421 
1707	 0.320028612108958 
1708	 0.318361501333741 
1709	 0.316816325115403 
1710	 0.315412003444618 
1711	 0.314030259518366 
1712	 0.31277581525877 
1713	 0.311535480365587 
1714	 0.310384427354892 
1715	 0.309455925581998 
1716	 0.308541809591843 
1717	 0.307685382111794 
1718	 0.306904280832132 
1719	 0.306058018474591 
1720	 0.305339264714519 
1721	 0.304673257493645 
1722	 0.304010600282925 
1723	 0.303550021165902 
1724	 0.303119496508083 
1725	 0.302804262500082 
1726	 0.302659100175542 
1727	 0.302639257403744 
1728	 0.302774469733939 
1729	 0.303064602967518 
1730	 0.303655609913287 
1731	 0.304365901552097 
1732	 0.305195763307529 
1733	 0.306150840958544 
1734	 0.307142835838292 
1735	 0.308264265547753 
1736	 0.309387169479335 
1737	 0.310435217058479 
1738	 0.311319001441688 
1739	 0.312022930439851 
1740	 0.312560093734535 
1741	 0.313018779072911 
1742	 0.31337040870767 
1743	 0.313585611045289 
1744	 0.313650342709889 
1745	 0.313657302906631 
1746	 0.313514939723798 
1747	 0.313352210598013 
1748	 0.313035506282558 
1749	 0.312903542314239 
1750	 0.312759033741516 
1751	 0.312743914172737 
1752	 0.312945002384945 
1753	 0.313099803918224 
1754	 0.313224282513619 
1755	 0.313500700547073 
1756	 0.313784312863521 
1757	 0.314255755453621 
1758	 0.314975618398029 
1759	 0.31567560329934 
1760	 0.316483490586536 
1761	 0.317402555737124 
1762	 0.31826049648923 
1763	 0.319346043160358 
1764	 0.320579021969755 
1765	 0.321890371221601 
1766	 0.323363261144801 
1767	 0.32484428851216 
1768	 0.326451505966712 
1769	 0.328093404423903 
1770	 0.329699382602145 
1771	 0.331326831998489 
1772	 0.33278559520484 
1773	 0.334216310025734 
1774	 0.335596313105399 
1775	 0.336709815375487 
1776	 0.337809923724243 
1777	 0.338850240282589 
1778	 0.339699719848453 
1779	 0.340698387241463 
1780	 0.341657999300356 
1781	 0.342294567802388 
1782	 0.343028481411272 
1783	 0.343783745376091 
1784	 0.34437709642506 
1785	 0.345105206084747 
1786	 0.345711610091327 
1787	 0.346131654176765 
1788	 0.346555552426943 
1789	 0.34700136915923 
1790	 0.347370161390713 
1791	 0.347643093161287 
1792	 0.347927216820653 
1793	 0.348157724009069 
1794	 0.348329496130513 
1795	 0.348545450478873 
1796	 0.348932306099717 
1797	 0.349288873915084 
1798	 0.349529123189672 
1799	 0.349886653027803 
1800	 0.350167299409099 
1801	 0.35153245600768 
1802	 0.352031295428787 
1803	 0.352398039032022 
1804	 0.352668784006896 
1805	 0.353031673296921 
1806	 0.353337480233644 
1807	 0.353549636635973 
1808	 0.353858271675542 
1809	 0.354240718023696 
1810	 0.354553820777681 
1811	 0.354887215146802 
1812	 0.355180231629169 
1813	 0.355376422106281 
1814	 0.355643551205765 
1815	 0.355994720016677 
1816	 0.356319725189698 
1817	 0.356667430276304 
1818	 0.357084678549124 
1819	 0.357459223842524 
1820	 0.357793966391402 
1821	 0.358160388711493 
1822	 0.358542135515556 
1823	 0.358932036528036 
1824	 0.359335765053212 
1825	 0.359758043788283 
1826	 0.360139480320409 
1827	 0.360536407479393 
1828	 0.36088565515835 
1829	 0.361134810776032 
1830	 0.361489949893559 
1831	 0.361900193568383 
1832	 0.362266115589985 
1833	 0.362636272927331 
1834	 0.363007602606993 
1835	 0.363328526670658 
1836	 0.36361020727739 
1837	 0.36387788522326 
1838	 0.364128696602988 
1839	 0.364401440747827 
1840	 0.364589288772964 
1841	 0.364897055234508 
1842	 0.365304601570726 
1843	 0.3656748750752 
1844	 0.36604681717022 
1845	 0.366430601385838 
1846	 0.366762717594161 
1847	 0.367107594958828 
1848	 0.36737025539648 
1849	 0.367577238567886 
1850	 0.367793625002255 
1851	 0.367971799363985 
1852	 0.368106483135374 
1853	 0.368292576381909 
1854	 0.368458551413006 
1855	 0.368529613507482 
1856	 0.368566988130709 
1857	 0.368547291489844 
1858	 0.368429619250601 
1859	 0.368285307328948 
1860	 0.368068101295532 
1861	 0.367851031824556 
1862	 0.367586739555926 
1863	 0.367344763186694 
1864	 0.367093697524132 
1865	 0.366776610868681 
1866	 0.366320707549771 
1867	 0.365814636777159 
1868	 0.365312258481281 
1869	 0.364726282741591 
1870	 0.364093809121917 
1871	 0.363485400003858 
1872	 0.362759372957417 
1873	 0.361918985957545 
1874	 0.361069842525124 
1875	 0.360214777198799 
1876	 0.359241885784723 
1877	 0.35819052094585 
1878	 0.356942486114506 
1879	 0.355539973335186 
1880	 0.354110508720082 
1881	 0.352566680610477 
1882	 0.350888338648063 
1883	 0.349211939619468 
1884	 0.347446239542223 
1885	 0.345494327999282 
1886	 0.343595043475972 
1887	 0.341686060762982 
1888	 0.339687127256294 
1889	 0.337835236544117 
1890	 0.336075198934753 
1891	 0.334320656115975 
1892	 0.332590806040643 
1893	 0.330785643827007 
1894	 0.32894624134563 
1895	 0.327072826181824 
1896	 0.325131383881576 
1897	 0.32322210934387 
1898	 0.321461871030907 
1899	 0.319581576486628 
1900	 0.317676059965258 
1901	 0.315797628522871 
1902	 0.313835806172658 
1903	 0.311971972291983 
1904	 0.310154292490537 
1905	 0.308371331576437 
1906	 0.306651929057873 
1907	 0.305116475216227 
1908	 0.303613183753561 
1909	 0.302177229517895 
1910	 0.300802945894286 
1911	 0.299367619810052 
1912	 0.298005429636483 
1913	 0.296736417712746 
1914	 0.295574204158854 
1915	 0.294513748490809 
1916	 0.293603198443413 
1917	 0.29267092745189 
1918	 0.291786417757888 
1919	 0.290968143683454 
1920	 0.290053588723738 
1921	 0.289259095642854 
1922	 0.288596787152901 
1923	 0.287879496984181 
1924	 0.287259525315109 
1925	 0.286714714683168 
1926	 0.286183286552032 
1927	 0.285655479588911 
1928	 0.285188388208166 
1929	 0.284771334948238 
1930	 0.284402708698694 
1931	 0.28407191244368 
1932	 0.283761429435759 
1933	 0.283513015806581 
1934	 0.283361523928532 
1935	 0.283212128724407 
1936	 0.283072313623116 
1937	 0.283058838971231 
1938	 0.283120014963452 
1939	 0.283228787086214 
1940	 0.283386946460198 
1941	 0.283751323606017 
1942	 0.284037848923511 
1943	 0.284353353499223 
1944	 0.284707892008603 
1945	 0.285017523651032 
1946	 0.285450605770018 
1947	 0.285919607339253 
1948	 0.286389376349129 
1949	 0.286914651239206 
1950	 0.287462655330246 
1951	 0.288020643722794 
1952	 0.288613203162096 
1953	 0.289233207550904 
1954	 0.289915793737795 
1955	 0.290657769181298 
1956	 0.291402646182655 
1957	 0.292179237204811 
1958	 0.292964015993894 
1959	 0.293684683672261 
1960	 0.294399366962136 
1961	 0.295044577708247 
1962	 0.295674786913028 
1963	 0.296238978240907 
1964	 0.296708996405164 
1965	 0.297135068172882 
1966	 0.297535788435408 
1967	 0.297884950973366 
1968	 0.298102994976296 
1969	 0.298396996324343 
1970	 0.298671073917902 
1971	 0.298917228352589 
1972	 0.299163871089322 
1973	 0.299339355012539 
1974	 0.299573939741217 
1975	 0.299802760017652 
1976	 0.300051598062892 
1977	 0.300316880616937 
1978	 0.300642884190039 
1979	 0.300974036103413 
1980	 0.301324397763757 
1981	 0.301840960580199 
1982	 0.302450470626861 
1983	 0.303125170873227 
1984	 0.303968699446546 
1985	 0.304851920572439 
1986	 0.305784442742199 
1987	 0.306711130677866 
1988	 0.307713887310561 
1989	 0.308636923935028 
1990	 0.309515695844949 
1991	 0.310404042390933 
1992	 0.311253144224018 
1993	 0.31217823117783 
1994	 0.313085357427856 
1995	 0.314021403705817 
1996	 0.314923195114678 
1997	 0.315841401462172 
1998	 0.31672960934911 
1999	 0.317598938389811 
2000	 0.31842820053215 
2001	 0.319255952967432 
2002	 0.320010818218231 
2003	 0.320746729027744 
2004	 0.321385627242126 
2005	 0.321953128684793 
2006	 0.322478909950064 
2007	 0.322960915826765 
2008	 0.323313721808757 
2009	 0.323634965498136 
2010	 0.3238648631377 
2011	 0.323947526982696 
2012	 0.324033560173331 
2013	 0.324051623835448 
2014	 0.324036116199805 
2015	 0.323904471673524 
2016	 0.323672423570455 
2017	 0.323419154038763 
2018	 0.323056012380231 
2019	 0.32269814382851 
2020	 0.32234721573371 
2021	 0.321929406396459 
2022	 0.321411205571869 
2023	 0.320907532984604 
2024	 0.320382572908981 
2025	 0.31982414655491 
2026	 0.319300973024972 
2027	 0.318751868256039 
2028	 0.318306873473406 
2029	 0.317947437018077 
2030	 0.317536941845364 
2031	 0.317258203169813 
2032	 0.316826461687087 
2033	 0.316352071571296 
2034	 0.315751468591416 
2035	 0.315075714645101 
2036	 0.314253133487054 
2037	 0.313408168074018 
2038	 0.312336590782421 
2039	 0.311304119737012 
2040	 0.310137109097347 
2041	 0.309111340598089 
2042	 0.307905044566898 
2043	 0.307184226479223 
2044	 0.306605406766635 
2045	 0.306396883190879 
2046	 0.30666362561201 
2047	 0.306932391904419 
2048	 0.307552753235335 
2049	 0.308038079510466 
2050	 0.308644419456565 
2051	 0.309126139911666 
2052	 0.309550544735967 
2053	 0.309873048620846 
2054	 0.310090303552514 
2055	 0.31015287370252 
2056	 0.310259999570524 
2057	 0.310249042194954 
2058	 0.310326724436944 
2059	 0.310396402510155 
2060	 0.310540219712399 
2061	 0.310711454823435 
2062	 0.310955836507418 
2063	 0.311265507945625 
2064	 0.311619198486147 
2065	 0.312034329301925 
2066	 0.312489191265908 
2067	 0.312977142910176 
2068	 0.313475783553531 
2069	 0.314012864038562 
2070	 0.314643632310927 
2071	 0.315118482767271 
2072	 0.315625059839542 
2073	 0.315973880462163 
2074	 0.316131962819352 
2075	 0.316340932758504 
2076	 0.316514931613389 
2077	 0.316635483433122 
2078	 0.316736889829472 
2079	 0.316796472451163 
2080	 0.316785619832297 
2081	 0.316754609963215 
2082	 0.316693583152581 
2083	 0.316605840765446 
2084	 0.316497651991492 
2085	 0.316324074561429 
2086	 0.31617495992008 
2087	 0.316013074682572 
2088	 0.315860542718892 
2089	 0.315726211842908 
2090	 0.315546757046143 
2091	 0.315313787746585 
2092	 0.315139122252387 
2093	 0.314970131580927 
2094	 0.314799535833451 
2095	 0.314676315469748 
2096	 0.314538098465615 
2097	 0.314423510938959 
2098	 0.314212217228088 
2099	 0.314054211446763 
2100	 0.313814366925012 
2101	 0.31350817626033 
2102	 0.313087294783009 
2103	 0.312754575534888 
2104	 0.312414843065203 
2105	 0.312047492853665 
2106	 0.311707412716155 
2107	 0.311319823730998 
2108	 0.31088716466908 
2109	 0.310424401767316 
2110	 0.309906087067181 
2111	 0.309442826407983 
2112	 0.308980853530626 
2113	 0.30849533496641 
2114	 0.308052784963114 
2115	 0.307575185481215 
2116	 0.307068184561822 
2117	 0.306508188994762 
2118	 0.305945928303807 
2119	 0.305385945685071 
2120	 0.304791349373677 
2121	 0.304116540008075 
2122	 0.303537753179136 
2123	 0.302978631358211 
2124	 0.302445929130277 
2125	 0.301994933435746 
2126	 0.301467842461762 
2127	 0.300897871970486 
2128	 0.300375371018606 
2129	 0.299767084039471 
2130	 0.299322468403873 
2131	 0.299021261757409 
2132	 0.298680805927433 
2133	 0.298411299188874 
2134	 0.298148153006515 
2135	 0.297838680652583 
2136	 0.297602263703549 
2137	 0.2973516306384 
2138	 0.297141625138541 
2139	 0.296922000772279 
2140	 0.296673116090938 
2141	 0.296472193710205 
2142	 0.296304473187771 
2143	 0.296140369303327 
2144	 0.295962940051872 
2145	 0.295883929577383 
2146	 0.295833595097911 
2147	 0.295845634636259 
2148	 0.296034066038735 
2149	 0.296089099498442 
2150	 0.296127472586175 
2151	 0.296146856518644 
2152	 0.296122685141272 
2153	 0.296013364237267 
2154	 0.2960035129691 
2155	 0.296046448147641 
2156	 0.296068716039794 
2157	 0.296111180390876 
2158	 0.296179698272438 
2159	 0.296266253533516 
2160	 0.296313191148528 
2161	 0.296406356026335 
2162	 0.296413182871012 
2163	 0.296324113098193 
2164	 0.296292484526766 
2165	 0.296285811092271 
2166	 0.296220466068279 
2167	 0.296139668064139 
2168	 0.296053986694531 
2169	 0.295854539892876 
2170	 0.295768589461189 
2171	 0.295772028888425 
2172	 0.295735182457658 
2173	 0.295695235312266 
2174	 0.295739918189767 
2175	 0.295687304906295 
2176	 0.295697089363047 
2177	 0.295739194380641 
2178	 0.295842152966874 
2179	 0.295874262113263 
2180	 0.295948199689337 
2181	 0.295930221711236 
2182	 0.29581706952383 
2183	 0.295774015980106 
2184	 0.295732222616478 
2185	 0.295649830264622 
2186	 0.295599739210743 
2187	 0.295480820812801 
2188	 0.295296552669096 
2189	 0.295103934207134 
2190	 0.294889740572422 
2191	 0.294644841827463 
2192	 0.29432170411286 
2193	 0.294045540920182 
2194	 0.293800535901704 
2195	 0.293521847739875 
2196	 0.293282304146899 
2197	 0.292987076522653 
2198	 0.29263945970846 
2199	 0.292107864556991 
2200	 0.291587890326968 
2201	 0.291035414671571 
2202	 0.290334597207251 
2203	 0.289600013551425 
2204	 0.288657549996466 
2205	 0.287495400252524 
2206	 0.286335034333627 
2207	 0.284946114416574 
2208	 0.283757135140095 
2209	 0.282555535327605 
2210	 0.281480461776939 
2211	 0.280356767735428 
2212	 0.279636146372645 
2213	 0.279095249978112 
2214	 0.278789605933231 
2215	 0.278854451374223 
2216	 0.279041804401667 
2217	 0.279580086488246 
2218	 0.279949150410126 
2219	 0.280524227302812 
2220	 0.280902578332682 
2221	 0.281192732103988 
2222	 0.28125813509862 
2223	 0.281313281275543 
2224	 0.281285286181394 
2225	 0.281062353813297 
2226	 0.280653607789449 
2227	 0.280138274357207 
2228	 0.279511308770786 
2229	 0.278668726904877 
2230	 0.277560876243474 
2231	 0.276571355416071 
2232	 0.275473309353713 
2233	 0.274303220281097 
2234	 0.273260690257857 
2235	 0.271878656711196 
2236	 0.270193130824198 
2237	 0.268536652594241 
2238	 0.266723679968277 
2239	 0.264905225913477 
2240	 0.26309550723522 
2241	 0.261122532974967 
2242	 0.259124752265987 
2243	 0.256868889805258 
2244	 0.254372032648472 
2245	 0.251853033753595 
2246	 0.249053560033128 
2247	 0.246349789509103 
2248	 0.243621057105039 
2249	 0.240911964343242 
2250	 0.23825672301241 
2251	 0.235586338964782 
2252	 0.232663884512876 
2253	 0.229883161626374 
2254	 0.226927814775867 
2255	 0.223899963187964 
2256	 0.221332406322931 
2257	 0.218573492439228 
2258	 0.215773611829141 
2259	 0.213074238656394 
2260	 0.210165803801237 
2261	 0.207023052639386 
2262	 0.204037727896567 
2263	 0.201006792639059 
2264	 0.198051059766455 
2265	 0.195354625193943 
2266	 0.192117486399907 
2267	 0.188910545336022 
2268	 0.185126400310311 
2269	 0.180852590118452 
2270	 0.17637389728271 
2271	 0.17144686837158 
2272	 0.166386644039837 
2273	 0.161056621799812 
2274	 0.15547054791291 
2275	 0.149627730840672 
2276	 0.143647305255856 
2277	 0.136928483009303 
2278	 0.130998388695576 
2279	 0.124776740775742 
2280	 0.119614747202185 
2281	 0.115212048619431 
2282	 0.111401420270189 
2283	 0.108277350217299 
2284	 0.106001460732085 
2285	 0.103891132295277 
2286	 0.102516498008554 
2287	 0.101832442472151 
2288	 0.101667585433588 
2289	 0.102263197407081 
2290	 0.103331954836419 
2291	 0.10457698675697 
2292	 0.106136951514871 
2293	 0.108098159847124 
2294	 0.110187892062068 
2295	 0.112451758555895 
2296	 0.114680149201057 
2297	 0.116618835684052 
2298	 0.118378469791236 
2299	 0.120112563294031 
2300	 0.121607528969935 
2301	 0.12318552495886 
2302	 0.124772147706524 
2303	 0.126248102216845 
2304	 0.127678934004193 
2305	 0.129011232919939 
2306	 0.130216972219146 
2307	 0.131499362289732 
2308	 0.132570013637259 
2309	 0.134032585789429 
2310	 0.135717025521742 
2311	 0.137367871740197 
2312	 0.139346212579059 
2313	 0.141038250643602 
2314	 0.142586911433314 
2315	 0.144203897176795 
2316	 0.145845204314506 
2317	 0.147237837825836 
2318	 0.14869521294123 
2319	 0.149711166237062 
2320	 0.15036820732895 
2321	 0.150885426676002 
2322	 0.151210250914878 
2323	 0.15118446734905 
2324	 0.151028111370382 
2325	 0.150354611429602 
2326	 0.149265221839464 
2327	 0.147776720008104 
2328	 0.145694681418787 
2329	 0.143394493559705 
2330	 0.14088939412402 
2331	 0.137740408661927 
2332	 0.134127216844631 
2333	 0.130376241398732 
2334	 0.126020786518113 
2335	 0.121603779783851 
2336	 0.117230640218249 
2337	 0.112678275795934 
2338	 0.108408745501884 
2339	 0.104017719592844 
2340	 9.96813292268412E-02 
2341	 9.58275883951716E-02 
2342	 9.19966732491524E-02 
2343	 8.86522412438722E-02 
2344	 8.59537286264347E-02 
2345	 8.38647204447957E-02 
2346	 8.23779373700101E-02 
2347	 8.14190702107325E-02 
2348	 8.07830124471916E-02 
2349	 8.01989606451174E-02 
2350	 7.96516002044294E-02 
2351	 7.91698416570279E-02 
2352	 7.86967957393831E-02 
2353	 7.81009794008818E-02 
2354	 7.78662480358624E-02 
2355	 7.77878335159007E-02 
2356	 7.80900065865726E-02 
2357	 7.92957726728194E-02 
2358	 8.13549070209339E-02 
2359	 8.42610781183347E-02 
2360	 8.76752985864468E-02 
2361	 9.17907820314396E-02 
2362	 9.61688496914355E-02 
2363	 0.100752456006101 
2364	 0.105487437420917 
2365	 0.110321465329756 
2366	 0.115173295636108 
2367	 0.119556949535926 
2368	 0.123961149676699 
2369	 0.127780501529554 
2370	 0.130661713612112 
2371	 0.133310106798573 
2372	 0.135267129275622 
2373	 0.136783655131236 
2374	 0.138331449408411 
2375	 0.13948215569119 
2376	 0.140563739002742 
2377	 0.141342860737394 
2378	 0.141606907350461 
2379	 0.141761233367702 
2380	 0.141807961771096 
2381	 0.141810417197629 
2382	 0.141992513335133 
2383	 0.142331928770687 
2384	 0.142708560158986 
2385	 0.143161600223187 
2386	 0.143806785162391 
2387	 0.144589933256627 
2388	 0.145428530084093 
2389	 0.146472280370929 
2390	 0.147354096120476 
2391	 0.148320369307215 
2392	 0.149091972849623 
2393	 0.149803512783504 
2394	 0.150186125508305 
2395	 0.150234559724766 
2396	 0.15046026308094 
2397	 0.150363116265613 
2398	 0.150864333551805 
2399	 0.151883757221705 
2400	 0.152348767403821 
2401	 0.152708502383993 
2402	 0.153258953014764 
2403	 0.153799770449958 
2404	 0.154520978439466 
2405	 0.155589443775445 
2406	 0.156086378072154 
2407	 0.156333109022111 
2408	 0.15676243261914 
2409	 0.157023251332351 
2410	 0.157304803531583 
2411	 0.157621913140162 
2412	 0.158309719513117 
2413	 0.158770390205361 
2414	 0.159278528671662 
2415	 0.160077913225535 
2416	 0.159953071344484 
2417	 0.159974840301322 
2418	 0.160386594602347 
2419	 0.160673874539583 
2420	 0.161287663549141 
2421	 0.161989034989252 
2422	 0.162452334695692 
2423	 0.162431043626583 
2424	 0.162648996044522 
2425	 0.163024567624251 
2426	 0.162975115601246 
2427	 0.1627676651732 
2428	 0.162301160828315 
2429	 0.16187906244088 
2430	 0.161926771623406 
2431	 0.162247440967139 
2432	 0.162370385368923 
2433	 0.162865119868807 
2434	 0.163618027275844 
2435	 0.16383418738732 
2436	 0.164333938396543 
2437	 0.164486702916367 
2438	 0.163825662261766 
2439	 0.163768285409987 
2440	 0.163592943952861 
2441	 0.163102298492744 
2442	 0.163267629829729 
2443	 0.163308376560091 
2444	 0.163343812268534 
2445	 0.163829362875207 
2446	 0.164067886598044 
2447	 0.163670340040252 
2448	 0.163248036392965 
2449	 0.162770636345485 
2450	 0.161890366455661 
2451	 0.161776902142679 
2452	 0.162000499276421 
2453	 0.161600444434206 
2454	 0.161353437561707 
2455	 0.160814537704453 
2456	 0.159678758567678 
2457	 0.158982119586029 
2458	 0.158976956757801 
2459	 0.158980394947913 
2460	 0.158859403008705 
2461	 0.159138729330209 
2462	 0.158951590763079 
2463	 0.158277129958832 
2464	 0.15819537038 
2465	 0.157959948910145 
2466	 0.157379740683367 
2467	 0.156412416606576 
2468	 0.156047016501702 
2469	 0.156268248959892 
2470	 0.155781466115183 
2471	 0.156437269979285 
2472	 0.156162147964157 
2473	 0.154826873660484 
2474	 0.155437278721773 
2475	 0.155346425056449 
2476	 0.154777599780519 
2477	 0.154770215813599 
2478	 0.154577758677624 
2479	 0.15483411953392 
2480	 0.155471507163623 
2481	 0.155563580566937 
2482	 0.154904609847322 
2483	 0.15439381493664 
2484	 0.154315340886096 
2485	 0.154133232777406 
2486	 0.153040832889241 
2487	 0.153030084855889 
2488	 0.154048514964627 
2489	 0.15454291517888 
2490	 0.156101479153186 
2491	 0.157760909310145 
2492	 0.157894507142106 
2493	 0.158273587571132 
2494	 0.158130619959029 
2495	 0.156881631212857 
2496	 0.155649474499087 
2497	 0.154734799580935 
2498	 0.154348123443475 
2499	 0.155060127250726 
2500	 0.156674111914655 
