Wavelength	Tablay400046.asd
350	 5.98001117626811E-02 
351	 0.095557916569631 
352	 4.98899342525491E-02 
353	-6.82920633688288E-02 
354	-2.65226026805009E-02 
355	 5.75672961350905E-02 
356	 9.95132473987957E-02 
357	 6.75368868261088E-02 
358	 8.13265957663117E-02 
359	 9.17534330493125E-02 
360	 9.78030181568852E-02 
361	 0.115667282920976 
362	 9.15800971178751E-02 
363	 7.68752239127214E-02 
364	 9.10363112825243E-02 
365	 9.60775366946232E-02 
366	 4.42413182502617E-02 
367	 1.54120315176224E-02 
368	 6.74560521448254E-02 
369	 6.37791560895094E-02 
370	 8.45458751755522E-02 
371	 0.118618525648381 
372	 9.92822904403135E-02 
373	 5.30842258542796E-02 
374	 3.13126361070861E-02 
375	 4.12855937767084E-02 
376	 2.09953082015295E-02 
377	 5.20387365615009E-02 
378	 0.104944159871834 
379	 0.127860575524698 
380	 7.15956436762638E-02 
381	 5.15336505547429E-02 
382	 7.03767763985564E-02 
383	 6.00301372698289E-02 
384	 6.00374493347731E-02 
385	 7.03739911398392E-02 
386	 7.99139675807267E-02 
387	 6.93069136214513E-02 
388	 5.15049189843454E-02 
389	 4.82139992723193E-02 
390	 6.31834721754734E-02 
391	 3.49304405903984E-02 
392	 4.04806477596781E-02 
393	 6.10040731382273E-02 
394	 0.026947331005834 
395	 2.89972954478672E-02 
396	 5.32696387623187E-02 
397	 7.17444995844047E-02 
398	 5.88229202455953E-02 
399	 0.057836287426645 
400	 6.97630501657787E-02 
401	 7.90248168004617E-02 
402	 5.39836069192206E-02 
403	 4.41380574922414E-02 
404	 5.54864915857619E-02 
405	 6.05170935684939E-02 
406	 6.44920337508211E-02 
407	 6.03962746342558E-02 
408	 5.12331490660458E-02 
409	 6.33642426887519E-02 
410	 6.32320636340473E-02 
411	 5.65715589945973E-02 
412	 5.80447607196959E-02 
413	 6.11679150246937E-02 
414	 5.85464333102945E-02 
415	 5.32277375221372E-02 
416	 5.62910814068561E-02 
417	 4.91908605868929E-02 
418	 4.65957045145714E-02 
419	 5.57156787426543E-02 
420	 5.57828250076154E-02 
421	 0.051488629474912 
422	 4.68112305719438E-02 
423	 4.60420674895194E-02 
424	 0.054591824896574 
425	 5.78136316013241E-02 
426	 5.21843207046174E-02 
427	 4.75614526371436E-02 
428	 5.32744182410866E-02 
429	 5.52347812439279E-02 
430	 4.50416011474869E-02 
431	 4.53584792739144E-02 
432	 4.61436235135041E-02 
433	 4.67807205644916E-02 
434	 5.07755744164924E-02 
435	 5.02813462927662E-02 
436	 5.11694686986185E-02 
437	 5.49991969810006E-02 
438	 5.50881964950278E-02 
439	 0.048915936884449 
440	 4.60119025935938E-02 
441	 5.32868782722926E-02 
442	 5.35458486491977E-02 
443	 5.25618741609832E-02 
444	 5.15415541535766E-02 
445	 4.80233596975452E-02 
446	 4.49869704443741E-02 
447	 4.64515829156901E-02 
448	 5.17730056620496E-02 
449	 5.04698172977777E-02 
450	 4.83611504830041E-02 
451	 4.68958601469445E-02 
452	 4.63721570758755E-02 
453	 4.91569681039839E-02 
454	 5.04169035898579E-02 
455	 4.90315514693788E-02 
456	 4.82636641637781E-02 
457	 4.54766099075492E-02 
458	 4.55070052952353E-02 
459	 4.99039016752587E-02 
460	 0.046246949855953 
461	 4.55715587913534E-02 
462	 4.76982141381835E-02 
463	 4.69335298977463E-02 
464	 4.64711850490124E-02 
465	 4.51296366801891E-02 
466	 4.32252367743986E-02 
467	 0.043904847970501 
468	 4.55111391605687E-02 
469	 4.59501842448053E-02 
470	 4.44013375692899E-02 
471	 4.54190425732617E-02 
472	 4.63770049739197E-02 
473	 4.61438417185338E-02 
474	 4.50657408865651E-02 
475	 4.48735011762709E-02 
476	 4.48438162416578E-02 
477	 4.46883403213198E-02 
478	 4.63794102434867E-02 
479	 4.47672097751424E-02 
480	 4.25457131443949E-02 
481	 4.40993701126524E-02 
482	 4.44018700812661E-02 
483	 4.39523598214937E-02 
484	 4.38042001653087E-02 
485	 4.51194372970683E-02 
486	 0.044969064267281 
487	 4.39941002553736E-02 
488	 4.34433417632913E-02 
489	 4.39661582241113E-02 
490	 4.29688557610256E-02 
491	 4.15771008730769E-02 
492	 0.042601736055372 
493	 4.30757922301142E-02 
494	 4.39396421289605E-02 
495	 0.044939420122694 
496	 4.30168172054738E-02 
497	 0.04327961266968 
498	 4.37799408559483E-02 
499	 0.041956129866177 
500	 4.25268884699175E-02 
501	 0.043487532720564 
502	 4.36576119043688E-02 
503	 4.28837940017438E-02 
504	 4.20081429054458E-02 
505	 0.041989466445132 
506	 4.29766834806453E-02 
507	 0.043467994114204 
508	 4.29354166625326E-02 
509	 4.20723422285722E-02 
510	 4.19912454478469E-02 
511	 4.23675616536142E-02 
512	 4.22635744285053E-02 
513	 4.17494059648428E-02 
514	 4.21973681514243E-02 
515	 4.24107362105595E-02 
516	 4.26354879183549E-02 
517	 0.043061848217443 
518	 4.24181912208597E-02 
519	 4.16315049686654E-02 
520	 4.11612128049478E-02 
521	 0.041086913976137 
522	 0.041384513694701 
523	 0.041769206645172 
524	 4.19297300455209E-02 
525	 0.041470389542954 
526	 0.041470950627188 
527	 4.16289718280984E-02 
528	 4.13602595526079E-02 
529	 4.14753677281003E-02 
530	 4.15491863530513E-02 
531	 0.041401595095442 
532	 4.11910289443841E-02 
533	 4.16509724670908E-02 
534	 4.16521783499956E-02 
535	 4.07059840078074E-02 
536	 4.13134345739996E-02 
537	 4.18075346351113E-02 
538	 0.04177481959031 
539	 0.041546308957996 
540	 4.14564144824452E-02 
541	 4.11269836907641E-02 
542	 4.05799447244879E-02 
543	 4.06055660646537E-02 
544	 4.05928250249328E-02 
545	 4.06573619488805E-02 
546	 4.09417751699175E-02 
547	 4.07371748148122E-02 
548	 4.05512825819926E-02 
549	 4.06041265554679E-02 
550	 4.08031651808449E-02 
551	 4.08335187044953E-02 
552	 4.07663332845598E-02 
553	 4.07406485228845E-02 
554	 4.08862421431124E-02 
555	 4.09057779201146E-02 
556	 4.07776706770667E-02 
557	 4.06315160294337E-02 
558	 0.040610382392127 
559	 4.06248847098884E-02 
560	 4.06200364330383E-02 
561	 4.06251696211222E-02 
562	 4.05029548287679E-02 
563	 4.05282098645257E-02 
564	 4.07980939115515E-02 
565	 4.02883661555385E-02 
566	 4.00410095440131E-02 
567	 4.01734559861861E-02 
568	 4.01100367781317E-02 
569	 3.99945285919511E-02 
570	 0.0400186972013 
571	 4.01726690554509E-02 
572	 3.99688365929274E-02 
573	 4.00135737340969E-02 
574	 4.03083078168309E-02 
575	 4.05788039963369E-02 
576	 4.04643433824468E-02 
577	 4.01453263690138E-02 
578	 3.99680350017074E-02 
579	 4.03836091781341E-02 
580	 4.04620337013407E-02 
581	 4.02280732482062E-02 
582	 3.99531870053399E-02 
583	 3.99127245995069E-02 
584	 3.98657619579071E-02 
585	 3.98645401747757E-02 
586	 4.00729707220042E-02 
587	 4.00307376876304E-02 
588	 3.98328930883088E-02 
589	 0.039678858207513 
590	 3.98214129643231E-02 
591	 4.00267673733514E-02 
592	 4.01868103454734E-02 
593	 0.040237477588633 
594	 0.04010703108955 
595	 4.00897776479284E-02 
596	 4.01324821043838E-02 
597	 3.99085234721981E-02 
598	 0.039918171439265 
599	 3.99869956538285E-02 
600	 3.99427293426651E-02 
601	 3.99144307531483E-02 
602	 3.98060920688147E-02 
603	 3.97564074605525E-02 
604	 3.99264156760274E-02 
605	 3.99168169944659E-02 
606	 3.98847272148541E-02 
607	 3.99361512751506E-02 
608	 4.00552762809723E-02 
609	 3.98783735553279E-02 
610	 3.95920213623447E-02 
611	 3.94859390036694E-02 
612	 0.039722742021844 
613	 3.98002565573613E-02 
614	 3.97356420852969E-02 
615	 3.98498939708545E-02 
616	 3.98095573509295E-02 
617	 3.97233170810009E-02 
618	 3.97152267923499E-02 
619	 3.98463872479468E-02 
620	 3.99223584194783E-02 
621	 3.98284533570635E-02 
622	 0.039570520691318 
623	 3.95112640363588E-02 
624	 3.96387055884502E-02 
625	 3.98421978577197E-02 
626	 3.99381933926708E-02 
627	 3.98084703854502E-02 
628	 3.96654438570855E-02 
629	 3.96904536562381E-02 
630	 3.98551198920637E-02 
631	 3.98620593187942E-02 
632	 3.97454413086619E-02 
633	 3.96688730470452E-02 
634	 3.94790744648191E-02 
635	 3.93849093691485E-02 
636	 3.94683211753551E-02 
637	 3.96207087804796E-02 
638	 3.96342175890704E-02 
639	 3.95846020501579E-02 
640	 3.95959989180665E-02 
641	 3.96984410839807E-02 
642	 3.96817504836831E-02 
643	 3.96241115374518E-02 
644	 3.97245955706432E-02 
645	 3.94676717260314E-02 
646	 3.93752743767663E-02 
647	 3.96237774099814E-02 
648	 3.96353448283916E-02 
649	 3.95614416584653E-02 
650	 3.95286317505437E-02 
651	 0.039626334683702 
652	 0.039801881384681 
653	 3.97262692814153E-02 
654	 0.03952275601989 
655	 3.96391591251383E-02 
656	 3.96305690291981E-02 
657	 3.96031193612306E-02 
658	 3.96573690516087E-02 
659	 3.97137649744307E-02 
660	 3.96179047654276E-02 
661	 3.95249766711565E-02 
662	 3.96171893178322E-02 
663	 3.95020558078773E-02 
664	 3.95069315068125E-02 
665	 3.96896370660593E-02 
666	 3.97985970289109E-02 
667	 3.97434610692925E-02 
668	 3.97312901139578E-02 
669	 3.98657718982039E-02 
670	 3.98168828410085E-02 
671	 3.98120699844392E-02 
672	 3.98162137099841E-02 
673	 3.97232591180454E-02 
674	 3.97896695922927E-02 
675	 3.98431301641393E-02 
676	 3.98276696675527E-02 
677	 3.98675631325395E-02 
678	 0.039831737627281 
679	 3.98168871365433E-02 
680	 3.98857072130095E-02 
681	 3.98281648836437E-02 
682	 3.98541243183732E-02 
683	 3.99492104309274E-02 
684	 3.99733473653355E-02 
685	 3.98319469880148E-02 
686	 3.98938399759367E-02 
687	 4.01601279937652E-02 
688	 4.00631732044545E-02 
689	 4.00614974548739E-02 
690	 4.01106901741548E-02 
691	 4.01059037693718E-02 
692	 4.02145261911919E-02 
693	 4.02033866383309E-02 
694	 4.01284055964976E-02 
695	 4.02030312038399E-02 
696	 4.02585667484842E-02 
697	 4.02800779280583E-02 
698	 4.02559250535477E-02 
699	 4.01389512693622E-02 
700	 4.03093877381639E-02 
701	 4.05582084389923E-02 
702	 4.06000804352398E-02 
703	 4.05609253569181E-02 
704	 4.05081096172366E-02 
705	 4.05232976498011E-02 
706	 4.06698850368137E-02 
707	 4.07778394709826E-02 
708	 4.08204566408858E-02 
709	 4.08051207153299E-02 
710	 4.07523388006639E-02 
711	 4.07622348365397E-02 
712	 4.08510081620532E-02 
713	 4.09794355549551E-02 
714	 4.10286099554506E-02 
715	 4.10462188193204E-02 
716	 4.10700633970158E-02 
717	 4.11186845453398E-02 
718	 4.11086439467361E-02 
719	 4.11429724395865E-02 
720	 4.12415290792525E-02 
721	 4.12384865562561E-02 
722	 4.13505155561807E-02 
723	 4.14910548121026E-02 
724	 4.15442850186509E-02 
725	 4.16689469753424E-02 
726	 4.17237830854878E-02 
727	 4.17436660170027E-02 
728	 4.18679129446731E-02 
729	 4.19147493863894E-02 
730	 4.19242776326596E-02 
731	 4.19629943182358E-02 
732	 4.20938722947043E-02 
733	 4.21553379206141E-02 
734	 4.22227883250091E-02 
735	 4.23796507572261E-02 
736	 4.24674129064942E-02 
737	 4.25321595312476E-02 
738	 4.26143854944034E-02 
739	 4.27320080679685E-02 
740	 4.27373229434133E-02 
741	 0.042832258470504 
742	 4.30393704839608E-02 
743	 4.30591326578915E-02 
744	 4.30648622134573E-02 
745	 4.31151773496455E-02 
746	 4.32220382906372E-02 
747	 4.33501959555432E-02 
748	 4.34311125305792E-02 
749	 4.35146680762262E-02 
750	 4.36920773999011E-02 
751	 4.38019624972271E-02 
752	 4.38529957044711E-02 
753	 4.39005677098482E-02 
754	 4.40316252676897E-02 
755	 4.41734057284137E-02 
756	 4.42989929074512E-02 
757	 4.44028589098634E-02 
758	 4.45107023763107E-02 
759	 4.45716537560095E-02 
760	 4.46139606025199E-02 
761	 4.47048649812391E-02 
762	 0.044901394194853 
763	 4.50569492248028E-02 
764	 0.045119909409176 
765	 4.51606523111358E-02 
766	 4.52765404975419E-02 
767	 4.54183031391429E-02 
768	 4.55283614841391E-02 
769	 4.55905682351064E-02 
770	 4.57846698222205E-02 
771	 4.59824436040548E-02 
772	 4.60142590307568E-02 
773	 4.61147110802908E-02 
774	 4.62235907830394E-02 
775	 4.63227606962945E-02 
776	 4.64370190018227E-02 
777	 4.65687552536591E-02 
778	 4.66823943734144E-02 
779	 4.67860082302138E-02 
780	 4.69708315107239E-02 
781	 4.70973024264264E-02 
782	 4.71745540849296E-02 
783	 4.72664785656794E-02 
784	 0.047463270284799 
785	 4.76686920488553E-02 
786	 4.77839287165712E-02 
787	 4.77658553591556E-02 
788	 4.79495342447215E-02 
789	 0.048104824755592 
790	 4.81582623307991E-02 
791	 4.82800789296857E-02 
792	 0.048371929510973 
793	 4.85581102644835E-02 
794	 4.88664648564693E-02 
795	 4.89983531654116E-02 
796	 4.90586459249478E-02 
797	 4.91032194819824E-02 
798	 4.91853042308779E-02 
799	 4.93848912514622E-02 
800	 0.049650976585293 
801	 4.98690170609071E-02 
802	 4.99196754669716E-02 
803	 5.00640719833347E-02 
804	 5.02769874548791E-02 
805	 5.04646046077606E-02 
806	 5.04976776071766E-02 
807	 5.06593082943914E-02 
808	 5.08688626086509E-02 
809	 5.10063038713857E-02 
810	 0.051120546249296 
811	 5.12927635229949E-02 
812	 5.14598872352414E-02 
813	 5.15494151771116E-02 
814	 5.18507101138561E-02 
815	 5.20455650824372E-02 
816	 5.21071230379731E-02 
817	 5.22789588179427E-02 
818	 5.24090745846846E-02 
819	 5.25461544581808E-02 
820	 5.27291747851553E-02 
821	 5.29357872352743E-02 
822	 5.31355942372192E-02 
823	 0.053284931629346 
824	 5.33955190139652E-02 
825	 5.36561493361663E-02 
826	 5.38498163743813E-02 
827	 5.40005101335398E-02 
828	 0.054217082626972 
829	 5.43814169222014E-02 
830	 5.46134876127083E-02 
831	 5.48752781337974E-02 
832	 5.50022019606713E-02 
833	 0.055144854527098 
834	 5.52809534424034E-02 
835	 5.54353431902054E-02 
836	 5.57380152996661E-02 
837	 5.59514384063434E-02 
838	 0.056128805693566 
839	 5.63564430758446E-02 
840	 5.65999332086712E-02 
841	 5.67915000089543E-02 
842	 5.69702581687839E-02 
843	 5.71972788055688E-02 
844	 5.74055231566267E-02 
845	 5.75460058768232E-02 
846	 5.77021800437961E-02 
847	 5.80119167863423E-02 
848	 5.82203526229114E-02 
849	 5.83871717004859E-02 
850	 5.85755364391313E-02 
851	 5.87989734435832E-02 
852	 5.89559487159017E-02 
853	 5.91410692701036E-02 
854	 5.94037718062596E-02 
855	 5.96127589627497E-02 
856	 5.98327892844449E-02 
857	 6.00808121165359E-02 
858	 6.03370763126691E-02 
859	 6.05109795575973E-02 
860	 6.06354803820489E-02 
861	 6.07849663693833E-02 
862	 6.10319476957009E-02 
863	 6.13166908773341E-02 
864	 6.16356296490083E-02 
865	 6.18868022744846E-02 
866	 6.19336883004292E-02 
867	 0.062149698329389 
868	 6.24292629566554E-02 
869	 6.26714070201406E-02 
870	 6.28816250160138E-02 
871	 6.30983216203822E-02 
872	 6.32352737792879E-02 
873	 6.33214014162668E-02 
874	 6.36969424071595E-02 
875	 6.39940667931988E-02 
876	 6.42393867291985E-02 
877	 6.45137237597595E-02 
878	 0.064601080985997 
879	 6.48638258834477E-02 
880	 6.51929235101017E-02 
881	 6.53209999868295E-02 
882	 0.065498145904648 
883	 6.56779791853709E-02 
884	 6.58815377401793E-02 
885	 6.61822877427509E-02 
886	 6.65860803940973E-02 
887	 6.68807187117916E-02 
888	 6.70023771073752E-02 
889	 6.70946856759985E-02 
890	 6.74005494138694E-02 
891	 6.76843995119462E-02 
892	 6.78243260284127E-02 
893	 6.80430299129127E-02 
894	 6.82562679366191E-02 
895	 6.85306834568529E-02 
896	 6.88804714589732E-02 
897	 6.91065011644108E-02 
898	 0.069237736407712 
899	 6.93965884817173E-02 
900	 6.96978500554423E-02 
901	 7.01054815497767E-02 
902	 0.07037439138393 
903	 7.05301144082674E-02 
904	 7.07334352089492E-02 
905	 7.10201735740062E-02 
906	 0.071254337539556 
907	 7.14781214764263E-02 
908	 7.18181829801009E-02 
909	 7.19551425421757E-02 
910	 7.21497385700259E-02 
911	 7.24803878553252E-02 
912	 7.27810588495014E-02 
913	 7.29498563813061E-02 
914	 7.31672068727944E-02 
915	 7.34803398270594E-02 
916	 7.37073953953275E-02 
917	 7.41106888154713E-02 
918	 7.43391373444533E-02 
919	 7.43442746480645E-02 
920	 7.48331060240795E-02 
921	 7.50757413889472E-02 
922	 7.52053153626398E-02 
923	 7.54597204816444E-02 
924	 7.57443576272371E-02 
925	 7.61167384888781E-02 
926	 7.64630266657828E-02 
927	 7.66795293345761E-02 
928	 7.68677882214638E-02 
929	 7.71310334678678E-02 
930	 0.07750255752999 
931	 7.79039795077484E-02 
932	 7.79721935667401E-02 
933	 7.81030058845686E-02 
934	 7.83865182650753E-02 
935	 7.87078200175813E-02 
936	 7.89325887649916E-02 
937	 7.92800788571655E-02 
938	 7.96711781509133E-02 
939	 7.98886030151153E-02 
940	 8.03532979660444E-02 
941	 8.07794135841854E-02 
942	 8.10414294385858E-02 
943	 8.12235069011299E-02 
944	 8.14243102654038E-02 
945	 8.17225326653217E-02 
946	 8.20602768360583E-02 
947	 8.22758556046276E-02 
948	 8.26198073872397E-02 
949	 8.28998701342763E-02 
950	 8.31151380347834E-02 
951	 8.35450002930304E-02 
952	 8.37819040730332E-02 
953	 8.40700695208993E-02 
954	 8.44930047324673E-02 
955	 8.47439508629571E-02 
956	 8.49236959686215E-02 
957	 8.50441912403771E-02 
958	 0.085201778803177 
959	 8.56353845591409E-02 
960	 8.58815101276525E-02 
961	 8.62324940356563E-02 
962	 8.67697695278153E-02 
963	 8.68311153935754E-02 
964	 8.69432641470063E-02 
965	 8.72655968524089E-02 
966	 8.76963632769583E-02 
967	 0.087798239611682 
968	 8.79951071319182E-02 
969	 8.85090676313867E-02 
970	 8.91623426257967E-02 
971	 0.088970352363225 
972	 8.90835539942559E-02 
973	 8.96066388368478E-02 
974	 9.01934321256439E-02 
975	 9.02496788339825E-02 
976	 9.03824255351183E-02 
977	 9.06692383315178E-02 
978	 9.10081944264349E-02 
979	 9.13065965530373E-02 
980	 0.091838969417987 
981	 9.21637724958819E-02 
982	 0.092063017410278 
983	 9.28385273898972E-02 
984	 9.29550115094789E-02 
985	 9.27743175622172E-02 
986	 9.30821633153298E-02 
987	 9.36860718942905E-02 
988	 9.40581927810892E-02 
989	 9.43458615264684E-02 
990	 9.47848022555407E-02 
991	 9.49657521593857E-02 
992	 9.51142392296058E-02 
993	 9.52063335181091E-02 
994	 9.52685011386655E-02 
995	 9.57935778706036E-02 
996	 9.62435936822223E-02 
997	 0.096694916914254 
998	 9.72458153242529E-02 
999	 0.097314974086067 
1000	 9.70285745926507E-02 
1001	 0.100892045110568 
1002	 0.101262151600744 
1003	 0.101629361341244 
1004	 0.101835124929691 
1005	 0.101757369964172 
1006	 0.102009010389222 
1007	 0.102418085753025 
1008	 0.102656754111534 
1009	 0.102881014165867 
1010	 0.103183198534121 
1011	 0.103382509771736 
1012	 0.103691746844133 
1013	 0.104174834288119 
1014	 0.104629854844205 
1015	 0.105165501541049 
1016	 0.105470077135242 
1017	 0.105931064441856 
1018	 0.106479741645685 
1019	 0.106661332979495 
1020	 0.106839330173611 
1021	 0.107073128916421 
1022	 0.107190111923022 
1023	 0.107366017864781 
1024	 0.107656615838851 
1025	 0.1078965889107 
1026	 0.108105716400643 
1027	 0.108304374518667 
1028	 0.108500952881059 
1029	 0.108636065959251 
1030	 0.109033897051136 
1031	 0.109412211774147 
1032	 0.109768328462535 
1033	 0.110359070082525 
1034	 0.110769832412337 
1035	 0.110873522988636 
1036	 0.111106675468663 
1037	 0.111324588011436 
1038	 0.11162612058239 
1039	 0.111997431015552 
1040	 0.11234900981267 
1041	 0.112680596139555 
1042	 0.113031744197714 
1043	 0.113430705468445 
1044	 0.113744952636158 
1045	 0.113963528434656 
1046	 0.114266537817555 
1047	 0.114400028912382 
1048	 0.114495043794824 
1049	 0.114778733337502 
1050	 0.115188313412961 
1051	 0.115636172111023 
1052	 0.116026973624315 
1053	 0.116357943129725 
1054	 0.116587787726673 
1055	 0.116865530321698 
1056	 0.117020968273839 
1057	 0.117385607602858 
1058	 0.1178633232632 
1059	 0.118466309213511 
1060	 0.118855642885522 
1061	 0.119237440721909 
1062	 0.119496718305984 
1063	 0.11962264771115 
1064	 0.119946161974854 
1065	 0.120225332337965 
1066	 0.120454525638306 
1067	 0.120757351524376 
1068	 0.12112475624059 
1069	 0.121540956268067 
1070	 0.121921281188954 
1071	 0.122353817385736 
1072	 0.122718769400704 
1073	 0.123087171765298 
1074	 0.123441428634356 
1075	 0.123797380625734 
1076	 0.12418470371609 
1077	 0.124475279374414 
1078	 0.12471852336731 
1079	 0.125067423801066 
1080	 0.125481830639586 
1081	 0.125827653278215 
1082	 0.126246140130425 
1083	 0.126721705213071 
1084	 0.127090737142333 
1085	 0.12744148331537 
1086	 0.127796140703492 
1087	 0.128143116454106 
1088	 0.128483562563591 
1089	 0.128815341781958 
1090	 0.129167451083773 
1091	 0.129585580314879 
1092	 0.129946998233079 
1093	 0.130341101601351 
1094	 0.130743465606788 
1095	 0.131016854005552 
1096	 0.131216584106784 
1097	 0.131487560801702 
1098	 0.131844087572334 
1099	 0.132176745183455 
1100	 0.132548978180978 
1101	 0.132834491847683 
1102	 0.133031380290122 
1103	 0.133328423711138 
1104	 0.133677026712272 
1105	 0.1340311476015 
1106	 0.134369883948532 
1107	 0.134739508195045 
1108	 0.134962030792099 
1109	 0.13515968700011 
1110	 0.135559212050752 
1111	 0.135902886283222 
1112	 0.136129195176319 
1113	 0.136479874822782 
1114	 0.136801151347175 
1115	 0.137020328069626 
1116	 0.137400092660885 
1117	 0.137859640986257 
1118	 0.138201621497318 
1119	 0.138423232009246 
1120	 0.138739632365025 
1121	 0.139075075282331 
1122	 0.139390675206166 
1123	 0.139656656709002 
1124	 0.139959820629422 
1125	 0.140245599613721 
1126	 0.14041867129325 
1127	 0.140656618036539 
1128	 0.141043693772016 
1129	 0.141336089293701 
1130	 0.141580757434137 
1131	 0.141921540240708 
1132	 0.142237210217489 
1133	 0.142546666225428 
1134	 0.142884703032833 
1135	 0.143207919321043 
1136	 0.143535271708429 
1137	 0.143787664924113 
1138	 0.144002518630449 
1139	 0.144240304578128 
1140	 0.144423689202183 
1141	 0.144619703017804 
1142	 0.144906696348936 
1143	 0.145179409485384 
1144	 0.145555326367797 
1145	 0.145914095000279 
1146	 0.146090117987553 
1147	 0.146375296094236 
1148	 0.146667444492783 
1149	 0.146869983139145 
1150	 0.147228576319486 
1151	 0.147555121658558 
1152	 0.147855055930305 
1153	 0.148099218686063 
1154	 0.148406455790461 
1155	 0.148753705514269 
1156	 0.149045966596889 
1157	 0.149314383071871 
1158	 0.149560180738612 
1159	 0.149724946144027 
1160	 0.150028673547515 
1161	 0.150257612524165 
1162	 0.150520870773973 
1163	 0.15085834591522 
1164	 0.151107466481774 
1165	 0.151375153480236 
1166	 0.151722159285825 
1167	 0.152021259784371 
1168	 0.152291821663616 
1169	 0.152579101609632 
1170	 0.152905718248709 
1171	 0.153155831328881 
1172	 0.153333135173937 
1173	 0.153574051042037 
1174	 0.153847446515824 
1175	 0.154071169459571 
1176	 0.154253148456539 
1177	 0.154508056314969 
1178	 0.154790010711492 
1179	 0.154996784942773 
1180	 0.155277468878697 
1181	 0.155689568360281 
1182	 0.155955896442016 
1183	 0.156167259419452 
1184	 0.156331003719187 
1185	 0.156480521082685 
1186	 0.156738293065121 
1187	 0.157041950750554 
1188	 0.157313313329767 
1189	 0.157676505631296 
1190	 0.157978466028296 
1191	 0.158220954011883 
1192	 0.158499403600049 
1193	 0.158788481487311 
1194	 0.159061787859519 
1195	 0.159304226229809 
1196	 0.159580064789789 
1197	 0.159855749863551 
1198	 0.160200863145661 
1199	 0.160535042468992 
1200	 0.160815673460593 
1201	 0.161079270016284 
1202	 0.161375652915827 
1203	 0.161720989984476 
1204	 0.162075007222858 
1205	 0.162429334380002 
1206	 0.1628281092752 
1207	 0.163203072478961 
1208	 0.163541082540062 
1209	 0.163914828005489 
1210	 0.164327919011828 
1211	 0.164699700189324 
1212	 0.165047021467692 
1213	 0.165438266873622 
1214	 0.16580858652965 
1215	 0.166225198636666 
1216	 0.16672496599986 
1217	 0.167173697521446 
1218	 0.167597169308957 
1219	 0.168048231039066 
1220	 0.168545495855022 
1221	 0.169014753258257 
1222	 0.16950409799158 
1223	 0.170031319919516 
1224	 0.170492292664304 
1225	 0.170848411766757 
1226	 0.171338961697274 
1227	 0.171932491372119 
1228	 0.172389663980792 
1229	 0.172828627292559 
1230	 0.173285719423282 
1231	 0.173646715656031 
1232	 0.174053764277803 
1233	 0.174526659002909 
1234	 0.174998641457304 
1235	 0.175466073918041 
1236	 0.175908280591464 
1237	 0.176376524335023 
1238	 0.176823404288408 
1239	 0.17720878953597 
1240	 0.177616613871603 
1241	 0.178091232169318 
1242	 0.178526794848396 
1243	 0.178917745296305 
1244	 0.179275566385402 
1245	 0.179656976305256 
1246	 0.179984713888091 
1247	 0.180382502892791 
1248	 0.180860144667145 
1249	 0.181253804545491 
1250	 0.181631497464866 
1251	 0.181992147892573 
1252	 0.18229168400015 
1253	 0.182642512474109 
1254	 0.183024089828171 
1255	 0.183383669169054 
1256	 0.183729404623877 
1257	 0.184095640124158 
1258	 0.184486071054371 
1259	 0.184840321360843 
1260	 0.185198049663059 
1261	 0.185549836500367 
1262	 0.185877535333398 
1263	 0.186171117449554 
1264	 0.186501198330027 
1265	 0.186846228110242 
1266	 0.18719893904667 
1267	 0.187533358268558 
1268	 0.187941945465372 
1269	 0.188416982220767 
1270	 0.188836781944365 
1271	 0.189281408782123 
1272	 0.189708871871195 
1273	 0.190111180072935 
1274	 0.190494481658927 
1275	 0.190881722760687 
1276	 0.191254327079192 
1277	 0.191558427086829 
1278	 0.191920651310247 
1279	 0.192318345097688 
1280	 0.192712232199487 
1281	 0.193117473794011 
1282	 0.193533449840008 
1283	 0.193978590153919 
1284	 0.194394309535348 
1285	 0.194801964226436 
1286	 0.195214844775698 
1287	 0.195611786046435 
1288	 0.19596296877655 
1289	 0.196381986187635 
1290	 0.196829402921841 
1291	 0.197270556157476 
1292	 0.197770437020794 
1293	 0.198181096033638 
1294	 0.198527245580526 
1295	 0.198925529836589 
1296	 0.199290089386858 
1297	 0.199697067206975 
1298	 0.200181524167449 
1299	 0.200601601225191 
1300	 0.200983840436111 
1301	 0.20138933507635 
1302	 0.201786621312393 
1303	 0.202181856077333 
1304	 0.202581034561941 
1305	 0.202989890697164 
1306	 0.203410130778729 
1307	 0.203805251625706 
1308	 0.204199773463181 
1309	 0.204585320441209 
1310	 0.204976379236093 
1311	 0.20533839095352 
1312	 0.205731330621241 
1313	 0.206166062971183 
1314	 0.206538751155254 
1315	 0.206885103763636 
1316	 0.207236219219812 
1317	 0.207531121120666 
1318	 0.207908470470093 
1319	 0.208349676237633 
1320	 0.208729804117759 
1321	 0.209147251512848 
1322	 0.209495117384704 
1323	 0.209735485791183 
1324	 0.210057984613706 
1325	 0.210413434750046 
1326	 0.21073674816347 
1327	 0.211049364500628 
1328	 0.211402354140214 
1329	 0.211767741679458 
1330	 0.212108462904624 
1331	 0.212496451518154 
1332	 0.212846188276355 
1333	 0.213148714187906 
1334	 0.213433271774554 
1335	 0.213725604094638 
1336	 0.214019146522469 
1337	 0.214300966396118 
1338	 0.214571607939123 
1339	 0.214839498921952 
1340	 0.215096867522465 
1341	 0.215368549365166 
1342	 0.215658177952539 
1343	 0.215899769068518 
1344	 0.216125048209037 
1345	 0.216356635446701 
1346	 0.216562156734857 
1347	 0.216767073829792 
1348	 0.21699252323768 
1349	 0.217188966235859 
1350	 0.217303399987866 
1351	 0.217519175294179 
1352	 0.217827753374298 
1353	 0.218051943585078 
1354	 0.218298011177395 
1355	 0.218511910454697 
1356	 0.2186228772415 
1357	 0.218788784852612 
1358	 0.218988180257871 
1359	 0.219189551331057 
1360	 0.219428536345689 
1361	 0.21961441462346 
1362	 0.219864969728781 
1363	 0.220038861469044 
1364	 0.220215042908336 
1365	 0.22037343925018 
1366	 0.220530111742749 
1367	 0.220660281353597 
1368	 0.220810897806149 
1369	 0.220983613936682 
1370	 0.221103960733714 
1371	 0.221197864298469 
1372	 0.221303671252836 
1373	 0.221387810832415 
1374	 0.221474867539551 
1375	 0.221584030854671 
1376	 0.221662823873525 
1377	 0.221680746400376 
1378	 0.221766588002818 
1379	 0.221898749674266 
1380	 0.221995790274695 
1381	 0.222133220258952 
1382	 0.222218684682829 
1383	 0.222247572355222 
1384	 0.222286828466675 
1385	 0.222278482688331 
1386	 0.222326705583289 
1387	 0.222399232348108 
1388	 0.222474789856315 
1389	 0.222596737763005 
1390	 0.222706314632996 
1391	 0.222784401033408 
1392	 0.222897704896019 
1393	 0.223053590573045 
1394	 0.22322086384894 
1395	 0.22339066683125 
1396	 0.223593905586777 
1397	 0.223777410994919 
1398	 0.223964273707244 
1399	 0.224113605687441 
1400	 0.224267075802297 
1401	 0.224380125889965 
1402	 0.224463559211175 
1403	 0.22450060022687 
1404	 0.224494774511429 
1405	 0.224498052345445 
1406	 0.22444752672521 
1407	 0.22443296465218 
1408	 0.224457768824283 
1409	 0.224436990375099 
1410	 0.224395426249807 
1411	 0.224352974167223 
1412	 0.22427140099881 
1413	 0.224226870311021 
1414	 0.224201328423374 
1415	 0.224170849521302 
1416	 0.224136413949 
1417	 0.224140687323479 
1418	 0.224166786857587 
1419	 0.224190297994125 
1420	 0.224218401588762 
1421	 0.224283007909331 
1422	 0.224379527042462 
1423	 0.224457082497403 
1424	 0.224542254596127 
1425	 0.22466816888895 
1426	 0.224767528926251 
1427	 0.224828330134824 
1428	 0.2249049865028 
1429	 0.224989631606778 
1430	 0.225065148988257 
1431	 0.225121546965049 
1432	 0.225189507129706 
1433	 0.225267097924109 
1434	 0.22533818137866 
1435	 0.225405309707119 
1436	 0.22546889149274 
1437	 0.225520388517687 
1438	 0.225608036084054 
1439	 0.225697029646817 
1440	 0.225806779327458 
1441	 0.225976262074234 
1442	 0.226077873686949 
1443	 0.226121827920466 
1444	 0.226244913580727 
1445	 0.226341273629776 
1446	 0.226529823408811 
1447	 0.226802433275246 
1448	 0.227093161409685 
1449	 0.227431812736574 
1450	 0.227786571052364 
1451	 0.228137057630506 
1452	 0.228584984697979 
1453	 0.229133348873442 
1454	 0.229641612006974 
1455	 0.23022220485113 
1456	 0.230769075805684 
1457	 0.231257793709134 
1458	 0.231775346167873 
1459	 0.232319919099763 
1460	 0.232857046470925 
1461	 0.233410725995406 
1462	 0.233935139256612 
1463	 0.234423322182506 
1464	 0.23494152106636 
1465	 0.235461384527454 
1466	 0.235985774107209 
1467	 0.236487706241222 
1468	 0.236983815869501 
1469	 0.237475314056203 
1470	 0.237936363367798 
1471	 0.238428674389122 
1472	 0.23897003290594 
1473	 0.239434322383353 
1474	 0.239859987967567 
1475	 0.240311487187404 
1476	 0.240734739169895 
1477	 0.241187480584989 
1478	 0.241689463607201 
1479	 0.242108545122311 
1480	 0.24249109953293 
1481	 0.242884676081461 
1482	 0.243256631669766 
1483	 0.243601353916615 
1484	 0.243927305388633 
1485	 0.244276547991406 
1486	 0.244580224816139 
1487	 0.244938028287451 
1488	 0.245345856927705 
1489	 0.245747729964243 
1490	 0.24617484579785 
1491	 0.24657300192332 
1492	 0.246981752646351 
1493	 0.247366924525251 
1494	 0.247702073670551 
1495	 0.248076853997582 
1496	 0.248428259645577 
1497	 0.248852944959852 
1498	 0.249355975572395 
1499	 0.249815568525874 
1500	 0.25030257029142 
1501	 0.250781480147071 
1502	 0.251233655674178 
1503	 0.251684171799879 
1504	 0.252158184681887 
1505	 0.25260641749129 
1506	 0.253044587800599 
1507	 0.253449100748789 
1508	 0.253816293250739 
1509	 0.254198688015622 
1510	 0.254548494176842 
1511	 0.254913964771381 
1512	 0.255315105364077 
1513	 0.255688359158946 
1514	 0.256062968111386 
1515	 0.25640466776736 
1516	 0.256691385540414 
1517	 0.25701320022518 
1518	 0.257326985791919 
1519	 0.25764807446493 
1520	 0.257986110829492 
1521	 0.25835118709821 
1522	 0.25867384099314 
1523	 0.259030116293888 
1524	 0.259322461452218 
1525	 0.25959307975032 
1526	 0.259855976774273 
1527	 0.260077135358154 
1528	 0.260318638226136 
1529	 0.260564063681429 
1530	 0.260820687132297 
1531	 0.261071613571915 
1532	 0.261336734221587 
1533	 0.261631412084852 
1534	 0.261885587009018 
1535	 0.262132360824787 
1536	 0.262354562019773 
1537	 0.262536851155342 
1538	 0.262765260784562 
1539	 0.262978287558109 
1540	 0.263247532066054 
1541	 0.26356432952981 
1542	 0.263874865068979 
1543	 0.264212836880329 
1544	 0.264541112898066 
1545	 0.264868704881197 
1546	 0.265211298807476 
1547	 0.265569738833127 
1548	 0.265913290503643 
1549	 0.266253434488847 
1550	 0.266610169878956 
1551	 0.266978504588977 
1552	 0.267318970455021 
1553	 0.267660642862753 
1554	 0.268000109903491 
1555	 0.26830123538971 
1556	 0.268640349678543 
1557	 0.2690148949043 
1558	 0.269367969712127 
1559	 0.269729989994895 
1560	 0.270066990913044 
1561	 0.270371222937654 
1562	 0.270711882712966 
1563	 0.271076727880439 
1564	 0.271398044733718 
1565	 0.271712629572874 
1566	 0.272034363641143 
1567	 0.272298785724516 
1568	 0.272627889477243 
1569	 0.273021114898035 
1570	 0.273382274245242 
1571	 0.273773787815321 
1572	 0.274111558007164 
1573	 0.274415267619513 
1574	 0.274716291153635 
1575	 0.274961795310785 
1576	 0.275256813515355 
1577	 0.27557421500723 
1578	 0.275891049073712 
1579	 0.276244222142849 
1580	 0.27656364055472 
1581	 0.276868205311481 
1582	 0.277164921455808 
1583	 0.277409045844776 
1584	 0.277723519583467 
1585	 0.278090808864811 
1586	 0.278419721579044 
1587	 0.278798689845045 
1588	 0.27911360546462 
1589	 0.279342475156386 
1590	 0.279616114821806 
1591	 0.279863755992358 
1592	 0.280164819439768 
1593	 0.280541321709227 
1594	 0.280858332820367 
1595	 0.281192548172071 
1596	 0.28148454217244 
1597	 0.281694691897344 
1598	 0.281952141722276 
1599	 0.282195927870885 
1600	 0.28248247565113 
1601	 0.282821981436713 
1602	 0.283138829253059 
1603	 0.28351702371879 
1604	 0.283806688636669 
1605	 0.284015212294804 
1606	 0.284258746711927 
1607	 0.284437832298324 
1608	 0.284680798981594 
1609	 0.285013877777513 
1610	 0.285286248039384 
1611	 0.285546908001039 
1612	 0.285802860502356 
1613	 0.285989762870389 
1614	 0.286245010080087 
1615	 0.28660889577617 
1616	 0.286864225016892 
1617	 0.287100941713866 
1618	 0.287304571572239 
1619	 0.287372641480264 
1620	 0.287521605073992 
1621	 0.287724172699097 
1622	 0.287903234888511 
1623	 0.288087427388501 
1624	 0.288284035815593 
1625	 0.288464231577814 
1626	 0.288671974184817 
1627	 0.288938661800724 
1628	 0.289151743138035 
1629	 0.289369537085775 
1630	 0.289541268102795 
1631	 0.289639678574158 
1632	 0.289770030979148 
1633	 0.289869419611615 
1634	 0.290004845017556 
1635	 0.290192638156507 
1636	 0.29034990965913 
1637	 0.290489762580696 
1638	 0.290654140687469 
1639	 0.290795561392636 
1640	 0.290982141411705 
1641	 0.291279748980412 
1642	 0.291469432318197 
1643	 0.291602843054939 
1644	 0.291745766407019 
1645	 0.291808125128023 
1646	 0.291917816642695 
1647	 0.292111775420456 
1648	 0.292239100993821 
1649	 0.292354846869496 
1650	 0.29241629481327 
1651	 0.292384930166605 
1652	 0.292406768511303 
1653	 0.292429772370065 
1654	 0.292435479545719 
1655	 0.292480263932494 
1656	 0.29247086951602 
1657	 0.292407144606321 
1658	 0.292360564453657 
1659	 0.292348913747905 
1660	 0.292236241610045 
1661	 0.29205137321095 
1662	 0.291882083914677 
1663	 0.291654824988835 
1664	 0.291413930066924 
1665	 0.291199641879157 
1666	 0.290923762152346 
1667	 0.290575584223382 
1668	 0.290257697518842 
1669	 0.289974426218254 
1670	 0.289595488036276 
1671	 0.289181564933054 
1672	 0.288694484999892 
1673	 0.288149486544784 
1674	 0.287522693126696 
1675	 0.286792822845866 
1676	 0.286088944597325 
1677	 0.285366621547436 
1678	 0.284538894723725 
1679	 0.283681823998764 
1680	 0.282769193958049 
1681	 0.281726853508249 
1682	 0.280685389054716 
1683	 0.279660716605212 
1684	 0.278568036563354 
1685	 0.277422809508407 
1686	 0.276200480059247 
1687	 0.27488984111476 
1688	 0.273581831065604 
1689	 0.27221811820806 
1690	 0.270816282701763 
1691	 0.269414678494569 
1692	 0.267989859338495 
1693	 0.266467150149732 
1694	 0.265014404313872 
1695	 0.263624956361357 
1696	 0.262139219093971 
1697	 0.260609358811336 
1698	 0.259105072899361 
1699	 0.257567818943879 
1700	 0.256037649802546 
1701	 0.254529784595596 
1702	 0.253027805930622 
1703	 0.251438739026995 
1704	 0.250040761700669 
1705	 0.248727267551041 
1706	 0.247381975475339 
1707	 0.246250621247105 
1708	 0.245207366325354 
1709	 0.244255564462965 
1710	 0.243462776542138 
1711	 0.242694597183204 
1712	 0.241934105721377 
1713	 0.241216580581617 
1714	 0.240471156442831 
1715	 0.239802224256783 
1716	 0.239139183926958 
1717	 0.238456315978811 
1718	 0.2379111276801 
1719	 0.237418140192441 
1720	 0.23688933804449 
1721	 0.236412192117066 
1722	 0.235996237587793 
1723	 0.235648306233639 
1724	 0.235433316567192 
1725	 0.235299054200385 
1726	 0.235272127559605 
1727	 0.23537223785584 
1728	 0.23559152570599 
1729	 0.236045717709841 
1730	 0.23667452677128 
1731	 0.237354151452423 
1732	 0.238167258129659 
1733	 0.239032939814118 
1734	 0.239954168901883 
1735	 0.241012048830401 
1736	 0.242058511629541 
1737	 0.24305811790553 
1738	 0.244014688409879 
1739	 0.244803036331646 
1740	 0.245499556666502 
1741	 0.246089382974633 
1742	 0.246536902775296 
1743	 0.246914750731259 
1744	 0.247189726182196 
1745	 0.247373364721869 
1746	 0.247430491509762 
1747	 0.247474151484604 
1748	 0.247444950324693 
1749	 0.247420919931515 
1750	 0.247326936433301 
1751	 0.247320304093965 
1752	 0.247299939860611 
1753	 0.24732236547264 
1754	 0.247383765729458 
1755	 0.247530566557109 
1756	 0.247721242085252 
1757	 0.248021887064817 
1758	 0.248387718756364 
1759	 0.248810978823388 
1760	 0.249365459899111 
1761	 0.250012180980916 
1762	 0.250742191059528 
1763	 0.251608756693354 
1764	 0.252415855703624 
1765	 0.2533183236347 
1766	 0.254430815125998 
1767	 0.255462416174481 
1768	 0.256575061344864 
1769	 0.257786839773565 
1770	 0.258829613008001 
1771	 0.260007245452308 
1772	 0.261187499750315 
1773	 0.262246901115548 
1774	 0.263502330848351 
1775	 0.264625613398942 
1776	 0.265622287353596 
1777	 0.266585443018739 
1778	 0.267319976384307 
1779	 0.268134690182339 
1780	 0.268989086394888 
1781	 0.26975327306182 
1782	 0.270564720672144 
1783	 0.271194554992602 
1784	 0.27175348757799 
1785	 0.272449922568503 
1786	 0.273004657346428 
1787	 0.273502827492844 
1788	 0.27396911312078 
1789	 0.274268932015542 
1790	 0.274712814123717 
1791	 0.275279672555719 
1792	 0.275733286582812 
1793	 0.276217309969052 
1794	 0.276496223383656 
1795	 0.27671791234599 
1796	 0.27702424967591 
1797	 0.277356796297376 
1798	 0.277731048038981 
1799	 0.27810839560572 
1800	 0.278387936200246 
1801	 0.275664737756547 
1802	 0.275980290363436 
1803	 0.27629934048506 
1804	 0.276613797933186 
1805	 0.276948266287644 
1806	 0.27727884772378 
1807	 0.277629116656041 
1808	 0.277951315019505 
1809	 0.278278552672744 
1810	 0.278578868850109 
1811	 0.278808485316371 
1812	 0.279109206796395 
1813	 0.279457450795734 
1814	 0.279792375194816 
1815	 0.280067065853884 
1816	 0.280364419469589 
1817	 0.280657522426261 
1818	 0.280863499189619 
1819	 0.281169470133241 
1820	 0.281564930472745 
1821	 0.281923142929372 
1822	 0.282303386504612 
1823	 0.282667769871394 
1824	 0.282972132235715 
1825	 0.283281674422281 
1826	 0.283650574239239 
1827	 0.284034093439772 
1828	 0.28442337166828 
1829	 0.284905684525835 
1830	 0.285287663239356 
1831	 0.285626998506971 
1832	 0.285941511773633 
1833	 0.286224861277165 
1834	 0.286580239853473 
1835	 0.286986888891825 
1836	 0.287344598589195 
1837	 0.287692363130359 
1838	 0.288028612074809 
1839	 0.288366442911208 
1840	 0.288633505159001 
1841	 0.289018887931124 
1842	 0.289461783749285 
1843	 0.289938677882954 
1844	 0.29045480017225 
1845	 0.290873918736695 
1846	 0.291203799842202 
1847	 0.291491456271776 
1848	 0.29178454136834 
1849	 0.292032672761456 
1850	 0.29230855328308 
1851	 0.292598035910938 
1852	 0.292866456881474 
1853	 0.293148273007983 
1854	 0.293376713866662 
1855	 0.293562354681432 
1856	 0.293720331311347 
1857	 0.293859387181737 
1858	 0.294036946609329 
1859	 0.294155187677065 
1860	 0.294287311229433 
1861	 0.294350354705419 
1862	 0.294365979125566 
1863	 0.294309110935971 
1864	 0.294241619750664 
1865	 0.294175886220913 
1866	 0.294132723974219 
1867	 0.294009829112694 
1868	 0.293854521448547 
1869	 0.293645371301906 
1870	 0.293420333253482 
1871	 0.293160769240895 
1872	 0.292891022509957 
1873	 0.292604434656837 
1874	 0.292317965391734 
1875	 0.291978132756146 
1876	 0.291448836991822 
1877	 0.290916332879719 
1878	 0.290344523976365 
1879	 0.289688049241851 
1880	 0.289068423385551 
1881	 0.288393335733027 
1882	 0.287692553049689 
1883	 0.286907503262514 
1884	 0.286037117674576 
1885	 0.285049924257196 
1886	 0.283991567555824 
1887	 0.282890063771383 
1888	 0.281723392585871 
1889	 0.280535359310177 
1890	 0.279263870116884 
1891	 0.27793010351777 
1892	 0.276564127898674 
1893	 0.275169549812144 
1894	 0.273728477982306 
1895	 0.272320515460208 
1896	 0.27083620316504 
1897	 0.269375801302097 
1898	 0.268109213286739 
1899	 0.266795826210888 
1900	 0.26550900706045 
1901	 0.264320696121655 
1902	 0.263010046220878 
1903	 0.261781293598514 
1904	 0.260640765820584 
1905	 0.259583678711219 
1906	 0.25854155483567 
1907	 0.257640810038574 
1908	 0.256772009689499 
1909	 0.255933781693278 
1910	 0.255139570803116 
1911	 0.254357308165851 
1912	 0.253630976142706 
1913	 0.252916165729624 
1914	 0.252325254397031 
1915	 0.251790865501694 
1916	 0.251351364068505 
1917	 0.250880509818101 
1918	 0.250479472026474 
1919	 0.25010577201171 
1920	 0.249680580312807 
1921	 0.249287619661159 
1922	 0.248899680828397 
1923	 0.248485405181963 
1924	 0.248107656897469 
1925	 0.247721681465106 
1926	 0.247362189008284 
1927	 0.247025174160385 
1928	 0.24670678821554 
1929	 0.246379589918187 
1930	 0.246127583917476 
1931	 0.245910173502887 
1932	 0.245706896423845 
1933	 0.245587765778382 
1934	 0.245494295580823 
1935	 0.245440586221425 
1936	 0.24549480432692 
1937	 0.245545367909161 
1938	 0.24561841783229 
1939	 0.245736305038398 
1940	 0.245917605001877 
1941	 0.246054553315027 
1942	 0.246195458541268 
1943	 0.246413796942019 
1944	 0.246630203387139 
1945	 0.246863469692532 
1946	 0.2472194093684 
1947	 0.247627539380742 
1948	 0.248070703331664 
1949	 0.248588804238224 
1950	 0.249090869501886 
1951	 0.249582308798632 
1952	 0.250129485205677 
1953	 0.250700764975655 
1954	 0.251316718617223 
1955	 0.251951320449701 
1956	 0.252640101114922 
1957	 0.253292616273117 
1958	 0.253960921304237 
1959	 0.254636567434934 
1960	 0.255215802033243 
1961	 0.255771290702112 
1962	 0.256267766821039 
1963	 0.256776359419512 
1964	 0.257244239265983 
1965	 0.257724974730785 
1966	 0.258238592499585 
1967	 0.258706776354599 
1968	 0.259066630366363 
1969	 0.259473739533636 
1970	 0.259861951325421 
1971	 0.26021273748696 
1972	 0.260673517233929 
1973	 0.261073997358515 
1974	 0.261465462584679 
1975	 0.261838761077974 
1976	 0.262261236396995 
1977	 0.262675182918141 
1978	 0.263113073948532 
1979	 0.263615745934669 
1980	 0.264060254730349 
1981	 0.264501015077292 
1982	 0.264918325268255 
1983	 0.2653844599841 
1984	 0.265903294760979 
1985	 0.266426214977222 
1986	 0.266907646853059 
1987	 0.267384279016883 
1988	 0.267805356695768 
1989	 0.26832471959236 
1990	 0.268852620829815 
1991	 0.269433368397436 
1992	 0.270134896521998 
1993	 0.270757244572238 
1994	 0.271325908446668 
1995	 0.272010179760165 
1996	 0.272689705662441 
1997	 0.273384154456658 
1998	 0.27408250317163 
1999	 0.274832161583288 
2000	 0.275513580232831 
2001	 0.276194336917238 
2002	 0.276810706522844 
2003	 0.277380180999236 
2004	 0.277923018198678 
2005	 0.278393105454842 
2006	 0.278895122094028 
2007	 0.279412426333941 
2008	 0.279890712291232 
2009	 0.280347837880557 
2010	 0.280748889111584 
2011	 0.281062486473476 
2012	 0.281335784916136 
2013	 0.281611176126606 
2014	 0.281882552589914 
2015	 0.282091437575804 
2016	 0.282258754350158 
2017	 0.282425378549506 
2018	 0.282526004518612 
2019	 0.282646498238142 
2020	 0.282793070861456 
2021	 0.282908604491707 
2022	 0.282963185456803 
2023	 0.283008920293419 
2024	 0.283003341143973 
2025	 0.282958015137432 
2026	 0.282911343891864 
2027	 0.282876673912513 
2028	 0.282768595265743 
2029	 0.282587111353895 
2030	 0.282438848258518 
2031	 0.282248255864878 
2032	 0.282077091243188 
2033	 0.281935136697203 
2034	 0.281785680373719 
2035	 0.281605151196032 
2036	 0.281463575830326 
2037	 0.281357317463616 
2038	 0.281230223223723 
2039	 0.281062555116958 
2040	 0.280855041479716 
2041	 0.2806873343436 
2042	 0.280501347836446 
2043	 0.280337296683519 
2044	 0.280220127118165 
2045	 0.280090413332122 
2046	 0.279926558908503 
2047	 0.27979116752144 
2048	 0.279689576668497 
2049	 0.279583472125868 
2050	 0.279474592898697 
2051	 0.27939240760282 
2052	 0.279273959543748 
2053	 0.279186314909269 
2054	 0.279135228517367 
2055	 0.279137158668743 
2056	 0.279055351824699 
2057	 0.278990709568731 
2058	 0.278882176880468 
2059	 0.278650382178284 
2060	 0.278527215583971 
2061	 0.278467973684896 
2062	 0.278366749983629 
2063	 0.27826183322052 
2064	 0.278193474608571 
2065	 0.278094187517856 
2066	 0.278083115994025 
2067	 0.278075241800983 
2068	 0.278033959099705 
2069	 0.277976845474788 
2070	 0.277878042991075 
2071	 0.277804402679116 
2072	 0.27772456031244 
2073	 0.277669305773815 
2074	 0.277620316329189 
2075	 0.277568327172476 
2076	 0.277548445342761 
2077	 0.277499763252312 
2078	 0.277458519796365 
2079	 0.277382321766976 
2080	 0.27723479744774 
2081	 0.277142700741382 
2082	 0.277055624048141 
2083	 0.276979332192259 
2084	 0.276909711431234 
2085	 0.276886611952125 
2086	 0.276811599331476 
2087	 0.27670164137632 
2088	 0.276601068077957 
2089	 0.276479697503739 
2090	 0.276384349916531 
2091	 0.276288095722704 
2092	 0.276197011524602 
2093	 0.276147004178587 
2094	 0.276056170066087 
2095	 0.275930217979702 
2096	 0.275830246498243 
2097	 0.2757183353047 
2098	 0.275655875542053 
2099	 0.275538483667639 
2100	 0.275304205665968 
2101	 0.275045204929805 
2102	 0.274625471268508 
2103	 0.274401451080133 
2104	 0.274223550520782 
2105	 0.274071803723128 
2106	 0.27407209771164 
2107	 0.27391079016933 
2108	 0.273716786277504 
2109	 0.273454216401248 
2110	 0.27309429830902 
2111	 0.27275067462901 
2112	 0.272278545186005 
2113	 0.271939259789095 
2114	 0.271706828010204 
2115	 0.271401968763677 
2116	 0.271098164211409 
2117	 0.270882219606227 
2118	 0.270564008466482 
2119	 0.27013622574168 
2120	 0.269807664420474 
2121	 0.269524069101705 
2122	 0.269192135021526 
2123	 0.268815326080321 
2124	 0.268539979309561 
2125	 0.268300150459889 
2126	 0.268045996295212 
2127	 0.267884000073638 
2128	 0.267659132319821 
2129	 0.267309137541691 
2130	 0.267100000780444 
2131	 0.266971040267664 
2132	 0.266830492486128 
2133	 0.266790810567891 
2134	 0.266692644485866 
2135	 0.266515912811639 
2136	 0.266417898627318 
2137	 0.266296158228234 
2138	 0.266180214649414 
2139	 0.26603468229996 
2140	 0.265858494637143 
2141	 0.265738740617567 
2142	 0.265625826218266 
2143	 0.265522766283492 
2144	 0.265451650798687 
2145	 0.265402859775766 
2146	 0.265313944779125 
2147	 0.265308230715891 
2148	 0.265424711328191 
2149	 0.265478304577789 
2150	 0.265534132440178 
2151	 0.265605300710987 
2152	 0.265683714426981 
2153	 0.265700399305211 
2154	 0.265869294529985 
2155	 0.265981972044002 
2156	 0.266041576012577 
2157	 0.266089824796663 
2158	 0.266133650813973 
2159	 0.266117848662964 
2160	 0.266103518861306 
2161	 0.266114226515335 
2162	 0.266084963611212 
2163	 0.265980041995092 
2164	 0.265932005928717 
2165	 0.265909691896006 
2166	 0.265870204646695 
2167	 0.265851563105083 
2168	 0.265799156634977 
2169	 0.265722174649225 
2170	 0.265651113953869 
2171	 0.265529458141702 
2172	 0.265461122301883 
2173	 0.265426760621176 
2174	 0.265390691855425 
2175	 0.265414584681985 
2176	 0.265419123124508 
2177	 0.265431822067099 
2178	 0.265486275455532 
2179	 0.265447102998717 
2180	 0.265342600202318 
2181	 0.265308981292387 
2182	 0.265235589012275 
2183	 0.265207101015275 
2184	 0.265271072653358 
2185	 0.265276272689582 
2186	 0.265246918374512 
2187	 0.265225926049647 
2188	 0.265246022887266 
2189	 0.265178360623863 
2190	 0.265000462464173 
2191	 0.264929312537268 
2192	 0.264863139132389 
2193	 0.264804859496437 
2194	 0.264920670116751 
2195	 0.264856927042689 
2196	 0.264695943193056 
2197	 0.264452234892962 
2198	 0.26420316841954 
2199	 0.263963745287636 
2200	 0.263749829611817 
2201	 0.263597579207471 
2202	 0.263390175895741 
2203	 0.263156891741232 
2204	 0.262922008843716 
2205	 0.262680628482843 
2206	 0.262443865110634 
2207	 0.262202648802758 
2208	 0.261939308278228 
2209	 0.261676891924772 
2210	 0.261401087490675 
2211	 0.261095555590784 
2212	 0.260785988609543 
2213	 0.260432560712737 
2214	 0.260154358778443 
2215	 0.259972092626924 
2216	 0.259686198824599 
2217	 0.259447751606639 
2218	 0.259090485650193 
2219	 0.258535182831095 
2220	 0.258054483300066 
2221	 0.257524405164274 
2222	 0.257071211565147 
2223	 0.256666799263265 
2224	 0.256258567012921 
2225	 0.255907573391103 
2226	 0.255522681730938 
2227	 0.255030278983438 
2228	 0.254523105756525 
2229	 0.253859358787533 
2230	 0.253062495838488 
2231	 0.252222662749587 
2232	 0.251294926695285 
2233	 0.250283036731879 
2234	 0.249191697853389 
2235	 0.248016287150822 
2236	 0.246756079680222 
2237	 0.24541904177189 
2238	 0.243970862219568 
2239	 0.24248714257518 
2240	 0.240969856174167 
2241	 0.23929324034326 
2242	 0.237545553610041 
2243	 0.235674841231414 
2244	 0.233586846560474 
2245	 0.231531832579751 
2246	 0.229396792113199 
2247	 0.227240193889214 
2248	 0.225134441518613 
2249	 0.222845108689013 
2250	 0.220420033233447 
2251	 0.218006169212259 
2252	 0.215278801372013 
2253	 0.212599605239277 
2254	 0.209999991091152 
2255	 0.207295164430868 
2256	 0.204778576345369 
2257	 0.202301863967934 
2258	 0.199806533643994 
2259	 0.197269635816169 
2260	 0.194901457140106 
2261	 0.192619004578614 
2262	 0.19036748319587 
2263	 0.188234079667794 
2264	 0.186110626279519 
2265	 0.183989135317176 
2266	 0.181887352755051 
2267	 0.179875480262177 
2268	 0.177840164135768 
2269	 0.175785552152202 
2270	 0.173808487543758 
2271	 0.17178538651615 
2272	 0.16997214258805 
2273	 0.168292990753019 
2274	 0.166622632845815 
2275	 0.165178019861393 
2276	 0.163618720188614 
2277	 0.161987849716386 
2278	 0.16045370016541 
2279	 0.158875362911859 
2280	 0.157407589025871 
2281	 0.156121073015373 
2282	 0.154722862920323 
2283	 0.153383741016549 
2284	 0.151968257631615 
2285	 0.150372037623137 
2286	 0.148762453846028 
2287	 0.147162968687001 
2288	 0.145626483287157 
2289	 0.144094164029302 
2290	 0.142406761045086 
2291	 0.140631161989732 
2292	 0.138778040200504 
2293	 0.136937410673246 
2294	 0.135139842834883 
2295	 0.13315969875438 
2296	 0.131280350045621 
2297	 0.129570170703404 
2298	 0.12784045907948 
2299	 0.126374133310035 
2300	 0.125101530295354 
2301	 0.124099651655961 
2302	 0.123368054453123 
2303	 0.122685318106087 
2304	 0.122259808849793 
2305	 0.121884424090746 
2306	 0.121448593784479 
2307	 0.121471725748002 
2308	 0.12175906533374 
2309	 0.12235322169623 
2310	 0.123328516232409 
2311	 0.124371758132927 
2312	 0.125753080893379 
2313	 0.127136548840215 
2314	 0.128743948404367 
2315	 0.130239965058818 
2316	 0.131769381863869 
2317	 0.133248962288533 
2318	 0.134702270189664 
2319	 0.136063369822209 
2320	 0.137495499661148 
2321	 0.138698719866046 
2322	 0.139702810275399 
2323	 0.140679352178765 
2324	 0.141582335024043 
2325	 0.142292319142359 
2326	 0.14297414121224 
2327	 0.143376357621832 
2328	 0.143447261878881 
2329	 0.143448267843048 
2330	 0.1432114489154 
2331	 0.142959317182777 
2332	 0.142706692111503 
2333	 0.142376625878064 
2334	 0.141993935379913 
2335	 0.141317712302308 
2336	 0.140320291194114 
2337	 0.139308511512306 
2338	 0.138203341275248 
2339	 0.137002524627144 
2340	 0.135844345637175 
2341	 0.134637976305065 
2342	 0.133506923645755 
2343	 0.132443016874533 
2344	 0.131528693776961 
2345	 0.130817849413999 
2346	 0.130274474416493 
2347	 0.129989692766503 
2348	 0.129705058768683 
2349	 0.129885948314523 
2350	 0.130491139365718 
2351	 0.131089990100987 
2352	 0.13210389189063 
2353	 0.133220252489966 
2354	 0.133994580829199 
2355	 0.134870008640298 
2356	 0.13602611810398 
2357	 0.137227859717935 
2358	 0.138524275623507 
2359	 0.139839580592874 
2360	 0.140606945254992 
2361	 0.140980601011071 
2362	 0.141198252360499 
2363	 0.141178023463211 
2364	 0.141463239005646 
2365	 0.141799575925103 
2366	 0.141854612505021 
2367	 0.142105025008642 
2368	 0.142294572943343 
2369	 0.142183208917569 
2370	 0.14240826958067 
2371	 0.142938258089475 
2372	 0.143238694420223 
2373	 0.143460888862126 
2374	 0.143433622444968 
2375	 0.143226200638249 
2376	 0.143162330069269 
2377	 0.142982870349244 
2378	 0.142913965005458 
2379	 0.142828360430268 
2380	 0.143036417230743 
2381	 0.143492160248209 
2382	 0.143805710300404 
2383	 0.144543574629785 
2384	 0.144805341028836 
2385	 0.144622981801493 
2386	 0.144624330627944 
2387	 0.14440971781574 
2388	 0.144377753716439 
2389	 0.144408064923256 
2390	 0.144482036714511 
2391	 0.144876647399502 
2392	 0.144916960835756 
2393	 0.144663506328988 
2394	 0.144757733722264 
2395	 0.144855452307188 
2396	 0.144909685192745 
2397	 0.145229390850017 
2398	 0.145302673441338 
2399	 0.145075650067387 
2400	 0.145172246586412 
2401	 0.145389667837962 
2402	 0.146027436993022 
2403	 0.146143900689474 
2404	 0.146100889444785 
2405	 0.146181767212456 
2406	 0.145976933764651 
2407	 0.145935772597365 
2408	 0.146075711996975 
2409	 0.146155666331791 
2410	 0.146156404749433 
2411	 0.146029199729204 
2412	 0.145880249648512 
2413	 0.145749405970911 
2414	 0.145574678580835 
2415	 0.145782007193372 
2416	 0.145726986604777 
2417	 0.145564184404496 
2418	 0.146031384612744 
2419	 0.146289615101269 
2420	 0.14669313697963 
2421	 0.147245046169028 
2422	 0.147358467670616 
2423	 0.14725735431771 
2424	 0.147183736268442 
2425	 0.147295781311694 
2426	 0.147164592861144 
2427	 0.147021653036461 
2428	 0.147277710599821 
2429	 0.147195760397096 
2430	 0.147043458756393 
2431	 0.147013045533937 
2432	 0.14678381481551 
2433	 0.146741345264892 
2434	 0.146726217641455 
2435	 0.146907109600651 
2436	 0.147076565114862 
2437	 0.146619933424624 
2438	 0.145967380036529 
2439	 0.145895202605136 
2440	 0.14602486697425 
2441	 0.146439697370665 
2442	 0.147327633530832 
2443	 0.147193736700175 
2444	 0.146582065024825 
2445	 0.146202261356911 
2446	 0.14570179060775 
2447	 0.145462540166818 
2448	 0.1450191137558 
2449	 0.144400090742531 
2450	 0.143885796515644 
2451	 0.143694428725966 
2452	 0.144134340427002 
2453	 0.143715540316581 
2454	 0.142943746369187 
2455	 0.142882064345475 
2456	 0.142349234016549 
2457	 0.142288793344308 
2458	 0.142618209420865 
2459	 0.142181639998161 
2460	 0.141472443838531 
2461	 0.141396721953498 
2462	 0.141585960852421 
2463	 0.141601593418264 
2464	 0.142173462397558 
2465	 0.142279526913271 
2466	 0.142292804127256 
2467	 0.142123218651172 
2468	 0.141262690088857 
2469	 0.14145023524052 
2470	 0.14178081177957 
2471	 0.141895251832236 
2472	 0.142564313216741 
2473	 0.142581592356517 
2474	 0.142219497677669 
2475	 0.142279286815526 
2476	 0.142712660593724 
2477	 0.143046234388914 
2478	 0.143176142914497 
2479	 0.144115249422489 
2480	 0.144975280438053 
2481	 0.145048751210811 
2482	 0.144785857341393 
2483	 0.14405938256064 
2484	 0.144158982670558 
2485	 0.145441531631037 
2486	 0.146553701873202 
2487	 0.147038681733109 
2488	 0.147063901913126 
2489	 0.146748548089568 
2490	 0.146291355972967 
2491	 0.146029374412676 
2492	 0.146335869558198 
2493	 0.146944255923743 
2494	 0.147884387089786 
2495	 0.149334994705172 
2496	 0.150762689493538 
2497	 0.151846048793796 
2498	 0.152009970553329 
2499	 0.15191371751407 
2500	 0.151492978586245 
