Wavelength	Tablay400110.asd
350	 0.04654426998354 
351	 3.93173344109251E-02 
352	 5.64327659810345E-02 
353	 6.72433417294607E-02 
354	 1.34088461487204E-02 
355	 0.081620446750033 
356	 0.137137002595432 
357	 6.32236260564738E-02 
358	 4.11709714275383E-02 
359	 5.57032160185225E-02 
360	 7.25471082827578E-02 
361	 0.057960495894776 
362	 8.01075730070408E-02 
363	 7.94137033807279E-02 
364	 4.64805332155675E-02 
365	 6.12777806106289E-02 
366	 5.75676082797091E-02 
367	 3.12682583162393E-02 
368	 9.55398977716645E-03 
369	 4.93610949314787E-02 
370	 5.39625559321014E-02 
371	 3.99321054256871E-02 
372	 7.66588634593386E-02 
373	 5.16279512549358E-02 
374	 1.93606254535593E-02 
375	 1.28877190330625E-02 
376	 2.64691578131213E-02 
377	 3.24990906125293E-02 
378	 3.05375139657903E-02 
379	 0.031293477318358 
380	 6.27336170527555E-02 
381	 7.25183051990118E-02 
382	 5.59510868444396E-02 
383	 4.05342405794943E-02 
384	 2.63273843878263E-02 
385	 0.024380976768643 
386	 3.15869425827209E-02 
387	 2.49991315556998E-02 
388	 4.03957896533399E-02 
389	 0.055825265129955 
390	 4.76906600838194E-02 
391	 3.59900900949654E-02 
392	 4.23767331748057E-02 
393	 5.35340645908113E-02 
394	 4.00080465448167E-02 
395	 3.20874182320597E-02 
396	 2.84408155609349E-02 
397	 2.69362162334597E-02 
398	 3.23920163014742E-02 
399	 3.30613637325626E-02 
400	 4.15271568779973E-02 
401	 6.32932589441328E-02 
402	 5.04013877427016E-02 
403	 0.046030373275954 
404	 5.35682066690277E-02 
405	 4.61469246978796E-02 
406	 0.056783831681413 
407	 6.70841524061657E-02 
408	 6.21198834836626E-02 
409	 0.042528333150113 
410	 4.77724996050583E-02 
411	 6.23094310353681E-02 
412	 5.99214017544396E-02 
413	 5.83897596036432E-02 
414	 4.82491378063625E-02 
415	 3.85284372417724E-02 
416	 5.33009899272937E-02 
417	 6.72841633973131E-02 
418	 6.83906499837806E-02 
419	 5.72927668806854E-02 
420	 5.76057531238619E-02 
421	 5.80175561941295E-02 
422	 5.85276480162756E-02 
423	 6.15493475937235E-02 
424	 5.52446423679915E-02 
425	 5.92353257189951E-02 
426	 7.04399590511336E-02 
427	 6.01663021657028E-02 
428	 5.99055534072841E-02 
429	 6.40483427169449E-02 
430	 0.063420165354694 
431	 6.26716159930093E-02 
432	 6.14512811705466E-02 
433	 6.12237747326517E-02 
434	 6.37263903303953E-02 
435	 6.45193383888572E-02 
436	 6.50016038645499E-02 
437	 6.63002396720459E-02 
438	 6.82427935022883E-02 
439	 6.86377915859695E-02 
440	 6.97588868435572E-02 
441	 7.29386775989325E-02 
442	 7.03347718389151E-02 
443	 6.93998268256665E-02 
444	 7.02753454017424E-02 
445	 6.77168075373639E-02 
446	 6.75865384388304E-02 
447	 0.069399210654493 
448	 7.17728511430751E-02 
449	 7.39919355499285E-02 
450	 7.37583668375941E-02 
451	 7.29024152453854E-02 
452	 7.42667251229461E-02 
453	 7.67046937350334E-02 
454	 7.51804345744697E-02 
455	 7.16238344794545E-02 
456	 7.52088793182795E-02 
457	 7.54766089818714E-02 
458	 7.51446090890293E-02 
459	 7.73390622022289E-02 
460	 7.80218120263402E-02 
461	 7.91767711826614E-02 
462	 7.96959121015089E-02 
463	 7.77572630970057E-02 
464	 8.00822482395369E-02 
465	 8.04775430528479E-02 
466	 7.78890932430558E-02 
467	 8.09542528073325E-02 
468	 8.20156733703848E-02 
469	 8.15355497179437E-02 
470	 8.18832570928013E-02 
471	 8.34008449770413E-02 
472	 0.084779810041156 
473	 8.52302785300992E-02 
474	 8.46376963578503E-02 
475	 8.52464595296286E-02 
476	 8.72218103655058E-02 
477	 8.95390532150473E-02 
478	 8.94495801643677E-02 
479	 0.088595271592488 
480	 8.87194474660936E-02 
481	 9.08643450350669E-02 
482	 9.15759385617932E-02 
483	 9.25609761050704E-02 
484	 9.36297303013676E-02 
485	 9.22196105985808E-02 
486	 0.093089687895129 
487	 9.48026766345548E-02 
488	 9.58148370622249E-02 
489	 9.93373867245806E-02 
490	 9.81288294387768E-02 
491	 9.51717318305144E-02 
492	 9.81594549691812E-02 
493	 9.99735991827067E-02 
494	 0.100707388117332 
495	 0.101201026335868 
496	 0.102100151480592 
497	 0.102530882603307 
498	 0.102835487752345 
499	 0.103594982191717 
500	 0.104723938551973 
501	 0.105926712436784 
502	 0.10700918712444 
503	 0.107888023768139 
504	 0.108477454662308 
505	 0.108901462905345 
506	 0.109291683198479 
507	 0.109667823564636 
508	 0.110326849620388 
509	 0.111187164948795 
510	 0.112014490055285 
511	 0.112905239230181 
512	 0.11338506305101 
513	 0.113778130112453 
514	 0.11545052350358 
515	 0.116497559334373 
516	 0.11701348869249 
517	 0.117466218485421 
518	 0.117639542805955 
519	 0.118144397435867 
520	 0.119066063748078 
521	 0.120096953376035 
522	 0.120897388309633 
523	 0.121966555754507 
524	 0.123282518399447 
525	 0.12352533076189 
526	 0.124063784781567 
527	 0.124995322236807 
528	 0.125952061409222 
529	 0.126676049306735 
530	 0.127233660445611 
531	 0.127753689839858 
532	 0.128391435749357 
533	 0.12915029064403 
534	 0.129783921701794 
535	 0.130178434019861 
536	 0.130688407899656 
537	 0.131643748087109 
538	 0.132425527091047 
539	 0.132155443660002 
540	 0.132632823096265 
541	 0.132801497240295 
542	 0.132437467597214 
543	 0.133157730920885 
544	 0.133524727946237 
545	 0.133677427446257 
546	 0.13403478702127 
547	 0.134060515656224 
548	 0.134025279857886 
549	 0.13400517855992 
550	 0.133900747264658 
551	 0.134216424712491 
552	 0.134402607817688 
553	 0.134120471996287 
554	 0.134031930351753 
555	 0.133896896251041 
556	 0.133790897053531 
557	 0.133825517428567 
558	 0.133320117694097 
559	 0.132826384888061 
560	 0.132508551980039 
561	 0.131830425902956 
562	 0.131576298993066 
563	 0.131400250821936 
564	 0.130844941166176 
565	 0.130209374603097 
566	 0.129850116206476 
567	 0.12952613181357 
568	 0.128647813145387 
569	 0.128185587504511 
570	 0.127703653319626 
571	 0.126907328776585 
572	 0.126243375083145 
573	 0.125617976839553 
574	 0.12488941269783 
575	 0.123964304412497 
576	 0.123236928961871 
577	 0.122366513380064 
578	 0.121372186947905 
579	 0.120711785147849 
580	 0.119849292600162 
581	 0.118924442894614 
582	 0.11805215682571 
583	 0.116746403711548 
584	 0.115651994002752 
585	 0.114742788942032 
586	 0.113622036290588 
587	 0.112517350623303 
588	 0.111471465248432 
589	 0.110378221398969 
590	 0.108905870545119 
591	 0.107728774477014 
592	 0.10678708041601 
593	 0.105835992072804 
594	 0.104977369292986 
595	 0.103803942409684 
596	 0.102437018059089 
597	 0.10142800485004 
598	 0.100394697896443 
599	 9.92834380318293E-02 
600	 9.81398458785904E-02 
601	 9.71515850917343E-02 
602	 9.59315647628331E-02 
603	 9.46536388738091E-02 
604	 9.36678522583638E-02 
605	 9.26752495894919E-02 
606	 0.091683986736876 
607	 9.06775509575772E-02 
608	 8.95843086005063E-02 
609	 8.84893981886081E-02 
610	 0.08746565070405 
611	 8.65509110366553E-02 
612	 8.57163942453067E-02 
613	 0.084783704454829 
614	 8.37902618170379E-02 
615	 8.28970346075322E-02 
616	 0.082001828032964 
617	 8.10240923394438E-02 
618	 8.00142117728406E-02 
619	 7.92451496841261E-02 
620	 7.84939786282541E-02 
621	 7.77032899172608E-02 
622	 7.68973590389892E-02 
623	 7.62210501722891E-02 
624	 7.55112384306097E-02 
625	 7.47581769266401E-02 
626	 7.40984095256187E-02 
627	 7.34321024093227E-02 
628	 0.072713158992397 
629	 7.19619293844788E-02 
630	 7.13380968227258E-02 
631	 7.07179737276837E-02 
632	 7.00868293584471E-02 
633	 6.94734095987468E-02 
634	 6.88362574235327E-02 
635	 6.82615693539316E-02 
636	 6.77696608934309E-02 
637	 6.72891236140548E-02 
638	 6.67788282994363E-02 
639	 6.62356149170516E-02 
640	 6.57047654082878E-02 
641	 0.065360935024819 
642	 0.064904979087275 
643	 6.43284805730553E-02 
644	 6.38020750498437E-02 
645	 6.33308646248799E-02 
646	 6.28287907899539E-02 
647	 6.23177885588525E-02 
648	 0.062021008281503 
649	 6.16486180180802E-02 
650	 6.11355664113811E-02 
651	 6.05653794927493E-02 
652	 6.03149403201736E-02 
653	 5.99938472499074E-02 
654	 5.96171587463853E-02 
655	 5.94959718642457E-02 
656	 0.059022151100915 
657	 5.84857494919621E-02 
658	 5.81647280620192E-02 
659	 5.80249744901643E-02 
660	 5.77995107308358E-02 
661	 5.74850920484996E-02 
662	 0.057170360560692 
663	 5.67967489038199E-02 
664	 5.64920920465267E-02 
665	 5.62436553081036E-02 
666	 0.055899843704536 
667	 5.56920438741863E-02 
668	 5.55252434710274E-02 
669	 5.52856717671247E-02 
670	 5.49629010641664E-02 
671	 0.054774631519928 
672	 5.46183384034702E-02 
673	 5.42946680823555E-02 
674	 5.40474394559171E-02 
675	 5.38599644028121E-02 
676	 5.36922767627033E-02 
677	 5.35047659457636E-02 
678	 5.33168150856249E-02 
679	 5.30671295841535E-02 
680	 5.27520796368274E-02 
681	 5.25843023955176E-02 
682	 5.24866706543167E-02 
683	 5.23438289230313E-02 
684	 5.20574109265975E-02 
685	 5.18335532520649E-02 
686	 5.16913766941916E-02 
687	 0.051564917418239 
688	 5.13002736145058E-02 
689	 0.051166824845724 
690	 0.051098897288986 
691	 5.09757073790128E-02 
692	 5.08287655471258E-02 
693	 5.05741630537416E-02 
694	 5.03111129810532E-02 
695	 5.02295106475852E-02 
696	 5.02383851745332E-02 
697	 5.01195511316586E-02 
698	 0.049820241934047 
699	 4.95504457856221E-02 
700	 4.95494634733026E-02 
701	 4.95772784555822E-02 
702	 4.93830306100252E-02 
703	 4.92555354048746E-02 
704	 4.91522638710966E-02 
705	 4.90416933490808E-02 
706	 4.89073390766921E-02 
707	 4.87893449918729E-02 
708	 4.86389451371416E-02 
709	 0.048477211008899 
710	 4.84662604681975E-02 
711	 4.83165599332694E-02 
712	 4.81653964316469E-02 
713	 0.04816907192892 
714	 4.80158368764123E-02 
715	 4.79331836286946E-02 
716	 4.79200249544864E-02 
717	 4.78189510357562E-02 
718	 4.77551442673387E-02 
719	 4.76655802269217E-02 
720	 4.75124871608766E-02 
721	 4.73323483947207E-02 
722	 4.72978429785364E-02 
723	 4.73264833178086E-02 
724	 4.72780470299942E-02 
725	 4.71228086317251E-02 
726	 4.70564889619467E-02 
727	 4.70614601715468E-02 
728	 0.046975370852564 
729	 4.68567019407081E-02 
730	 4.67078684559442E-02 
731	 4.65734939894128E-02 
732	 4.65756715463559E-02 
733	 4.66077189586713E-02 
734	 4.65837008427214E-02 
735	 4.64712626510214E-02 
736	 4.64016328047998E-02 
737	 4.63267126320709E-02 
738	 4.62903714503435E-02 
739	 4.63574191935819E-02 
740	 4.61849329767897E-02 
741	 4.60653684329849E-02 
742	 4.61185273249986E-02 
743	 4.60958295086306E-02 
744	 4.60579711826599E-02 
745	 4.60101986531504E-02 
746	 4.59513222758081E-02 
747	 0.045891446352549 
748	 4.58035483147597E-02 
749	 4.57563125046336E-02 
750	 4.58293144198213E-02 
751	 4.57426075094425E-02 
752	 4.56418625644817E-02 
753	 4.56067282255354E-02 
754	 4.55745247980696E-02 
755	 4.55986401567293E-02 
756	 4.56377984636502E-02 
757	 4.56402996239124E-02 
758	 4.55893645319062E-02 
759	 4.55008681424276E-02 
760	 4.54067509322623E-02 
761	 4.53547568576326E-02 
762	 4.54518181184612E-02 
763	 4.54447793433681E-02 
764	 4.53069739910341E-02 
765	 0.045273187286978 
766	 4.53353258470863E-02 
767	 4.53510388198031E-02 
768	 4.52575774499523E-02 
769	 4.52381789546948E-02 
770	 0.045206933354998 
771	 4.52074693605533E-02 
772	 4.52808673940768E-02 
773	 0.04524260410237 
774	 4.52023314444714E-02 
775	 0.045191653201348 
776	 4.51704489002057E-02 
777	 4.51669146012984E-02 
778	 4.51752825549095E-02 
779	 4.51723618674812E-02 
780	 4.51128738728085E-02 
781	 4.51080003012092E-02 
782	 0.045075980675857 
783	 4.49621045884858E-02 
784	 4.50050296993935E-02 
785	 0.045056811218116 
786	 0.045070034779939 
787	 4.50604650697177E-02 
788	 4.50359300287376E-02 
789	 4.49824330913281E-02 
790	 4.49168927081386E-02 
791	 4.48927418240139E-02 
792	 4.49335726939664E-02 
793	 4.49714537580636E-02 
794	 0.044962886010326 
795	 4.49794241251283E-02 
796	 4.48938818373172E-02 
797	 4.48273263884803E-02 
798	 4.49164117680596E-02 
799	 4.49048877098445E-02 
800	 4.48741104898522E-02 
801	 4.48787415768101E-02 
802	 4.49278896739689E-02 
803	 0.04489764275049 
804	 4.48723184257601E-02 
805	 4.48860097811572E-02 
806	 4.48565349094668E-02 
807	 0.044857816859818 
808	 4.48503246301465E-02 
809	 4.48168035990783E-02 
810	 4.49017468532816E-02 
811	 0.044878030873334 
812	 4.48188121232845E-02 
813	 4.48817382315586E-02 
814	 0.044865497290422 
815	 4.48352125194157E-02 
816	 4.48498660966898E-02 
817	 4.49350416017009E-02 
818	 0.044972378250117 
819	 4.49525742676363E-02 
820	 4.49120807232451E-02 
821	 4.49268606598019E-02 
822	 4.49867473846709E-02 
823	 4.50030578967153E-02 
824	 4.49429669185427E-02 
825	 4.50154875326595E-02 
826	 4.50382885136694E-02 
827	 0.045016167924555 
828	 4.50215470517439E-02 
829	 4.49484956401957E-02 
830	 0.045061524124533 
831	 4.52540944828189E-02 
832	 0.045135325226856 
833	 4.50976285226386E-02 
834	 4.50823548894258E-02 
835	 4.50727192368342E-02 
836	 4.52114319593748E-02 
837	 4.53006602442547E-02 
838	 4.53194383689028E-02 
839	 4.53143307679017E-02 
840	 4.53835056914345E-02 
841	 4.54244754291979E-02 
842	 0.045408188574136 
843	 4.53772288134576E-02 
844	 4.55612101922931E-02 
845	 4.56336940501142E-02 
846	 4.55785507183978E-02 
847	 4.56117162217308E-02 
848	 4.56769347124198E-02 
849	 4.57025590728772E-02 
850	 4.57014183996376E-02 
851	 4.57892302463832E-02 
852	 4.59272091775451E-02 
853	 0.04602925294399 
854	 0.04604203378017 
855	 4.59935755440938E-02 
856	 4.60379856371066E-02 
857	 4.61387597423603E-02 
858	 4.62213735273671E-02 
859	 4.63441860776606E-02 
860	 4.63541071037078E-02 
861	 0.046314856775174 
862	 4.63802611826423E-02 
863	 4.64948628569201E-02 
864	 4.66277284088138E-02 
865	 4.67126536058853E-02 
866	 4.66811459400508E-02 
867	 4.67278250247775E-02 
868	 0.046760148035862 
869	 0.046763504391052 
870	 4.68765178454323E-02 
871	 0.046967559530172 
872	 4.70291276316995E-02 
873	 4.71059437894144E-02 
874	 4.72984726170169E-02 
875	 4.74563438255324E-02 
876	 4.74911921710506E-02 
877	 4.74187996049775E-02 
878	 4.75050017701612E-02 
879	 4.76843601238015E-02 
880	 4.77938223641431E-02 
881	 4.77278182510215E-02 
882	 4.79357710540824E-02 
883	 4.80945145052468E-02 
884	 4.81610811057265E-02 
885	 0.048318596229547 
886	 4.84506659484171E-02 
887	 0.048590784112847 
888	 4.86755503757964E-02 
889	 4.85493871613572E-02 
890	 4.86566691451069E-02 
891	 4.88174108524027E-02 
892	 4.88708146063512E-02 
893	 4.88908760469238E-02 
894	 4.90847230371248E-02 
895	 4.92816947349194E-02 
896	 4.93750603029364E-02 
897	 4.97142966928716E-02 
898	 4.97373566474198E-02 
899	 4.97304470174101E-02 
900	 5.00405406866945E-02 
901	 5.00701034915019E-02 
902	 5.01928250576149E-02 
903	 5.03931498104497E-02 
904	 5.05000204005276E-02 
905	 5.06648021741288E-02 
906	 5.08522154895788E-02 
907	 5.09413655078336E-02 
908	 5.08349855357867E-02 
909	 5.09749479815095E-02 
910	 5.12669564285862E-02 
911	 5.15431010513837E-02 
912	 5.16506068559989E-02 
913	 5.17446517340878E-02 
914	 5.18244232576511E-02 
915	 0.051983149677949 
916	 5.24369681232859E-02 
917	 5.26954803895831E-02 
918	 5.26673760449621E-02 
919	 5.25692662481955E-02 
920	 5.29775820514357E-02 
921	 0.053253571165685 
922	 5.33500251445979E-02 
923	 5.34057017809721E-02 
924	 5.35984772412146E-02 
925	 5.38171039634361E-02 
926	 5.40745690601484E-02 
927	 0.054377327813948 
928	 5.45817317545128E-02 
929	 5.48405129651422E-02 
930	 5.50603890369233E-02 
931	 5.51251734980761E-02 
932	 5.52838811925912E-02 
933	 5.54067719938532E-02 
934	 5.55204275925017E-02 
935	 5.57198823994675E-02 
936	 5.59626858449141E-02 
937	 5.61473948944423E-02 
938	 5.63497624746169E-02 
939	 0.056716285460968 
940	 5.70121746776662E-02 
941	 5.71313024802174E-02 
942	 5.72293803147009E-02 
943	 5.75961544633608E-02 
944	 5.77915356624217E-02 
945	 5.80039892995589E-02 
946	 0.058309133525403 
947	 5.85818670019179E-02 
948	 5.86992130636627E-02 
949	 5.89071618814247E-02 
950	 5.92179114834011E-02 
951	 5.93159099869218E-02 
952	 5.95042509513319E-02 
953	 5.97444272792024E-02 
954	 6.00264403959281E-02 
955	 6.04545410718675E-02 
956	 6.07186486660045E-02 
957	 6.08559235753083E-02 
958	 6.10289097743062E-02 
959	 6.14519470070408E-02 
960	 6.14585335607411E-02 
961	 6.16246006246435E-02 
962	 6.22081719820273E-02 
963	 6.22895122170056E-02 
964	 6.22781400635355E-02 
965	 6.25879693036292E-02 
966	 6.31675028244001E-02 
967	 6.29494872171631E-02 
968	 6.31743177847751E-02 
969	 6.35413647591608E-02 
970	 6.36716586170813E-02 
971	 6.41333605232867E-02 
972	 6.46258129779722E-02 
973	 6.49452805645821E-02 
974	 6.50130755181502E-02 
975	 6.49668878076827E-02 
976	 6.53002361160921E-02 
977	 6.58532899004118E-02 
978	 6.61910724463655E-02 
979	 6.57342998330471E-02 
980	 6.60639076656847E-02 
981	 6.67221709755223E-02 
982	 6.69536489127468E-02 
983	 0.067534546102596 
984	 0.06768606530478 
985	 0.067696075783772 
986	 6.80488790216591E-02 
987	 6.85600684603523E-02 
988	 6.89668765260547E-02 
989	 6.92001045553172E-02 
990	 6.93155471983214E-02 
991	 0.0694358191128 
992	 6.98017265281097E-02 
993	 7.00732856777013E-02 
994	 6.99379105974478E-02 
995	 6.99067777336258E-02 
996	 6.99588752658419E-02 
997	 7.02366582294762E-02 
998	 0.070773027829625 
999	 7.11693758811033E-02 
1000	 7.11970103786326E-02 
1001	 7.27740773282869E-02 
1002	 0.072899396012915 
1003	 7.29303796222188E-02 
1004	 7.30990224834595E-02 
1005	 7.32351764099527E-02 
1006	 7.34385536270735E-02 
1007	 7.38828867303041E-02 
1008	 7.40815731274138E-02 
1009	 7.41284916430673E-02 
1010	 7.42164772153832E-02 
1011	 7.40285415147815E-02 
1012	 7.41960637562931E-02 
1013	 7.47258111398129E-02 
1014	 7.50069733029109E-02 
1015	 7.52559698739256E-02 
1016	 7.57203526647081E-02 
1017	 7.58896548616276E-02 
1018	 7.58194175527667E-02 
1019	 7.61478250490077E-02 
1020	 7.64982072520948E-02 
1021	 7.67212885339339E-02 
1022	 7.69841791953936E-02 
1023	 7.72199178310811E-02 
1024	 0.077268169629115 
1025	 7.74325477803701E-02 
1026	 7.76820899998022E-02 
1027	 7.79175150135537E-02 
1028	 7.82186026973219E-02 
1029	 7.84437820595627E-02 
1030	 7.84895704922248E-02 
1031	 7.85196040371775E-02 
1032	 0.078435955985488 
1033	 7.84394782401039E-02 
1034	 7.88815507063771E-02 
1035	 7.93001938839261E-02 
1036	 7.95673077477439E-02 
1037	 7.99350051551717E-02 
1038	 8.01637023497957E-02 
1039	 8.00872038552634E-02 
1040	 8.02122835035207E-02 
1041	 8.04302768616854E-02 
1042	 8.05799613563157E-02 
1043	 8.07147204323815E-02 
1044	 8.09717878078521E-02 
1045	 8.10463289978723E-02 
1046	 8.10614207729314E-02 
1047	 8.11909517884556E-02 
1048	 0.081335977038283 
1049	 8.16169529713269E-02 
1050	 8.19267316146734E-02 
1051	 8.20366419386978E-02 
1052	 8.20334758582923E-02 
1053	 8.20687432989196E-02 
1054	 8.19744214559647E-02 
1055	 8.20586310841031E-02 
1056	 8.22071529959099E-02 
1057	 8.23392769244278E-02 
1058	 8.25506709508589E-02 
1059	 8.28298499628576E-02 
1060	 8.27415642572771E-02 
1061	 8.27376233927005E-02 
1062	 8.28575874056378E-02 
1063	 8.27985877919461E-02 
1064	 8.28617467846137E-02 
1065	 8.30965664180981E-02 
1066	 8.31829213251859E-02 
1067	 8.31628533973868E-02 
1068	 8.32760814200291E-02 
1069	 8.33389212913179E-02 
1070	 8.34366505327149E-02 
1071	 8.35675325857644E-02 
1072	 8.37569206347405E-02 
1073	 8.38555901162441E-02 
1074	 0.08402386019651 
1075	 8.41009946261605E-02 
1076	 8.40426497395323E-02 
1077	 8.39788957599393E-02 
1078	 8.38917099276518E-02 
1079	 8.39186952729397E-02 
1080	 0.084029296458161 
1081	 0.08421634683711 
1082	 8.43913622377941E-02 
1083	 0.084361746261001 
1084	 8.42846205229232E-02 
1085	 0.084251240290395 
1086	 8.42463816132393E-02 
1087	 8.42260737182735E-02 
1088	 8.43473147162256E-02 
1089	 8.44620823644805E-02 
1090	 8.44456202422059E-02 
1091	 8.44922456137999E-02 
1092	 8.44584653472204E-02 
1093	 8.43706427776221E-02 
1094	 8.44677868319443E-02 
1095	 0.084409289654808 
1096	 8.43893262369362E-02 
1097	 0.084474898383252 
1098	 0.084388697335052 
1099	 8.44274759636292E-02 
1100	 8.44385808795605E-02 
1101	 8.44123947299439E-02 
1102	 8.45625463145761E-02 
1103	 8.46163138676297E-02 
1104	 0.084597620008959 
1105	 8.46323982832978E-02 
1106	 8.47471285969102E-02 
1107	 8.46476848618695E-02 
1108	 0.08461636074235 
1109	 0.084677969073739 
1110	 8.46243574304462E-02 
1111	 8.46514856687435E-02 
1112	 8.46984350484671E-02 
1113	 8.46453766703591E-02 
1114	 8.46387041131789E-02 
1115	 8.46396982235454E-02 
1116	 8.45592482664052E-02 
1117	 0.084489575799741 
1118	 8.45067201415785E-02 
1119	 8.45681707038121E-02 
1120	 8.45849782438449E-02 
1121	 8.46234504611906E-02 
1122	 8.47762559125832E-02 
1123	 8.47864845842968E-02 
1124	 8.47733814679367E-02 
1125	 8.47856990792239E-02 
1126	 8.47409932931535E-02 
1127	 0.084692880633809 
1128	 0.084753910260331 
1129	 0.084884431697565 
1130	 8.48984552439699E-02 
1131	 8.49069278759719E-02 
1132	 8.48582096873105E-02 
1133	 8.46935875437577E-02 
1134	 8.45758414596708E-02 
1135	 8.45475970858793E-02 
1136	 8.45683467775171E-02 
1137	 8.45891462208424E-02 
1138	 8.47461443321183E-02 
1139	 0.08477571449113 
1140	 8.47158690961195E-02 
1141	 8.46838327641548E-02 
1142	 8.47084355473765E-02 
1143	 8.47454757299512E-02 
1144	 8.48392473454754E-02 
1145	 8.48726746408144E-02 
1146	 8.48332496550703E-02 
1147	 0.084830050295864 
1148	 8.48103837542119E-02 
1149	 0.08475530504992 
1150	 8.48231624336005E-02 
1151	 8.49314935799786E-02 
1152	 8.49457819884356E-02 
1153	 8.49759948571749E-02 
1154	 8.49827874026711E-02 
1155	 8.48503244512152E-02 
1156	 8.47922305845659E-02 
1157	 8.47731035520191E-02 
1158	 8.47946824733509E-02 
1159	 8.48426724185098E-02 
1160	 8.49299750335585E-02 
1161	 8.49890143445203E-02 
1162	 8.49576615653692E-02 
1163	 8.48170515880998E-02 
1164	 8.47738574521414E-02 
1165	 8.48309085472573E-02 
1166	 0.084871612639068 
1167	 8.49315425284937E-02 
1168	 8.49254325290564E-02 
1169	 8.49330055027942E-02 
1170	 8.48958551545614E-02 
1171	 8.48850011803579E-02 
1172	 8.48875350893022E-02 
1173	 8.49085661578612E-02 
1174	 8.49091462060729E-02 
1175	 8.49232785633433E-02 
1176	 8.50149748466078E-02 
1177	 8.50409190981846E-02 
1178	 8.49868051764966E-02 
1179	 8.50263861719993E-02 
1180	 8.50711034709637E-02 
1181	 8.50171490388847E-02 
1182	 8.50453810183056E-02 
1183	 8.50648579442913E-02 
1184	 8.50827126877085E-02 
1185	 8.51597122206646E-02 
1186	 8.51914942290869E-02 
1187	 8.52098678792818E-02 
1188	 8.52511122244473E-02 
1189	 8.52910934620589E-02 
1190	 8.53232717349923E-02 
1191	 8.53881200055583E-02 
1192	 8.54170331232167E-02 
1193	 0.085385436854776 
1194	 8.54004061339442E-02 
1195	 8.54244181471855E-02 
1196	 8.54676971442727E-02 
1197	 8.55592909117816E-02 
1198	 8.56070923505715E-02 
1199	 8.56639956048635E-02 
1200	 0.085737907147436 
1201	 8.57301681048268E-02 
1202	 0.085737217107959 
1203	 8.57663339020974E-02 
1204	 8.58073975558055E-02 
1205	 8.58882750335776E-02 
1206	 8.60489987480234E-02 
1207	 8.61356253697165E-02 
1208	 0.086221278682504 
1209	 8.62765020425293E-02 
1210	 8.62609251918684E-02 
1211	 0.086320665577708 
1212	 8.64218390471642E-02 
1213	 8.64868846878854E-02 
1214	 8.65559529176698E-02 
1215	 8.66408509731236E-02 
1216	 8.67174993668699E-02 
1217	 8.67818527368416E-02 
1218	 8.68740614030892E-02 
1219	 8.69434692614352E-02 
1220	 8.69681833148737E-02 
1221	 8.70037277080064E-02 
1222	 8.70735146680567E-02 
1223	 8.72192479554302E-02 
1224	 8.72839748012629E-02 
1225	 8.73265938961007E-02 
1226	 8.74042197131137E-02 
1227	 8.74316200585125E-02 
1228	 8.75310667901882E-02 
1229	 8.77451044153634E-02 
1230	 8.78618769137535E-02 
1231	 8.79405466039855E-02 
1232	 8.80302519796586E-02 
1233	 8.80848304856804E-02 
1234	 8.81549849069707E-02 
1235	 8.82252029233397E-02 
1236	 8.83252689128429E-02 
1237	 8.84547257691645E-02 
1238	 8.85493078742001E-02 
1239	 8.86254444827575E-02 
1240	 8.87555388842825E-02 
1241	 8.88452904125906E-02 
1242	 0.088901797018148 
1243	 8.90532615762356E-02 
1244	 8.93112791531617E-02 
1245	 8.94250265473557E-02 
1246	 8.95283981417502E-02 
1247	 8.96055640558492E-02 
1248	 8.95437408373679E-02 
1249	 8.96155386903377E-02 
1250	 8.98048044951183E-02 
1251	 8.98809849769184E-02 
1252	 8.99107929573034E-02 
1253	 8.99992288359309E-02 
1254	 9.00558565729701E-02 
1255	 0.090130050965377 
1256	 9.03023510394531E-02 
1257	 0.090399737253461 
1258	 0.090355394393687 
1259	 9.04554415586454E-02 
1260	 9.06497183923402E-02 
1261	 9.08019500070217E-02 
1262	 9.10167807861832E-02 
1263	 9.12563252034054E-02 
1264	 9.13723633404567E-02 
1265	 9.13700973822771E-02 
1266	 9.14704326341828E-02 
1267	 9.15494147857232E-02 
1268	 9.16662382974312E-02 
1269	 9.18503645805842E-02 
1270	 0.091978141155686 
1271	 0.092089460319514 
1272	 9.21968478389242E-02 
1273	 0.09224050922058 
1274	 9.23932801279428E-02 
1275	 9.26555615697882E-02 
1276	 9.27964512433197E-02 
1277	 9.29349086914227E-02 
1278	 9.30713304943108E-02 
1279	 9.30792994074932E-02 
1280	 9.31773989020904E-02 
1281	 9.33576843497352E-02 
1282	 9.35300968019467E-02 
1283	 9.37559282472857E-02 
1284	 0.093921906834117 
1285	 9.40670570637876E-02 
1286	 9.42074425766793E-02 
1287	 9.43323691310323E-02 
1288	 9.43817809027172E-02 
1289	 9.45387521443408E-02 
1290	 9.47576901912817E-02 
1291	 9.49302840687412E-02 
1292	 9.51296953128356E-02 
1293	 9.53036063857178E-02 
1294	 0.095460589016467 
1295	 9.55909897561796E-02 
1296	 9.56941619263268E-02 
1297	 0.0958275724066 
1298	 9.59514278537572E-02 
1299	 9.60653837468817E-02 
1300	 9.61817358406552E-02 
1301	 9.63257902268525E-02 
1302	 9.64640910752567E-02 
1303	 9.66031106466674E-02 
1304	 9.67707706067928E-02 
1305	 9.69456762932006E-02 
1306	 0.097095812867955 
1307	 9.72713425865959E-02 
1308	 9.74703597080363E-02 
1309	 0.097714895967281 
1310	 9.78921011902733E-02 
1311	 9.80518068404083E-02 
1312	 9.82103947202707E-02 
1313	 9.83298093164873E-02 
1314	 9.84904062020738E-02 
1315	 9.86601201575863E-02 
1316	 9.88496425689772E-02 
1317	 9.90741066250904E-02 
1318	 0.099257845159305 
1319	 9.94439878414229E-02 
1320	 9.96183993667985E-02 
1321	 9.97621459121004E-02 
1322	 0.099916227931359 
1323	 0.100067232494148 
1324	 0.100229706420345 
1325	 0.100360182561194 
1326	 0.100555230256158 
1327	 0.100812012520508 
1328	 0.101040766364596 
1329	 0.101289095693387 
1330	 0.101536909381508 
1331	 0.101782174472337 
1332	 0.102011404120793 
1333	 0.102253635969463 
1334	 0.102480987457232 
1335	 0.102673426512166 
1336	 0.102815235815376 
1337	 0.10301201774514 
1338	 0.103205709776847 
1339	 0.103417916767922 
1340	 0.10366017608383 
1341	 0.103895104316082 
1342	 0.104128049263778 
1343	 0.104371747276781 
1344	 0.104626251896906 
1345	 0.104880259069215 
1346	 0.105162934687645 
1347	 0.105387751852616 
1348	 0.105578391811821 
1349	 0.105793059695578 
1350	 0.105957475369786 
1351	 0.106183612440022 
1352	 0.106459068603269 
1353	 0.106733681959534 
1354	 0.107071835074144 
1355	 0.107334108735492 
1356	 0.10754003265822 
1357	 0.107783534588367 
1358	 0.108017049095064 
1359	 0.108238053140739 
1360	 0.1084323907463 
1361	 0.108720221163485 
1362	 0.109012337699365 
1363	 0.109182381676489 
1364	 0.109426355489183 
1365	 0.109720201591084 
1366	 0.109951754527241 
1367	 0.110143313958921 
1368	 0.110375093352012 
1369	 0.110601057609099 
1370	 0.110841178153903 
1371	 0.111125796541294 
1372	 0.111346468935658 
1373	 0.111525132577017 
1374	 0.111739497021247 
1375	 0.111940110328685 
1376	 0.112155123666102 
1377	 0.112401205271686 
1378	 0.11263782825933 
1379	 0.112875047514731 
1380	 0.113094946933277 
1381	 0.113309144693374 
1382	 0.113531845314818 
1383	 0.113719524825553 
1384	 0.113950376327477 
1385	 0.114239685854651 
1386	 0.114488108050136 
1387	 0.114714381950336 
1388	 0.114964888190904 
1389	 0.115229357458465 
1390	 0.115461180310748 
1391	 0.115686299455114 
1392	 0.115932371805491 
1393	 0.116110063363259 
1394	 0.116311921875794 
1395	 0.116536613769095 
1396	 0.116781261888001 
1397	 0.117033824644126 
1398	 0.117318032554177 
1399	 0.11755388183419 
1400	 0.117780568638885 
1401	 0.118008454472803 
1402	 0.1181996438347 
1403	 0.118433493427257 
1404	 0.118706593104104 
1405	 0.11894131186073 
1406	 0.119171007418152 
1407	 0.119397134808907 
1408	 0.119601088130749 
1409	 0.119810827819271 
1410	 0.12002510228874 
1411	 0.120242581940836 
1412	 0.120436056562837 
1413	 0.120674197511551 
1414	 0.120970076788867 
1415	 0.121206009039282 
1416	 0.121415807503413 
1417	 0.121661838109404 
1418	 0.12188123231428 
1419	 0.122129704388456 
1420	 0.122431119424404 
1421	 0.122717842180703 
1422	 0.122998268087537 
1423	 0.123281359193906 
1424	 0.12355349504979 
1425	 0.123876560816992 
1426	 0.124150833878458 
1427	 0.124429385113802 
1428	 0.124737400045636 
1429	 0.125004006973559 
1430	 0.125312514276581 
1431	 0.125648125855148 
1432	 0.12596360406035 
1433	 0.126303802777662 
1434	 0.126581345009117 
1435	 0.1267900343266 
1436	 0.127104083741517 
1437	 0.127427298086024 
1438	 0.127763217480034 
1439	 0.128200111389491 
1440	 0.128537911295772 
1441	 0.12881846313329 
1442	 0.12911548792962 
1443	 0.129361449840541 
1444	 0.129683653098115 
1445	 0.130046634500023 
1446	 0.130387861628642 
1447	 0.130759275449121 
1448	 0.131127770873471 
1449	 0.131495655235816 
1450	 0.131838898946219 
1451	 0.132163684118024 
1452	 0.132531726148371 
1453	 0.132883388877635 
1454	 0.133257251971241 
1455	 0.133705336619546 
1456	 0.134110044434663 
1457	 0.134490156438035 
1458	 0.134874653455429 
1459	 0.135248676852043 
1460	 0.135630276879161 
1461	 0.135996035462175 
1462	 0.136385036888196 
1463	 0.1368160624149 
1464	 0.137211869146075 
1465	 0.137585728060165 
1466	 0.137988753824177 
1467	 0.138376468100075 
1468	 0.138741484023674 
1469	 0.139158864793312 
1470	 0.139592448498228 
1471	 0.139992842058419 
1472	 0.140384949670115 
1473	 0.140771319941214 
1474	 0.141139359385831 
1475	 0.141516277375861 
1476	 0.141873941781071 
1477	 0.142292929377704 
1478	 0.142753580002392 
1479	 0.14316067105002 
1480	 0.143580360421709 
1481	 0.144004411353807 
1482	 0.144398284038339 
1483	 0.144793012122693 
1484	 0.145226533101429 
1485	 0.14561677212328 
1486	 0.145944055635777 
1487	 0.146316782710219 
1488	 0.146707177695129 
1489	 0.147095035777706 
1490	 0.147496694097098 
1491	 0.14788134586737 
1492	 0.148243159417643 
1493	 0.148641869763629 
1494	 0.14906363229595 
1495	 0.149462258330736 
1496	 0.149872535943864 
1497	 0.150282129842778 
1498	 0.150685227309281 
1499	 0.151062704536207 
1500	 0.151411210364537 
1501	 0.151810394265502 
1502	 0.152215183882188 
1503	 0.152610750739938 
1504	 0.153052075342532 
1505	 0.153473166228883 
1506	 0.153853739873593 
1507	 0.154252391073494 
1508	 0.154685115925081 
1509	 0.155089127864821 
1510	 0.155475983681128 
1511	 0.155855986666386 
1512	 0.156192280269384 
1513	 0.15657557145874 
1514	 0.156986170744137 
1515	 0.157388157938514 
1516	 0.157845846694403 
1517	 0.158254784180601 
1518	 0.158615067575527 
1519	 0.158982610544483 
1520	 0.159349015861866 
1521	 0.159671731521463 
1522	 0.160013134252891 
1523	 0.160405369951736 
1524	 0.160770292976371 
1525	 0.16113285217687 
1526	 0.161516831548885 
1527	 0.161907640249392 
1528	 0.162292856263991 
1529	 0.162683563671229 
1530	 0.163099091934248 
1531	 0.163529464028462 
1532	 0.163928790454888 
1533	 0.16433428820226 
1534	 0.164752560577842 
1535	 0.165147486415844 
1536	 0.165552967060228 
1537	 0.166001716648748 
1538	 0.166401609470405 
1539	 0.166745011564472 
1540	 0.167153653811992 
1541	 0.167566410318774 
1542	 0.168026724742035 
1543	 0.168541278163532 
1544	 0.16902909609658 
1545	 0.169553405383882 
1546	 0.170026047395038 
1547	 0.170444757995275 
1548	 0.170929989639058 
1549	 0.171434554992881 
1550	 0.171921926116973 
1551	 0.172431967811533 
1552	 0.172944562238335 
1553	 0.173431009698297 
1554	 0.173943300551639 
1555	 0.174506447298885 
1556	 0.175026572789031 
1557	 0.175517705905524 
1558	 0.176027215834769 
1559	 0.176531034986422 
1560	 0.177046218749988 
1561	 0.177576333057998 
1562	 0.178097527854054 
1563	 0.178627733521933 
1564	 0.179138197152557 
1565	 0.179627126486369 
1566	 0.180135631271563 
1567	 0.180649270624202 
1568	 0.181150775615258 
1569	 0.181647283708861 
1570	 0.182163042930517 
1571	 0.182697135951952 
1572	 0.183190324602239 
1573	 0.183674145386652 
1574	 0.184166151846161 
1575	 0.18461868571327 
1576	 0.185096194721503 
1577	 0.185587597961913 
1578	 0.18611067510081 
1579	 0.186672472022911 
1580	 0.187188792979932 
1581	 0.187727638730219 
1582	 0.188233818182122 
1583	 0.188671107421217 
1584	 0.18914274776163 
1585	 0.189615715401105 
1586	 0.190112917117284 
1587	 0.190623907554559 
1588	 0.191138665255885 
1589	 0.191679934708565 
1590	 0.192214673298186 
1591	 0.192759204320915 
1592	 0.193283112599984 
1593	 0.193768902311719 
1594	 0.194313103058227 
1595	 0.194867738156396 
1596	 0.195436463969431 
1597	 0.19609099317429 
1598	 0.19667445645839 
1599	 0.19722973743214 
1600	 0.197769222279825 
1601	 0.198231627975238 
1602	 0.198766321501779 
1603	 0.199332127304825 
1604	 0.199885538911048 
1605	 0.200463638483285 
1606	 0.201055860967958 
1607	 0.201656646795743 
1608	 0.202241270100535 
1609	 0.202835451657195 
1610	 0.203436364880265 
1611	 0.204034090338501 
1612	 0.204611647444028 
1613	 0.205205579830054 
1614	 0.205774729003132 
1615	 0.206275307915486 
1616	 0.206824739593196 
1617	 0.207411087139139 
1618	 0.207982444655223 
1619	 0.208558145868536 
1620	 0.209135204224558 
1621	 0.209727073123645 
1622	 0.210279100402588 
1623	 0.210804674087895 
1624	 0.211359464230963 
1625	 0.211898723300196 
1626	 0.212437519097008 
1627	 0.213000601564178 
1628	 0.213547082062699 
1629	 0.214095203782986 
1630	 0.214602602983569 
1631	 0.215070906805027 
1632	 0.215576565272926 
1633	 0.216025051466762 
1634	 0.216553625133662 
1635	 0.217205920990708 
1636	 0.217766022035776 
1637	 0.218302087107218 
1638	 0.218850779268068 
1639	 0.219352365351702 
1640	 0.219880097909434 
1641	 0.220462511898389 
1642	 0.221005948311882 
1643	 0.221487418758093 
1644	 0.222015009720698 
1645	 0.222595361066149 
1646	 0.223121169487626 
1647	 0.223649718405107 
1648	 0.224163684604231 
1649	 0.224607843742869 
1650	 0.225087936944574 
1651	 0.225583801516555 
1652	 0.226079464462886 
1653	 0.226590128752731 
1654	 0.227088236148525 
1655	 0.227625678306284 
1656	 0.228094849460191 
1657	 0.2285073072303 
1658	 0.228926014478262 
1659	 0.22930534289526 
1660	 0.229686398332687 
1661	 0.23005986554937 
1662	 0.230452453300897 
1663	 0.230868281702851 
1664	 0.231229478696573 
1665	 0.231591706957904 
1666	 0.231930750273124 
1667	 0.232219219801433 
1668	 0.232482853828401 
1669	 0.232760874142323 
1670	 0.232963025109314 
1671	 0.233064622547771 
1672	 0.233226997749478 
1673	 0.233401386010817 
1674	 0.233511645945228 
1675	 0.233601541614066 
1676	 0.2336985621624 
1677	 0.233755527955784 
1678	 0.233797488546982 
1679	 0.233895165003282 
1680	 0.233900353286633 
1681	 0.233811349693709 
1682	 0.233741697215171 
1683	 0.233670071189456 
1684	 0.233512312112552 
1685	 0.233320270384865 
1686	 0.233077725458813 
1687	 0.232724742259779 
1688	 0.23244431726941 
1689	 0.232177111545993 
1690	 0.231863412024994 
1691	 0.231564396290178 
1692	 0.231207634079784 
1693	 0.23079439889944 
1694	 0.230376010990852 
1695	 0.229934033918859 
1696	 0.229489761797825 
1697	 0.229057865918068 
1698	 0.228521355655704 
1699	 0.227928039532522 
1700	 0.227342787257077 
1701	 0.226642875283904 
1702	 0.226066698502696 
1703	 0.225546375175049 
1704	 0.225038217645046 
1705	 0.224578698655515 
1706	 0.22408605924814 
1707	 0.223660113361568 
1708	 0.223294145038834 
1709	 0.222978262483577 
1710	 0.222805646274292 
1711	 0.222626870940694 
1712	 0.222452480321933 
1713	 0.222312020280052 
1714	 0.222154937820745 
1715	 0.222064457739254 
1716	 0.22197182661958 
1717	 0.221918528470068 
1718	 0.221931385434704 
1719	 0.22193170216538 
1720	 0.222013167789708 
1721	 0.222149766162165 
1722	 0.222309669726405 
1723	 0.22253309543799 
1724	 0.222732017712171 
1725	 0.222968199918006 
1726	 0.223253710056494 
1727	 0.22354867812958 
1728	 0.223994774933584 
1729	 0.224590483664379 
1730	 0.225186324894815 
1731	 0.225837577023064 
1732	 0.226666931440388 
1733	 0.227484773703359 
1734	 0.228356336929336 
1735	 0.229400773952996 
1736	 0.230340994557887 
1737	 0.231133224632035 
1738	 0.231862486105513 
1739	 0.23253734887036 
1740	 0.233138953252168 
1741	 0.233704390774612 
1742	 0.234262943873266 
1743	 0.234705046910889 
1744	 0.235010811417871 
1745	 0.235314208975028 
1746	 0.235545535677094 
1747	 0.235767223840791 
1748	 0.235912242501667 
1749	 0.236188496057198 
1750	 0.236505232197205 
1751	 0.236791697049081 
1752	 0.237172722095096 
1753	 0.237514852739058 
1754	 0.237767405546744 
1755	 0.238108690255297 
1756	 0.238440211919736 
1757	 0.238872573767039 
1758	 0.239496179527967 
1759	 0.240185610683783 
1760	 0.241017688751831 
1761	 0.241817889476416 
1762	 0.242518175007644 
1763	 0.243413120028053 
1764	 0.24431370990702 
1765	 0.245183774247964 
1766	 0.246237449281028 
1767	 0.247234318796824 
1768	 0.248195084747915 
1769	 0.249320865501984 
1770	 0.250396860598663 
1771	 0.251422513572833 
1772	 0.252474694010303 
1773	 0.253393840207803 
1774	 0.254278726590715 
1775	 0.255112054134691 
1776	 0.255882541251174 
1777	 0.256711063072244 
1778	 0.257479554926609 
1779	 0.258258009304985 
1780	 0.259057638061225 
1781	 0.259746865448894 
1782	 0.260429449615363 
1783	 0.261098141963202 
1784	 0.261736020021937 
1785	 0.262424782803078 
1786	 0.263019052371392 
1787	 0.263550837483219 
1788	 0.26403750687479 
1789	 0.264427424220867 
1790	 0.264855908930626 
1791	 0.265289633303253 
1792	 0.265756639364444 
1793	 0.266224555817864 
1794	 0.266650858142576 
1795	 0.267011554772678 
1796	 0.267315636343815 
1797	 0.267742845914957 
1798	 0.268215814859481 
1799	 0.268719213283173 
1800	 0.269079317957489 
1801	 0.266903984064408 
1802	 0.267346125426004 
1803	 0.267764635320296 
1804	 0.268179548740343 
1805	 0.268609406409445 
1806	 0.268981926224404 
1807	 0.269304931814731 
1808	 0.269699885652184 
1809	 0.270081938738504 
1810	 0.270485440622946 
1811	 0.270960338303685 
1812	 0.271385532064311 
1813	 0.271811692025816 
1814	 0.272237894758478 
1815	 0.272486430130639 
1816	 0.272781189534302 
1817	 0.273096402145882 
1818	 0.273319124702557 
1819	 0.273632208021413 
1820	 0.27404062294597 
1821	 0.274435862366972 
1822	 0.274819940009624 
1823	 0.275288900794305 
1824	 0.275697471781854 
1825	 0.276079215632446 
1826	 0.276447523063784 
1827	 0.276722176646705 
1828	 0.277085045852173 
1829	 0.277543061453467 
1830	 0.277893522141774 
1831	 0.278203775525419 
1832	 0.278570404256567 
1833	 0.278780584891319 
1834	 0.27902686758346 
1835	 0.27945744897771 
1836	 0.279777450599032 
1837	 0.280075250015224 
1838	 0.280391694970679 
1839	 0.280677789773222 
1840	 0.28084735281747 
1841	 0.28114009261659 
1842	 0.281483994405659 
1843	 0.281874241472372 
1844	 0.28227698934846 
1845	 0.282592728016955 
1846	 0.282973676767522 
1847	 0.283359772087882 
1848	 0.283754643822857 
1849	 0.284227543474266 
1850	 0.284621092191472 
1851	 0.284978410479861 
1852	 0.28530863988298 
1853	 0.285699606391314 
1854	 0.28602610362803 
1855	 0.286430277469316 
1856	 0.286930802174649 
1857	 0.287404235644589 
1858	 0.287876550675467 
1859	 0.288278147274618 
1860	 0.288629997329974 
1861	 0.288988353623386 
1862	 0.28931199813315 
1863	 0.289608955580472 
1864	 0.289907888005875 
1865	 0.290215741139137 
1866	 0.290460580512916 
1867	 0.290618712928214 
1868	 0.290818735931038 
1869	 0.290986437033187 
1870	 0.291106914292244 
1871	 0.291185596038232 
1872	 0.291265684150779 
1873	 0.291305866029571 
1874	 0.291366125222966 
1875	 0.291383922256532 
1876	 0.291327829025899 
1877	 0.291268816416225 
1878	 0.291064943719298 
1879	 0.29080240878554 
1880	 0.290618134574339 
1881	 0.290306635780025 
1882	 0.289907948431932 
1883	 0.289474842433241 
1884	 0.289029873412853 
1885	 0.288351672971114 
1886	 0.287721906159278 
1887	 0.28701930364474 
1888	 0.286143130707099 
1889	 0.285387163486364 
1890	 0.284494997962906 
1891	 0.283603703953827 
1892	 0.282723810423748 
1893	 0.281766073478781 
1894	 0.280721058076562 
1895	 0.279731192569057 
1896	 0.278628574558584 
1897	 0.277563501911741 
1898	 0.276567944785526 
1899	 0.275460272414131 
1900	 0.274435767566785 
1901	 0.273423497139992 
1902	 0.272341859442291 
1903	 0.271378036282418 
1904	 0.270453611974276 
1905	 0.269562930803633 
1906	 0.26870502596106 
1907	 0.268002998977855 
1908	 0.26729158603709 
1909	 0.266629039223114 
1910	 0.266085594814453 
1911	 0.265511674070006 
1912	 0.265015373978891 
1913	 0.264556581641004 
1914	 0.2640842221831 
1915	 0.263677968182039 
1916	 0.263314898588597 
1917	 0.262984284364695 
1918	 0.26270052972999 
1919	 0.262473276057346 
1920	 0.26228440830608 
1921	 0.26211180965616 
1922	 0.26193750703011 
1923	 0.26176936694603 
1924	 0.261631842142911 
1925	 0.261492644715249 
1926	 0.26143761730637 
1927	 0.261511307255594 
1928	 0.261531017446441 
1929	 0.261561892143389 
1930	 0.261608624126661 
1931	 0.26166664251382 
1932	 0.261673602610894 
1933	 0.261744282323463 
1934	 0.261892251042785 
1935	 0.262027283292573 
1936	 0.262212686353405 
1937	 0.262447553027297 
1938	 0.262754423088679 
1939	 0.263052725194766 
1940	 0.263409307137748 
1941	 0.263700206307875 
1942	 0.26400584771205 
1943	 0.264312218639521 
1944	 0.264598308296472 
1945	 0.264949702362583 
1946	 0.265366552218907 
1947	 0.265709606410111 
1948	 0.266054103563487 
1949	 0.266533812202686 
1950	 0.266987461515488 
1951	 0.267461275997933 
1952	 0.26792974140148 
1953	 0.268445994825521 
1954	 0.26886823358354 
1955	 0.269292036166242 
1956	 0.26978944289794 
1957	 0.270328955969684 
1958	 0.270846195396965 
1959	 0.271349992330015 
1960	 0.271830470082851 
1961	 0.272290791516862 
1962	 0.272706994207307 
1963	 0.273146441354219 
1964	 0.273590140634192 
1965	 0.273997903602062 
1966	 0.274363649921967 
1967	 0.274778481448541 
1968	 0.275202297171775 
1969	 0.275617419834407 
1970	 0.276027054923067 
1971	 0.276443589279604 
1972	 0.276858964800825 
1973	 0.277234150890961 
1974	 0.277617003292322 
1975	 0.278032391097085 
1976	 0.278411446399791 
1977	 0.278762304944409 
1978	 0.279103847936791 
1979	 0.279444310303405 
1980	 0.279746196164086 
1981	 0.280043528962036 
1982	 0.280381433046018 
1983	 0.280758619556247 
1984	 0.281100640055643 
1985	 0.281475650077174 
1986	 0.281792649586409 
1987	 0.282075128465403 
1988	 0.282338791706126 
1989	 0.28258458373302 
1990	 0.282735909943674 
1991	 0.282967812722139 
1992	 0.283261462228972 
1993	 0.283480410061789 
1994	 0.283676521374804 
1995	 0.283925432743292 
1996	 0.284131506305227 
1997	 0.284349175999683 
1998	 0.284597388979779 
1999	 0.28491441825464 
2000	 0.285152916076974 
2001	 0.285402847533989 
2002	 0.285577562227694 
2003	 0.285691894452814 
2004	 0.285793236846059 
2005	 0.285828347026179 
2006	 0.285884182281176 
2007	 0.285935295134063 
2008	 0.285979562802247 
2009	 0.286035641903292 
2010	 0.286004515010085 
2011	 0.28601112057328 
2012	 0.286037513176396 
2013	 0.285978629759657 
2014	 0.285906858838499 
2015	 0.285789940606216 
2016	 0.285557710665997 
2017	 0.285369292099587 
2018	 0.285202935955458 
2019	 0.284981408803152 
2020	 0.284736069742326 
2021	 0.284470919339741 
2022	 0.284174488103117 
2023	 0.283901488215516 
2024	 0.283599551834772 
2025	 0.283363990616592 
2026	 0.283103610185604 
2027	 0.282826954072893 
2028	 0.282547795727129 
2029	 0.282247224017308 
2030	 0.282009653566543 
2031	 0.281795246683759 
2032	 0.281607454865808 
2033	 0.281488226210702 
2034	 0.281343486692814 
2035	 0.281171303148798 
2036	 0.281034038209616 
2037	 0.280952696382853 
2038	 0.280920744643929 
2039	 0.28085509767773 
2040	 0.280829893910963 
2041	 0.280755569986166 
2042	 0.280602051473948 
2043	 0.280547703878761 
2044	 0.28056666402187 
2045	 0.280520132242768 
2046	 0.280523093386353 
2047	 0.280450995774845 
2048	 0.280295353969079 
2049	 0.280150546969112 
2050	 0.279966010538221 
2051	 0.279782964230291 
2052	 0.279664299716966 
2053	 0.279587804977089 
2054	 0.279517267404934 
2055	 0.279539233455409 
2056	 0.27945793101326 
2057	 0.279314496453369 
2058	 0.279216417455008 
2059	 0.279107300019516 
2060	 0.279014073359296 
2061	 0.278938250273012 
2062	 0.278869811083866 
2063	 0.278856826824645 
2064	 0.278760115375265 
2065	 0.278617315463725 
2066	 0.278474815369325 
2067	 0.278370746083249 
2068	 0.278214375312704 
2069	 0.278107104251586 
2070	 0.278098302347565 
2071	 0.277994929881709 
2072	 0.277839463697505 
2073	 0.277692278812307 
2074	 0.277492698941536 
2075	 0.277371571523763 
2076	 0.277290357033054 
2077	 0.277181285459914 
2078	 0.27710625804674 
2079	 0.27703058500317 
2080	 0.276940234273587 
2081	 0.276837278350346 
2082	 0.276748693804228 
2083	 0.276651804919251 
2084	 0.276565630547778 
2085	 0.276424305284919 
2086	 0.276290768274684 
2087	 0.276169646340522 
2088	 0.276029706699425 
2089	 0.275873770725014 
2090	 0.275688283064406 
2091	 0.275453897550053 
2092	 0.275290730518991 
2093	 0.275118060187967 
2094	 0.274974743052928 
2095	 0.274945485269817 
2096	 0.274826776003778 
2097	 0.27469288914276 
2098	 0.274474405665879 
2099	 0.274260374809229 
2100	 0.274091103823919 
2101	 0.273921873557404 
2102	 0.273812531631346 
2103	 0.273581817915065 
2104	 0.273265359200142 
2105	 0.273044695635952 
2106	 0.272768344534779 
2107	 0.272574925901698 
2108	 0.27252702642154 
2109	 0.272384190445384 
2110	 0.272223876458183 
2111	 0.272034781600959 
2112	 0.27181868795546 
2113	 0.271582235048462 
2114	 0.271236119729829 
2115	 0.271012141219622 
2116	 0.2708524376642 
2117	 0.270713111381192 
2118	 0.270522433642992 
2119	 0.270379524982856 
2120	 0.270211519430116 
2121	 0.269967515518498 
2122	 0.269773333226007 
2123	 0.269652128561911 
2124	 0.269460998875492 
2125	 0.269169143141725 
2126	 0.269010557454553 
2127	 0.268919175380331 
2128	 0.268808788005937 
2129	 0.26874899448048 
2130	 0.268686133056849 
2131	 0.268644809789221 
2132	 0.26855407971313 
2133	 0.268464795403268 
2134	 0.268361271060286 
2135	 0.268237856011138 
2136	 0.268077155576403 
2137	 0.267968241091437 
2138	 0.267905309417371 
2139	 0.267821732215726 
2140	 0.267749526022078 
2141	 0.26765570021962 
2142	 0.2675554185993 
2143	 0.267455177086013 
2144	 0.267313113638816 
2145	 0.267231773610415 
2146	 0.267187041251357 
2147	 0.267134530171572 
2148	 0.26709453246666 
2149	 0.267076661386746 
2150	 0.267102537507378 
2151	 0.267079521435325 
2152	 0.267078312614528 
2153	 0.267035202658499 
2154	 0.266906256562126 
2155	 0.266828754825748 
2156	 0.266733289639368 
2157	 0.266629373424781 
2158	 0.266546347957524 
2159	 0.266519699790759 
2160	 0.266350506812537 
2161	 0.266115930464939 
2162	 0.26591440079033 
2163	 0.265594707966391 
2164	 0.26537957366414 
2165	 0.265295182222746 
2166	 0.265101285737978 
2167	 0.264916199360403 
2168	 0.264645294012799 
2169	 0.264240248468244 
2170	 0.263913072194888 
2171	 0.263587473283239 
2172	 0.263229110859427 
2173	 0.262839336496512 
2174	 0.262527694593626 
2175	 0.262215766401381 
2176	 0.261971937746141 
2177	 0.261734842611033 
2178	 0.261641579219595 
2179	 0.261356584899604 
2180	 0.260970529720779 
2181	 0.260623425332377 
2182	 0.260217846311657 
2183	 0.259851619107959 
2184	 0.259543803239207 
2185	 0.259144405013144 
2186	 0.258760103499263 
2187	 0.258248136029266 
2188	 0.257625601699069 
2189	 0.256990189706179 
2190	 0.256238327483255 
2191	 0.255509494926826 
2192	 0.254812920844024 
2193	 0.25403273434979 
2194	 0.253226399147696 
2195	 0.252359134403327 
2196	 0.251443206871252 
2197	 0.250427438724469 
2198	 0.24939625081559 
2199	 0.248264175896856 
2200	 0.247019889245098 
2201	 0.24568671318416 
2202	 0.244245573816613 
2203	 0.242667616668072 
2204	 0.241069748794872 
2205	 0.239340731589964 
2206	 0.237672863828226 
2207	 0.23595538731449 
2208	 0.234285957951205 
2209	 0.232653848191946 
2210	 0.231009696928603 
2211	 0.229317870135099 
2212	 0.227741481696161 
2213	 0.226106115757707 
2214	 0.224715650127045 
2215	 0.223449008137932 
2216	 0.222371804391121 
2217	 0.221500722962801 
2218	 0.220759544149456 
2219	 0.220226720606542 
2220	 0.219754963956583 
2221	 0.219455328778875 
2222	 0.219173834028494 
2223	 0.218974527450092 
2224	 0.218791744735885 
2225	 0.218563281925913 
2226	 0.21825188511413 
2227	 0.217840673331641 
2228	 0.217340843147853 
2229	 0.216770128500716 
2230	 0.216133645990271 
2231	 0.215366082398158 
2232	 0.214458192895288 
2233	 0.213539907060148 
2234	 0.212582677425864 
2235	 0.211437428642829 
2236	 0.210216538561151 
2237	 0.208883511330677 
2238	 0.207309228607415 
2239	 0.205766163702189 
2240	 0.204220713993175 
2241	 0.202569890405466 
2242	 0.200853714392554 
2243	 0.19902266632979 
2244	 0.197087144205795 
2245	 0.19507281321675 
2246	 0.19290173738443 
2247	 0.19073022344025 
2248	 0.188498383004875 
2249	 0.186218312401459 
2250	 0.183945049281298 
2251	 0.181590815151912 
2252	 0.17891277353498 
2253	 0.176326842827192 
2254	 0.17346811225089 
2255	 0.170383733947973 
2256	 0.167677758799508 
2257	 0.164898021813351 
2258	 0.162281664519505 
2259	 0.159897633655711 
2260	 0.157408715162771 
2261	 0.154814232493445 
2262	 0.152555860287198 
2263	 0.150305285744456 
2264	 0.148447841633105 
2265	 0.147034263972609 
2266	 0.145501599454592 
2267	 0.144075577335658 
2268	 0.142890650057865 
2269	 0.141761632038696 
2270	 0.140890305212029 
2271	 0.140370838511669 
2272	 0.139860136826165 
2273	 0.139545713625986 
2274	 0.13918398214278 
2275	 0.138906470024754 
2276	 0.138653698214978 
2277	 0.138451724680169 
2278	 0.138210709239927 
2279	 0.138062536214682 
2280	 0.13779694493807 
2281	 0.137283639408081 
2282	 0.136973388519374 
2283	 0.136776509826916 
2284	 0.136546560475911 
2285	 0.136352663413053 
2286	 0.136124869215137 
2287	 0.135488509951555 
2288	 0.134836371481165 
2289	 0.134211829087334 
2290	 0.133464840495509 
2291	 0.13288611680344 
2292	 0.132423227458995 
2293	 0.131876610325398 
2294	 0.131386393298246 
2295	 0.130998605656259 
2296	 0.130543167260562 
2297	 0.130169633606338 
2298	 0.129887158553563 
2299	 0.129663637172061 
2300	 0.129324007085277 
2301	 0.129427814053545 
2302	 0.129818968285958 
2303	 0.130173430662724 
2304	 0.130754571403457 
2305	 0.131405209954928 
2306	 0.13200674109753 
2307	 0.132975221683525 
2308	 0.134287032229065 
2309	 0.135562922259687 
2310	 0.136999043055998 
2311	 0.138439968254664 
2312	 0.139999366025655 
2313	 0.141525624674657 
2314	 0.143171447268813 
2315	 0.144655946453799 
2316	 0.146116301700503 
2317	 0.1473903308594 
2318	 0.14857678381704 
2319	 0.149572258894314 
2320	 0.150336816832757 
2321	 0.151015738511747 
2322	 0.151552413281505 
2323	 0.15197475819897 
2324	 0.152326693988677 
2325	 0.152527173350616 
2326	 0.152560276024146 
2327	 0.152463358694866 
2328	 0.152251706741032 
2329	 0.151784294149128 
2330	 0.151097037710479 
2331	 0.150280250789301 
2332	 0.149250453765237 
2333	 0.148325057503851 
2334	 0.147234044143444 
2335	 0.146027409347465 
2336	 0.144570281327989 
2337	 0.142801285086018 
2338	 0.141232693853467 
2339	 0.139487992024228 
2340	 0.137716654747253 
2341	 0.136269938640051 
2342	 0.134700875295384 
2343	 0.133246836838845 
2344	 0.132015644309097 
2345	 0.130812955700406 
2346	 0.129756988751372 
2347	 0.128848703887517 
2348	 0.128190717753831 
2349	 0.127595844106791 
2350	 0.127058660299718 
2351	 0.126855970316542 
2352	 0.126782417604877 
2353	 0.126943214184921 
2354	 0.12736121680864 
2355	 0.12789523512197 
2356	 0.128280007100425 
2357	 0.128615169693552 
2358	 0.129211790604663 
2359	 0.129700646088654 
2360	 0.130356106208831 
2361	 0.13107974573849 
2362	 0.131266981053313 
2363	 0.13147372290447 
2364	 0.131826314455019 
2365	 0.132106860315688 
2366	 0.132582350022136 
2367	 0.133134173871387 
2368	 0.133304183765874 
2369	 0.133225905609962 
2370	 0.133230451016899 
2371	 0.133147919241154 
2372	 0.133235164394587 
2373	 0.133474792326568 
2374	 0.133651395412287 
2375	 0.133947605985029 
2376	 0.134180516265052 
2377	 0.134189443044125 
2378	 0.134397267473244 
2379	 0.134763572154603 
2380	 0.135122676192206 
2381	 0.135494355758187 
2382	 0.135473616861145 
2383	 0.135099087471984 
2384	 0.134864244102015 
2385	 0.134306827454785 
2386	 0.13406095289037 
2387	 0.13398269623769 
2388	 0.134035417200079 
2389	 0.134231757670248 
2390	 0.134330202060007 
2391	 0.134649909358722 
2392	 0.134651275935404 
2393	 0.134323612350034 
2394	 0.134335260132329 
2395	 0.134582139957286 
2396	 0.134342978253631 
2397	 0.133928348838415 
2398	 0.133553368240026 
2399	 0.13275111966502 
2400	 0.132613052711166 
2401	 0.132860976068302 
2402	 0.133762438134454 
2403	 0.134056851524689 
2404	 0.13393625659494 
2405	 0.134096744874017 
2406	 0.133728810236319 
2407	 0.133371618473913 
2408	 0.133937320775784 
2409	 0.134402928237677 
2410	 0.134943633430464 
2411	 0.135764086397387 
2412	 0.136187495285005 
2413	 0.13678379306171 
2414	 0.137177953313826 
2415	 0.137303422265855 
2416	 0.137305814934212 
2417	 0.136550243773891 
2418	 0.13626914170621 
2419	 0.136570100500817 
2420	 0.136801984010461 
2421	 0.137653760423426 
2422	 0.138352455737813 
2423	 0.138179247732492 
2424	 0.137880218098508 
2425	 0.137722047330843 
2426	 0.13747350678049 
2427	 0.13767991880012 
2428	 0.138205891555713 
2429	 0.13862751982333 
2430	 0.139168221147794 
2431	 0.139257247984545 
2432	 0.139388242152956 
2433	 0.139795241980417 
2434	 0.140006768197439 
2435	 0.140729623140439 
2436	 0.141233601637885 
2437	 0.1412325150909 
2438	 0.141370174530016 
2439	 0.141032233849976 
2440	 0.141074792936975 
2441	 0.141892747448857 
2442	 0.142384623696578 
2443	 0.142846585397412 
2444	 0.143284449947615 
2445	 0.143304241194097 
2446	 0.143084534989656 
2447	 0.1431965289228 
2448	 0.14363413958536 
2449	 0.143710333039636 
2450	 0.144000780911555 
2451	 0.144272003863137 
2452	 0.144259659090106 
2453	 0.144671194803241 
2454	 0.144884078454593 
2455	 0.145193311033322 
2456	 0.145734749357268 
2457	 0.145739329674992 
2458	 0.145917162051074 
2459	 0.146629007339278 
2460	 0.147120482803561 
2461	 0.147165242042432 
2462	 0.147232702244895 
2463	 0.14718152368612 
2464	 0.146955866765749 
2465	 0.14704889715036 
2466	 0.147426433897226 
2467	 0.147337491483709 
2468	 0.147073958622943 
2469	 0.146637351870888 
2470	 0.145955938786912 
2471	 0.145911028348367 
2472	 0.145644961123655 
2473	 0.146313024897969 
2474	 0.147634925017398 
2475	 0.148097957658926 
2476	 0.148841285740036 
2477	 0.149142928163205 
2478	 0.149403982481932 
2479	 0.150224992177662 
2480	 0.152144135778807 
2481	 0.152837579569875 
2482	 0.152613079488202 
2483	 0.152937880407837 
2484	 0.152417839952286 
2485	 0.152381906480385 
2486	 0.15303436240517 
2487	 0.152639241576093 
2488	 0.151597132432286 
2489	 0.150993691140562 
2490	 0.150700259525526 
2491	 0.151014872344408 
2492	 0.152117531107326 
2493	 0.153406881075294 
2494	 0.155005180687456 
2495	 0.155966889951555 
2496	 0.156391349885177 
2497	 0.156422316396813 
2498	 0.155072543993033 
2499	 0.154883418419857 
2500	 0.156034603557346 
