Wavelength	Tablay400087.asd
350	 0.158920428911022 
351	 0.16656030883349 
352	 0.157570167474225 
353	 0.120090742479826 
354	 0.239867874348873 
355	 0.185289337294049 
356	 0.11341597545382 
357	 0.177600140546927 
358	 0.213921940113848 
359	 0.201328334160396 
360	 0.201589685262653 
361	 0.28320646530836 
362	 0.18135052125958 
363	 0.100688799517915 
364	 0.126296636250306 
365	 0.129326201199683 
366	 0.109524695454217 
367	 0.108243234859886 
368	 0.146912981950175 
369	 0.181999846232602 
370	 0.154372564995028 
371	 0.114522679253176 
372	 0.153951085314598 
373	 0.156976003540117 
374	 0.126438400052871 
375	 9.03000100223882E-02 
376	 8.22588076562635E-02 
377	 9.23015991142508E-02 
378	 0.124669902021221 
379	 0.159196268974209 
380	 0.115517078741993 
381	 8.69613705383233E-02 
382	 0.098910598999086 
383	 0.124317217130283 
384	 0.140740306133926 
385	 0.124625648078156 
386	 0.08926906014235 
387	 9.21870522358289E-02 
388	 9.55857075682358E-02 
389	 9.61043197844416E-02 
390	 9.45587799717138E-02 
391	 7.00409958960876E-02 
392	 7.87726422845361E-02 
393	 9.74691768354652E-02 
394	 5.98642234505628E-02 
395	 4.67605967425055E-02 
396	 6.07433441847037E-02 
397	 8.07709478203605E-02 
398	 6.43125797832398E-02 
399	 0.074398373536832 
400	 9.61144468149635E-02 
401	 0.100940828166628 
402	 9.33495912257684E-02 
403	 7.94907929193858E-02 
404	 7.23663937856096E-02 
405	 8.65802116170597E-02 
406	 9.44228008038405E-02 
407	 8.89720936276784E-02 
408	 7.47204140675997E-02 
409	 7.27730002214344E-02 
410	 7.20157472912063E-02 
411	 7.29729032479121E-02 
412	 7.78343743021622E-02 
413	 8.13465612391576E-02 
414	 7.68504709780617E-02 
415	 6.92802574993698E-02 
416	 7.23065537002775E-02 
417	 7.73004700676372E-02 
418	 7.90626199506966E-02 
419	 7.56764838869823E-02 
420	 7.06975912814612E-02 
421	 0.063193293924878 
422	 6.19368596917757E-02 
423	 7.44555153408999E-02 
424	 7.53645381063249E-02 
425	 7.77790659120455E-02 
426	 0.083587757006857 
427	 7.98066039730678E-02 
428	 7.82526307103368E-02 
429	 7.78804433390749E-02 
430	 7.66114208658554E-02 
431	 0.07763171343849 
432	 8.05583909708527E-02 
433	 8.29365273043995E-02 
434	 8.19119794036861E-02 
435	 8.11048741740869E-02 
436	 8.25957779499152E-02 
437	 0.084622251380009 
438	 7.99842598903536E-02 
439	 7.72380891059017E-02 
440	 7.93489596245769E-02 
441	 8.50905526611456E-02 
442	 8.44877023522639E-02 
443	 8.33109747493141E-02 
444	 8.31710075973023E-02 
445	 8.22830572012671E-02 
446	 8.30382134416001E-02 
447	 8.51055696091461E-02 
448	 8.76580304292641E-02 
449	 9.02214363091251E-02 
450	 0.089181074163377 
451	 0.087700680632884 
452	 9.01384662776947E-02 
453	 9.16967406449529E-02 
454	 9.08966406724105E-02 
455	 8.94711217596207E-02 
456	 9.20743482551394E-02 
457	 9.34666844837279E-02 
458	 9.26465486940367E-02 
459	 9.09119633688622E-02 
460	 0.093363260927553 
461	 9.53164319582197E-02 
462	 9.57701472981434E-02 
463	 9.57445168141664E-02 
464	 9.47274856107371E-02 
465	 9.43090319970346E-02 
466	 9.47935805769677E-02 
467	 9.43379967304804E-02 
468	 9.38235240826148E-02 
469	 9.33360495212638E-02 
470	 0.093032775869534 
471	 9.43701256872282E-02 
472	 9.43274548492903E-02 
473	 9.30788293760448E-02 
474	 0.093138274010107 
475	 9.23267653541651E-02 
476	 9.17042905594527E-02 
477	 9.20451870352493E-02 
478	 9.29137469633822E-02 
479	 9.04933106218323E-02 
480	 8.74732324300814E-02 
481	 8.79328244297714E-02 
482	 0.08766427539764 
483	 8.69317829860367E-02 
484	 8.61678931800699E-02 
485	 8.56415344093974E-02 
486	 8.54484268757841E-02 
487	 0.084172454550689 
488	 8.14228162609456E-02 
489	 8.06972575195038E-02 
490	 8.02941164078907E-02 
491	 7.97426084171445E-02 
492	 0.079247827674013 
493	 7.82787702133013E-02 
494	 7.81317741399125E-02 
495	 7.85219674453725E-02 
496	 7.62163191385087E-02 
497	 7.53385137266771E-02 
498	 7.53087888191211E-02 
499	 7.46242145725847E-02 
500	 0.07471026027713 
501	 7.34132319645052E-02 
502	 0.071587554755897 
503	 7.23964796341253E-02 
504	 7.11598559958262E-02 
505	 6.99329690216179E-02 
506	 7.01730809895397E-02 
507	 0.069129099264755 
508	 6.80713086042268E-02 
509	 6.73388758196702E-02 
510	 6.69012902455536E-02 
511	 6.71132710755528E-02 
512	 6.60512112688452E-02 
513	 6.38223451960166E-02 
514	 6.32304986745371E-02 
515	 6.31364516259292E-02 
516	 6.27214633822809E-02 
517	 6.16527946143745E-02 
518	 6.10228737093971E-02 
519	 6.05588882904286E-02 
520	 5.97387593656274E-02 
521	 5.80859684564103E-02 
522	 5.75172518817991E-02 
523	 5.74715322843923E-02 
524	 5.72341271225092E-02 
525	 5.64932595109461E-02 
526	 5.55737927814647E-02 
527	 5.48134362998093E-02 
528	 5.44613670992893E-02 
529	 5.43317753283473E-02 
530	 5.38514844902976E-02 
531	 5.30049210162373E-02 
532	 0.052368856009967 
533	 5.23047560757471E-02 
534	 5.22240377207448E-02 
535	 5.17184262571496E-02 
536	 5.14854875781024E-02 
537	 5.14861221200296E-02 
538	 0.051440636139497 
539	 5.10263246911317E-02 
540	 5.08379217759482E-02 
541	 5.07538816750871E-02 
542	 5.06437150275579E-02 
543	 5.04814932427938E-02 
544	 5.05931403731085E-02 
545	 5.08901319654409E-02 
546	 0.051140032793695 
547	 5.10922776336679E-02 
548	 5.12160588263758E-02 
549	 5.15726357918977E-02 
550	 5.18466846124799E-02 
551	 5.20175358439389E-02 
552	 5.23414117117849E-02 
553	 5.29215148268778E-02 
554	 5.33979341341184E-02 
555	 5.34807814794743E-02 
556	 0.053632167836287 
557	 5.44536279238744E-02 
558	 5.46331801439393E-02 
559	 5.46190160197699E-02 
560	 5.48018626458815E-02 
561	 5.52652492089534E-02 
562	 5.52216843262746E-02 
563	 5.50988296112036E-02 
564	 5.53134358236164E-02 
565	 5.48835880482303E-02 
566	 5.43985072207707E-02 
567	 0.054105926478185 
568	 5.39460435790757E-02 
569	 5.36275869128784E-02 
570	 5.31991813191598E-02 
571	 5.27052801772367E-02 
572	 5.20376957360689E-02 
573	 5.14168588270787E-02 
574	 5.09376442909511E-02 
575	 5.05523035283468E-02 
576	 4.97249352045055E-02 
577	 4.90248531858402E-02 
578	 4.85815105918087E-02 
579	 4.79578427802091E-02 
580	 4.74607976896801E-02 
581	 4.69460513983435E-02 
582	 4.63306560307904E-02 
583	 4.60449764672881E-02 
584	 4.56887950238127E-02 
585	 4.52268020857129E-02 
586	 4.48361382067666E-02 
587	 4.45038115275101E-02 
588	 4.41366269787163E-02 
589	 4.37466925705453E-02 
590	 4.35283439865765E-02 
591	 4.34984385582718E-02 
592	 4.34858355512874E-02 
593	 4.33400695541326E-02 
594	 4.32712550484179E-02 
595	 4.33097594627955E-02 
596	 4.33816817569235E-02 
597	 4.33451491716951E-02 
598	 4.34108071225079E-02 
599	 4.34466306341076E-02 
600	 4.33952166885474E-02 
601	 4.35513228141459E-02 
602	 4.34519947316703E-02 
603	 4.33343365946202E-02 
604	 4.36231186717141E-02 
605	 4.38146755388742E-02 
606	 4.36801240315955E-02 
607	 4.34674627674511E-02 
608	 4.39617107587424E-02 
609	 4.38503808784663E-02 
610	 4.35426629577027E-02 
611	 4.36011903621464E-02 
612	 4.35822325689077E-02 
613	 4.36362354430294E-02 
614	 4.37899794426451E-02 
615	 4.39615537541343E-02 
616	 4.38319845368082E-02 
617	 4.36897062416671E-02 
618	 0.043659533621132 
619	 4.34081083391026E-02 
620	 4.34615754604005E-02 
621	 4.36714168486253E-02 
622	 4.37180840371132E-02 
623	 4.36463883544181E-02 
624	 4.35817699720971E-02 
625	 4.35596724116427E-02 
626	 4.35253376555312E-02 
627	 4.34695650878839E-02 
628	 4.32857348151065E-02 
629	 4.30243029269681E-02 
630	 4.31816245691196E-02 
631	 4.32936283590325E-02 
632	 0.043153295518916 
633	 4.27616365052174E-02 
634	 4.26265010658549E-02 
635	 4.27161882323562E-02 
636	 4.28078181369324E-02 
637	 4.25199139476403E-02 
638	 0.042250948204532 
639	 4.22089864719691E-02 
640	 4.23911307471557E-02 
641	 4.22980812855331E-02 
642	 4.22551389577522E-02 
643	 4.23037662821786E-02 
644	 4.23105570050148E-02 
645	 4.22541661243047E-02 
646	 4.23429379626334E-02 
647	 4.25277401703783E-02 
648	 0.042282525637034 
649	 4.23007540916584E-02 
650	 0.042464043450503 
651	 4.25052628543104E-02 
652	 4.26641166812989E-02 
653	 0.042811528268536 
654	 4.29594129639279E-02 
655	 4.32268801150009E-02 
656	 4.34875152815969E-02 
657	 4.36939781281737E-02 
658	 4.38703407920552E-02 
659	 4.41639230372238E-02 
660	 4.44212099596642E-02 
661	 4.47583741551499E-02 
662	 4.53282109279859E-02 
663	 0.045933791406937 
664	 4.64987424199518E-02 
665	 4.70637083079841E-02 
666	 4.77700304979346E-02 
667	 4.84365374672084E-02 
668	 4.92161869594091E-02 
669	 0.050231226650391 
670	 5.13880533051124E-02 
671	 5.24691920734431E-02 
672	 5.35766974181504E-02 
673	 5.49437335955097E-02 
674	 5.65009979246861E-02 
675	 5.83244265126375E-02 
676	 6.03206555315622E-02 
677	 6.22009477778122E-02 
678	 0.064395159844872 
679	 0.066822119065861 
680	 0.069380357991237 
681	 7.22649053316838E-02 
682	 7.55771913550802E-02 
683	 7.91327481523662E-02 
684	 8.26496569925529E-02 
685	 8.64090483409851E-02 
686	 9.04567644023716E-02 
687	 9.47988959141057E-02 
688	 9.94375412389153E-02 
689	 0.104283837412058 
690	 0.109319021125401 
691	 0.114550035977513 
692	 0.119965579624155 
693	 0.125418988567688 
694	 0.130971934259817 
695	 0.136782977916855 
696	 0.142622183053816 
697	 0.148553976792716 
698	 0.154489530169235 
699	 0.160063210531154 
700	 0.165957189761847 
701	 0.171907793840781 
702	 0.177566091738455 
703	 0.183324759217576 
704	 0.188821844451523 
705	 0.194067117061146 
706	 0.19933010092235 
707	 0.204562745317527 
708	 0.209617598162978 
709	 0.214398456965003 
710	 0.218907545382822 
711	 0.223247578083242 
712	 0.227494413724983 
713	 0.231632574980837 
714	 0.235318791236304 
715	 0.238934317661969 
716	 0.242525626464333 
717	 0.245880716301483 
718	 0.24893108970328 
719	 0.25184868071195 
720	 0.254701226884039 
721	 0.257319148525946 
722	 0.259791223248058 
723	 0.262153237204338 
724	 0.264404109696353 
725	 0.266473517182524 
726	 0.268327821791562 
727	 0.270052554845518 
728	 0.271794459382422 
729	 0.273435336962967 
730	 0.274842556556093 
731	 0.276062599521852 
732	 0.277429435892594 
733	 0.278708987280018 
734	 0.279786483006882 
735	 0.280660284579782 
736	 0.281587280720176 
737	 0.282505848663482 
738	 0.283410046106716 
739	 0.284314741622551 
740	 0.285076654761928 
741	 0.285834148251882 
742	 0.286611063811002 
743	 0.287212285858707 
744	 0.287807939557807 
745	 0.288425653240135 
746	 0.289028009786391 
747	 0.289482605697243 
748	 0.290046366705368 
749	 0.290619480054803 
750	 0.290953910100639 
751	 0.291405782095213 
752	 0.291788475218087 
753	 0.292051035659452 
754	 0.292382871382949 
755	 0.292877959452446 
756	 0.293265848583793 
757	 0.293401965598775 
758	 0.293745499632052 
759	 0.294075921054918 
760	 0.294422504507627 
761	 0.294875442669404 
762	 0.295168647719618 
763	 0.295433161742316 
764	 0.295688164464645 
765	 0.295817519240824 
766	 0.296090240599976 
767	 0.29650577670043 
768	 0.296944943890639 
769	 0.297146501125975 
770	 0.297337868511263 
771	 0.297582097336012 
772	 0.2978871294461 
773	 0.298316156469151 
774	 0.298628738789284 
775	 0.298811239129267 
776	 0.299048787636262 
777	 0.299441529012728 
778	 0.299752434741031 
779	 0.299902938601764 
780	 0.300158427897842 
781	 0.300516135639414 
782	 0.30087111327942 
783	 0.301127461439551 
784	 0.301346469253017 
785	 0.30158177209263 
786	 0.301844653941981 
787	 0.302118695596173 
788	 0.302397334185555 
789	 0.302737146691119 
790	 0.303083864222295 
791	 0.303260050330234 
792	 0.303381319064124 
793	 0.303630325735607 
794	 0.304043642985671 
795	 0.304289488382238 
796	 0.304477605016638 
797	 0.304658073235992 
798	 0.304883845748718 
799	 0.305307316246375 
800	 0.3055400326955 
801	 0.305601210007226 
802	 0.305824577207062 
803	 0.306152631156255 
804	 0.30640895469787 
805	 0.306586364955125 
806	 0.306952322951248 
807	 0.306998915225752 
808	 0.307041156343443 
809	 0.307393408983795 
810	 0.307766247173292 
811	 0.307920725937553 
812	 0.307965322403817 
813	 0.308133475723587 
814	 0.308298579487606 
815	 0.308504132398646 
816	 0.308727441680191 
817	 0.308891441735149 
818	 0.309066761715059 
819	 0.309333094251758 
820	 0.309600765876663 
821	 0.309510793018935 
822	 0.309620812789235 
823	 0.309863928308613 
824	 0.310046975188071 
825	 0.310142508129466 
826	 0.310328024965505 
827	 0.310479454908033 
828	 0.31043615692839 
829	 0.310684885346315 
830	 0.310889282767923 
831	 0.310930758041592 
832	 0.310938823560473 
833	 0.311044174433648 
834	 0.311226995400525 
835	 0.311426642598728 
836	 0.311567557707702 
837	 0.311658697302369 
838	 0.311655654839823 
839	 0.311586261059612 
840	 0.311706337567723 
841	 0.311801626541048 
842	 0.311829252599526 
843	 0.311837614396841 
844	 0.311938263325941 
845	 0.312093319380545 
846	 0.312174690794706 
847	 0.312049614646368 
848	 0.312057853358989 
849	 0.312086382149094 
850	 0.312099842501325 
851	 0.312215189091797 
852	 0.312190944132907 
853	 0.312094389239981 
854	 0.312052374721965 
855	 0.312184996096251 
856	 0.312125515330849 
857	 0.312022394449025 
858	 0.312077153542328 
859	 0.312042091854258 
860	 0.312023016104374 
861	 0.312068895831408 
862	 0.31214868666418 
863	 0.311951574647619 
864	 0.311954271835492 
865	 0.312125300612131 
866	 0.312004398845604 
867	 0.311912391896963 
868	 0.311802068982029 
869	 0.311692771000455 
870	 0.311746806152453 
871	 0.311880729365876 
872	 0.311912767665202 
873	 0.311764900749936 
874	 0.311618835745972 
875	 0.311522234749791 
876	 0.311503783975895 
877	 0.311527136477238 
878	 0.311384728763637 
879	 0.311351207124998 
880	 0.31131315496395 
881	 0.311082904920411 
882	 0.311169674702834 
883	 0.31122581746956 
884	 0.311177244820667 
885	 0.311174779732245 
886	 0.311059603617712 
887	 0.31097189692624 
888	 0.310938785606599 
889	 0.310831186714762 
890	 0.310747338428725 
891	 0.310724770924008 
892	 0.310742139922069 
893	 0.310704810342138 
894	 0.310460486674933 
895	 0.310313025650557 
896	 0.310423881186954 
897	 0.310279249363419 
898	 0.310283453644798 
899	 0.310283016000347 
900	 0.310073490552734 
901	 0.309985982651703 
902	 0.309914271833235 
903	 0.309852270118075 
904	 0.309813991066307 
905	 0.309629680707046 
906	 0.30959779239403 
907	 0.309621974525966 
908	 0.309399064459081 
909	 0.30948195053968 
910	 0.309380768079279 
911	 0.309125448511525 
912	 0.309281501711996 
913	 0.309223416316606 
914	 0.309067072903056 
915	 0.30896684617413 
916	 0.308961477731172 
917	 0.308857615448556 
918	 0.308796548133058 
919	 0.308783613983258 
920	 0.308454664599809 
921	 0.308441046767264 
922	 0.308482834576311 
923	 0.308343692542962 
924	 0.308472369063141 
925	 0.308460072666797 
926	 0.308374390766867 
927	 0.308379256003121 
928	 0.308409856460178 
929	 0.308444804056202 
930	 0.308497715110988 
931	 0.308537957955885 
932	 0.30824635614752 
933	 0.308312300973457 
934	 0.308462545045638 
935	 0.308104263024912 
936	 0.308031790126226 
937	 0.308013900626106 
938	 0.308128213103713 
939	 0.308562872694772 
940	 0.308572053334952 
941	 0.308534631717366 
942	 0.308484811083467 
943	 0.30816935553203 
944	 0.308275043260741 
945	 0.308255175535772 
946	 0.308020970242529 
947	 0.308075148526662 
948	 0.308285781394452 
949	 0.308379780205586 
950	 0.308240368285218 
951	 0.307996137264856 
952	 0.307879498690303 
953	 0.307914278867607 
954	 0.307988589688128 
955	 0.307884467853216 
956	 0.30775909445314 
957	 0.307601452832546 
958	 0.30751946276085 
959	 0.307846804430318 
960	 0.307763357902241 
961	 0.307498040273985 
962	 0.307378287923951 
963	 0.307394626104983 
964	 0.30706310046748 
965	 0.306880537393062 
966	 0.307038863411113 
967	 0.306467473076232 
968	 0.306537747461093 
969	 0.306746719861558 
970	 0.306482608082785 
971	 0.306259034373354 
972	 0.306055168109199 
973	 0.305975297386518 
974	 0.305995475798807 
975	 0.305666239689849 
976	 0.305731028792463 
977	 0.305900828508618 
978	 0.305729017369261 
979	 0.305356579670249 
980	 0.305150968886296 
981	 0.305134709608687 
982	 0.305168555038369 
983	 0.305101293917707 
984	 0.304743998570861 
985	 0.304554985600246 
986	 0.304846219674845 
987	 0.30471493748342 
988	 0.304384283575272 
989	 0.303967555998334 
990	 0.303593354392687 
991	 0.303521880859936 
992	 0.303329746419611 
993	 0.303110256841112 
994	 0.303048667074303 
995	 0.302954669102993 
996	 0.3027884925281 
997	 0.302668633216952 
998	 0.302572923741804 
999	 0.301758988912335 
1000	 0.301651739642907 
1001	 0.302493162282452 
1002	 0.302045893998216 
1003	 0.30174801045173 
1004	 0.301567137785869 
1005	 0.301489701862614 
1006	 0.301414902425184 
1007	 0.30153225419231 
1008	 0.301385392147026 
1009	 0.301129858545493 
1010	 0.300970258879714 
1011	 0.30070728235251 
1012	 0.300532810853394 
1013	 0.300463562492038 
1014	 0.300316533727568 
1015	 0.300129540260502 
1016	 0.300005689775227 
1017	 0.299842912572727 
1018	 0.299609902118865 
1019	 0.29922371926719 
1020	 0.298615590461944 
1021	 0.298198758629072 
1022	 0.297718430643648 
1023	 0.297431662885669 
1024	 0.297396390029652 
1025	 0.297166631111966 
1026	 0.296923409078759 
1027	 0.296626405133918 
1028	 0.296197126671008 
1029	 0.295854654072204 
1030	 0.295645504055773 
1031	 0.295321634044506 
1032	 0.294838991057747 
1033	 0.294388498846158 
1034	 0.29403696418571 
1035	 0.293732580617668 
1036	 0.293329762281596 
1037	 0.293025322651406 
1038	 0.292578195220704 
1039	 0.291905085626279 
1040	 0.291356830857334 
1041	 0.290879022278948 
1042	 0.290400636211943 
1043	 0.289943908532523 
1044	 0.289399276823298 
1045	 0.288919760159793 
1046	 0.28860721936036 
1047	 0.288254762366926 
1048	 0.287815349665747 
1049	 0.287376058725823 
1050	 0.286684027296093 
1051	 0.285934928101639 
1052	 0.285396927589149 
1053	 0.28487851937712 
1054	 0.284436383210626 
1055	 0.283981850894848 
1056	 0.283563543621103 
1057	 0.283132908773449 
1058	 0.282762970876045 
1059	 0.282265399077847 
1060	 0.281633707319147 
1061	 0.281145797080204 
1062	 0.280455070854858 
1063	 0.27983454680982 
1064	 0.27953449486943 
1065	 0.279061603948667 
1066	 0.278501032470506 
1067	 0.278108506829894 
1068	 0.27768532793848 
1069	 0.277209811842798 
1070	 0.276706513374868 
1071	 0.276272357121537 
1072	 0.27568553741882 
1073	 0.275059940113814 
1074	 0.274626884420937 
1075	 0.274310252971333 
1076	 0.27398918443334 
1077	 0.273526541151055 
1078	 0.27293423427636 
1079	 0.272257259938547 
1080	 0.271555446544124 
1081	 0.271091150089053 
1082	 0.270651869344906 
1083	 0.270159213525959 
1084	 0.269798440447216 
1085	 0.269225948092544 
1086	 0.268641523697443 
1087	 0.267972662714504 
1088	 0.26743689530527 
1089	 0.26687823142596 
1090	 0.266429667577297 
1091	 0.265870530901504 
1092	 0.265184049369016 
1093	 0.264512055326808 
1094	 0.263732364531363 
1095	 0.26305080193635 
1096	 0.262429014898746 
1097	 0.26185197180061 
1098	 0.261329249801009 
1099	 0.260714553304792 
1100	 0.260105806081736 
1101	 0.259359717749372 
1102	 0.258554529113061 
1103	 0.257862571024475 
1104	 0.257260345344122 
1105	 0.256619262794428 
1106	 0.255977623636396 
1107	 0.255287184108096 
1108	 0.254480347887429 
1109	 0.253721722140664 
1110	 0.252906059697308 
1111	 0.252073225449538 
1112	 0.251324531283004 
1113	 0.250425746433077 
1114	 0.249531623661262 
1115	 0.248798971453489 
1116	 0.247916480055929 
1117	 0.247103586018577 
1118	 0.246323439959908 
1119	 0.245612866414393 
1120	 0.244761477922532 
1121	 0.243900519878258 
1122	 0.242969967172456 
1123	 0.2420120753234 
1124	 0.24115269617881 
1125	 0.240312584284884 
1126	 0.239496870375199 
1127	 0.238624799072551 
1128	 0.237672056544089 
1129	 0.236709903952459 
1130	 0.23573539316113 
1131	 0.234802000063397 
1132	 0.233930074613212 
1133	 0.233044843687074 
1134	 0.232249692671781 
1135	 0.231390167186585 
1136	 0.230502166634483 
1137	 0.229569923992665 
1138	 0.228585020735644 
1139	 0.227628680657759 
1140	 0.226622653307098 
1141	 0.225746531475035 
1142	 0.224851408870824 
1143	 0.2239400039653 
1144	 0.223092009420586 
1145	 0.22217001108544 
1146	 0.221254569894937 
1147	 0.220397479543411 
1148	 0.219431778440534 
1149	 0.218487668281437 
1150	 0.217615779692591 
1151	 0.216640781463707 
1152	 0.215674472249844 
1153	 0.214683990543215 
1154	 0.213756781464317 
1155	 0.212798681805318 
1156	 0.211922342871645 
1157	 0.211179735329776 
1158	 0.210363782057767 
1159	 0.209561915190589 
1160	 0.208687652453053 
1161	 0.207781784923698 
1162	 0.206865072091232 
1163	 0.206027297194401 
1164	 0.205211175344686 
1165	 0.204332157514948 
1166	 0.203475140066719 
1167	 0.202573567281761 
1168	 0.201669218599425 
1169	 0.20079690315219 
1170	 0.200015308912633 
1171	 0.199134358294556 
1172	 0.198156220770008 
1173	 0.197278180237597 
1174	 0.196421624132992 
1175	 0.195576183213316 
1176	 0.194835478302507 
1177	 0.194007887408641 
1178	 0.193127094895124 
1179	 0.192203712284544 
1180	 0.191433560247167 
1181	 0.190637908614037 
1182	 0.189750866811609 
1183	 0.189022537855596 
1184	 0.188237693026352 
1185	 0.187362204730701 
1186	 0.186526512420912 
1187	 0.185748140569544 
1188	 0.184934600065499 
1189	 0.184044310924808 
1190	 0.183240608800966 
1191	 0.182486317967588 
1192	 0.181754719288878 
1193	 0.181104203666797 
1194	 0.180380000681466 
1195	 0.17962099841629 
1196	 0.178902902273267 
1197	 0.178202006765887 
1198	 0.177403349270332 
1199	 0.176653194475139 
1200	 0.176007197515288 
1201	 0.175306959546796 
1202	 0.174580457597278 
1203	 0.173905551488442 
1204	 0.173244170592063 
1205	 0.172585424286969 
1206	 0.17192777359599 
1207	 0.17127516877162 
1208	 0.170623115434852 
1209	 0.170008543645509 
1210	 0.169380886742768 
1211	 0.168824056326856 
1212	 0.16834513651971 
1213	 0.167829447919509 
1214	 0.167352567171796 
1215	 0.166843316678329 
1216	 0.166276388508858 
1217	 0.165778532499303 
1218	 0.165314817685505 
1219	 0.164846197468637 
1220	 0.164389195994097 
1221	 0.163922283334795 
1222	 0.163486518701686 
1223	 0.163012157790663 
1224	 0.162564070779268 
1225	 0.162152952503073 
1226	 0.16173342240899 
1227	 0.161319545830191 
1228	 0.160879104704895 
1229	 0.16046132762162 
1230	 0.159987383117057 
1231	 0.159409265538012 
1232	 0.158926352583706 
1233	 0.158496716596156 
1234	 0.158027762950151 
1235	 0.157551598955656 
1236	 0.157122426190449 
1237	 0.156688327062145 
1238	 0.156258306580067 
1239	 0.155900302500889 
1240	 0.155507616362109 
1241	 0.15503329573674 
1242	 0.154632083268132 
1243	 0.154246712199844 
1244	 0.153920753866421 
1245	 0.153484204898773 
1246	 0.153003937364461 
1247	 0.152584346173136 
1248	 0.152088395630388 
1249	 0.151693565932952 
1250	 0.151427091217162 
1251	 0.151086982468366 
1252	 0.150712356590188 
1253	 0.150393324641274 
1254	 0.150136739549999 
1255	 0.149805917572929 
1256	 0.149458511664028 
1257	 0.149109736629947 
1258	 0.148674647999106 
1259	 0.148310346136096 
1260	 0.148017021800234 
1261	 0.147698863707687 
1262	 0.147403946905915 
1263	 0.147091002598374 
1264	 0.146752747467931 
1265	 0.146381010949975 
1266	 0.146042286559269 
1267	 0.145683927817594 
1268	 0.145369884055269 
1269	 0.145063530908626 
1270	 0.144825331544364 
1271	 0.144660025984805 
1272	 0.144439580916021 
1273	 0.144267092338473 
1274	 0.144043288360719 
1275	 0.143738054794872 
1276	 0.143493196376676 
1277	 0.143260780102558 
1278	 0.143044927040084 
1279	 0.142845405672291 
1280	 0.142665823565571 
1281	 0.142470635454128 
1282	 0.142345763329299 
1283	 0.142327310744797 
1284	 0.142242980711457 
1285	 0.142153080761504 
1286	 0.142099437774028 
1287	 0.141994897234718 
1288	 0.141813238789092 
1289	 0.141705894112138 
1290	 0.141616503963369 
1291	 0.141554249578247 
1292	 0.141515894198562 
1293	 0.141484647135598 
1294	 0.141463178414352 
1295	 0.141486288773494 
1296	 0.141530271500094 
1297	 0.141596179402356 
1298	 0.141748003305356 
1299	 0.141825154094493 
1300	 0.141885786248488 
1301	 0.14192894665044 
1302	 0.141885244247519 
1303	 0.141927819939045 
1304	 0.142014350761179 
1305	 0.142092307370572 
1306	 0.142239322179625 
1307	 0.14233919764068 
1308	 0.142402489325805 
1309	 0.142455680809742 
1310	 0.142529531001882 
1311	 0.142589113527027 
1312	 0.142687155377576 
1313	 0.142787991508856 
1314	 0.142954765718821 
1315	 0.143215226352611 
1316	 0.143341651061432 
1317	 0.143447777305852 
1318	 0.143561408877285 
1319	 0.143587197017204 
1320	 0.143663300164582 
1321	 0.143787658952439 
1322	 0.143910309805267 
1323	 0.144017696234989 
1324	 0.144130217922737 
1325	 0.144280660772473 
1326	 0.144407631809234 
1327	 0.144497425465251 
1328	 0.144614402056241 
1329	 0.144761720426541 
1330	 0.144883895802988 
1331	 0.144986389962982 
1332	 0.14510629839484 
1333	 0.145250840078468 
1334	 0.145349542393766 
1335	 0.145447262950579 
1336	 0.145555876046606 
1337	 0.145638233410518 
1338	 0.145669944671381 
1339	 0.145765190878199 
1340	 0.145873627344028 
1341	 0.146001533325338 
1342	 0.146175686155645 
1343	 0.146306357311341 
1344	 0.146432157125125 
1345	 0.146556716162297 
1346	 0.146652643610659 
1347	 0.146774549019344 
1348	 0.146931378842965 
1349	 0.147047734523437 
1350	 0.147148513109013 
1351	 0.147253709007162 
1352	 0.147325581610096 
1353	 0.147426466186607 
1354	 0.147545497185453 
1355	 0.147669228273442 
1356	 0.147830191451712 
1357	 0.147949320429404 
1358	 0.148023880508013 
1359	 0.148139840623775 
1360	 0.148263509738357 
1361	 0.148380947822211 
1362	 0.148496480526684 
1363	 0.148634395464492 
1364	 0.148726136510019 
1365	 0.148766262790771 
1366	 0.148839314565086 
1367	 0.148916480993588 
1368	 0.148991494433864 
1369	 0.149073152028458 
1370	 0.149131111479789 
1371	 0.149166074285958 
1372	 0.149240002301351 
1373	 0.149323333111802 
1374	 0.149392782542857 
1375	 0.149508900520239 
1376	 0.149555635206682 
1377	 0.149540904456866 
1378	 0.149553206282523 
1379	 0.149528672774654 
1380	 0.149549326024661 
1381	 0.149626142714147 
1382	 0.149651431988123 
1383	 0.149696605480496 
1384	 0.149691893410426 
1385	 0.14960559075347 
1386	 0.149555612115827 
1387	 0.149500138642494 
1388	 0.149450652441381 
1389	 0.149409946141083 
1390	 0.149381756942031 
1391	 0.149366171209858 
1392	 0.14933185819134 
1393	 0.149337725675546 
1394	 0.149345766960158 
1395	 0.149341557298828 
1396	 0.149355220094861 
1397	 0.149304624995137 
1398	 0.149225182589389 
1399	 0.149140881959918 
1400	 0.149022476532507 
1401	 0.148894709437751 
1402	 0.148765104884569 
1403	 0.148608628246798 
1404	 0.148396701753399 
1405	 0.148240757788065 
1406	 0.148107748509825 
1407	 0.147953409201391 
1408	 0.147826182688112 
1409	 0.147658628621656 
1410	 0.147460337825644 
1411	 0.147253696370129 
1412	 0.14702937412836 
1413	 0.146804466660865 
1414	 0.146534844878185 
1415	 0.146323208471555 
1416	 0.146147988231516 
1417	 0.145956676922434 
1418	 0.145808227343681 
1419	 0.145622604003038 
1420	 0.145392268762994 
1421	 0.1451844495886 
1422	 0.144967523207895 
1423	 0.144764131271428 
1424	 0.144578425411302 
1425	 0.14439073935774 
1426	 0.144214156630389 
1427	 0.144062966264101 
1428	 0.143846811962004 
1429	 0.143632886715888 
1430	 0.143428102698271 
1431	 0.14320148709463 
1432	 0.14297887404797 
1433	 0.142786343425584 
1434	 0.142551448243157 
1435	 0.142270882490226 
1436	 0.142022927525664 
1437	 0.141770444742579 
1438	 0.14154599610447 
1439	 0.141359753562804 
1440	 0.141123885328281 
1441	 0.140866453662443 
1442	 0.140641087320766 
1443	 0.140413336700004 
1444	 0.140171549385938 
1445	 0.139912379368142 
1446	 0.139727864907173 
1447	 0.139557120320677 
1448	 0.139389837543316 
1449	 0.139271587910268 
1450	 0.139185833424065 
1451	 0.139117781594895 
1452	 0.139027210306002 
1453	 0.138972289532378 
1454	 0.138923958226692 
1455	 0.138829520791649 
1456	 0.138772132142038 
1457	 0.138789882273325 
1458	 0.138770450048756 
1459	 0.138732573406952 
1460	 0.138689629957759 
1461	 0.138618527258393 
1462	 0.138580063173258 
1463	 0.138579722122745 
1464	 0.138542203743598 
1465	 0.138509727120067 
1466	 0.138462419767126 
1467	 0.138375758656687 
1468	 0.138286151490425 
1469	 0.138248643490343 
1470	 0.138207313782902 
1471	 0.138163099902692 
1472	 0.138131323552175 
1473	 0.138087776796313 
1474	 0.138046730863398 
1475	 0.137966769061941 
1476	 0.137857193916325 
1477	 0.137788481974962 
1478	 0.137700026477105 
1479	 0.137636675593186 
1480	 0.137637225592994 
1481	 0.137568096007846 
1482	 0.137455057642187 
1483	 0.137368669453324 
1484	 0.137279784962254 
1485	 0.137174847141716 
1486	 0.13706052285514 
1487	 0.13696783655779 
1488	 0.136868753742404 
1489	 0.136773081149219 
1490	 0.136685294942647 
1491	 0.136619925467499 
1492	 0.13655425947665 
1493	 0.136505305580566 
1494	 0.136502818251508 
1495	 0.136473492778602 
1496	 0.136415219524313 
1497	 0.136391506677125 
1498	 0.136389256873984 
1499	 0.136377237209252 
1500	 0.136384563987645 
1501	 0.136378380837945 
1502	 0.136354713560355 
1503	 0.136340610817191 
1504	 0.136311584383223 
1505	 0.13632276166302 
1506	 0.136365306501435 
1507	 0.136390018288041 
1508	 0.136448740854091 
1509	 0.136476571195388 
1510	 0.136475663180028 
1511	 0.136474627733906 
1512	 0.136460780198632 
1513	 0.136450465979555 
1514	 0.136423170506086 
1515	 0.136413041383367 
1516	 0.136402204428708 
1517	 0.136414023056839 
1518	 0.136471557253756 
1519	 0.136497037781282 
1520	 0.136523164169544 
1521	 0.136542800327688 
1522	 0.136516911821817 
1523	 0.136503275867853 
1524	 0.136523340707889 
1525	 0.13656889146285 
1526	 0.136585478569627 
1527	 0.136618667389106 
1528	 0.136630810121872 
1529	 0.136603083693503 
1530	 0.136634404233176 
1531	 0.136676166078147 
1532	 0.136759379238261 
1533	 0.136915838211179 
1534	 0.136963931962993 
1535	 0.136986462675557 
1536	 0.137029897970536 
1537	 0.137001722374036 
1538	 0.137057648969549 
1539	 0.137200289870396 
1540	 0.137268567781799 
1541	 0.137293665817069 
1542	 0.137389393016586 
1543	 0.137503750209008 
1544	 0.137607698617952 
1545	 0.137740399797522 
1546	 0.13788799700063 
1547	 0.138032378418521 
1548	 0.138168559662494 
1549	 0.138343484962533 
1550	 0.138488757997559 
1551	 0.138578274451023 
1552	 0.138720270800731 
1553	 0.138886046775062 
1554	 0.139066195699827 
1555	 0.139280581985622 
1556	 0.139460900527972 
1557	 0.139650893686525 
1558	 0.139820691715258 
1559	 0.139944121011597 
1560	 0.14010988341475 
1561	 0.140302339258346 
1562	 0.14047244669331 
1563	 0.140646231450195 
1564	 0.140817528949506 
1565	 0.140955149149492 
1566	 0.141139737105628 
1567	 0.141367822986048 
1568	 0.14156495872446 
1569	 0.141758563866892 
1570	 0.141970770114901 
1571	 0.14217104540892 
1572	 0.142387422868643 
1573	 0.142647429321452 
1574	 0.142874895777156 
1575	 0.143095583051054 
1576	 0.14329801586995 
1577	 0.143462067044729 
1578	 0.143663139940002 
1579	 0.143881706905252 
1580	 0.144076690969725 
1581	 0.144257835668611 
1582	 0.144482174289193 
1583	 0.144699365358844 
1584	 0.144938123897263 
1585	 0.145267716242248 
1586	 0.145520214003588 
1587	 0.145723828999802 
1588	 0.14594026862838 
1589	 0.146089219746412 
1590	 0.146322494098992 
1591	 0.146644746782038 
1592	 0.146896464428402 
1593	 0.147150855536622 
1594	 0.147407466490139 
1595	 0.147626193067603 
1596	 0.147840169896508 
1597	 0.148079657354662 
1598	 0.148296696266732 
1599	 0.148452030868641 
1600	 0.148653810255946 
1601	 0.14888082469286 
1602	 0.149109161489691 
1603	 0.149355942889096 
1604	 0.14959978847532 
1605	 0.149820496035704 
1606	 0.150097046485525 
1607	 0.150469934197311 
1608	 0.15073005658131 
1609	 0.150937239751829 
1610	 0.151181131343388 
1611	 0.151360826661655 
1612	 0.151565272582731 
1613	 0.151856020478863 
1614	 0.152085338302814 
1615	 0.152259428101459 
1616	 0.152437799563264 
1617	 0.152578080830707 
1618	 0.152763622672917 
1619	 0.152974140162185 
1620	 0.153167264084473 
1621	 0.153384186195459 
1622	 0.153589602557024 
1623	 0.153777276041389 
1624	 0.153960305239835 
1625	 0.154144937168596 
1626	 0.154327591042528 
1627	 0.154513396989172 
1628	 0.154667187700168 
1629	 0.154780828056917 
1630	 0.154935362070374 
1631	 0.155098431854035 
1632	 0.155241490785501 
1633	 0.155405687675549 
1634	 0.155568610938727 
1635	 0.155707003581192 
1636	 0.155840446982558 
1637	 0.15598967210402 
1638	 0.156132334839272 
1639	 0.156240516302847 
1640	 0.156377305975182 
1641	 0.156553037114835 
1642	 0.15669200812002 
1643	 0.156825843906143 
1644	 0.156937517003211 
1645	 0.157025224268405 
1646	 0.157101704816608 
1647	 0.157148447683565 
1648	 0.157221692979233 
1649	 0.157310265823615 
1650	 0.157369042035274 
1651	 0.157410605792144 
1652	 0.157474515039721 
1653	 0.157532523411739 
1654	 0.15757877899136 
1655	 0.157676784293412 
1656	 0.157702394083861 
1657	 0.157641491333833 
1658	 0.15763426125145 
1659	 0.157623330027832 
1660	 0.157609948138572 
1661	 0.157654316157143 
1662	 0.157623438339827 
1663	 0.157523359282417 
1664	 0.15745411114357 
1665	 0.157376781718732 
1666	 0.157262995286153 
1667	 0.157158597001931 
1668	 0.157027616030422 
1669	 0.156866021313703 
1670	 0.156674903345677 
1671	 0.156408940995503 
1672	 0.156220854466772 
1673	 0.156126668311651 
1674	 0.155852756158845 
1675	 0.155522090493342 
1676	 0.155222119073374 
1677	 0.154767814894328 
1678	 0.154408438592937 
1679	 0.154185181552888 
1680	 0.153858654835445 
1681	 0.153469695655594 
1682	 0.153080774181161 
1683	 0.152692602401543 
1684	 0.152272188179124 
1685	 0.151818083959991 
1686	 0.151361221358752 
1687	 0.150878736733617 
1688	 0.150377626935202 
1689	 0.149900445492131 
1690	 0.149324460447025 
1691	 0.148690982499772 
1692	 0.148045795989127 
1693	 0.147280488472269 
1694	 0.146641052895781 
1695	 0.146049918676097 
1696	 0.145444870157725 
1697	 0.144919308023508 
1698	 0.144291499547062 
1699	 0.143611733262758 
1700	 0.142944756581674 
1701	 0.142236715585853 
1702	 0.141559352182379 
1703	 0.140852845241725 
1704	 0.140238204549418 
1705	 0.139673488580401 
1706	 0.139121327952585 
1707	 0.138613021925868 
1708	 0.138067651004216 
1709	 0.13754362218166 
1710	 0.137030986701737 
1711	 0.136533224851552 
1712	 0.136161751561436 
1713	 0.135799281407743 
1714	 0.135446401906079 
1715	 0.135165242326935 
1716	 0.134845987363439 
1717	 0.134510671930161 
1718	 0.134214063304619 
1719	 0.133939675107377 
1720	 0.133639846131141 
1721	 0.133405245842297 
1722	 0.133256248387837 
1723	 0.133083367429918 
1724	 0.132962493370245 
1725	 0.132833424626878 
1726	 0.132659231273601 
1727	 0.13263022623665 
1728	 0.132668147925975 
1729	 0.132709665280177 
1730	 0.132840474581964 
1731	 0.132921626375734 
1732	 0.133004259051633 
1733	 0.133243552970299 
1734	 0.133556055208981 
1735	 0.13391122577903 
1736	 0.134281419895692 
1737	 0.134528178854134 
1738	 0.134727318445885 
1739	 0.134916398270883 
1740	 0.135128764321461 
1741	 0.135246616783597 
1742	 0.13528379336174 
1743	 0.135306123076844 
1744	 0.135227964746562 
1745	 0.135186384894551 
1746	 0.135150204592886 
1747	 0.135105648224676 
1748	 0.135059635314609 
1749	 0.135022303622398 
1750	 0.134981505667328 
1751	 0.134906854980843 
1752	 0.134798892028818 
1753	 0.134782410949192 
1754	 0.134766900910868 
1755	 0.134845343757798 
1756	 0.135015065304404 
1757	 0.135143091090828 
1758	 0.135334921580017 
1759	 0.135512045936082 
1760	 0.135763696930605 
1761	 0.136031693766145 
1762	 0.136282641162046 
1763	 0.136635727257933 
1764	 0.13704977147916 
1765	 0.137394534044097 
1766	 0.137772201906853 
1767	 0.138185975835167 
1768	 0.13854298462574 
1769	 0.139008888576449 
1770	 0.139523121339531 
1771	 0.139937171245744 
1772	 0.140340426868359 
1773	 0.140782264057857 
1774	 0.14122586474374 
1775	 0.141634670427469 
1776	 0.142051268146486 
1777	 0.14243340213157 
1778	 0.142748598384405 
1779	 0.143073660001772 
1780	 0.143380147083956 
1781	 0.143629811048653 
1782	 0.143846723227548 
1783	 0.144114452935687 
1784	 0.144373623800685 
1785	 0.144517327118537 
1786	 0.144734710935133 
1787	 0.144932128148774 
1788	 0.145164873348062 
1789	 0.14547593935616 
1790	 0.145752304708835 
1791	 0.146031088666629 
1792	 0.146234628590949 
1793	 0.14643571508109 
1794	 0.146640957767942 
1795	 0.146671433289847 
1796	 0.146887145416717 
1797	 0.147147942095191 
1798	 0.147375664598801 
1799	 0.147739034712553 
1800	 0.147989058288953 
1801	 0.151035693379852 
1802	 0.151309974013705 
1803	 0.151580852480198 
1804	 0.151800209975953 
1805	 0.152107152953688 
1806	 0.152362528695122 
1807	 0.152640121783021 
1808	 0.152889632282172 
1809	 0.153088409329619 
1810	 0.153334959458078 
1811	 0.153589218817013 
1812	 0.153858817770945 
1813	 0.154139166933218 
1814	 0.15444266960262 
1815	 0.154753199847575 
1816	 0.155145980560645 
1817	 0.155495127050197 
1818	 0.155884593486732 
1819	 0.156210867108139 
1820	 0.156461532369638 
1821	 0.156772095794319 
1822	 0.157076934273893 
1823	 0.157406462254484 
1824	 0.157761409192796 
1825	 0.15817535417021 
1826	 0.158551016595375 
1827	 0.158936086978538 
1828	 0.159281034926755 
1829	 0.15958294484808 
1830	 0.159912432373699 
1831	 0.160206225335753 
1832	 0.160576262437899 
1833	 0.160933733389658 
1834	 0.161378894975899 
1835	 0.161891886410716 
1836	 0.162327030569434 
1837	 0.162725698647774 
1838	 0.163089913642093 
1839	 0.1634762541138 
1840	 0.163798675597033 
1841	 0.164198096499771 
1842	 0.164664689611557 
1843	 0.165105681820057 
1844	 0.165570930117766 
1845	 0.165934726723877 
1846	 0.166209383818828 
1847	 0.16656708135373 
1848	 0.166957883658777 
1849	 0.16736611229783 
1850	 0.167778035917617 
1851	 0.168269458951328 
1852	 0.168685640947443 
1853	 0.16902173817232 
1854	 0.169367312043905 
1855	 0.169734682412318 
1856	 0.170065144855455 
1857	 0.170418267107666 
1858	 0.170796717200645 
1859	 0.171129192825132 
1860	 0.171426455852603 
1861	 0.171745002027565 
1862	 0.17208571235781 
1863	 0.172329231596687 
1864	 0.172597381232287 
1865	 0.17288814459306 
1866	 0.173162642861501 
1867	 0.173466521651568 
1868	 0.173738970528063 
1869	 0.173924102936372 
1870	 0.174107638705716 
1871	 0.174239268360344 
1872	 0.174366920711182 
1873	 0.174463679958822 
1874	 0.174625044268038 
1875	 0.174699060658108 
1876	 0.17475508292821 
1877	 0.174827840941519 
1878	 0.174748251999791 
1879	 0.174671859366159 
1880	 0.174650627207692 
1881	 0.174568354096642 
1882	 0.174449815866352 
1883	 0.174321443780505 
1884	 0.174134714554274 
1885	 0.173844011492848 
1886	 0.173491036129931 
1887	 0.173113423552043 
1888	 0.172681937986319 
1889	 0.172152648625232 
1890	 0.171530534336304 
1891	 0.170883807419518 
1892	 0.170214646104194 
1893	 0.169546115646725 
1894	 0.168853542343028 
1895	 0.168203299996695 
1896	 0.167598624560309 
1897	 0.166956721322988 
1898	 0.166286315466818 
1899	 0.165644861842752 
1900	 0.165016763735102 
1901	 0.164379449750406 
1902	 0.163757912274281 
1903	 0.163217742179358 
1904	 0.16277756154893 
1905	 0.162378462550176 
1906	 0.162076692775726 
1907	 0.16185747455785 
1908	 0.161643341204133 
1909	 0.161396919920642 
1910	 0.161208481861225 
1911	 0.161091097791774 
1912	 0.161056592661104 
1913	 0.161051690812242 
1914	 0.161040392658765 
1915	 0.161066308892887 
1916	 0.161141684639693 
1917	 0.161205896535264 
1918	 0.161251241668866 
1919	 0.16130709612189 
1920	 0.161336853507617 
1921	 0.161375757368091 
1922	 0.16153758343491 
1923	 0.161726617163592 
1924	 0.161890612066518 
1925	 0.162110809759697 
1926	 0.162293834132305 
1927	 0.16241073926107 
1928	 0.16257774163579 
1929	 0.162776465642994 
1930	 0.162946300768675 
1931	 0.163148485906757 
1932	 0.163362517997254 
1933	 0.163597007955029 
1934	 0.163913067825473 
1935	 0.164246439078832 
1936	 0.164575741384386 
1937	 0.164920654636419 
1938	 0.165269618586599 
1939	 0.165650895278326 
1940	 0.16604078997938 
1941	 0.166490515440293 
1942	 0.166911580401903 
1943	 0.167335436066558 
1944	 0.167811421062253 
1945	 0.168297798579129 
1946	 0.168908019834386 
1947	 0.169601771691207 
1948	 0.170242525457037 
1949	 0.17089011248562 
1950	 0.171534598141723 
1951	 0.172125002026325 
1952	 0.172780253524542 
1953	 0.173448402231464 
1954	 0.174178169397494 
1955	 0.174998295865126 
1956	 0.175789160696045 
1957	 0.176569867045266 
1958	 0.177379836129497 
1959	 0.17811415830885 
1960	 0.178855346341257 
1961	 0.179614021537067 
1962	 0.180419104543835 
1963	 0.181157188460388 
1964	 0.181906028623141 
1965	 0.18257372922559 
1966	 0.183186668277569 
1967	 0.183754508052998 
1968	 0.184312372547033 
1969	 0.184858393736757 
1970	 0.185416011973455 
1971	 0.186020977832854 
1972	 0.186610144712496 
1973	 0.187224648149425 
1974	 0.187864339793165 
1975	 0.188553104485931 
1976	 0.18921492746819 
1977	 0.189889280838381 
1978	 0.190548590296774 
1979	 0.191214798507487 
1980	 0.191836373885058 
1981	 0.192450207784531 
1982	 0.193105388433659 
1983	 0.193756132218816 
1984	 0.194445713655396 
1985	 0.195156577420593 
1986	 0.195845052279828 
1987	 0.196545115726719 
1988	 0.197251033003041 
1989	 0.19794918383135 
1990	 0.198623741706533 
1991	 0.199339586846631 
1992	 0.200044721483792 
1993	 0.20082532076006 
1994	 0.20159089152404 
1995	 0.202413393741772 
1996	 0.20329043645457 
1997	 0.204097425701332 
1998	 0.204940499739245 
1999	 0.205827861706788 
2000	 0.206679908835489 
2001	 0.207535927557387 
2002	 0.208335043421348 
2003	 0.209137243663047 
2004	 0.209886954077123 
2005	 0.210555378421147 
2006	 0.211249215907896 
2007	 0.21197742268366 
2008	 0.212557036332899 
2009	 0.21318951588723 
2010	 0.213820556187164 
2011	 0.214359831719417 
2012	 0.214922130541522 
2013	 0.215442033883493 
2014	 0.215887243949283 
2015	 0.216377203333241 
2016	 0.216910576862665 
2017	 0.21737449104617 
2018	 0.217829349746434 
2019	 0.218243870998107 
2020	 0.218620533981754 
2021	 0.218919993430096 
2022	 0.219212379316634 
2023	 0.219571230517194 
2024	 0.219954840506807 
2025	 0.220275571391129 
2026	 0.220529901391604 
2027	 0.220733213176622 
2028	 0.220938122534844 
2029	 0.221065069323526 
2030	 0.221219800385948 
2031	 0.22141423494405 
2032	 0.221568447924919 
2033	 0.22163303618388 
2034	 0.221766128733812 
2035	 0.22194305513116 
2036	 0.222095767450262 
2037	 0.222228507786522 
2038	 0.222465348386592 
2039	 0.222619605725607 
2040	 0.222726585853087 
2041	 0.222850599004866 
2042	 0.222944425935737 
2043	 0.223083498778286 
2044	 0.223234079555483 
2045	 0.223404529856987 
2046	 0.22366160728449 
2047	 0.223826261592256 
2048	 0.223937494165744 
2049	 0.224072645490867 
2050	 0.224164486801113 
2051	 0.224242189799128 
2052	 0.224463585644971 
2053	 0.22468957898348 
2054	 0.224892387523695 
2055	 0.225163500392977 
2056	 0.225337547621624 
2057	 0.225393396785828 
2058	 0.225572779931859 
2059	 0.225798876374662 
2060	 0.225969954071275 
2061	 0.226198201569199 
2062	 0.226376450023649 
2063	 0.226468780217877 
2064	 0.226603458365171 
2065	 0.22678490731054 
2066	 0.226878564398274 
2067	 0.227057012472999 
2068	 0.227191809907352 
2069	 0.227316550041523 
2070	 0.227443970782526 
2071	 0.227573978606115 
2072	 0.227648591941949 
2073	 0.227809226855049 
2074	 0.228045019625927 
2075	 0.228209715572766 
2076	 0.228386604372989 
2077	 0.228541417115703 
2078	 0.228617951506272 
2079	 0.228766786859906 
2080	 0.228974148994919 
2081	 0.229143718236645 
2082	 0.229326711775399 
2083	 0.229504679877168 
2084	 0.229610654936086 
2085	 0.229730094447119 
2086	 0.229865369609659 
2087	 0.229987324090437 
2088	 0.230143833035989 
2089	 0.23038118607548 
2090	 0.230500225428835 
2091	 0.230547132542457 
2092	 0.230651159862061 
2093	 0.230700480039427 
2094	 0.230790132321274 
2095	 0.230969032878178 
2096	 0.231102468342292 
2097	 0.231211845152684 
2098	 0.23132999344035 
2099	 0.231409774091769 
2100	 0.231402882177103 
2101	 0.231431156171607 
2102	 0.231395374080642 
2103	 0.231440216611704 
2104	 0.231572524487617 
2105	 0.231589193852952 
2106	 0.231568773166665 
2107	 0.231554003043455 
2108	 0.231495643757526 
2109	 0.231424039141134 
2110	 0.231354550095788 
2111	 0.231279588873538 
2112	 0.23110835791342 
2113	 0.231032376700545 
2114	 0.23107744710857 
2115	 0.231039652274562 
2116	 0.230977759724299 
2117	 0.230959884310434 
2118	 0.230873491937192 
2119	 0.230696800299063 
2120	 0.230571172347378 
2121	 0.230469816667238 
2122	 0.230332254331973 
2123	 0.230153902983927 
2124	 0.230027124632466 
2125	 0.229873828312066 
2126	 0.229792918393233 
2127	 0.229773963663394 
2128	 0.22976276268427 
2129	 0.229826018639374 
2130	 0.229841070177418 
2131	 0.22985361608114 
2132	 0.229858880421286 
2133	 0.229846448470059 
2134	 0.229792602418591 
2135	 0.229850786645168 
2136	 0.229900149892147 
2137	 0.229988766651016 
2138	 0.230151008042315 
2139	 0.230269112861565 
2140	 0.230389932773526 
2141	 0.230499271244551 
2142	 0.230592994053799 
2143	 0.230704185412704 
2144	 0.230779929405044 
2145	 0.230926231638781 
2146	 0.231150507235416 
2147	 0.231317396007197 
2148	 0.231441197607228 
2149	 0.231659229260327 
2150	 0.23194604101538 
2151	 0.232168806189198 
2152	 0.232409343597747 
2153	 0.232691997480912 
2154	 0.232874544706757 
2155	 0.233001710463281 
2156	 0.233256649389467 
2157	 0.233607830443577 
2158	 0.233869947255124 
2159	 0.23418525863965 
2160	 0.234384735844881 
2161	 0.234487500405956 
2162	 0.234629747580699 
2163	 0.234722083131832 
2164	 0.234846278520146 
2165	 0.235030662922865 
2166	 0.235124023480315 
2167	 0.235141935785044 
2168	 0.235209941798137 
2169	 0.235250928056379 
2170	 0.235309026703045 
2171	 0.235437650881875 
2172	 0.235505626607725 
2173	 0.235524935584252 
2174	 0.235505869895505 
2175	 0.235615586129801 
2176	 0.235866051041476 
2177	 0.235967343266221 
2178	 0.236108899830485 
2179	 0.236239358942883 
2180	 0.236257293880903 
2181	 0.236337987880176 
2182	 0.236543820279857 
2183	 0.236638051643131 
2184	 0.236624002833133 
2185	 0.236678550332503 
2186	 0.236749212701965 
2187	 0.236813463119882 
2188	 0.236909249192585 
2189	 0.236944459522493 
2190	 0.236968449781331 
2191	 0.236962192059341 
2192	 0.236858316595785 
2193	 0.2368256328473 
2194	 0.23683326314496 
2195	 0.236812898775412 
2196	 0.236843470990957 
2197	 0.236812469698797 
2198	 0.236698548662159 
2199	 0.236602506497902 
2200	 0.236480107154615 
2201	 0.236321255735333 
2202	 0.236176408484473 
2203	 0.236010190623313 
2204	 0.235875181686114 
2205	 0.235754903467154 
2206	 0.235606148652913 
2207	 0.235493495701973 
2208	 0.235316884970828 
2209	 0.235066751816417 
2210	 0.234871981749892 
2211	 0.234692033540609 
2212	 0.234473036447423 
2213	 0.234238364585666 
2214	 0.234028637384533 
2215	 0.233748362706846 
2216	 0.233569981685873 
2217	 0.233514742911091 
2218	 0.233393972707376 
2219	 0.233286540999874 
2220	 0.233181525251657 
2221	 0.23313212430516 
2222	 0.232930751343542 
2223	 0.232667547304108 
2224	 0.232442500525713 
2225	 0.232158760370668 
2226	 0.231895785162063 
2227	 0.231576234861425 
2228	 0.23130817586004 
2229	 0.23091841708314 
2230	 0.230437703045461 
2231	 0.229891565235149 
2232	 0.229296482907941 
2233	 0.22864058797586 
2234	 0.22789791483008 
2235	 0.227091980919487 
2236	 0.226271674005402 
2237	 0.225311245513503 
2238	 0.224222231109936 
2239	 0.2230729885752 
2240	 0.221797903005794 
2241	 0.220529009681847 
2242	 0.219222310924341 
2243	 0.217816681850614 
2244	 0.216396429540052 
2245	 0.214847807363988 
2246	 0.213119294917162 
2247	 0.211409188829476 
2248	 0.209680250000779 
2249	 0.207837826601384 
2250	 0.205880555832314 
2251	 0.203970141663487 
2252	 0.201943763682999 
2253	 0.199884542842297 
2254	 0.197781768748963 
2255	 0.195720581511845 
2256	 0.193676179147993 
2257	 0.191594853323981 
2258	 0.189697046045276 
2259	 0.187958172321272 
2260	 0.186127740655225 
2261	 0.184371710933413 
2262	 0.182596274208692 
2263	 0.180749588689539 
2264	 0.179009710110907 
2265	 0.177297811791566 
2266	 0.175701247476088 
2267	 0.174259533908373 
2268	 0.172714396953689 
2269	 0.171242398919588 
2270	 0.16972798565526 
2271	 0.168035614814811 
2272	 0.166535624997184 
2273	 0.165163054156816 
2274	 0.16377986523493 
2275	 0.162524894413388 
2276	 0.161198425679778 
2277	 0.159945570142121 
2278	 0.15850009288873 
2279	 0.156853713575195 
2280	 0.155284053495117 
2281	 0.153603335927657 
2282	 0.151973286246993 
2283	 0.15043400706579 
2284	 0.148923780647393 
2285	 0.147113005328063 
2286	 0.145448820966112 
2287	 0.143681536683528 
2288	 0.141873808298543 
2289	 0.140396653904902 
2290	 0.138743896065334 
2291	 0.136966079649883 
2292	 0.135266659392293 
2293	 0.133467553561327 
2294	 0.131710720954491 
2295	 0.130095132270912 
2296	 0.128605164324391 
2297	 0.127295152938668 
2298	 0.126066804871986 
2299	 0.125082752499913 
2300	 0.124335537643302 
2301	 0.12375949143518 
2302	 0.123324923051608 
2303	 0.123171238556318 
2304	 0.12324769084963 
2305	 0.123632755624251 
2306	 0.124387964500575 
2307	 0.125132622012466 
2308	 0.126173046714394 
2309	 0.127209722061432 
2310	 0.128189686923106 
2311	 0.129507381295461 
2312	 0.131102375871662 
2313	 0.132647567606122 
2314	 0.134496205292048 
2315	 0.136141652011646 
2316	 0.137720271006585 
2317	 0.139265869324086 
2318	 0.14083491935298 
2319	 0.142136900129779 
2320	 0.143366853723246 
2321	 0.14438422353203 
2322	 0.145111532086591 
2323	 0.14578587752578 
2324	 0.146376498925044 
2325	 0.14673028095054 
2326	 0.146830976117064 
2327	 0.146933734239037 
2328	 0.146918727580633 
2329	 0.146784834866208 
2330	 0.146618432955697 
2331	 0.146234104559006 
2332	 0.145897812091109 
2333	 0.145220230327208 
2334	 0.144211461937883 
2335	 0.143429320476478 
2336	 0.142388294277328 
2337	 0.141207579319973 
2338	 0.140338118520099 
2339	 0.139230057817226 
2340	 0.137996204556782 
2341	 0.136725290776609 
2342	 0.135539640972093 
2343	 0.134736449251625 
2344	 0.134035190098971 
2345	 0.133700177023364 
2346	 0.13349242973131 
2347	 0.133263786351567 
2348	 0.133356230921285 
2349	 0.133635786834497 
2350	 0.134379855255089 
2351	 0.135506795075427 
2352	 0.136602429915008 
2353	 0.137989739320621 
2354	 0.139239077699737 
2355	 0.140143214763774 
2356	 0.141031530128306 
2357	 0.141707460580474 
2358	 0.14232285220493 
2359	 0.142988514592227 
2360	 0.143776542784069 
2361	 0.144412576166573 
2362	 0.144668391808535 
2363	 0.144897540615293 
2364	 0.144873445479584 
2365	 0.144603101311824 
2366	 0.144673199973347 
2367	 0.144569788965474 
2368	 0.144242116404752 
2369	 0.14423097476664 
2370	 0.144055640363198 
2371	 0.144001788859641 
2372	 0.144407816400605 
2373	 0.144540448970617 
2374	 0.144657024593698 
2375	 0.144877922998343 
2376	 0.144732244713182 
2377	 0.144842816672316 
2378	 0.144954986062401 
2379	 0.1448636664241 
2380	 0.144895158172353 
2381	 0.144704642525999 
2382	 0.14466145348752 
2383	 0.14465179461616 
2384	 0.144659886439636 
2385	 0.144769609614421 
2386	 0.144862908803936 
2387	 0.14487546106625 
2388	 0.145144519520491 
2389	 0.14560158157151 
2390	 0.145832115089911 
2391	 0.146278285013982 
2392	 0.14636013732571 
2393	 0.146026488647658 
2394	 0.145887398003912 
2395	 0.145575223288002 
2396	 0.145448644450519 
2397	 0.145466281422524 
2398	 0.145541968782337 
2399	 0.145746257352415 
2400	 0.145945923237343 
2401	 0.146179729735019 
2402	 0.146799035178868 
2403	 0.147174022320005 
2404	 0.147332857658564 
2405	 0.147242651054505 
2406	 0.146965161484214 
2407	 0.146896727851735 
2408	 0.147160517550689 
2409	 0.147420194552051 
2410	 0.147353206927179 
2411	 0.147151601581633 
2412	 0.146858384392205 
2413	 0.146616422026858 
2414	 0.147049884129379 
2415	 0.147676037474672 
2416	 0.148246936701196 
2417	 0.148761954164795 
2418	 0.148535336732476 
2419	 0.148070371024646 
2420	 0.147684597357297 
2421	 0.147607998656765 
2422	 0.147922041649177 
2423	 0.147755213086347 
2424	 0.147521522330723 
2425	 0.147339626505972 
2426	 0.146948713093497 
2427	 0.146829399645041 
2428	 0.146831321673677 
2429	 0.146877347092018 
2430	 0.147049799358419 
2431	 0.147497817411964 
2432	 0.14778117702658 
2433	 0.147712096403445 
2434	 0.147826867522001 
2435	 0.147846511480315 
2436	 0.147895189654551 
2437	 0.147721082530315 
2438	 0.147059361320358 
2439	 0.146442184314556 
2440	 0.146008556062354 
2441	 0.145984536559821 
2442	 0.146001235193517 
2443	 0.146051981207592 
2444	 0.145794002570457 
2445	 0.145065566055394 
2446	 0.144909407466038 
2447	 0.144554786945979 
2448	 0.143883717928152 
2449	 0.143665713694327 
2450	 0.143352079932319 
2451	 0.142808729671115 
2452	 0.142756204766885 
2453	 0.14319681183209 
2454	 0.143176315419275 
2455	 0.143168073468922 
2456	 0.143143715059921 
2457	 0.142301925607357 
2458	 0.141561060645401 
2459	 0.140604056721717 
2460	 0.13982686280551 
2461	 0.139937537006193 
2462	 0.139977331342559 
2463	 0.140510302092358 
2464	 0.141103990785279 
2465	 0.140995914975355 
2466	 0.140577327954014 
2467	 0.140307523297149 
2468	 0.14026707747499 
2469	 0.139959817524359 
2470	 0.140050274018484 
2471	 0.140236909003315 
2472	 0.139863725376673 
2473	 0.139672522216568 
2474	 0.139770449272675 
2475	 0.139594042184716 
2476	 0.139195723136271 
2477	 0.139306082073724 
2478	 0.139639665331558 
2479	 0.140137569794958 
2480	 0.140462558692659 
2481	 0.140182018672928 
2482	 0.138835427306855 
2483	 0.13893257661396 
2484	 0.139320480201517 
2485	 0.140300054041895 
2486	 0.140806555683498 
2487	 0.139941288583144 
2488	 0.14026617791432 
2489	 0.140875006966298 
2490	 0.140254084196994 
2491	 0.140422108280289 
2492	 0.140846590034644 
2493	 0.140944274051727 
2494	 0.14274543408603 
2495	 0.144259139592596 
2496	 0.144353729354365 
2497	 0.144823992266923 
2498	 0.144340462297562 
2499	 0.145099040139454 
2500	 0.145315863521245 
