Wavelength	Tablay400094.asd
350	 0.198012482610644 
351	 0.294119246523337 
352	 0.28390099539405 
353	 0.19008576507367 
354	 0.264711327466312 
355	 0.274662153283492 
356	 0.250226364714799 
357	 0.244650121707756 
358	 0.191391909584622 
359	 0.123662096989022 
360	 0.119341683602922 
361	 0.223380270997912 
362	 0.195248382276669 
363	 0.160005265682585 
364	 0.189281425611878 
365	 0.21754516164686 
366	 0.159330753510701 
367	 0.111568655648065 
368	 0.15331168471087 
369	 0.173999809261939 
370	 0.157886441909341 
371	 0.134222893950692 
372	 0.152033512575185 
373	 0.155184290749758 
374	 0.159618118620768 
375	 0.159921250790023 
376	 0.110424102616508 
377	 0.114699380905574 
378	 0.153772436876799 
379	 0.173276394683365 
380	 0.110114291121535 
381	 0.110080533154148 
382	 0.151323562858174 
383	 0.120392445347902 
384	 0.133474414014298 
385	 0.143017025305234 
386	 0.12817047725399 
387	 0.137805792062456 
388	 0.112954718904736 
389	 0.100120119481922 
390	 0.139257482470718 
391	 0.148147799212353 
392	 0.129538615632226 
393	 0.101283738030748 
394	 8.83123620546808E-02 
395	 0.101734622160964 
396	 0.106534350185034 
397	 9.52861548868841E-02 
398	 0.109820756048736 
399	 0.121099246174126 
400	 0.126291040927806 
401	 0.129243868144152 
402	 0.125328379602024 
403	 0.10993510632506 
404	 9.87619661506708E-02 
405	 0.117299763553703 
406	 0.131341584851172 
407	 0.124502807525662 
408	 0.10224721251941 
409	 0.105069156045897 
410	 0.104543012214001 
411	 0.105297759063974 
412	 0.115839582925093 
413	 0.11500594626721 
414	 0.10797282244782 
415	 0.101673748152651 
416	 0.102215746483456 
417	 0.110278289448677 
418	 0.109668558730634 
419	 9.69563823335746E-02 
420	 0.104450163101052 
421	 0.104379655411761 
422	 0.102101421534483 
423	 0.111435032490929 
424	 0.112106511943237 
425	 0.110143505878435 
426	 0.109710097137613 
427	 0.110607195327982 
428	 0.110882767178521 
429	 0.109894555323388 
430	 0.108877424050545 
431	 0.11410693062843 
432	 0.11503413758088 
433	 0.112054834252886 
434	 0.111637278757809 
435	 0.115986913574088 
436	 0.121109149337722 
437	 0.123061166467369 
438	 0.119008539805964 
439	 0.117882826526562 
440	 0.119993623391072 
441	 0.122889353662072 
442	 0.124694725052013 
443	 0.125688878655342 
444	 0.125233677202419 
445	 0.122508737858218 
446	 0.125428871118937 
447	 0.128114776032852 
448	 0.127147882345381 
449	 0.129284160383083 
450	 0.128173758064298 
451	 0.128555369863165 
452	 0.13592823646967 
453	 0.135651284401843 
454	 0.135420095235637 
455	 0.137779242043121 
456	 0.138255477583122 
457	 0.13932654845742 
458	 0.140715465907666 
459	 0.141818756307298 
460	 0.14278667513741 
461	 0.143576391663176 
462	 0.14387805559262 
463	 0.143516406255075 
464	 0.144429666859742 
465	 0.146287605631675 
466	 0.147483021710294 
467	 0.144714389520889 
468	 0.145649991907534 
469	 0.148078708983046 
470	 0.148335808502607 
471	 0.149298066936438 
472	 0.149289609898578 
473	 0.148271933584582 
474	 0.147613925922582 
475	 0.149082123215212 
476	 0.150532580242142 
477	 0.150725124266374 
478	 0.15177443597956 
479	 0.151653802958113 
480	 0.150717388823397 
481	 0.150087125019802 
482	 0.149321173716556 
483	 0.14998685147353 
484	 0.151607083952733 
485	 0.151420374158448 
486	 0.15052734185014 
487	 0.14965054086739 
488	 0.149168821762381 
489	 0.148705443210423 
490	 0.147532047464721 
491	 0.146416349796368 
492	 0.146590202840396 
493	 0.144848158457436 
494	 0.144217143415011 
495	 0.145245309202632 
496	 0.143356282596163 
497	 0.142198449697072 
498	 0.141075320055493 
499	 0.138825601958534 
500	 0.13816037731234 
501	 0.137163345817898 
502	 0.13577367752842 
503	 0.135493197646124 
504	 0.133592678568715 
505	 0.131407596773331 
506	 0.130247030269474 
507	 0.129884480670436 
508	 0.128096038141785 
509	 0.125926061401255 
510	 0.125307783656061 
511	 0.12341588119725 
512	 0.121233966642038 
513	 0.119595710678968 
514	 0.118753148691441 
515	 0.116704067792276 
516	 0.114747451631857 
517	 0.114048167321882 
518	 0.112317796189175 
519	 0.110281847935103 
520	 0.108388673088467 
521	 0.10683662737349 
522	 0.105651237147473 
523	 0.104490450978256 
524	 0.103130848218328 
525	 0.101709232360588 
526	 9.96754848961154E-02 
527	 9.76479515379065E-02 
528	 0.096391012499988 
529	 9.50236784938794E-02 
530	 9.37732426401563E-02 
531	 9.26305249482651E-02 
532	 9.12989048988058E-02 
533	 9.01900963394212E-02 
534	 8.89179366405327E-02 
535	 8.72591325088738E-02 
536	 8.58854462061416E-02 
537	 8.48491217965262E-02 
538	 8.39914657246256E-02 
539	 8.30163735903718E-02 
540	 8.16469592112724E-02 
541	 8.02854553700151E-02 
542	 7.92035202009936E-02 
543	 7.83747560424708E-02 
544	 7.72335815414918E-02 
545	 7.61253095488088E-02 
546	 7.54715861181859E-02 
547	 7.47202867135481E-02 
548	 7.39061716756659E-02 
549	 7.29865488761805E-02 
550	 7.18677115705613E-02 
551	 7.12360475415983E-02 
552	 7.06839457413583E-02 
553	 6.99087847734045E-02 
554	 6.94171959106912E-02 
555	 6.88625951952482E-02 
556	 6.82172917285407E-02 
557	 6.75945999384389E-02 
558	 6.69773699481687E-02 
559	 6.62586708458467E-02 
560	 0.065594457076548 
561	 6.55174162247952E-02 
562	 6.50411977678894E-02 
563	 0.064392968180254 
564	 6.39593612090969E-02 
565	 6.33266551371239E-02 
566	 0.063023691511784 
567	 6.28516998575295E-02 
568	 6.21724771149261E-02 
569	 6.21070457615947E-02 
570	 6.19293661684489E-02 
571	 6.12274662743646E-02 
572	 6.07786692870297E-02 
573	 0.060656961798633 
574	 6.06185687505361E-02 
575	 6.03527743829549E-02 
576	 6.01578073502752E-02 
577	 5.99848596428332E-02 
578	 5.97653501096171E-02 
579	 5.94398058615439E-02 
580	 5.93126394782185E-02 
581	 5.91387291806972E-02 
582	 5.87338893287943E-02 
583	 5.84738557865752E-02 
584	 5.84146457507309E-02 
585	 5.84332721844704E-02 
586	 0.058312377113921 
587	 5.80782200329462E-02 
588	 5.79751542198055E-02 
589	 5.80186206974782E-02 
590	 0.057808253191845 
591	 5.77052429720305E-02 
592	 5.78382888358861E-02 
593	 5.81426793231802E-02 
594	 5.80819712441857E-02 
595	 5.79710138887287E-02 
596	 5.79182295076642E-02 
597	 5.78269468432679E-02 
598	 5.76795816288068E-02 
599	 5.75860086653231E-02 
600	 5.76273964447388E-02 
601	 5.77971544795071E-02 
602	 5.77944595836772E-02 
603	 5.77725366115903E-02 
604	 5.79912801631149E-02 
605	 5.79099156956542E-02 
606	 5.79919454593105E-02 
607	 0.058307756802846 
608	 5.83512932404422E-02 
609	 5.84746265061228E-02 
610	 5.85593582844499E-02 
611	 5.84997420728819E-02 
612	 5.85707805123279E-02 
613	 0.058938388504384 
614	 5.93439695497147E-02 
615	 5.93347899612973E-02 
616	 5.94657522163366E-02 
617	 5.97291124549643E-02 
618	 0.059991584144371 
619	 6.00108295729301E-02 
620	 6.03775482064025E-02 
621	 6.07560972502219E-02 
622	 6.07271867341107E-02 
623	 6.10473446784842E-02 
624	 6.14056516143242E-02 
625	 6.16856102304156E-02 
626	 6.19981793319968E-02 
627	 6.25175919078408E-02 
628	 0.062908209025664 
629	 6.30509654982623E-02 
630	 6.36146030462716E-02 
631	 0.064104692123271 
632	 6.44055049853965E-02 
633	 6.46174997365491E-02 
634	 6.50638497246543E-02 
635	 6.57110786933169E-02 
636	 6.63525825338627E-02 
637	 0.066623539860823 
638	 6.71390285540194E-02 
639	 0.067729928022331 
640	 6.82059462057439E-02 
641	 6.89991736015235E-02 
642	 6.96008365637764E-02 
643	 7.01043903017014E-02 
644	 7.09139576238613E-02 
645	 7.15341847289977E-02 
646	 0.072228995031348 
647	 0.073108518293699 
648	 7.38929718833622E-02 
649	 7.45924264246048E-02 
650	 7.53128188518974E-02 
651	 7.61637781625014E-02 
652	 7.70982117642832E-02 
653	 7.81179892138766E-02 
654	 7.91435056407706E-02 
655	 8.00557420815042E-02 
656	 8.11193280927737E-02 
657	 8.22652993751515E-02 
658	 8.34102852750291E-02 
659	 8.45602739331426E-02 
660	 8.57489273961995E-02 
661	 8.69763830193449E-02 
662	 8.82406367223404E-02 
663	 8.95971145786757E-02 
664	 0.090992257492252 
665	 9.24026700152816E-02 
666	 9.38433723082795E-02 
667	 9.53773886627517E-02 
668	 9.69140632467438E-02 
669	 9.84288207850522E-02 
670	 0.100169182554039 
671	 0.101784966893913 
672	 0.10334714448289 
673	 0.105095998839017 
674	 0.106951569068522 
675	 0.10883681605396 
676	 0.110721918044491 
677	 0.112636077805963 
678	 0.114536894831116 
679	 0.116555633157787 
680	 0.118723208306877 
681	 0.120619038087291 
682	 0.122693968637574 
683	 0.124979069790207 
684	 0.127278332559542 
685	 0.129598004932973 
686	 0.131930198040508 
687	 0.134246077583304 
688	 0.136490782083276 
689	 0.1388388671261 
690	 0.141255645418281 
691	 0.143662973108789 
692	 0.14601891636434 
693	 0.148498377966151 
694	 0.151045014562924 
695	 0.153475758822643 
696	 0.155950524405815 
697	 0.158466530856203 
698	 0.161003924927326 
699	 0.163551830478633 
700	 0.166081308564542 
701	 0.168582837727424 
702	 0.17107041549723 
703	 0.173594954878647 
704	 0.176093169143286 
705	 0.178592326960895 
706	 0.181160868406454 
707	 0.183599356334892 
708	 0.185947663650709 
709	 0.188274681660945 
710	 0.190624032848086 
711	 0.193099914840909 
712	 0.195535372455328 
713	 0.197755378564528 
714	 0.199865801091926 
715	 0.202044218658051 
716	 0.204319749805833 
717	 0.206593971367646 
718	 0.208630578839536 
719	 0.210665417120814 
720	 0.212795054445469 
721	 0.214762931619906 
722	 0.216688868003153 
723	 0.218529352490685 
724	 0.220268480024627 
725	 0.222165889210769 
726	 0.224016663823253 
727	 0.225747771513488 
728	 0.227392128602448 
729	 0.228958259429665 
730	 0.230486721235558 
731	 0.232001006502685 
732	 0.233489191384017 
733	 0.235041727577642 
734	 0.236525208193138 
735	 0.237820934945097 
736	 0.239104462108674 
737	 0.240402173364873 
738	 0.241680074401353 
739	 0.242866885419209 
740	 0.243997281975626 
741	 0.245125047458473 
742	 0.246249871205472 
743	 0.247292846986553 
744	 0.248315721294803 
745	 0.249281827000052 
746	 0.250177182426248 
747	 0.251151274098243 
748	 0.252085288624856 
749	 0.252972923857988 
750	 0.253867770953201 
751	 0.254730906921148 
752	 0.255561154694551 
753	 0.25634836986245 
754	 0.257066973973399 
755	 0.257829890738168 
756	 0.258615574779557 
757	 0.259368260216957 
758	 0.260023159815875 
759	 0.260721683556812 
760	 0.261411343957 
761	 0.261977441756884 
762	 0.26255445669362 
763	 0.263177284504803 
764	 0.263826391583168 
765	 0.264440157347148 
766	 0.265119650266936 
767	 0.265712124347217 
768	 0.266161073268938 
769	 0.266735074325127 
770	 0.267314925137734 
771	 0.267884498594227 
772	 0.268445239291465 
773	 0.268922851397742 
774	 0.269411257122882 
775	 0.269939709497242 
776	 0.270477971744768 
777	 0.271046348044603 
778	 0.271531523489808 
779	 0.27192652342859 
780	 0.272425471389435 
781	 0.272949648782723 
782	 0.273442026118555 
783	 0.273883399635589 
784	 0.274362554793176 
785	 0.274905511723362 
786	 0.275429824360948 
787	 0.275827450205373 
788	 0.276305140761875 
789	 0.2767272248708 
790	 0.277081799143595 
791	 0.277534763789461 
792	 0.278073404928331 
793	 0.278540816835049 
794	 0.278872448471113 
795	 0.279298766117878 
796	 0.27970810588771 
797	 0.280115279410154 
798	 0.28056720713211 
799	 0.281061805636733 
800	 0.281485957068957 
801	 0.281855593124915 
802	 0.282282914102512 
803	 0.282745276164531 
804	 0.283108652341979 
805	 0.283410561948643 
806	 0.283956182725051 
807	 0.284361658865918 
808	 0.284716645499612 
809	 0.285134767528718 
810	 0.285423004501465 
811	 0.285763177579001 
812	 0.286154077819211 
813	 0.286521954835905 
814	 0.286897658546616 
815	 0.287273606823161 
816	 0.28763859221095 
817	 0.287980809673805 
818	 0.288308240963945 
819	 0.288662503262012 
820	 0.289013156156465 
821	 0.289205635784952 
822	 0.289610963027125 
823	 0.290024922438235 
824	 0.290246440662656 
825	 0.290580813616763 
826	 0.290953034364521 
827	 0.291292254743759 
828	 0.291545596464586 
829	 0.291759276068007 
830	 0.292070149450208 
831	 0.292438449938414 
832	 0.292686963189302 
833	 0.292953357383441 
834	 0.293214698760522 
835	 0.293441907265461 
836	 0.293631059140551 
837	 0.293973874160259 
838	 0.294332199610536 
839	 0.294563772406731 
840	 0.294750619144115 
841	 0.29500124744709 
842	 0.295308162228557 
843	 0.295607604346745 
844	 0.295870054611617 
845	 0.295976186522066 
846	 0.296065313051562 
847	 0.296404343139519 
848	 0.296637544177255 
849	 0.296767461131258 
850	 0.296928285121545 
851	 0.297335213603462 
852	 0.297571504370038 
853	 0.297653693789062 
854	 0.297742653605043 
855	 0.298105548633138 
856	 0.298273296837122 
857	 0.298363427962157 
858	 0.29860408489711 
859	 0.298919418496179 
860	 0.29904496523208 
861	 0.299050031522764 
862	 0.299161836146678 
863	 0.299360898564846 
864	 0.299616849111344 
865	 0.299800585520646 
866	 0.299764791062447 
867	 0.300005928413217 
868	 0.300125019555363 
869	 0.300067960427093 
870	 0.300387840361858 
871	 0.300555584167747 
872	 0.300579239502371 
873	 0.300625224289325 
874	 0.300945018244183 
875	 0.301154101103935 
876	 0.301213953233731 
877	 0.301219781798425 
878	 0.301265673591598 
879	 0.301557285571068 
880	 0.301757101985775 
881	 0.301499002546758 
882	 0.30175789760221 
883	 0.301964427148394 
884	 0.301995881398722 
885	 0.302127454560473 
886	 0.302372361185895 
887	 0.302492285004902 
888	 0.30246300801678 
889	 0.302529670683464 
890	 0.302685979450976 
891	 0.30280543497646 
892	 0.302867214728771 
893	 0.303067884887206 
894	 0.303056024821907 
895	 0.303062637665196 
896	 0.303284836359477 
897	 0.303457369599626 
898	 0.303509639017954 
899	 0.303551697071916 
900	 0.303701554213234 
901	 0.303822294373101 
902	 0.303955706809686 
903	 0.304059171144758 
904	 0.304079418296096 
905	 0.304108211943306 
906	 0.304317877076587 
907	 0.304572927010931 
908	 0.30457731907295 
909	 0.304582757120382 
910	 0.304729373041594 
911	 0.304930224463233 
912	 0.30493167548191 
913	 0.305108853648516 
914	 0.305434107411792 
915	 0.305731065810122 
916	 0.305739496614795 
917	 0.305687082087513 
918	 0.305670587164281 
919	 0.305754604829941 
920	 0.305990834750577 
921	 0.306247260593479 
922	 0.306367736152255 
923	 0.306329427238866 
924	 0.306421537666432 
925	 0.306624571802251 
926	 0.306910296321872 
927	 0.307177492198912 
928	 0.307124156771118 
929	 0.307174736006134 
930	 0.307310981909751 
931	 0.307342239241199 
932	 0.307185150742005 
933	 0.307587693814171 
934	 0.308121306214191 
935	 0.307994322941545 
936	 0.308258124369525 
937	 0.308329878331977 
938	 0.308316442727057 
939	 0.308729063031609 
940	 0.30903799178845 
941	 0.30922913912585 
942	 0.309303133689292 
943	 0.309297756304174 
944	 0.309749304806663 
945	 0.30997068895548 
946	 0.309828124443347 
947	 0.309891508838271 
948	 0.310112238637858 
949	 0.310355709308206 
950	 0.310596863224515 
951	 0.310943884763224 
952	 0.310928698454397 
953	 0.310857519308037 
954	 0.311006926446312 
955	 0.311367993576967 
956	 0.311589538471731 
957	 0.311468429086319 
958	 0.311263165620174 
959	 0.311865396367783 
960	 0.312022598363237 
961	 0.312125457165395 
962	 0.312486883751066 
963	 0.312497779908652 
964	 0.312550300927489 
965	 0.3126951599136 
966	 0.312845775224925 
967	 0.312814977068687 
968	 0.312934364981276 
969	 0.313082245966153 
970	 0.31317947332697 
971	 0.313596835272693 
972	 0.313916823585059 
973	 0.313925497684754 
974	 0.313728661454999 
975	 0.314098580619185 
976	 0.314043854246881 
977	 0.313934180197777 
978	 0.314225451060952 
979	 0.314232012663217 
980	 0.314392519589834 
981	 0.314671392478705 
982	 0.314942971361413 
983	 0.315357436238674 
984	 0.315487518877839 
985	 0.315290303336133 
986	 0.315040416082863 
987	 0.315488903858864 
988	 0.315769683656584 
989	 0.315830346883383 
990	 0.315855727635896 
991	 0.315671461998051 
992	 0.315940714009341 
993	 0.316326025432147 
994	 0.316299782759718 
995	 0.316013281670187 
996	 0.316118367286671 
997	 0.316566001036658 
998	 0.316919752432243 
999	 0.316457773572995 
1000	 0.31658071651346 
1001	 0.313506169253291 
1002	 0.313801544818354 
1003	 0.313997347897744 
1004	 0.314044612682866 
1005	 0.314048707136503 
1006	 0.314093003251452 
1007	 0.313937154623876 
1008	 0.314046844787663 
1009	 0.314496026568048 
1010	 0.314595617067849 
1011	 0.314509307158163 
1012	 0.314581379958407 
1013	 0.314524085946882 
1014	 0.31460225457001 
1015	 0.314998326344018 
1016	 0.315092645831988 
1017	 0.315034170979109 
1018	 0.315263596190549 
1019	 0.315293053756723 
1020	 0.315368594517004 
1021	 0.315458544586903 
1022	 0.315612999079345 
1023	 0.315622580280643 
1024	 0.315516469189926 
1025	 0.315574821882299 
1026	 0.315675815674366 
1027	 0.315747653282497 
1028	 0.315920146662303 
1029	 0.315977945910027 
1030	 0.316044252162536 
1031	 0.316037540877669 
1032	 0.315925280461012 
1033	 0.316104486969201 
1034	 0.316422374472297 
1035	 0.316665196221991 
1036	 0.316839329176369 
1037	 0.317105533564253 
1038	 0.317213646151233 
1039	 0.317035532085042 
1040	 0.31712465247669 
1041	 0.31742261877108 
1042	 0.317536938849187 
1043	 0.317602120989761 
1044	 0.317731969007173 
1045	 0.317843878868676 
1046	 0.317932285108473 
1047	 0.318084698873692 
1048	 0.318229498536789 
1049	 0.318261036038157 
1050	 0.318206614450458 
1051	 0.318269243658188 
1052	 0.318388630769722 
1053	 0.318489791327749 
1054	 0.318666896807496 
1055	 0.318759591953535 
1056	 0.318803330427098 
1057	 0.318829606722764 
1058	 0.318854059726574 
1059	 0.318735348493 
1060	 0.318613328018386 
1061	 0.318599382104293 
1062	 0.318513841957642 
1063	 0.318623168460712 
1064	 0.318999476839846 
1065	 0.319165539013714 
1066	 0.31920905023934 
1067	 0.319377779446561 
1068	 0.319340274156147 
1069	 0.319175783837987 
1070	 0.319216164694634 
1071	 0.31944562036737 
1072	 0.319529228058119 
1073	 0.319532270711458 
1074	 0.31972684990329 
1075	 0.31984084444298 
1076	 0.319873603444905 
1077	 0.320017699555117 
1078	 0.32018290133402 
1079	 0.320161769876551 
1080	 0.320072695385061 
1081	 0.319964302349121 
1082	 0.319851347748403 
1083	 0.320006922125761 
1084	 0.320222879344249 
1085	 0.320351316704411 
1086	 0.320451020446445 
1087	 0.320582687614717 
1088	 0.320455756467202 
1089	 0.32028677286862 
1090	 0.32031681852473 
1091	 0.320269758971239 
1092	 0.320280247751887 
1093	 0.320498091272411 
1094	 0.320619045579099 
1095	 0.320699022183232 
1096	 0.320870443003153 
1097	 0.321037230366627 
1098	 0.321261423287769 
1099	 0.321460388044245 
1100	 0.321527056683358 
1101	 0.321568516391734 
1102	 0.321608390551565 
1103	 0.321661895186244 
1104	 0.321741711407174 
1105	 0.32185109527028 
1106	 0.321823395110769 
1107	 0.321852871590845 
1108	 0.321968038229095 
1109	 0.322054912469229 
1110	 0.322313560993294 
1111	 0.322607190218866 
1112	 0.322757533084859 
1113	 0.322939060640363 
1114	 0.32310515358448 
1115	 0.323203046270346 
1116	 0.323366698192982 
1117	 0.323639055832328 
1118	 0.323841665776673 
1119	 0.324094596042147 
1120	 0.324232620822075 
1121	 0.324269119923609 
1122	 0.324342564552132 
1123	 0.32447132115012 
1124	 0.324656665348376 
1125	 0.324943180508043 
1126	 0.325116689640658 
1127	 0.325236925183661 
1128	 0.32543044184237 
1129	 0.325529760835735 
1130	 0.32568063210497 
1131	 0.325886784385593 
1132	 0.326055805732144 
1133	 0.326216206725188 
1134	 0.326337270800581 
1135	 0.32646911152028 
1136	 0.326543536200681 
1137	 0.326677303994256 
1138	 0.326895350340511 
1139	 0.327019656146067 
1140	 0.32710275914515 
1141	 0.327183776359359 
1142	 0.327304160404397 
1143	 0.327440773398404 
1144	 0.327621345737678 
1145	 0.327790659996418 
1146	 0.327814675807575 
1147	 0.327865243469067 
1148	 0.327973963338968 
1149	 0.328021214407749 
1150	 0.328117794333558 
1151	 0.328216845926855 
1152	 0.328303406075112 
1153	 0.328392067380223 
1154	 0.328456489429609 
1155	 0.328481947738685 
1156	 0.328530404019264 
1157	 0.328582680378975 
1158	 0.328627982009009 
1159	 0.328672655230103 
1160	 0.328746861189189 
1161	 0.328825848347369 
1162	 0.328816599759659 
1163	 0.328838930147325 
1164	 0.328960017934152 
1165	 0.329045542286619 
1166	 0.329103152566494 
1167	 0.329210436677024 
1168	 0.329289042345261 
1169	 0.329285179226115 
1170	 0.329197009098572 
1171	 0.329187315991327 
1172	 0.329081389518865 
1173	 0.329090222642574 
1174	 0.329231371803482 
1175	 0.329347497853283 
1176	 0.329555861304231 
1177	 0.329649501978535 
1178	 0.329751340861376 
1179	 0.329690402202938 
1180	 0.329592918466439 
1181	 0.329587008563053 
1182	 0.329578582407019 
1183	 0.329657258564513 
1184	 0.329804194776732 
1185	 0.329836864496779 
1186	 0.329878803979908 
1187	 0.329894376864446 
1188	 0.329969684334171 
1189	 0.330069549672698 
1190	 0.330143737559495 
1191	 0.330248139100697 
1192	 0.330338073637624 
1193	 0.330352690474968 
1194	 0.330417005287644 
1195	 0.330548709295752 
1196	 0.330662068985345 
1197	 0.330757591652219 
1198	 0.330879241279504 
1199	 0.331021834882749 
1200	 0.331181926937001 
1201	 0.331375938543357 
1202	 0.331477866994396 
1203	 0.331585473577649 
1204	 0.331761312833702 
1205	 0.331977042840395 
1206	 0.332252205319656 
1207	 0.332522457606151 
1208	 0.332830269698503 
1209	 0.333120042239577 
1210	 0.333374568316701 
1211	 0.333714962385419 
1212	 0.334080657971767 
1213	 0.334509323019809 
1214	 0.335002867916766 
1215	 0.335512194926849 
1216	 0.336152417776687 
1217	 0.336681589443074 
1218	 0.337163909838559 
1219	 0.33762228679616 
1220	 0.338181525877196 
1221	 0.338757582015684 
1222	 0.339328314335771 
1223	 0.340015857173219 
1224	 0.340639108153012 
1225	 0.341192127691508 
1226	 0.341759945679972 
1227	 0.342393843288609 
1228	 0.342951718140891 
1229	 0.343469022403284 
1230	 0.343930991049045 
1231	 0.344310554154453 
1232	 0.344762123422938 
1233	 0.345178670628202 
1234	 0.345623813800311 
1235	 0.346136278552719 
1236	 0.346626449193949 
1237	 0.347132036343126 
1238	 0.347578338166093 
1239	 0.347950941860164 
1240	 0.34844161515785 
1241	 0.348816817835492 
1242	 0.349167319133978 
1243	 0.349575038393495 
1244	 0.35002180799733 
1245	 0.350425064288468 
1246	 0.350839298630808 
1247	 0.351229543901601 
1248	 0.351607404248633 
1249	 0.351967498303481 
1250	 0.352304042474925 
1251	 0.352643285902284 
1252	 0.352937803781261 
1253	 0.353288501268101 
1254	 0.353704556709574 
1255	 0.354055309473946 
1256	 0.354366516425435 
1257	 0.354729693910579 
1258	 0.355102162115381 
1259	 0.355442966747051 
1260	 0.355813094330206 
1261	 0.356180696894856 
1262	 0.356492411403585 
1263	 0.356818637559202 
1264	 0.357181118838508 
1265	 0.357603054242083 
1266	 0.357967040119743 
1267	 0.358328676130063 
1268	 0.358659567742547 
1269	 0.358968231454099 
1270	 0.359260479288505 
1271	 0.359506841260573 
1272	 0.359804370386238 
1273	 0.360125973337536 
1274	 0.360406993484032 
1275	 0.360681958889944 
1276	 0.36096974353122 
1277	 0.36120924938469 
1278	 0.361502827467513 
1279	 0.361879736861169 
1280	 0.362198444574418 
1281	 0.362507829764453 
1282	 0.362801308656154 
1283	 0.363033429271325 
1284	 0.363307227284139 
1285	 0.363595000649744 
1286	 0.363887638503137 
1287	 0.36420460876055 
1288	 0.364584262715992 
1289	 0.36485528452288 
1290	 0.365087789607053 
1291	 0.365336362271683 
1292	 0.365503536227982 
1293	 0.365763578064988 
1294	 0.366127122319647 
1295	 0.3663751592656 
1296	 0.366599151372369 
1297	 0.366810492447395 
1298	 0.366920741181208 
1299	 0.367118723571885 
1300	 0.367366817220762 
1301	 0.367601445702334 
1302	 0.367881002588101 
1303	 0.368117935709479 
1304	 0.368320889873021 
1305	 0.368538256566093 
1306	 0.368727552073665 
1307	 0.368944697021123 
1308	 0.36914099445211 
1309	 0.369434277245338 
1310	 0.369668418071755 
1311	 0.369925128208194 
1312	 0.370117515874583 
1313	 0.37026739799117 
1314	 0.37044241095956 
1315	 0.370566979385673 
1316	 0.370771559723431 
1317	 0.371037550889087 
1318	 0.371260570221247 
1319	 0.37149184704396 
1320	 0.371728080845675 
1321	 0.371930507857091 
1322	 0.372178340382329 
1323	 0.372480708207283 
1324	 0.372748863994667 
1325	 0.373029327302715 
1326	 0.37328015935304 
1327	 0.373464979554255 
1328	 0.373719321378701 
1329	 0.374015637112476 
1330	 0.374282636784699 
1331	 0.374613056506609 
1332	 0.374872439652778 
1333	 0.375017089235043 
1334	 0.375235235281223 
1335	 0.375467727788853 
1336	 0.375712197211351 
1337	 0.37591800356604 
1338	 0.376128927680392 
1339	 0.376369759135484 
1340	 0.376590576824587 
1341	 0.376811418997585 
1342	 0.377127142339691 
1343	 0.377292856999541 
1344	 0.377313717280719 
1345	 0.377461059349959 
1346	 0.37761053657116 
1347	 0.377764087081282 
1348	 0.378002971245964 
1349	 0.378164300832969 
1350	 0.37827705038641 
1351	 0.378382865313581 
1352	 0.378460416618404 
1353	 0.378550024204099 
1354	 0.378621570516496 
1355	 0.378701499328146 
1356	 0.378780776644475 
1357	 0.378877135545394 
1358	 0.379000065024616 
1359	 0.379091684818677 
1360	 0.379169133776073 
1361	 0.379271409627091 
1362	 0.379360957184436 
1363	 0.379407837134123 
1364	 0.379432067058767 
1365	 0.379448659415272 
1366	 0.379450154851276 
1367	 0.379411748545536 
1368	 0.379371110685378 
1369	 0.37932302631981 
1370	 0.379285864668196 
1371	 0.379247388818096 
1372	 0.379177866753836 
1373	 0.379118104257801 
1374	 0.379025790923576 
1375	 0.378890804230902 
1376	 0.378744329017213 
1377	 0.378582343172094 
1378	 0.378425033398066 
1379	 0.378223723595717 
1380	 0.378060915685957 
1381	 0.377958685782465 
1382	 0.377792367492515 
1383	 0.377607200439785 
1384	 0.377408815384897 
1385	 0.377172556185672 
1386	 0.376932028874572 
1387	 0.376699826746569 
1388	 0.37643967719094 
1389	 0.37606993890119 
1390	 0.375822624210029 
1391	 0.375604651167944 
1392	 0.375447826474129 
1393	 0.375383390802189 
1394	 0.375308372033807 
1395	 0.375250324195096 
1396	 0.375220450710075 
1397	 0.375119159759823 
1398	 0.37505239200587 
1399	 0.374860144260683 
1400	 0.374606110916999 
1401	 0.374250743189896 
1402	 0.373781933975988 
1403	 0.373334357933085 
1404	 0.372812801139158 
1405	 0.372284075451671 
1406	 0.371769272709549 
1407	 0.371200411239852 
1408	 0.370571047907634 
1409	 0.369921530598004 
1410	 0.369238089702095 
1411	 0.368551427530141 
1412	 0.367813745317217 
1413	 0.367118371133061 
1414	 0.366414929265489 
1415	 0.365759425746148 
1416	 0.365128533488765 
1417	 0.364510774746755 
1418	 0.363970791204872 
1419	 0.36337387866312 
1420	 0.362709059312958 
1421	 0.362127467249868 
1422	 0.36155055420512 
1423	 0.361004593478851 
1424	 0.360554649342536 
1425	 0.360069953566433 
1426	 0.359550768117918 
1427	 0.359066713956398 
1428	 0.35863956126429 
1429	 0.358244406962981 
1430	 0.357839593404149 
1431	 0.357510547844041 
1432	 0.357073209283714 
1433	 0.35659432489027 
1434	 0.356069601166039 
1435	 0.355495526374228 
1436	 0.354900003571693 
1437	 0.354244468097142 
1438	 0.353620217561917 
1439	 0.352977574302309 
1440	 0.352352180619129 
1441	 0.351697233335431 
1442	 0.351132221439805 
1443	 0.350525748343576 
1444	 0.350126254573034 
1445	 0.349804406297748 
1446	 0.349666333643694 
1447	 0.349690176012598 
1448	 0.349845899805343 
1449	 0.350129484446451 
1450	 0.350587468133434 
1451	 0.351236376735866 
1452	 0.351965468421352 
1453	 0.352946844280343 
1454	 0.353831568290988 
1455	 0.354780200916962 
1456	 0.355686162493034 
1457	 0.356562635310423 
1458	 0.357433928902939 
1459	 0.358308645179378 
1460	 0.35915378935668 
1461	 0.360010298630351 
1462	 0.360783733093174 
1463	 0.361482135781982 
1464	 0.362185644178349 
1465	 0.362821511214865 
1466	 0.363477883297109 
1467	 0.364123094481406 
1468	 0.364760810932122 
1469	 0.365381679760584 
1470	 0.365925973123854 
1471	 0.366490530428703 
1472	 0.367060039601565 
1473	 0.367565374296536 
1474	 0.368024379619976 
1475	 0.368513295091225 
1476	 0.368993152942769 
1477	 0.369418442211309 
1478	 0.369835815305018 
1479	 0.370232470594608 
1480	 0.370582837320259 
1481	 0.370900943271801 
1482	 0.371233689430943 
1483	 0.371494153703365 
1484	 0.371643787895741 
1485	 0.371858775880784 
1486	 0.372090107713318 
1487	 0.372281848020293 
1488	 0.372448801005676 
1489	 0.372650202732856 
1490	 0.372765887192179 
1491	 0.373055906391038 
1492	 0.37343225190331 
1493	 0.373869287741712 
1494	 0.374437059632529 
1495	 0.374992488705732 
1496	 0.375582236187703 
1497	 0.376208601500283 
1498	 0.376881139776892 
1499	 0.377563800000769 
1500	 0.378298209307058 
1501	 0.379013079880726 
1502	 0.379761660730549 
1503	 0.380447158873804 
1504	 0.381094483198385 
1505	 0.381743807928428 
1506	 0.382382536694838 
1507	 0.382975180264985 
1508	 0.383564359902776 
1509	 0.384105578268893 
1510	 0.384574394601411 
1511	 0.385032873829106 
1512	 0.385466979001431 
1513	 0.38588560131836 
1514	 0.386279817085377 
1515	 0.386654655487992 
1516	 0.387046694552441 
1517	 0.387365336909297 
1518	 0.387583031845703 
1519	 0.387848983536337 
1520	 0.388124384328994 
1521	 0.388344102667279 
1522	 0.388584691107761 
1523	 0.388817952005568 
1524	 0.388989596408497 
1525	 0.38907001670215 
1526	 0.389237876021237 
1527	 0.389432258900028 
1528	 0.389569953981942 
1529	 0.38971649231004 
1530	 0.389828989700101 
1531	 0.389886523844637 
1532	 0.389964440590302 
1533	 0.390024584144008 
1534	 0.390152135383245 
1535	 0.390292568035977 
1536	 0.39044347083484 
1537	 0.3906432013328 
1538	 0.390845435366889 
1539	 0.391009496607948 
1540	 0.391277745753574 
1541	 0.391616444963493 
1542	 0.391973622284403 
1543	 0.392393885584907 
1544	 0.392794282219938 
1545	 0.393208023433462 
1546	 0.393644116537504 
1547	 0.394071894537594 
1548	 0.394563245230979 
1549	 0.395099343668303 
1550	 0.395656114509297 
1551	 0.396297873153964 
1552	 0.396843326953058 
1553	 0.397352148581555 
1554	 0.397894795624785 
1555	 0.398399939272989 
1556	 0.398932456840803 
1557	 0.399522139317479 
1558	 0.400068792775535 
1559	 0.400587242534503 
1560	 0.4011070335093 
1561	 0.401653200240101 
1562	 0.402130085104666 
1563	 0.402538819757755 
1564	 0.402994807043052 
1565	 0.403446387737376 
1566	 0.40387460201993 
1567	 0.404312644782944 
1568	 0.404749742308014 
1569	 0.405140958264397 
1570	 0.405567004545156 
1571	 0.406027673402227 
1572	 0.406485125582418 
1573	 0.406952600970086 
1574	 0.407401903633836 
1575	 0.407886065633204 
1576	 0.40830253612671 
1577	 0.408660869393416 
1578	 0.409031738374255 
1579	 0.409340206260588 
1580	 0.40971251790859 
1581	 0.410143063999074 
1582	 0.410523779119392 
1583	 0.410911590623864 
1584	 0.41128872732207 
1585	 0.41162455560587 
1586	 0.41197649909237 
1587	 0.412350288819811 
1588	 0.412701804250238 
1589	 0.413007447111415 
1590	 0.413369487733214 
1591	 0.413800235596996 
1592	 0.414150497907729 
1593	 0.41445167035611 
1594	 0.414815078296069 
1595	 0.415155694613001 
1596	 0.41550488143078 
1597	 0.41594436161807 
1598	 0.416326546631735 
1599	 0.416627416714705 
1600	 0.41698310284708 
1601	 0.417359151038676 
1602	 0.41773915098686 
1603	 0.418167811234815 
1604	 0.418546514581753 
1605	 0.41893037704314 
1606	 0.419256628355623 
1607	 0.419489210439677 
1608	 0.419780052153533 
1609	 0.420047604829316 
1610	 0.420355614742571 
1611	 0.420720110101489 
1612	 0.421076086791573 
1613	 0.421464374299269 
1614	 0.421814227505601 
1615	 0.422192509859794 
1616	 0.422489617724297 
1617	 0.422674897930032 
1618	 0.422930320052571 
1619	 0.423203273817418 
1620	 0.423429093253165 
1621	 0.423677038554403 
1622	 0.423889437943779 
1623	 0.424012310037858 
1624	 0.424177838749599 
1625	 0.424391499909206 
1626	 0.424559149319119 
1627	 0.424672728463434 
1628	 0.424837064082969 
1629	 0.42503400417212 
1630	 0.425184049014919 
1631	 0.425325311321931 
1632	 0.425490087456368 
1633	 0.42562678864343 
1634	 0.425767242544985 
1635	 0.4259495456929 
1636	 0.426120173532571 
1637	 0.42624900299097 
1638	 0.426405729856378 
1639	 0.426604929118709 
1640	 0.426777568693675 
1641	 0.42695946663305 
1642	 0.427106352622363 
1643	 0.427229584989826 
1644	 0.427333583826472 
1645	 0.427397588380337 
1646	 0.427475191008354 
1647	 0.427531773258879 
1648	 0.427613103851245 
1649	 0.427733368791089 
1650	 0.427807898287849 
1651	 0.427925349317959 
1652	 0.427929921703143 
1653	 0.427828514040496 
1654	 0.427737460029577 
1655	 0.42756701620576 
1656	 0.427432784191679 
1657	 0.427356143158803 
1658	 0.427195956939861 
1659	 0.426989700409484 
1660	 0.426777682578701 
1661	 0.426513368467851 
1662	 0.426245919632022 
1663	 0.426006803745304 
1664	 0.425689444020197 
1665	 0.425355624860638 
1666	 0.424925889937728 
1667	 0.424420709770009 
1668	 0.423858198946681 
1669	 0.423272931129928 
1670	 0.422511810586405 
1671	 0.421549688635037 
1672	 0.420670198940483 
1673	 0.419742541979156 
1674	 0.418727745235259 
1675	 0.417736671510021 
1676	 0.416706936059096 
1677	 0.415546413123233 
1678	 0.414383109366312 
1679	 0.413284484744324 
1680	 0.412026919644132 
1681	 0.410628115848579 
1682	 0.4092093455496 
1683	 0.4077443198023 
1684	 0.406221180657623 
1685	 0.404673463437242 
1686	 0.403023861649414 
1687	 0.401203858648658 
1688	 0.399470060230534 
1689	 0.397729947596216 
1690	 0.395907183372353 
1691	 0.394141139207855 
1692	 0.392274196932224 
1693	 0.390294523486453 
1694	 0.388273155888949 
1695	 0.386168730945536 
1696	 0.384072829843973 
1697	 0.381894525156387 
1698	 0.379755906455199 
1699	 0.377708832449102 
1700	 0.375552103575181 
1701	 0.37329233531049 
1702	 0.371160484318406 
1703	 0.368944095143627 
1704	 0.366906663435498 
1705	 0.365007609613184 
1706	 0.36308045653595 
1707	 0.361411856602117 
1708	 0.359860817352971 
1709	 0.358369168185177 
1710	 0.356987312098836 
1711	 0.35561191705154 
1712	 0.354392562372274 
1713	 0.353271592815181 
1714	 0.352236362895919 
1715	 0.351368729559604 
1716	 0.350387272403664 
1717	 0.349297303400569 
1718	 0.348262669259691 
1719	 0.3471969022205 
1720	 0.346270686850217 
1721	 0.345528977784677 
1722	 0.344744300963729 
1723	 0.344099144290969 
1724	 0.343486467704198 
1725	 0.342817282950717 
1726	 0.342366922839981 
1727	 0.342076903160206 
1728	 0.341938397031797 
1729	 0.34205836888521 
1730	 0.342347327724367 
1731	 0.342735134548696 
1732	 0.343377725407454 
1733	 0.344140918048882 
1734	 0.345038515480381 
1735	 0.346077613075239 
1736	 0.346952750447178 
1737	 0.347794638481546 
1738	 0.348568782003931 
1739	 0.349174325737264 
1740	 0.349740811692313 
1741	 0.350108929036511 
1742	 0.35023535771719 
1743	 0.350352734275836 
1744	 0.350325747137074 
1745	 0.350297905268776 
1746	 0.350207684712302 
1747	 0.350118004864557 
1748	 0.349992303058876 
1749	 0.349910596268477 
1750	 0.349787152421526 
1751	 0.349769224524531 
1752	 0.349760588584397 
1753	 0.349912509366217 
1754	 0.350200465788995 
1755	 0.350547020483673 
1756	 0.350956765747283 
1757	 0.351546185429736 
1758	 0.352224382332975 
1759	 0.352905158204734 
1760	 0.353745743656979 
1761	 0.354573481006365 
1762	 0.355407434641483 
1763	 0.356543147497374 
1764	 0.357685459437602 
1765	 0.358864374798332 
1766	 0.360278859861216 
1767	 0.361576656526243 
1768	 0.363023407571824 
1769	 0.364641115728112 
1770	 0.366037041403741 
1771	 0.36746143043657 
1772	 0.368828957441611 
1773	 0.370046493970484 
1774	 0.371368950010308 
1775	 0.372697250832389 
1776	 0.373930438910214 
1777	 0.375010469074975 
1778	 0.375919998272479 
1779	 0.376734095455694 
1780	 0.377472829309959 
1781	 0.378144726693525 
1782	 0.378829444375713 
1783	 0.379547510505364 
1784	 0.380302163313437 
1785	 0.381162098360433 
1786	 0.381837452094733 
1787	 0.382368732205384 
1788	 0.382909496939324 
1789	 0.383340702954216 
1790	 0.383877191988345 
1791	 0.38448323531623 
1792	 0.385009374830508 
1793	 0.385556473322531 
1794	 0.386047871063209 
1795	 0.386415485543525 
1796	 0.386854630082614 
1797	 0.387329598404689 
1798	 0.387719360092926 
1799	 0.38816109778462 
1800	 0.388575135600589 
1801	 0.39064959951413 
1802	 0.390954680051925 
1803	 0.391331870299571 
1804	 0.391719500079414 
1805	 0.392140812687182 
1806	 0.392530638643733 
1807	 0.392984873831488 
1808	 0.393349136685122 
1809	 0.393647446202842 
1810	 0.393958103820763 
1811	 0.394218934256112 
1812	 0.394515118820429 
1813	 0.394829540032639 
1814	 0.395136179881674 
1815	 0.395408320673491 
1816	 0.395767059758345 
1817	 0.39611209372768 
1818	 0.39646127593637 
1819	 0.396796097026048 
1820	 0.397137832056915 
1821	 0.397498313386517 
1822	 0.397799245317878 
1823	 0.39822379053141 
1824	 0.398719404183388 
1825	 0.399160151031733 
1826	 0.39955062451318 
1827	 0.399898110309118 
1828	 0.400275684305536 
1829	 0.400602837118018 
1830	 0.400977259652817 
1831	 0.401395897868847 
1832	 0.401843968280813 
1833	 0.402193282289148 
1834	 0.402487489255536 
1835	 0.402834513148172 
1836	 0.40313110370479 
1837	 0.40340712289209 
1838	 0.403704098437246 
1839	 0.403985106850729 
1840	 0.404172792516914 
1841	 0.404439544928903 
1842	 0.404803308754869 
1843	 0.405040106658698 
1844	 0.405276685099405 
1845	 0.405504721736105 
1846	 0.405647907721772 
1847	 0.405831232871756 
1848	 0.405983166278662 
1849	 0.406141502213137 
1850	 0.406242175311047 
1851	 0.406328664150099 
1852	 0.406339192539217 
1853	 0.406319535548471 
1854	 0.406288046925834 
1855	 0.40626797736392 
1856	 0.406272656153152 
1857	 0.406157763041285 
1858	 0.405919640728718 
1859	 0.40560445391742 
1860	 0.405078810120495 
1861	 0.404636742026517 
1862	 0.404163361145897 
1863	 0.403736271386493 
1864	 0.40322563040467 
1865	 0.402741779583264 
1866	 0.402169766004046 
1867	 0.401399293852205 
1868	 0.4006743989777 
1869	 0.399909477465167 
1870	 0.399062920974327 
1871	 0.398214487179393 
1872	 0.39724935355194 
1873	 0.39620884903866 
1874	 0.395046196983059 
1875	 0.39382648921221 
1876	 0.392480616291091 
1877	 0.391138642823754 
1878	 0.389712263332315 
1879	 0.38816689256796 
1880	 0.386677515035848 
1881	 0.385082097644455 
1882	 0.383407213361396 
1883	 0.381663970107725 
1884	 0.379848023221527 
1885	 0.377797135420419 
1886	 0.37567759624514 
1887	 0.373469326019111 
1888	 0.371174699070493 
1889	 0.368934936933909 
1890	 0.366536447608538 
1891	 0.364095176131704 
1892	 0.36164892301695 
1893	 0.359109287740336 
1894	 0.356439669172038 
1895	 0.353860795546627 
1896	 0.351234483406758 
1897	 0.348550244592552 
1898	 0.346032711257863 
1899	 0.343451924391949 
1900	 0.34096042599081 
1901	 0.338607661268062 
1902	 0.336154262605232 
1903	 0.333849280219031 
1904	 0.331576750725694 
1905	 0.329328927273508 
1906	 0.327092221671771 
1907	 0.325122000013415 
1908	 0.323207758682112 
1909	 0.321426039677824 
1910	 0.319794364865344 
1911	 0.318067604971871 
1912	 0.316453493396121 
1913	 0.314892491602751 
1914	 0.313319469576768 
1915	 0.311871006310332 
1916	 0.310562087635307 
1917	 0.309229966903114 
1918	 0.307911477793193 
1919	 0.30663236184747 
1920	 0.30526651269687 
1921	 0.303951539353046 
1922	 0.302668467980492 
1923	 0.301420314852759 
1924	 0.300320185820024 
1925	 0.299221559955629 
1926	 0.298121203715559 
1927	 0.29706912197266 
1928	 0.295999645784292 
1929	 0.294897948547088 
1930	 0.293820598909178 
1931	 0.292818246078887 
1932	 0.291929180790619 
1933	 0.29115775283347 
1934	 0.290441329430596 
1935	 0.289780959959381 
1936	 0.289197931751703 
1937	 0.288735972781246 
1938	 0.288365306620658 
1939	 0.288103718364774 
1940	 0.287966725483287 
1941	 0.287904702241296 
1942	 0.287931564113894 
1943	 0.288020860120577 
1944	 0.288193317512009 
1945	 0.288470772493855 
1946	 0.288809563937767 
1947	 0.289145339129648 
1948	 0.289650080444901 
1949	 0.290312608531576 
1950	 0.291042984051461 
1951	 0.291931083118123 
1952	 0.292883418624473 
1953	 0.293928662298192 
1954	 0.29497307840168 
1955	 0.296222475264802 
1956	 0.297436612910135 
1957	 0.298676482690286 
1958	 0.299995659270916 
1959	 0.30118431096577 
1960	 0.302372852855127 
1961	 0.303460705132389 
1962	 0.304480454636971 
1963	 0.305422724680535 
1964	 0.306287076530056 
1965	 0.307059548515983 
1966	 0.307748188719688 
1967	 0.308419119269792 
1968	 0.308925344543118 
1969	 0.309431398623403 
1970	 0.309955732711237 
1971	 0.310442486397812 
1972	 0.310994078924542 
1973	 0.311594406106492 
1974	 0.312206544840344 
1975	 0.312853029574426 
1976	 0.313508766037534 
1977	 0.314171878347483 
1978	 0.314860353451368 
1979	 0.315566862988319 
1980	 0.316282463500323 
1981	 0.317038293594781 
1982	 0.31781814098614 
1983	 0.318678243553829 
1984	 0.319564893335939 
1985	 0.320374649803471 
1986	 0.321303572639036 
1987	 0.322250374567044 
1988	 0.323137608600309 
1989	 0.324161856385358 
1990	 0.325252706749814 
1991	 0.326457827607361 
1992	 0.327711726504651 
1993	 0.329191461901405 
1994	 0.330690322530079 
1995	 0.332336305055367 
1996	 0.334024038148721 
1997	 0.33564559371706 
1998	 0.337278322940929 
1999	 0.338944751654243 
2000	 0.340540305396148 
2001	 0.342146716225215 
2002	 0.343657624970531 
2003	 0.345117230241487 
2004	 0.346547196324568 
2005	 0.347905477999896 
2006	 0.349208999351294 
2007	 0.350551472578575 
2008	 0.351700348104174 
2009	 0.352719871006648 
2010	 0.353709808236751 
2011	 0.354538583607987 
2012	 0.355365526492175 
2013	 0.356136455222139 
2014	 0.356851790664474 
2015	 0.357531540773806 
2016	 0.35816672664001 
2017	 0.358755025888717 
2018	 0.359312520746984 
2019	 0.359802865850566 
2020	 0.360260823805555 
2021	 0.36064442725525 
2022	 0.360846226161268 
2023	 0.36104006856453 
2024	 0.36112929245011 
2025	 0.361145484097703 
2026	 0.361232376216048 
2027	 0.361358767960512 
2028	 0.361416749141592 
2029	 0.361491205205139 
2030	 0.361489564266485 
2031	 0.361406446158934 
2032	 0.36133983424822 
2033	 0.361232477260317 
2034	 0.361132921991016 
2035	 0.361000779236526 
2036	 0.3609168934418 
2037	 0.360865272114711 
2038	 0.3607488520848 
2039	 0.360637228468323 
2040	 0.360509218954065 
2041	 0.360416298253908 
2042	 0.360320006055153 
2043	 0.360246997787192 
2044	 0.360265202931639 
2045	 0.360175435829101 
2046	 0.359972478817689 
2047	 0.359855277977489 
2048	 0.359737212416028 
2049	 0.359630280425322 
2050	 0.359539406235319 
2051	 0.359546010701311 
2052	 0.359517310927148 
2053	 0.359411835498466 
2054	 0.359336630253605 
2055	 0.359271451809165 
2056	 0.359213993122232 
2057	 0.359152113519169 
2058	 0.359085091781028 
2059	 0.359077406905194 
2060	 0.358971534948863 
2061	 0.358754915616979 
2062	 0.358616221983662 
2063	 0.358460107867819 
2064	 0.358323555586265 
2065	 0.358190803162096 
2066	 0.358171877051422 
2067	 0.358108784666719 
2068	 0.357981678957121 
2069	 0.357880312700911 
2070	 0.357771806482053 
2071	 0.357689071698955 
2072	 0.357601546558805 
2073	 0.357548992605714 
2074	 0.357555404622821 
2075	 0.357510462464688 
2076	 0.35745016413389 
2077	 0.357404938412649 
2078	 0.357380212916591 
2079	 0.357296543154871 
2080	 0.357183875417468 
2081	 0.357069559826312 
2082	 0.35686885657102 
2083	 0.356733461076158 
2084	 0.356670038407382 
2085	 0.356646901170612 
2086	 0.35650423245794 
2087	 0.356348792508262 
2088	 0.356133347969545 
2089	 0.355760215465484 
2090	 0.355513028070495 
2091	 0.355358824833145 
2092	 0.355093129598944 
2093	 0.354806618800899 
2094	 0.354514105218804 
2095	 0.354082105577998 
2096	 0.3537677936566 
2097	 0.353585906070036 
2098	 0.353300427837828 
2099	 0.352966259862913 
2100	 0.35278843651984 
2101	 0.352481464987949 
2102	 0.352110526555148 
2103	 0.351723888750722 
2104	 0.351294139434034 
2105	 0.350880149861689 
2106	 0.350421925072362 
2107	 0.350007317627256 
2108	 0.349640264812047 
2109	 0.349237323617202 
2110	 0.348831296523066 
2111	 0.348409343910178 
2112	 0.347969202650542 
2113	 0.347524886332342 
2114	 0.347091720282796 
2115	 0.346605294624878 
2116	 0.346102997721048 
2117	 0.345554971194436 
2118	 0.345006834668734 
2119	 0.344397289345473 
2120	 0.343874927921622 
2121	 0.343382778458319 
2122	 0.342884415408607 
2123	 0.342418939283539 
2124	 0.341925286261471 
2125	 0.341381240356403 
2126	 0.340935052181583 
2127	 0.340572736458249 
2128	 0.340151931239836 
2129	 0.339739300848955 
2130	 0.339339627862517 
2131	 0.338862629949249 
2132	 0.33846851660396 
2133	 0.338151905072235 
2134	 0.337865015623611 
2135	 0.337512498279902 
2136	 0.337235281958918 
2137	 0.336968737561834 
2138	 0.336717458730391 
2139	 0.336451639754854 
2140	 0.336209724708239 
2141	 0.335975887956223 
2142	 0.335690437314919 
2143	 0.335514851848666 
2144	 0.335503148636972 
2145	 0.335317993658463 
2146	 0.335019263034471 
2147	 0.334848907576048 
2148	 0.334659008190483 
2149	 0.334485034949428 
2150	 0.33446598799926 
2151	 0.334369945398825 
2152	 0.334185227505634 
2153	 0.334006801186968 
2154	 0.333904286348524 
2155	 0.333752338681275 
2156	 0.333674419811877 
2157	 0.333646020715286 
2158	 0.333570558238071 
2159	 0.333517101436231 
2160	 0.333442283087016 
2161	 0.333352995265744 
2162	 0.333221950370441 
2163	 0.333105055614209 
2164	 0.332921474123789 
2165	 0.332583123488619 
2166	 0.33239911858966 
2167	 0.332292342447271 
2168	 0.332133010145503 
2169	 0.332068492253233 
2170	 0.331916107086217 
2171	 0.33160672743099 
2172	 0.331408789339971 
2173	 0.33129487407064 
2174	 0.331075033820897 
2175	 0.330971703773172 
2176	 0.330918780216409 
2177	 0.330823455148654 
2178	 0.330740492187097 
2179	 0.330629029438635 
2180	 0.330466115343228 
2181	 0.330376679540845 
2182	 0.330296057738281 
2183	 0.330251102646248 
2184	 0.330278028084103 
2185	 0.330271969611435 
2186	 0.330285497138967 
2187	 0.330255315609331 
2188	 0.33022191757229 
2189	 0.330155588130005 
2190	 0.330019956643263 
2191	 0.329913193748596 
2192	 0.329853407260051 
2193	 0.32970210438398 
2194	 0.329502394503946 
2195	 0.329321802949736 
2196	 0.32910317172425 
2197	 0.328834716133741 
2198	 0.328667853144441 
2199	 0.328399965402581 
2200	 0.328076602865042 
2201	 0.327686040600575 
2202	 0.327296264953509 
2203	 0.326807257959491 
2204	 0.326433107271214 
2205	 0.326090501280783 
2206	 0.325753025072115 
2207	 0.325463997840896 
2208	 0.325178161935231 
2209	 0.324956557248976 
2210	 0.324605314072889 
2211	 0.324254195658666 
2212	 0.323815673607301 
2213	 0.323188251976841 
2214	 0.322659729185994 
2215	 0.322046675795461 
2216	 0.321613601829821 
2217	 0.321358524323524 
2218	 0.321023212491622 
2219	 0.32077037419633 
2220	 0.320494255629966 
2221	 0.320159171521126 
2222	 0.319793411706214 
2223	 0.319582351759567 
2224	 0.319335713688428 
2225	 0.318978578977538 
2226	 0.318768629246905 
2227	 0.318412364868065 
2228	 0.317998418863993 
2229	 0.317533115832737 
2230	 0.316981163510122 
2231	 0.316443112593904 
2232	 0.315952190892853 
2233	 0.31523306954693 
2234	 0.314510562501418 
2235	 0.313512857852222 
2236	 0.312205688630883 
2237	 0.310929997882446 
2238	 0.309508198602033 
2239	 0.308055966344141 
2240	 0.306587373996255 
2241	 0.304966830265258 
2242	 0.303306972495367 
2243	 0.301433131275455 
2244	 0.299344015846859 
2245	 0.297220409436611 
2246	 0.294806302130152 
2247	 0.29252204115269 
2248	 0.290281267041047 
2249	 0.287987757749793 
2250	 0.285732156587266 
2251	 0.283479523438883 
2252	 0.280834489807709 
2253	 0.278409690328369 
2254	 0.275869232858629 
2255	 0.273140475679804 
2256	 0.270809775676997 
2257	 0.268403641377683 
2258	 0.266044410971264 
2259	 0.263803836944366 
2260	 0.261457315868316 
2261	 0.258977190350572 
2262	 0.256772378118164 
2263	 0.254638017536374 
2264	 0.252556636426494 
2265	 0.250704407700105 
2266	 0.248732367222284 
2267	 0.246729602917275 
2268	 0.244757585655202 
2269	 0.242778337388751 
2270	 0.240865661565067 
2271	 0.238947866190679 
2272	 0.237102880708183 
2273	 0.2353824285142 
2274	 0.233629736878485 
2275	 0.231917569687628 
2276	 0.230156508387137 
2277	 0.228430535167987 
2278	 0.22663007675957 
2279	 0.22471090696376 
2280	 0.222847242569651 
2281	 0.221005416085905 
2282	 0.219064299239107 
2283	 0.217018146240752 
2284	 0.215185658161264 
2285	 0.21306762538876 
2286	 0.211018300791336 
2287	 0.208925189210507 
2288	 0.206616149485398 
2289	 0.204440559808414 
2290	 0.202240765768 
2291	 0.200249254799977 
2292	 0.198242244790774 
2293	 0.195968236658306 
2294	 0.193795463698537 
2295	 0.191661247986253 
2296	 0.189703123934148 
2297	 0.188060252762691 
2298	 0.186811141594927 
2299	 0.185579954383293 
2300	 0.184460829902978 
2301	 0.183680019289169 
2302	 0.183068072413195 
2303	 0.182801078889281 
2304	 0.182946779470731 
2305	 0.183170841412266 
2306	 0.18373636532121 
2307	 0.18428982098656 
2308	 0.184886294138127 
2309	 0.185770615640218 
2310	 0.186753636712622 
2311	 0.188000131559275 
2312	 0.189637363452311 
2313	 0.191263967657391 
2314	 0.193057625147584 
2315	 0.194921077330246 
2316	 0.196944333365549 
2317	 0.198930158461897 
2318	 0.201168585069827 
2319	 0.203037307832587 
2320	 0.204876355287124 
2321	 0.206340776671118 
2322	 0.207455699955139 
2323	 0.208395468358912 
2324	 0.209022708647054 
2325	 0.209534205158673 
2326	 0.209851003241259 
2327	 0.210009085244811 
2328	 0.209930662635394 
2329	 0.209824506432429 
2330	 0.20968283398345 
2331	 0.209209309255668 
2332	 0.208646379049898 
2333	 0.207914900722187 
2334	 0.206702985139282 
2335	 0.205451409472834 
2336	 0.204314811952233 
2337	 0.203031680674702 
2338	 0.201742511988025 
2339	 0.200439848390239 
2340	 0.199124245560593 
2341	 0.19793887694563 
2342	 0.196762881204617 
2343	 0.195681373612077 
2344	 0.194573770109351 
2345	 0.193623080580404 
2346	 0.19338921423502 
2347	 0.19362220341517 
2348	 0.193934430247706 
2349	 0.194442850406305 
2350	 0.195056385169755 
2351	 0.195708386776806 
2352	 0.196673300704948 
2353	 0.198037770120293 
2354	 0.199266497775077 
2355	 0.20050923091638 
2356	 0.201657030404195 
2357	 0.202558689378654 
2358	 0.203768457790204 
2359	 0.204706612110559 
2360	 0.205296584791091 
2361	 0.205770818358897 
2362	 0.205954226722314 
2363	 0.205929035420675 
2364	 0.205807321823509 
2365	 0.205581304867613 
2366	 0.205347017585925 
2367	 0.205352158035145 
2368	 0.205513630097657 
2369	 0.205729418242288 
2370	 0.205639865273924 
2371	 0.205275806050591 
2372	 0.205198169323366 
2373	 0.205261356831225 
2374	 0.205221011585238 
2375	 0.205184940971908 
2376	 0.204980062595898 
2377	 0.204761617810726 
2378	 0.204678190970402 
2379	 0.204566527036204 
2380	 0.20445785669752 
2381	 0.204207796552172 
2382	 0.204054524860823 
2383	 0.203998469037902 
2384	 0.203924541195412 
2385	 0.203778676530149 
2386	 0.203774769951044 
2387	 0.20377428548916 
2388	 0.203896210617555 
2389	 0.20438183270445 
2390	 0.204474688303491 
2391	 0.204390007712548 
2392	 0.204371195555948 
2393	 0.204040685721711 
2394	 0.204008633810996 
2395	 0.204340547119247 
2396	 0.20450311114184 
2397	 0.204731856035055 
2398	 0.204634737156007 
2399	 0.204332898186094 
2400	 0.204086567553305 
2401	 0.203469909194443 
2402	 0.203415796079163 
2403	 0.203319999900301 
2404	 0.203497823271961 
2405	 0.204137674564555 
2406	 0.204385590540601 
2407	 0.203983944941126 
2408	 0.203196262339788 
2409	 0.202667589062217 
2410	 0.202207076504065 
2411	 0.202262380384344 
2412	 0.202966233012492 
2413	 0.203341756071274 
2414	 0.203728564386498 
2415	 0.204016053128233 
2416	 0.204020642411392 
2417	 0.203489796223811 
2418	 0.202854764128526 
2419	 0.202842345354616 
2420	 0.202338212886181 
2421	 0.202012191389894 
2422	 0.202486189730402 
2423	 0.202590339788285 
2424	 0.202752181398531 
2425	 0.203205380604553 
2426	 0.203198837311216 
2427	 0.203103164772834 
2428	 0.202662469774766 
2429	 0.202058944190116 
2430	 0.201832525340745 
2431	 0.201335756545103 
2432	 0.201816396075814 
2433	 0.202765567609447 
2434	 0.202521723329626 
2435	 0.202425469386621 
2436	 0.202116729887368 
2437	 0.201212149845826 
2438	 0.201309093650185 
2439	 0.201631874537225 
2440	 0.201453697506994 
2441	 0.201507306644122 
2442	 0.201319074765424 
2443	 0.201040227385457 
2444	 0.201186517162319 
2445	 0.201251313024187 
2446	 0.201059840723981 
2447	 0.200794537758105 
2448	 0.200483591561923 
2449	 0.200029568399792 
2450	 0.199910382651165 
2451	 0.200255443482577 
2452	 0.200270035212812 
2453	 0.200130784395006 
2454	 0.199810145386014 
2455	 0.199168296598416 
2456	 0.198541534535873 
2457	 0.197823112037109 
2458	 0.197192007281157 
2459	 0.196526470318552 
2460	 0.195731128648984 
2461	 0.195640901844164 
2462	 0.196138666486436 
2463	 0.195647828149142 
2464	 0.195231103516394 
2465	 0.195385782650726 
2466	 0.194951607815568 
2467	 0.195157169627623 
2468	 0.195695014932831 
2469	 0.195566322206384 
2470	 0.195434607333018 
2471	 0.195524424015266 
2472	 0.195473059359593 
2473	 0.195497329725089 
2474	 0.194791083659833 
2475	 0.194094514076009 
2476	 0.194594186094269 
2477	 0.193972451100338 
2478	 0.193503991272555 
2479	 0.194006406947704 
2480	 0.192942591547079 
2481	 0.193097538074734 
2482	 0.194162807225402 
2483	 0.194042354896425 
2484	 0.194354078011718 
2485	 0.193921997908008 
2486	 0.193455905151923 
2487	 0.193717117335789 
2488	 0.193925537698911 
2489	 0.19429331683333 
2490	 0.19541254477717 
2491	 0.196555185378738 
2492	 0.1970260960682 
2493	 0.197812282839612 
2494	 0.198958446889805 
2495	 0.199538958731627 
2496	 0.200054335436826 
2497	 0.199775535800446 
2498	 0.199239781990495 
2499	 0.198669371706234 
2500	 0.198267258184682 
